
Integration time [ms]:   0,040
Averaging Nr. [scans]: 11
Smoothing Nr. [pixels]: 0
Data measured with spectrometer [name]: 7318044SP
Wave   ;Sample   ;Dark     ;Reference
[nm]   ;[counts] ;[counts] ;[counts] 

186,757;   15,613;   31,551;    1,318
187,357;   50,622;   22,551;    0,955
187,958;   26,321;   15,460;   -1,591
188,558;   60,611;    8,915;   -1,227
189,159;   34,988;    6,733;   -4,500
189,759;    2,411;    7,278;   -3,591
190,360;   -3,291;    2,824;   -2,136
190,960;   28,492;    2,915;   -4,136
191,560;   39,535;    3,189;   -6,591
192,161;  247,675;    4,372;   -3,500
192,761;  105,976;    4,010;   -3,227
193,361;   58,082;    1,556;   -3,773
193,962;  101,746;    2,010;   -2,682
194,562;   28,072;    1,189;   -3,955
195,162;   47,629;   -2,448;   -2,227
195,762;  161,615;   -3,176;   -0,045
196,362;  112,170;    1,370;   -2,500
196,963;   15,305;    2,006;   -0,864
197,563;   70,612;    1,551;   -0,955
198,163;   22,125;    0,096;   -0,682
198,763;   34,778;    1,733;   -0,500
199,363;   94,023;    3,096;   -0,500
199,963;   61,139;    0,369;    0,409
200,563;   45,635;    2,823;   -1,409
201,163;   30,678;    3,277;   -0,227
201,763;   74,765;    3,732;    0,318
202,363;   45,742;    1,459;    1,500
202,963;   85,997;    1,459;    1,045
203,563;  150,746;    0,277;    0,500
204,162;   59,840;    2,096;   -1,864
204,762;   58,875;    0,550;    0,591
205,362;   41,467;    3,004;    1,955
205,962;   93,132;    3,096;    1,955
206,562;   84,490;    1,823;    2,318
207,161;   64,853;   -0,087;    0,318
207,761;  170,430;    1,277;    2,409
208,361;   76,478;   -0,268;    1,409
208,960;  131,911;    0,459;    1,500
209,560;  151,423;    1,277;    1,591
210,160;  158,684;    0,550;    1,864
210,759;  129,070;    4,186;    1,227
211,359;  117,344;    1,459;    1,045
211,958;  299,959;    1,277;    2,045
212,558;  333,773;    1,732;    1,864
213,157;  230,692;    1,822;    1,500
213,757;  504,349;    3,822;   -0,227
214,356;  288,912;    1,277;   -0,409
214,956;  502,585;    3,095;    0,409
215,555;  255,171;    2,095;    2,136
216,154;  201,565;   -2,723;   -0,591
216,754;  199,654;    0,277;    0,773
217,353;  260,789;   -0,268;   -1,045
217,952;  148,339;   -0,178;    0,318
218,552;  322,794;    1,368;   -0,773
219,151;  239,016;    0,277;    0,955
219,750;  234,002;    0,004;   -0,227
220,349;  221,677;   -0,451;    1,045
220,948;  349,688;   -1,360;    1,136
221,548;  255,789;    0,913;    1,227
222,147;  328,816;   -0,087;   -0,409
222,746;  534,958;   -0,451;   -0,955
223,345;  395,235;    0,731;    0,500
223,944;  393,189;   -0,451;    0,773
224,543;  432,361;    1,004;   -1,409
225,142;  479,857;    0,094;    0,136
225,741;  419,255;   -0,814;    1,045
226,340;  405,562;   -0,451;   -0,955
226,939;  617,814;   -0,996;   -0,136
227,538;  415,556;   -0,360;   -0,773
228,137;  597,323;   -0,814;    0,864
228,735;  527,958;   -0,541;    1,227
229,334;  368,775;   -0,905;   -0,227
229,933;  635,838;    0,459;    0,591
230,532;  679,374;    1,186;   -0,409
231,131;  754,216;    1,732;    0,318
231,729;  610,106;   -2,450;   -2,318
232,328;  507,892;   -0,723;   -1,500
232,927;  506,090;    1,004;   -0,500
233,525;  481,972;    3,640;    0,045
234,124;  568,616;    2,368;   -1,591
234,723;  460,168;    0,913;   -1,045
235,321;  473,241;    2,277;    0,136
235,920;  556,289;    1,186;   -1,227
236,518;  772,453;    3,459;    0,318
237,117;  594,941;    0,004;   -0,227
237,715;  614,382;    0,640;   -0,500
238,314;  707,740;   -0,087;   -2,318
238,912;  920,407;   -0,723;   -1,409
239,510;  775,949;    0,459;   -1,227
240,109;  955,568;    0,004;    3,773
240,707;  917,451;   -0,996;    1,227
241,305;  780,669;    0,550;    0,136
241,904;  980,760;   -0,178;   -2,045
242,502; 1126,762;   -0,632;   -0,227
243,100; 1027,198;   -0,087;   -0,955
243,698; 1048,002;    0,732;    1,682
244,297; 1146,412;   -0,632;    0,682
244,895; 1170,512;   -0,269;   -2,318
245,493; 1468,398;    2,186;   -0,591
246,091; 1468,274;    1,368;   -1,318
246,689; 1439,455;    1,004;    0,591
247,287; 1455,241;    0,822;   -1,136
247,885; 1586,076;   -1,451;    1,227
248,483; 1598,483;    1,822;   -0,500
249,081; 1699,424;    0,185;    1,591
249,679; 1837,542;   -0,178;    1,682
250,277; 1884,252;   -1,723;    0,864
250,875; 1997,290;   -1,087;   -1,045
251,473; 1989,245;   -1,178;    0,500
252,071; 2124,119;    1,459;    1,045
252,669; 2187,098;   -1,814;    0,318
253,267; 2275,762;   -0,087;    0,773
253,864; 2227,241;   -0,360;    0,682
254,462; 2427,346;    1,640;    1,591
255,060; 2295,342;   -0,269;    1,318
255,658; 2408,825;    0,822;   -0,136
256,255; 2692,513;    0,186;   -2,045
256,853; 2684,803;   -0,269;    1,409
257,451; 2680,033;    0,822;    1,864
258,048; 3167,211;    1,822;    1,864
258,646; 2790,436;    1,731;   -1,045
259,243; 2941,076;   -0,087;    2,227
259,841; 2959,978;   -0,814;    0,318
260,438; 2876,228;   -0,087;    0,864
261,036; 3221,716;   -1,905;    1,409
261,633; 3237,645;   -0,087;    2,227
262,231; 3129,035;    2,731;   -0,045
262,828; 3232,347;   -0,905;    1,136
263,425; 3260,300;    0,913;   -0,591
264,023; 3409,887;    0,186;    0,045
264,620; 3240,344;   -0,360;   -0,318
265,217; 3459,190;   -2,087;    3,136
265,815; 3442,513;   -1,905;    2,136
266,412; 3462,555;    0,731;    0,136
267,009; 3486,305;   -1,451;    0,773
267,606; 3569,436;    0,822;   -0,955
268,203; 3442,659;   -0,269;   -0,591
268,801; 3615,855;    1,731;    0,591
269,398; 3757,109;   -0,360;    2,500
269,995; 3759,983;    0,277;    1,591
270,592; 3604,533;   -0,632;   -0,500
271,189; 3709,048;    0,186;    0,409
271,786; 3811,241;   -0,632;    1,227
272,383; 3840,536;   -1,087;    0,227
272,980; 3819,912;    0,277;    0,318
273,577; 4062,523;    0,004;    1,227
274,174; 3752,466;    0,822;    2,591
274,771; 3732,735;   -0,814;   -0,773
275,367; 4037,613;    2,277;    1,409
275,964; 3979,320;    0,731;   -0,500
276,561; 3970,828;    1,549;   -1,045
277,158; 4046,088;    0,095;   -1,773
277,755; 4262,515;    2,185;    0,409
278,351; 3853,435;   -0,451;   -1,500
278,948; 4081,029;   -0,815;    0,045
279,545; 4063,959;   -1,360;    2,318
280,141; 4616,757;   -1,723;   -2,045
280,738; 4445,188;   -0,451;   -0,136
281,334; 4495,836;   -1,633;    0,591
281,931; 4188,104;   -0,087;   -1,318
282,528; 4390,949;    0,822;   -0,500
283,124; 4908,982;   -1,087;   -0,500
283,721; 4842,192;   -0,451;    1,409
284,317; 4735,621;    0,185;    2,500
284,913; 5206,981;   -1,360;    0,591
285,510; 5485,527;    0,640;   -0,318
286,106; 5512,122;   -2,269;   -0,955
286,703; 5113,905;   -0,360;    1,955
287,299; 5358,250;   -1,451;   -0,591
287,895; 5581,101;    0,822;   -1,045
288,491; 6055,654;    0,186;    2,136
289,088; 5968,631;   -2,360;    2,409
289,684; 6029,280;   -1,723;    1,500
290,280; 6141,755;    0,368;    0,682
290,876; 6297,312;    1,822;    5,500
291,472; 6252,027;    1,276;    2,227
292,068; 6381,033;    1,367;    0,227
292,665; 6219,250;    2,095;    0,773
293,261; 6063,595;    0,276;    2,136
293,857; 6416,480;    2,913;    2,136
294,453; 6435,564;    3,550;    0,955
295,049; 6395,672;   -0,268;    1,955
295,644; 6506,391;    0,095;    0,136
296,240; 6496,256;   -0,905;   -0,136
296,836; 6637,602;   -0,995;    0,318
297,432; 6926,255;    1,096;   -0,500
298,028; 7029,589;    0,732;    0,773
298,624; 7334,605;    1,459;    1,864
299,220; 7585,476;    2,368;    0,591
299,815; 7333,001;    1,005;   -0,409
300,411; 7259,400;    0,914;    1,773
301,007; 7335,314;    1,368;    0,227
301,602; 7322,482;   -0,541;   -2,318
302,198; 7505,578;    0,732;   -0,773
302,794; 7851,261;    1,187;   -0,500
303,389; 7945,718;   -1,177;    1,045
303,985; 8039,235;    0,550;    1,409
304,580; 8024,988;    1,459;    1,591
305,176; 7985,005;   -3,086;    0,136
305,771; 7959,770;   -1,268;   -1,227
306,367; 7911,382;    4,095;    0,136
306,962; 8131,119;    0,641;    1,500
307,558; 7856,694;   -0,450;    0,136
308,153; 7795,006;    1,095;   -1,136
308,748; 7935,607;   -0,814;    1,682
309,344; 7926,049;   -0,632;   -1,318
309,939; 8022,436;   -1,905;   -1,318
310,534; 8225,106;   -0,086;   -1,682
311,130; 8100,396;    0,459;   -2,500
311,725; 7843,403;    1,004;   -0,500
312,320; 8120,181;    2,459;    0,045
312,915; 8028,198;    1,459;   -1,045
313,510; 8063,616;    1,550;   -0,500
314,105; 8419,226;    1,096;    1,409
314,700; 7840,414;   -3,086;   -1,045
315,295; 7580,533;   -0,904;    0,045
315,890; 7204,390;    1,277;    0,864
316,485; 7459,313;   -0,359;   -0,318
317,080; 7538,575;   -3,086;    1,591
317,675; 7970,636;    2,005;   -0,682
318,270; 7530,855;    5,550;    3,318
318,865; 7551,854;    3,278;    3,045
319,460; 7362,725;   -0,904;    0,591
320,055; 7502,817;   -0,541;   -1,227
320,650; 7240,600;   -1,995;   -0,591
321,244; 7267,184;   -0,177;   -1,409
321,839; 8024,598;   -1,541;   -0,227
322,434; 7856,544;   -1,086;   -1,591
323,029; 7583,981;    1,732;    1,591
323,623; 7460,971;    1,550;    0,773
324,218; 7325,884;    2,368;    1,409
324,812; 7253,353;    1,096;    1,591
325,407; 7116,088;   -0,814;    2,045
326,002; 7102,968;    0,277;   -0,409
326,596; 7385,775;    0,914;    1,318
327,191; 7521,964;    0,823;   -1,045
327,785; 7254,321;   -0,813;   -0,227
328,379; 7481,177;    1,368;    0,136
328,974; 7301,116;    0,914;   -3,955
329,568; 7595,657;    0,186;   -2,409
330,163; 7509,013;    2,096;    1,045
330,757; 7827,376;    2,459;    1,591
331,351; 7341,489;    0,459;    0,682
331,945; 7648,260;    0,914;    1,409
332,540; 7421,308;   -1,723;   -0,591
333,134; 7582,438;   -1,086;    0,773
333,728; 7799,732;    0,005;    0,318
334,322; 8154,478;   -1,177;   -0,864
334,916; 7559,507;    0,277;    0,955
335,510; 7935,700;   -0,450;   -0,136
336,105; 8201,146;   -1,086;    1,591
336,699; 7999,947;   -1,086;    0,591
337,293; 7992,566;   -1,723;    0,318
337,887; 8159,393;   -2,723;    1,955
338,481; 8299,610;    0,459;    0,591
339,074; 8518,961;   -0,359;    2,682
339,668; 8430,108;   -1,632;    1,227
340,262; 8724,015;    1,732;    3,227
340,856; 8303,394;    1,822;   -0,682
341,450; 7835,825;    1,004;    1,864
342,044; 8617,930;    1,459;    0,136
342,637; 8479,205;    0,913;   -2,136
343,231; 8403,458;   -2,360;    0,682
343,825; 8392,219;   -1,086;   -0,591
344,419; 8411,083;   -1,995;    0,500
345,012; 8337,561;    2,459;    4,045
345,606; 8350,708;    4,641;    1,591
346,199; 8203,092;   -1,813;   -0,227
346,793; 7851,875;    1,914;    2,045
347,386; 8064,685;   -0,813;   -1,136
347,980; 8058,896;   -0,268;   -0,045
348,573; 7921,307;    2,278;    0,409
349,167; 7704,081;    5,278;    4,773
349,760; 8008,658;    2,914;    2,682
350,354; 7995,651;   -0,813;    1,136
350,947; 7758,062;    1,096;    1,682
351,540; 7485,000;   -0,358;   -1,409
352,134; 7474,052;    1,096;    1,136
352,727; 7548,165;   -0,086;    1,136
353,320; 7379,542;    0,005;    0,591
353,913; 7186,031;   -1,995;    1,864
354,507; 7363,399;    0,823;   -1,227
355,100; 7405,031;    0,460;    0,864
355,693; 6772,274;    2,005;    2,409
356,286; 6752,052;    0,823;    2,773
356,879; 7074,569;   -0,722;    1,227
357,472; 6699,238;   -0,904;    1,500
358,065; 6917,922;   -0,722;    2,500
358,658; 6839,932;   -0,540;    2,318
359,251; 6508,479;   -1,631;   -0,591
359,844; 6078,011;   -1,904;   -1,136
360,437; 6253,638;   -2,995;    0,045
361,030; 6441,994;    1,369;   -0,682
361,623; 6086,185;    2,824;    0,318
362,215; 6114,678;   -0,086;    2,045
362,808; 5957,864;   -2,358;   -1,682
363,401; 6104,420;   -2,449;    0,136
363,994; 5930,928;   -0,631;   -1,500
364,586; 5818,299;    0,824;   -1,500
365,179; 5962,588;   -0,449;   -1,136
365,772; 5521,430;   -1,995;    2,045
366,364; 5741,263;    1,915;   -3,227
366,957; 5948,135;    2,279;   -0,045
367,549; 5891,702;    2,188;   -0,864
368,142; 5603,954;    1,825;   -1,500
368,734; 5757,036;    0,734;   -2,136
369,327; 5699,203;    1,643;   -0,500
369,919; 5642,055;   -1,538;    0,409
370,512; 5510,592;   -1,083;   -0,500
371,104; 5290,675;   -0,901;    1,591
371,696; 5432,442;    1,191;   -0,955
372,289; 5479,543;    0,373;    1,136
372,881; 5586,240;   -2,080;    1,318
373,473; 5491,984;   -2,170;    1,136
374,066; 5328,027;   -0,169;    0,500
374,658; 5227,208;    0,378;    1,136
375,250; 5476,399;    0,653;   -1,409
375,842; 5350,202;    0,473;   -0,045
376,434; 5210,380;   -0,435;   -0,409
377,026; 5710,440;    0,204;   -2,500
377,618; 5605,540;   -0,158;   -0,682
378,210; 5451,753;   -0,338;   -1,955
378,802; 5313,687;    0,754;   -0,591
379,394; 5323,612;    1,846;    0,682
379,986; 5793,685;    1,393;   -0,955
380,578; 5815,723;   -0,153;    0,773
381,170; 5312,013;   -0,972;    0,045
381,762; 5257,389;    0,755;    1,409
382,354; 5368,444;   -0,065;   -1,318
382,945; 5485,077;   -2,976;    0,318
383,537; 5597,059;   -2,705;   -1,955
384,129; 5623,643;   -2,160;   -1,136
384,721; 5739,021;   -0,252;    0,955
385,312; 5664,901;   -0,161;   -0,955
385,904; 5770,210;   -2,706;    1,591
386,496; 5206,638;   -0,979;    1,045
387,087; 5345,043;    1,022;    2,500
387,679; 5361,929;   -1,160;    0,045
388,270; 5478,820;    2,840;    2,045
388,862; 5569,227;    1,295;   -0,318
389,453; 5410,492;   -0,887;    1,045
390,045; 5649,734;   -0,705;   -2,682
390,636; 5610,318;    0,204;   -0,591
391,227; 5488,618;   -0,523;   -0,045
391,819; 5596,177;    0,204;    0,773
392,410; 5641,348;    1,022;    0,045
393,001; 5594,071;   -0,979;   -1,591
393,593; 5783,932;    1,930;   -0,045
394,184; 5676,073;    1,385;   -0,409
394,775; 5580,195;    1,839;    2,136
395,366; 5758,954;    1,385;    0,773
395,957; 5705,289;    0,113;    0,136
396,548; 5964,491;   -0,342;    2,682
397,139; 6264,005;   -2,433;    0,591
397,730; 6008,831;   -1,888;    0,955
398,321; 6042,941;   -1,252;    0,955
398,912; 6036,796;   -0,615;    0,136
399,503; 6151,007;   -3,524;   -1,409
400,094; 5662,687;    0,294;    1,682
400,685; 5547,877;   -0,433;    0,045
401,276; 5606,780;    0,930;   -0,955
401,867; 5825,523;   -0,888;    0,773
402,458; 5898,384;   -2,251;   -2,318
403,048; 5896,892;    1,112;    0,591
403,639; 5538,140;    0,840;    0,864
404,230; 5809,560;    2,476;    0,318
404,821; 5743,734;   -0,615;    0,045
405,411; 5848,143;    1,203;   -2,591
406,002; 5475,924;   -1,252;   -1,136
406,592; 5375,398;    2,294;    0,045
407,183; 5551,001;    0,566;   -1,500
407,774; 5459,051;    3,475;   -0,136
408,364; 5695,922;    0,930;    0,409
408,954; 5401,173;    0,384;    1,227
409,545; 5400,080;    1,021;    1,045
410,135; 4962,466;    1,293;    0,500
410,726; 5035,536;    1,838;    0,318
411,316; 5333,750;    0,111;    0,773
411,906; 5014,252;   -0,253;   -0,409
412,497; 4613,435;   -1,070;   -0,045
413,087; 5053,134;   -1,980;   -0,227
413,677; 5293,749;   -0,707;    3,864
414,267; 5112,806;    0,656;    1,409
414,857; 5032,265;   -2,980;    4,227
415,448; 5202,987;    0,839;    0,500
416,038; 4945,931;    0,020;   -0,591
416,628; 4862,201;   -0,889;    0,409
417,218; 4489,272;    0,565;    3,318
417,808; 4632,095;    0,202;   -0,409
418,398; 4822,127;    0,020;    2,682
418,988; 4754,009;    2,020;    0,591
419,578; 4844,177;   -0,707;    1,409
420,168; 5024,527;   -1,343;   -0,955
420,757; 4690,381;   -1,343;   -1,500
421,347; 4366,936;    0,111;   -0,227
421,937; 4413,691;    2,292;    1,409
422,527; 4379,611;    0,838;   -0,773
423,116; 4218,793;   -0,253;   -0,045
423,706; 4363,682;   -1,889;    0,318
424,296; 4232,771;    1,384;    0,682
424,885; 4521,135;   -0,071;   -3,045
425,475; 4612,601;    1,474;   -2,864
426,065; 4479,812;   -0,980;   -0,318
426,654; 4206,270;   -0,435;   -0,318
427,244; 4310,453;    0,020;    1,409
427,833; 3920,266;    1,383;   -0,500
428,423; 4064,412;   -0,526;    1,136
429,012; 4476,161;   -0,344;   -1,136
429,601; 4129,475;   -1,344;    0,136
430,191; 4172,394;    1,292;    4,318
430,780; 3829,019;   -0,344;   -0,409
431,369; 3897,658;    0,746;   -0,045
431,959; 4167,693;   -1,254;    0,500
432,548; 3902,907;   -1,163;   -0,045
433,137; 3884,281;   -1,254;   -1,318
433,726; 4191,728;    0,292;    0,500
434,315; 3779,886;   -0,526;    2,409
434,905; 3804,313;   -1,254;    1,409
435,494; 3757,236;    0,746;    0,955
436,083; 3834,792;   -0,981;   -0,955
436,672; 3677,893;    0,110;    0,500
437,261; 3474,698;    0,292;   -1,955
437,850; 3627,114;    1,383;    0,682
438,439; 3521,295;    3,291;    1,955
439,027; 3435,028;    3,655;    1,773
439,616; 3511,802;    2,927;    1,227
440,205; 3207,575;    0,200;   -2,136
440,794; 3053,533;    2,109;   -0,045
441,383; 3067,432;   -1,346;   -0,591
441,971; 2867,429;   -2,436;    0,591
442,560; 2726,751;    0,563;   -1,773
443,149; 2503,098;    0,379;   -1,318
443,737; 2590,024;   -0,074;   -2,318
444,326; 2625,845;    0,018;    0,318
444,915; 2591,508;   -1,982;    0,864
445,503; 2630,953;   -2,891;   -0,318
446,092; 2593,505;    0,382;    2,136
446,680; 2653,153;    0,382;    0,318
447,269; 2601,312;   -0,346;   -0,318
447,857; 2399,692;    0,018;   -1,773
448,445; 2384,364;    0,563;    1,318
449,034; 2391,663;   -1,528;   -1,136
449,622; 2316,391;   -1,073;    3,500
450,210; 2469,607;    2,017;    2,227
450,799; 2457,612;    0,290;   -0,591
451,387; 2234,922;    1,381;   -0,591
451,975; 2131,913;    2,654;    0,864
452,563; 2284,323;    3,472;    2,318
453,151; 2003,437;   -0,528;   -1,227
453,739; 1956,076;   -1,347;    0,136
454,328; 2098,671;    2,381;   -2,136
454,916; 1894,987;    2,562;   -0,136
455,504; 1888,642;    1,017;    1,227
456,092; 1819,753;    0,017;   -1,591
456,679; 1681,179;    1,472;    0,682
457,267; 2291,650;    4,017;    1,045
457,855; 1822,993;    1,017;    1,409
458,443; 1504,285;   -0,165;    1,682
459,031; 1872,545;    0,108;    2,409
459,619; 1819,595;   -1,801;    2,864
460,206; 1634,451;    0,835;    2,045
460,794; 1670,584;   -2,983;   -0,227
461,382; 1758,275;   -0,529;   -0,864
461,970; 1599,941;    1,198;    1,864
462,557; 1557,606;   -0,711;   -0,682
463,145; 1746,021;   -3,165;   -1,682
463,732; 2000,047;    2,016;   -1,045
464,320; 1674,279;   -0,075;   -3,045
464,907; 1816,423;    2,743;   -0,773
465,495; 1654,339;    0,743;   -1,227
466,082; 1515,579;   -1,984;   -0,045
466,670; 1448,401;   -2,529;    1,227
467,257; 1420,409;   -1,711;    2,045
467,844; 1580,356;   -0,075;    0,045
468,432; 1545,299;    0,834;    3,500
469,019; 1392,199;    0,925;   -1,773
469,606; 1485,065;    0,470;    3,682
470,193; 1511,791;   -1,439;    0,227
470,780; 1437,464;   -2,075;    0,864
471,368; 1328,600;   -1,257;   -0,773
471,955; 1429,866;    1,379;   -0,682
472,542; 1282,644;    0,652;   -1,136
473,129; 1104,840;   -0,166;    0,136
473,716; 1054,985;    1,470;    0,591
474,303; 1091,623;    0,652;   -0,864
474,890; 1101,055;   -1,439;   -0,500
475,477; 1235,580;   -1,621;    0,409
476,064; 1057,240;    1,106;   -1,591
476,650; 1170,037;    0,288;    0,318
477,237; 1034,674;   -0,258;    0,955
477,824;  974,618;   -1,076;    0,864
478,411;  800,251;   -1,894;   -0,318
478,997;  786,724;    0,560;   -0,773
479,584;  665,899;    1,196;   -0,409
480,171; 1049,981;   -0,440;   -0,773
480,757; 1127,397;    2,651;    0,773
481,344;  890,134;    0,469;    0,409
481,931;  662,077;    1,105;    1,045
482,517;  959,141;   -1,258;    0,318
483,104; 1078,323;    1,106;    2,864
483,690;  882,508;   -1,804;    0,045
484,276;  811,374;   -0,895;    0,227
484,863; 1166,636;    2,469;    1,136
485,449;  900,479;   -0,077;    0,318
486,035;  789,695;   -1,986;   -0,136
486,622;  987,224;   -0,895;    0,045
487,208;  821,841;    1,378;    1,500
487,794;  679,977;    0,741;    0,318
488,380;  690,529;    0,105;   -1,409
488,967;  704,651;   -1,168;   -0,409
489,553;  724,305;   -1,895;   -1,409
490,139;  883,913;    1,559;    0,773
490,725;  705,917;    0,741;   -0,227
491,311;  770,246;    3,287;    3,045
491,897;  666,430;   -0,986;    1,500
492,483;  708,921;    0,105;    1,227
493,069; 1512,584;    3,923;    0,864
493,655; 1020,357;    1,650;    0,682
494,241;  837,777;    1,377;   -0,955
494,826;  946,123;    0,287;   -1,045
495,412; 1053,062;    2,559;   -0,682
495,998;  958,194;   -0,805;   -0,318
496,584; 1094,760;    0,377;    1,045
497,169; 1099,556;    1,014;   -0,682
497,755; 1030,918;    0,650;    1,227
498,341; 1493,464;    0,559;    0,318
498,926; 1695,174;    1,832;    1,955
499,512; 1444,449;    1,286;    2,955
500,097; 1432,059;    0,195;   -0,318
500,683; 1585,594;   -0,350;    2,136
501,268; 1765,263;   -0,169;   -0,955
501,854; 1932,787;   -0,169;    1,227
502,439; 2010,810;   -0,624;   -1,773
503,024; 2257,400;    0,195;    0,500
503,610; 2494,337;   -0,078;   -0,682
504,195; 2600,649;    0,558;    1,955
504,780; 2961,630;    2,922;    1,227
505,366; 3265,716;    3,013;    2,864
505,951; 3310,708;    0,740;    1,045
506,536; 3602,916;   -3,260;   -3,682
507,121; 3850,210;    0,285;   -0,318
507,706; 4415,212;    2,376;    1,045
508,291; 4842,073;    2,649;    1,136
508,876; 4857,784;   -0,988;    2,591
509,461; 4875,676;   -0,169;   -0,773
510,046; 5524,431;    0,194;    0,318
510,631; 5989,144;   -0,351;   -0,773
511,216; 6085,761;    2,467;   -0,500
511,801; 6721,251;   -0,442;    2,591
512,386; 7189,484;    0,740;    0,500
512,971; 7475,415;   -2,988;    0,955
513,555; 7484,460;   -0,897;   -1,500
514,140; 8416,406;   -0,442;   -3,136
514,725; 8693,764;   -0,715;   -1,136
515,309; 9102,123;   -0,533;    0,318
515,894; 8976,910;   -0,624;   -2,227
516,479; 9590,554;   -0,624;   -0,955
517,063; 9648,547;    0,376;    1,227
517,648;10036,187;    1,012;   -1,136
518,232; 9884,893;   -0,261;   -1,409
518,817;10434,046;   -0,079;    1,682
519,401;10820,010;    2,194;    0,591
519,985;10562,731;    1,103;    1,136
520,570;10642,140;    0,830;   -1,955
521,154;11057,938;    2,102;    0,591
521,738;11327,415;   -2,352;    2,409
522,323;12032,025;   -0,170;    1,682
522,907;11868,655;    0,466;   -0,136
523,491;11797,294;    0,557;    0,955
524,075;11882,447;    2,284;    0,591
524,659;12027,191;    1,466;    0,591
525,243;11574,588;    1,739;    0,409
525,827;11905,690;    0,648;   -0,045
526,411;12785,827;   -1,989;   -0,136
526,995;13071,896;   -0,352;    1,409
527,579;12736,380;   -0,443;   -1,045
528,163;13063,696;    0,375;   -1,500
528,747;13040,056;    2,466;   -0,773
529,331;13410,718;   -0,080;   -1,409
529,915;13667,364;    1,738;    0,955
530,499;13661,607;   -0,807;    1,227
531,082;13392,469;   -0,534;    1,591
531,666;12910,202;    1,374;    0,773
532,250;13570,754;    1,284;    2,682
532,833;13910,622;    0,920;    2,773
533,417;13824,927;   -1,807;    0,864
534,001;13797,427;    1,647;   -0,318
534,584;14502,656;    0,374;    0,500
535,168;14371,200;    0,465;    1,409
535,751;14431,051;    0,647;    0,045
536,334;13877,786;   -0,898;   -0,409
536,918;14462,905;    0,011;    1,591
537,501;14593,643;   -0,899;    1,318
538,085;14605,649;   -0,444;    1,045
538,668;14796,256;    0,829;    2,409
539,251;15087,955;    1,829;    3,773
539,834;15131,133;    0,101;    0,773
540,418;15040,004;   -1,990;    4,318
541,001;15149,058;   -0,990;    1,773
541,584;15157,883;    2,101;    2,227
542,167;14857,402;    1,374;    2,955
542,750;14993,530;    1,919;   -0,773
543,333;14615,799;    0,555;    2,136
543,916;15423,176;    0,192;    2,500
544,499;16040,335;   -1,354;    0,227
545,082;16065,125;    1,374;    3,591
545,665;16175,149;    1,919;    1,500
546,248;16514,799;    1,010;   -0,318
546,830;16205,855;   -0,445;    1,955
547,413;16587,298;    1,010;   -0,773
547,996;17132,641;    0,555;    0,500
548,579;16899,897;    0,919;    0,955
549,161;16706,596;    1,828;    2,682
549,744;16527,034;   -0,809;    0,409
550,326;16998,490;   -0,809;   -1,136
550,909;16747,470;    2,737;    0,591
551,492;17172,030;   -0,263;    0,227
552,074;16950,325;   -0,173;   -1,318
552,657;17493,387;    2,373;    0,045
553,239;17238,754;   -0,173;   -0,773
553,821;17207,011;   -1,082;    1,045
554,404;16739,537;    1,282;    1,136
554,986;17096,183;    0,464;    1,045
555,568;17685,005;    1,191;   -0,955
556,151;16922,885;    1,191;   -0,227
556,733;17095,906;   -0,264;   -0,864
557,315;17530,659;    0,100;    0,500
557,897;17364,534;    0,554;   -0,500
558,479;17491,658;   -1,991;    1,318
559,061;17663,591;   -0,719;   -0,864
559,643;17975,094;   -0,264;    0,045
560,225;18323,341;    1,645;    2,864
560,807;18333,912;    0,918;    0,318
561,389;17872,705;    0,554;    2,318
561,971;18614,644;    0,463;    2,136
562,553;18380,713;   -1,628;    1,591
563,135;18495,377;   -0,537;    1,136
563,717;18085,982;    3,372;    1,136
564,298;18838,839;    3,645;   -0,045
564,880;18529,752;    0,645;   -1,409
565,462;18685,025;    0,645;    1,318
566,043;19833,483;   -0,446;    2,318
566,625;19376,574;    1,918;    1,227
567,207;19225,679;    1,099;    1,682
567,788;20329,956;   -1,264;    1,500
568,370;21125,490;    1,917;   -0,500
568,951;20877,658;    0,190;    0,227
569,533;21720,229;   -0,628;   -0,500
570,114;22219,158;   -0,446;    0,682
570,695;22698,098;   -0,174;   -1,318
571,277;23104,926;   -0,265;   -1,682
571,858;23798,312;    2,008;   -1,136
572,439;24711,635;    1,554;   -1,045
573,021;24864,617;    2,099;   -2,773
573,602;25333,788;   -1,265;    0,318
574,183;26223,041;   -2,083;    2,227
574,764;26360,008;   -1,629;    0,409
575,345;26875,744;    0,917;   -0,136
575,926;27507,633;   -0,356;    0,136
576,507;27450,878;    1,099;   -0,227
577,088;28531,757;    3,099;    1,682
577,669;28508,378;    0,735;    1,955
578,250;29178,222;    0,644;   -1,045
578,831;29799,037;   -1,356;   -2,227
579,412;30061,349;   -0,810;    0,955
579,993;31015,684;    1,008;    0,227
580,573;31372,897;   -0,629;   -0,955
581,154;30336,682;    0,735;   -0,591
581,735;31123,619;    0,644;    0,773
582,315;30681,801;   -0,629;    2,136
582,896;31036,098;   -0,174;    1,227
583,477;30528,027;    0,189;    1,227
584,057;30685,653;    0,553;    0,955
584,638;30987,684;    2,553;    2,318
585,218;30890,379;   -0,538;    2,682
585,799;31136,767;    0,281;   -0,227
586,379;31168,211;    0,372;    1,591
586,959;29985,283;    0,735;    0,318
587,540;29358,216;   -0,629;    2,227
588,120;28846,178;    1,007;   -0,045
588,700;27914,099;    2,553;    2,136
589,281;28148,200;    0,462;   -0,955
589,861;28064,690;    0,099;   -1,682
590,441;27967,020;    2,371;   -2,682
591,021;26964,411;   -0,265;   -2,591
591,601;27218,145;   -0,537;    0,500
592,181;27218,354;   -0,719;   -0,773
592,761;26532,741;    0,007;    1,409
593,341;26419,616;   -0,901;    0,045
593,921;26423,181;   -0,265;    1,591
594,501;26361,223;   -0,538;    1,318
595,081;26164,482;    0,917;   -0,318
595,661;26528,915;   -1,447;    0,955
596,240;27071,358;   -0,537;    0,136
596,820;26634,009;    0,372;    1,955
597,400;26815,307;    2,008;    0,773
597,980;26995,382;    2,008;    1,045
598,559;27109,850;    2,735;   -0,227
599,139;26797,400;   -0,174;   -1,227
599,718;26710,218;   -0,174;   -0,409
600,298;26979,062;    0,735;    0,682
600,877;27196,202;    2,917;    1,409
601,457;27453,036;    2,281;    1,136
602,036;27340,599;    0,190;    2,045
602,616;27556,108;    0,644;    1,682
603,195;27878,217;   -0,355;    3,500
603,774;27391,828;   -0,901;    2,045
604,354;27306,617;    0,826;   -0,500
604,933;26840,234;    0,463;    1,864
605,512;26973,952;    3,554;    0,591
606,091;27009,999;   -0,537;    3,773
606,671;27846,915;    0,281;    0,773
607,250;26909,553;    1,644;    3,136
607,829;27152,989;    2,372;    3,227
608,408;27058,512;    1,190;    2,591
608,987;26129,851;    1,281;    3,409
609,566;26387,643;   -1,265;   -2,500
610,145;26471,642;   -1,082;    0,682
610,723;26872,039;    4,372;    6,864
611,302;26157,753;   -0,446;    1,682
611,881;25689,305;    5,008;   11,227
612,460;26494,095;    1,645;    3,955
613,039;26867,473;   -0,082;    2,045
613,617;25695,569;    1,736;    4,773
614,196;25897,307;    1,099;    1,227
614,775;26242,805;    1,009;    2,409
615,353;26184,129;    0,736;    0,864
615,932;25927,919;    0,100;    2,409
616,510;26494,713;    0,554;    0,591
617,089;25990,254;    7,100;   17,591
617,667;25756,192;    2,372;    6,136
618,246;25693,668;   -1,537;    1,318
618,824;25804,095;   -3,355;   -0,955
619,402;25382,369;   -2,900;   -1,773
619,981;25854,631;   -0,173;   -1,045
620,559;25751,320;    0,009;    1,682
621,137;25286,386;   -0,718;    1,864
621,715;25291,238;   -1,173;   -0,682
622,293;25257,172;   -0,537;   -0,773
622,871;25665,750;   -0,718;    0,500
623,450;25255,459;    0,373;   -0,864
624,028;25194,168;    0,191;   -0,955
624,606;24802,827;   -1,718;    1,682
625,183;25216,694;   -1,536;   -1,136
625,761;24820,784;    1,009;    1,136
626,339;25130,073;    1,373;    2,591
626,917;25513,313;   -0,172;   -0,045
627,495;25564,709;   -0,354;    1,318
628,073;24990,455;   -0,263;    2,864
628,650;24678,262;    0,100;    2,136
629,228;25089,941;    0,373;    4,409
629,806;24495,354;    2,282;    1,136
630,383;24768,310;    1,464;   -0,318
630,961;24605,294;    2,555;   -0,955
631,539;24326,733;    2,464;    0,227
632,116;23676,749;   11,373;   15,409
632,694;24245,585;    2,555;    6,500
633,271;24552,771;    0,828;    2,682
633,848;24442,055;    1,828;    2,045
634,426;24492,460;   -1,081;    1,773
635,003;23667,037;    1,101;   -0,409
635,580;23995,852;    1,192;    3,682
636,158;24521,389;    3,737;    1,227
636,735;24499,620;    0,555;   -0,500
637,312;24648,392;   -0,809;   -0,682
637,889;24731,880;   -4,354;   -0,682
638,466;24217,120;   -3,990;   -0,409
639,043;24236,309;    2,101;   -1,136
639,620;24556,096;   -2,262;   -0,955
640,197;24801,329;    1,100;    1,682
640,774;25002,285;   -0,172;    1,136
641,351;25419,787;    0,737;    1,136
641,928;24820,289;   -0,627;    1,409
642,505;24444,427;    0,828;   -0,500
643,082;24587,656;   -1,718;    1,227
643,658;23637,794;   -0,718;    1,500
644,235;24392,659;    1,191;    2,500
644,812;24661,707;    1,918;    0,773
645,388;24417,118;   -0,991;    1,409
645,965;24543,074;   -0,809;    1,682
646,542;24613,394;   -1,445;   -0,227
647,118;24526,259;    1,009;   -0,955
647,695;24875,397;   -0,263;    1,136
648,271;24764,263;   -0,536;    0,500
648,848;25106,037;    0,736;    2,227
649,424;24919,812;    0,827;    1,318
650,000;24647,223;   -0,354;   -1,045
650,577;24462,270;   -0,627;   -0,955
651,153;24900,408;   -1,809;    0,955
651,729;25891,364;    1,191;    0,864
652,305;26018,048;    0,645;    2,773
652,881;29997,095;   -0,082;    1,136
653,458;36544,597;    1,100;    0,227
654,034;40372,917;    0,282;    1,591
654,610;41834,419;    0,554;    0,773
655,186;43170,284;    0,645;    3,045
655,762;42893,149;   -0,991;    0,409
656,338;42906,106;    0,100;    0,136
656,913;43880,153;   -0,082;    0,409
657,489;43201,291;    0,827;   -0,318
658,065;43153,520;   -0,173;   -1,591
658,641;43845,476;   -0,900;   -0,864
659,217;43170,342;   -0,991;    0,409
659,792;42566,207;    0,645;   -0,409
660,368;42822,436;   -2,173;   -0,682
660,944;42551,302;   -2,082;    1,227
661,519;38422,894;   -0,628;    0,409
662,095;32776,487;   -1,719;    0,591
662,670;28212,716;    1,281;   -0,136
663,246;26957,854;    1,009;   -0,409
663,821;26195,992;    0,281;    1,682
664,396;25673,312;    0,009;    1,864
664,972;25964,269;    0,009;   -0,500
665,547;26278,134;    1,372;    0,136
666,122;26246,545;   -1,082;    0,318
666,698;26497,137;   -0,173;    0,318
667,273;25885,912;   -0,173;    0,136
667,848;26752,959;    2,372;    1,500
668,423;26539,279;    2,190;    2,318
668,998;27040,781;    2,827;   -0,682
669,573;27530,737;   -3,264;   -1,500
670,148;27402,512;   -1,446;   -0,682
670,723;27202,013;   -1,810;    0,318
671,298;27574,333;    2,372;    1,045
671,873;27730,017;   -0,082;   -0,136
672,448;27712,701;    0,645;    0,136
673,023;28072,657;   -1,992;   -0,227
673,597;28337,159;    0,827;    2,318
674,172;28115,933;   -0,355;    0,318
674,747;27579,344;    0,372;   -1,045
675,321;27446,391;   -0,628;    3,318
675,896;27068,984;    0,645;    1,045
676,471;28092,486;    2,645;    1,591
677,045;27807,442;   -1,264;    0,682
677,620;27846,126;    0,190;    1,136
678,194;28199,082;   -2,628;    1,136
678,769;27687,129;   -1,083;   -0,318
679,343;27953,176;   -0,628;    1,773
679,917;27859,042;   -1,446;    1,955
680,492;27943,089;    0,826;    3,227
681,066;28118,045;    3,372;    0,409
681,640;28084,547;    1,463;   -0,318
682,214;28888,685;    0,735;    0,500
682,788;28459,005;   -1,356;   -0,773
683,363;28323,689;   -1,810;    1,682
683,937;28051,281;   -1,719;   -0,318
684,511;28800,783;    0,463;   -0,591
685,085;28489,376;   -1,356;    0,318
685,659;28324,968;   -2,538;    0,864
686,232;28591,288;   -0,356;   -0,318
686,806;28303,608;   -0,901;    0,409
687,380;28909,656;   -0,174;    0,591
687,954;29162,339;   -1,174;    1,136
688,528;28822,023;   -0,719;    1,955
689,101;29632,979;   -3,992;    1,045
689,675;29182,935;   -0,356;   -0,136
690,249;28551,346;   -0,719;    0,409
690,822;28818,212;    0,280;    0,318
691,396;28948,986;   -0,265;    1,227
691,969;28429,670;    1,280;    0,136
692,543;28920,535;   -0,447;   -1,955
693,116;28560,764;   -0,265;   -1,409
693,690;28446,902;    0,099;    0,500
694,263;28972,859;   -1,083;    2,955
694,836;29033,542;    1,371;    3,591
695,410;27721,226;   -0,265;    1,773
695,983;28166,637;    0,189;    0,591
696,556;28127,411;   -0,447;   -1,045
697,129;28507,549;   -0,356;    1,409
697,703;28133,415;   -1,629;    1,955
698,276;28132,735;    1,462;   -0,773
698,849;27921,691;    1,280;    1,409
699,422;28270,738;   -1,083;    0,591
699,995;27991,149;    0,007;    0,136
700,568;28446,196;   -0,629;    3,045
701,140;28524,698;   -2,811;    1,682
701,713;28244,200;   -0,174;    2,409
702,286;28043,247;   -0,538;    0,864
702,859;27919,294;   -0,902;   -0,591
703,432;27063,978;    0,825;    0,682
704,004;27538,025;    0,462;    0,318
704,577;27412,709;   -0,629;    0,136
705,150;27975,392;    0,189;    2,500
705,722;27817,621;   -0,356;   -3,227
706,295;27577,578;   -0,175;   -0,591
706,867;27389,897;   -0,175;    1,955
707,440;27609,490;   -1,720;   -0,409
708,012;27874,174;    0,462;    0,591
708,584;27833,130;    2,462;    0,227
709,157;28147,268;    1,825;   -0,591
709,729;27771,406;    2,280;    2,045
710,301;28611,090;    0,734;    0,045
710,874;28594,046;   -1,447;   -0,227
711,446;27463,366;    0,371;    0,864
712,018;27346,777;    0,098;    0,500
712,590;27105,824;   -1,993;    1,682
713,162;27632,053;    0,825;    1,318
713,734;27963,282;    1,825;   -2,045
714,306;27862,420;   -1,902;   -0,409
714,878;26547,013;    0,825;    0,864
715,450;27390,697;    0,643;    0,864
716,022;27645,562;    1,552;    1,318
716,593;27786,791;    0,189;    0,591
717,165;27690,838;   -3,175;   -1,227
717,737;27374,886;    0,280;    0,409
718,309;27023,478;    0,280;   -0,045
718,880;27036,526;   -0,539;   -1,409
719,452;27263,482;   -0,175;   -1,591
720,024;26818,984;    0,734;   -0,591
720,595;27388,485;   -2,902;    0,955
721,167;26942,623;    0,370;   -2,045
721,738;26417,580;   -0,812;   -1,045
722,309;26433,354;   -0,993;   -1,227
722,881;26179,129;   -1,357;    0,773
723,452;26840,812;   -2,630;    2,864
724,023;27015,223;   -0,721;    2,682
724,595;26776,089;    0,007;    0,682
725,166;26582,136;    0,007;   -0,409
725,737;26170,365;    1,734;    0,227
726,308;26335,594;   -0,266;    0,318
726,879;26743,550;   -1,630;    1,227
727,450;26591,597;    0,552;   -0,045
728,021;26561,645;    3,097;    0,682
728,592;26337,056;    0,734;    0,500
729,163;26632,648;    0,643;   -0,136
729,734;26665,877;    0,188;   -0,227
730,305;27039,834;    1,734;    0,136
730,876;27364,244;    0,188;    2,955
731,447;27033,746;    2,188;    2,682
732,017;27109,066;    1,097;    1,864
732,588;26650,204;    0,734;    1,227
733,159;26859,615;    0,643;   -1,045
733,729;26688,299;    0,006;    0,409
734,300;25976,528;    0,915;    0,864
734,870;26364,848;    3,461;    0,591
735,441;26941,531;    0,370;   -0,591
736,011;26671,488;    0,643;   -1,591
736,582;26661,262;   -0,812;    0,045
737,152;26147,764;   -1,721;   -2,045
737,722;26541,175;   -0,267;   -0,682
738,293;26277,858;   -1,358;    1,318
738,863;26196,269;    2,461;    2,318
739,433;26007,498;    5,279;    0,318
740,003;26617,455;   -0,994;   -0,682
740,573;26026,411;    2,097;   -1,591
741,143;25998,640;   -1,085;    0,318
741,713;26766,142;    1,188;   -0,500
742,283;26449,825;    0,915;    1,591
742,853;26287,236;    1,915;    1,591
743,423;25709,011;    1,733;    0,045
743,993;25843,967;   -0,358;    1,500
744,563;25207,196;    0,097;   -0,864
745,133;25187,607;   -0,812;   -0,864
745,702;25856,745;   -0,267;    1,773
746,272;25029,610;   -0,176;    0,591
746,842;24802,294;   -1,358;   -0,591
747,411;25324,614;   -0,267;   -0,318
747,981;25481,570;    0,097;    0,500
748,551;25543,617;    2,278;   -1,045
749,120;25341,028;    0,642;   -0,227
749,690;25749,348;   -0,631;    2,409
750,259;26087,305;    1,369;    2,955
750,828;26000,352;    1,551;   -1,955
751,398;26285,763;    1,278;   -0,045
751,967;25728,264;    2,187;    0,409
752,536;25928,493;   -0,813;   -0,227
753,105;26374,813;    0,096;    0,227
753,675;26189,770;    0,096;    1,773
754,244;26104,362;   -0,904;    3,591
754,813;26125,410;    0,551;    1,227
755,382;25769,911;    0,460;    0,955
755,951;26291,504;    1,551;    3,682
756,520;25825,551;   -0,085;    1,864
757,089;26353,508;    0,278;    0,500
757,658;26505,100;    1,733;    1,227
758,227;26519,602;    1,096;    0,318
758,795;26838,104;    1,187;    1,136
759,364;27079,333;   -0,086;   -0,591
759,933;26091,925;   -1,176;   -0,045
760,501;25585,518;    0,733;   -1,318
761,070;26093,838;   -2,813;   -1,409
761,639;26745,794;   -1,904;    1,318
762,207;26060,114;    1,551;   -0,955
762,776;26041,525;    0,369;    0,864
763,344;25975,482;   -0,995;    0,591
763,913;25151,711;   -0,722;    1,409
764,481;25912,667;    1,005;   -0,136
765,049;25686,169;   -1,358;    1,409
765,618;25520,216;   -0,086;    0,318
766,186;25628,718;    0,278;    0,136
766,754;25752,038;    0,005;    1,864
767,322;24847,721;   -1,995;    0,409
767,890;24881,223;   -0,722;   -1,773
768,459;25230,725;   -2,177;   -0,318
769,027;25411,772;    1,641;    3,409
769,595;24403,183;    3,278;    2,591
770,163;24855,866;    3,823;    2,955
770,730;24647,914;    0,732;   -0,136
771,298;24484,324;    0,187;   -1,409
771,866;24599,553;   -1,541;    4,955
772,434;24909,419;   -0,631;   -1,864
773,002;25110,375;    0,005;    0,682
773,569;24725,786;    0,914;    1,682
774,137;24533,742;   -0,268;   -0,045
774,705;25310,517;    0,278;   -0,136
775,272;24821,837;    0,641;    0,682
775,840;24575,793;   -0,177;    2,682
776,407;24100,931;    0,277;    1,955
776,975;23744,524;   -0,632;    0,318
777,542;24729,026;   -1,086;   -0,045
778,110;24566,527;   -1,268;   -0,045
778,677;24311,938;   -2,359;   -0,864
779,244;24028,440;    2,186;    1,045
779,812;24105,305;    1,823;    0,864
780,379;23999,989;    0,005;    1,136
780,946;24283,491;    1,005;   -0,773
781,513;24621,811;   -1,450;    0,318
782,080;23911,585;   -0,086;    2,864
782,647;24650,087;   -0,268;    3,045
783,214;24227,043;   -0,177;    3,864
783,781;23848,636;   -0,723;   -0,682
784,348;23772,229;   -0,632;    1,500
784,915;24251,458;   -3,177;    0,318
785,482;23980,141;    1,368;    2,591
786,049;24394,552;    0,186;   -0,591
786,615;24554,327;    0,277;   -0,955
787,182;24298,828;    0,186;   -0,682
787,749;23905,148;   -2,814;    1,409
788,315;23228,014;   -1,632;   -0,409
788,882;23591,788;    1,550;   -1,227
789,448;24290,563;    1,732;   -0,955
790,015;24309,428;    1,095;    3,227
790,581;23867,294;    1,459;    0,227
791,148;23770,614;    0,641;    1,045
791,714;24015,388;   -0,541;    3,136
792,280;23667,526;    0,186;    1,591
792,847;23259,755;    0,550;    2,500
793,413;23826,257;   -0,269;   -0,318
793,979;23312,213;    3,459;   -1,318
794,545;23386,170;    4,459;    2,682
795,111;22785,399;    2,186;    1,318
795,678;23009,719;    0,731;   -1,682
796,244;22648,766;    3,368;    0,136
796,810;23179,540;    1,731;    0,773
797,375;22943,769;    0,549;   -2,136
797,941;22972,726;   -0,541;    0,591
798,507;23060,591;   -0,451;   -0,955
799,073;22677,275;   -0,360;    0,591
799,639;22727,322;   -2,632;    3,136
800,205;22773,460;    0,095;    2,682
800,770;22322,416;    0,640;    1,773
801,336;22461,464;    1,368;   -0,955
801,901;22118,874;    4,549;    3,136
802,467;22645,285;   -0,542;    2,045
803,033;22003,605;   -0,087;    0,864
803,598;22249,562;    1,913;   -1,045
804,163;22291,063;    1,095;   -0,318
804,729;22252,110;   -0,178;    1,136
805,294;22683,521;    0,822;    2,227
805,859;22409,569;    0,731;   -0,409
806,425;21871,070;    1,186;    2,682
806,990;21542,481;    2,186;    4,318
807,555;22047,892;   -1,451;    2,591
808,120;21910,121;    0,822;   -0,409
808,685;21978,987;    0,185;   -2,500
809,250;21489,943;    0,004;   -0,500
809,815;21838,808;    1,913;    0,682
810,380;22340,037;   -0,269;    1,591
810,945;22854,539;   -1,087;    2,045
811,510;22025,768;    2,094;    1,591
812,075;21771,815;   -0,633;   -1,409
812,640;21809,226;    2,003;    1,409
813,204;21827,455;    0,822;   -0,227
813,769;22323,230;    2,094;   -0,045
814,334;21762,459;    0,458;    0,864
814,898;21847,597;    0,367;    0,591
815,463;21675,008;    1,276;   -0,773
816,027;21621,600;   -0,724;   -2,318
816,592;21790,557;    0,640;   -2,045
817,156;21271,331;    2,094;    1,136
817,721;21137,288;    4,276;    2,318
818,285;21072,335;    2,912;    1,500
818,849;21675,200;   -1,451;    1,682
819,414;21624,338;   -0,269;    2,955
819,978;21207,476;   -1,269;    1,773
820,542;21750,615;    2,003;    0,500
821,106;21491,753;   -0,815;    0,682
821,670;21590,073;   -0,815;    2,591
822,234;21355,029;   -0,270;    1,409
822,798;20730,258;    0,003;    0,500
823,362;20685,669;   -0,633;    4,227
823,926;20024,625;    0,094;    1,136
824,490;20228,491;   -0,997;   -0,682
825,054;20630,810;   -0,088;   -1,136
825,618;20233,585;   -1,542;   -1,500
826,181;20218,632;    0,458;   -1,318
826,745;20162,679;    1,367;   -1,045
827,309;20489,818;    1,185;    1,318
827,872;19908,228;    1,367;    0,955
828,436;20864,548;    1,185;   -0,773
828,999;20906,323;   -0,997;    1,227
829,563;19731,916;   -0,179;    1,136
830,126;19578,235;   -0,179;   -0,591
830,690;19569,646;   -1,997;    2,864
831,253;19149,512;   -0,543;    2,227
831,816;19216,286;   -1,906;    0,500
832,380;19148,515;    0,185;    0,864
832,943;19350,744;   -1,361;   -0,500
833,506;18873,337;    2,639;   -1,227
834,069;19630,748;    3,912;   -0,955
834,632;19716,068;    1,730;    1,318
835,195;19621,842;    1,003;    0,955
835,758;18790,617;   -0,997;    1,955
836,321;18678,937;    0,730;   -1,045
836,884;18796,893;   -0,725;   -0,955
837,447;18832,122;   -2,816;    1,773
838,010;19083,624;    0,366;    3,227
838,573;19369,489;   -1,179;    0,773
839,135;19308,627;   -1,361;   -0,955
839,698;18783,584;    1,275;    0,409
840,261;18331,540;    1,003;   -0,227
840,823;18179,314;   -0,543;    0,864
841,386;18489,725;   -0,452;   -2,409
841,948;18329,136;   -1,361;    1,773
842,511;18096,274;    0,912;    1,682
843,073;18213,412;    1,912;    0,227
843,636;18052,278;   -0,361;   -0,227
844,198;17912,598;    0,911;    0,591
844,760;18037,918;    1,093;    1,955
845,322;17768,056;    0,548;    1,136
845,885;18140,376;    0,730;    0,591
846,447;18562,332;   -1,998;    0,227
847,009;18167,561;    1,911;   -0,682
847,571;18530,881;    0,820;   -2,045
848,133;18583,928;   -1,089;   -1,864
848,695;18410,521;   -0,543;    1,409
849,257;17995,932;   -1,089;   -1,682
849,819;18150,161;   -0,998;   -0,409
850,381;18198,845;   -0,725;   -0,864
850,942;18583,164;    1,093;   -0,591
851,504;18518,575;    1,184;    0,227
852,066;18558,441;    1,275;   -1,591
852,628;18085,033;   -0,180;    1,955
853,189;17641,262;    1,638;    2,682
853,751;17757,128;   -0,907;    1,409
854,312;17535,539;   -0,453;   -1,682
854,874;18063,768;   -2,089;   -0,773
855,435;18571,179;   -0,907;   -1,682
855,997;18686,135;   -1,816;   -0,136
856,558;18023,728;    0,366;    1,773
857,119;18144,593;    0,820;    2,864
857,681;17825,913;    0,002;    0,318
858,242;17870,778;    1,911;   -2,136
858,803;18289,098;    0,456;   -0,773
859,364;18851,873;    0,184;   -4,773
859,925;18188,738;   -2,453;   -0,955
860,486;18131,422;   -0,453;   -0,955
861,047;17868,196;   -0,544;   -1,227
861,608;17698,244;   -1,089;   -0,773
862,169;17811,109;    0,638;   -0,045
862,730;17572,156;    0,456;    1,409
863,291;17812,385;   -0,635;   -0,500
863,852;18126,432;   -0,635;    1,955
864,412;17622,571;   -0,271;   -0,864
864,973;16262,436;   -0,089;    0,500
865,534;16129,665;   -1,726;    0,227
866,094;17564,530;    1,820;    0,227
866,655;17256,487;    1,274;    3,318
867,215;17534,170;    0,274;    0,136
867,776;17388,945;    0,547;   -0,136
868,336;17502,719;   -1,453;    0,136
868,897;16940,857;    2,638;    1,682
869,457;16707,632;    1,365;    0,318
870,017;16945,043;    0,547;   -1,227
870,578;17425,363;   -0,817;    0,773
871,138;17086,864;   -2,089;   -0,955
871,698;16659,730;   -0,817;   -1,318
872,258;16516,323;   -0,453;   -2,864
872,818;16924,915;    2,729;    0,045
873,378;16864,326;    0,638;    1,045
873,938;16465,737;    0,547;    0,500
874,498;16807,511;    0,274;   -1,955
875,058;16681,286;    2,183;    1,773
875,618;16488,424;    1,910;   -2,682
876,177;16459,199;    1,274;    0,136
876,737;16071,337;   -0,090;    1,955
877,297;16080,202;    0,183;    1,955
877,856;16101,067;   -0,362;    0,318
878,416;16062,660;    1,183;   -0,136
878,976;16258,162;   -1,817;    0,409
879,535;16437,027;    0,092;    3,136
880,095;16203,165;   -0,544;    0,045
880,654;16302,031;   -1,090;    1,318
881,213;16389,714;    2,456;    1,500
881,773;16036,853;    2,637;    2,682
882,332;16369,900;    3,365;    5,136
882,891;16220,220;    3,092;    2,136
883,451;16667,358;   -1,272;    1,682
884,010;16142,951;   -2,908;   -0,409
884,569;16214,634;   -0,999;   -0,045
885,128;16361,954;    2,819;   -1,864
885,687;16418,547;    4,455;    0,682
886,246;16088,867;    1,455;    2,136
886,805;15899,278;    2,455;    2,045
887,364;16177,325;   -0,999;   -0,500
887,922;16547,827;   -1,181;    0,045
888,481;16064,237;   -1,545;    0,591
889,040;16313,285;    1,183;    2,136
889,599;17002,968;    2,455;    1,409
890,157;17073,561;    1,455;    2,409
890,716;16734,154;   -0,090;    0,227
891,274;16541,292;    0,092;   -1,136
891,833;17039,612;    1,546;    0,864
892,391;16891,113;   -0,454;    0,500
892,950;16962,161;    1,819;   -0,773
893,508;17341,299;    0,455;   -0,409
894,067;16669,710;    0,637;    0,136
894,625;16575,302;   -0,636;   -1,500
895,183;16835,986;   -0,363;   -0,682
895,741;16678,760;    1,728;   -1,773
896,299;16517,353;   -0,545;   -2,409
896,858;16664,673;    0,819;   -1,591
897,416;16788,175;    2,728;   -1,318
897,974;16582,404;    1,819;    0,318
898,532;16727,906;    6,091;    2,682
899,089;16651,680;    2,091;   -0,682
899,647;16717,182;   -1,454;    1,318
900,205;16421,502;    1,182;    1,045
900,763;16618,640;   -0,454;    0,227
901,321;16611,142;    2,364;   -1,409
901,878;16082,643;   -1,000;   -0,773
902,436;15932,418;   -1,363;    1,318
902,994;16318,920;    4,728;    3,682
903,551;15765,421;    0,728;    0,409
904,109;16153,469;    0,182;   -1,409
904,666;15748,152;    2,455;    1,045
905,224;15594,018;    0,182;   -0,409
905,781;15328,156;    0,727;   -0,318
906,338;15419,294;   -1,363;    1,045
906,895;15372,341;    0,637;    2,045
907,453;15281,116;    1,727;    1,136
908,010;15293,163;   -0,909;    0,409
908,567;14989,846;    1,273;    0,591
909,124;14502,530;    0,364;   -1,500
909,681;14563,941;   -2,909;    0,682
910,238;14717,534;    0,636;   -1,318
910,795;15077,399;   -0,273;   -1,136
911,352;14717,581;   -2,909;   -2,682
911,909;14105,126;   -1,364;   -0,864
912,466;14596,126;   -3,182;    1,500
913,022;14136,308;   -1,636;    0,500
913,579;14468,035;   -0,909;    2,045
914,136;14199,763;    1,636;    0,955
914,692;14528,217;    0,091;   -1,227
915,249;14096,490;    1,455;    0,409
915,806;14323,763;    0,182;    1,955
916,362;14098,581;    1,909;    1,864
916,918;13679,308;    2,000;    1,045
917,475;13641,399;   -1,182;    0,955
918,031;13735,581;    3,364;   -0,045
918,587;13212,308;   -0,909;   -0,318
919,144;13404,581;   -2,273;    0,227
919,700;13708,854;    1,727;    0,773
920,256;13280,490;    0,727;    0,045
920,812;12912,944;   -0,727;   -1,045
921,368;12951,399;   -1,727;   -1,045
921,924;12573,126;    0,182;   -0,136
922,480;12162,490;   -0,545;    1,227
923,036;12783,581;    1,273;    1,955
923,592;12698,944;    0,455;    0,318
924,148;12651,944;    0,455;   -0,955
924,704;11957,854;   -1,364;   -0,409
925,259;12249,672;   -0,273;    0,591
925,815;11997,490;    1,455;    0,500
926,371;11514,126;    2,909;    1,409
926,926;11429,944;    2,091;    0,591
927,482;11039,126;   -1,364;    0,773
928,037;10920,672;    0,909;    2,045
928,593;11196,672;    1,636;    1,045
929,148;11021,490;   -1,818;   -1,500
929,704;10542,399;   -1,455;   -0,500
930,259;10778,217;    0,091;   -0,136
930,814; 9854,308;   -0,818;    1,955
931,369; 9554,581;    1,091;   -0,773
931,925; 9445,581;   -0,091;    0,136
932,480; 9320,490;   -2,818;   -2,591
933,035; 9214,035;    0,545;   -0,318
933,590; 8999,035;    0,364;   -1,773
934,145; 8667,854;   -1,364;   -0,318
934,700; 8995,490;    0,455;   -0,591
935,255; 8793,126;   -0,091;    0,045
935,809; 8088,035;    3,182;    0,864
936,364; 7250,854;   -0,455;   -0,136
936,919; 7230,581;    0,455;   -1,773
937,474; 7119,126;    1,455;    0,136
938,028; 6880,308;   -1,636;    1,136
938,583; 6368,399;    1,818;    4,682
939,138; 6656,672;    2,091;    2,136
939,692; 6126,035;    1,636;   -1,136
940,247; 5815,581;   -0,727;   -1,045
940,801; 5368,490;   -0,636;    0,227
941,355; 5273,581;   -0,364;    2,591
941,910; 4943,944;   -0,273;   -2,136
942,464; 5040,944;   -0,818;   -0,318
943,018; 4830,944;    1,000;   -0,227
943,572; 4788,854;    2,545;   -0,682
944,126; 4219,763;    0,091;   -0,409
944,681; 4101,217;    3,091;    0,227
945,235; 4080,490;    1,000;   -0,591
945,789; 4037,944;    0,364;   -1,864
946,342; 4140,217;    0,455;   -0,591
946,896; 3938,217;   -2,273;    0,955
947,450; 3698,490;    1,545;   -0,227
948,004; 3894,944;    1,727;   -0,045
948,558; 3906,581;    0,273;   -0,864
949,111; 3835,944;   -0,273;   -0,318
949,665; 3871,672;    1,636;   -0,682
950,219; 3755,944;   -0,091;   -1,045
950,772; 3822,854;   -1,909;    1,864
951,326; 3712,217;    0,545;   -0,955
951,879; 3790,217;    0,727;   -2,318
952,433; 3842,944;    0,000;    2,227
952,986; 3692,581;    2,909;    0,682
953,539; 3635,944;   -0,273;    0,591
954,093; 3573,581;    0,545;   -1,318
954,646; 3687,672;    0,909;    1,318
955,199; 3496,581;    0,000;   -0,500
955,752; 3401,126;   -0,455;    1,773
956,305; 3355,490;   -0,091;    2,955
956,858; 3521,035;    0,818;   -0,318
957,411; 3691,581;   -0,545;    2,136
957,964; 3520,581;    1,364;    2,136
958,517; 3521,581;   -1,545;    3,136
959,070; 3336,763;   -0,455;    1,955
959,623; 3411,217;    1,091;    1,500
960,176; 3226,399;    1,727;    2,045
960,728; 3186,581;   -2,727;    0,773
961,281; 3242,672;    0,545;    0,500
961,834; 3293,944;   -0,909;    0,864
962,386; 3204,035;    1,727;    1,045
962,939; 3120,399;    0,364;   -0,318
963,491; 3256,944;    0,455;    1,136
964,043; 3143,490;    1,182;    2,409
964,596; 3244,763;   -1,000;    2,227
965,148; 3099,399;   -1,000;    1,773
965,700; 3024,399;    1,091;   -0,227
966,253; 3182,944;   -0,636;    0,318
966,805; 3027,035;   -2,273;    0,773
967,357; 3066,944;    1,091;   -1,500
967,909; 3012,035;    0,455;   -1,227
968,461; 3128,490;    0,545;    3,136
969,013; 3062,126;   -0,182;   -0,864
969,565; 3130,672;   -0,455;   -1,136
970,117; 3199,944;   -0,364;    1,045
970,669; 3035,763;    0,182;   -0,136
971,220; 2906,854;   -0,455;   -1,500
971,772; 2823,308;   -0,636;   -0,318
972,324; 2960,035;    0,091;   -0,500
972,876; 2900,126;    0,818;   -0,045
973,427; 3040,944;    1,909;   -1,045
973,979; 3023,399;   -0,727;   -2,500
974,530; 3056,763;    1,818;    1,318
975,082; 3059,581;   -0,545;    1,682
975,633; 2954,399;    1,091;    1,682
976,184; 3093,854;    0,909;    0,773
976,736; 2886,126;    0,091;    0,227
977,287; 2696,399;   -0,909;   -0,500
977,838; 2866,308;    0,909;   -0,318
978,389; 2939,581;   -1,000;   -0,500
978,940; 2817,581;    0,545;   -0,409
979,491; 2832,490;    0,091;   -0,500
980,042; 2793,308;    0,182;    3,045
980,593; 2861,217;   -2,545;    0,227
981,144; 2895,035;    2,545;   -0,500
981,695; 2858,308;    1,455;    1,500
982,246; 2830,581;   -0,273;    1,045
982,797; 2967,854;   -1,727;    0,682
983,347; 3083,944;    0,364;    0,591
983,898; 3249,126;    3,091;    0,409
984,449; 3080,854;    2,182;    0,773
984,999; 2985,217;    1,455;   -1,136
985,550; 2769,308;    0,182;   -0,318
986,100; 2805,944;   -0,455;   -0,318
986,651; 2850,490;   -0,818;    0,045
987,201; 2827,944;   -1,000;   -0,591
987,751; 2898,581;    0,818;    2,864
988,302; 2873,399;    2,636;    1,500
988,852; 2898,217;    0,455;   -1,136
989,402; 2964,399;    0,091;    0,682
989,952; 2871,763;   -2,182;    0,864
990,502; 2962,763;   -0,091;    0,682
991,052; 2916,581;   -0,727;    0,045
991,602; 2794,672;   -2,909;    1,318
992,152; 2805,490;    0,455;    0,682
992,702; 2790,035;    1,364;   -0,045
993,252; 2712,308;   -3,000;   -0,500
993,802; 2792,672;   -0,273;    1,318
994,352; 3003,126;   -1,545;    1,136
994,901; 3111,399;   -0,182;    3,227
995,451; 3028,490;   -0,182;    0,318
996,000; 3116,308;    1,636;    0,318
996,550; 2827,944;    2,273;    0,227
997,100; 2837,308;    1,273;   -0,045
997,649; 3107,490;    2,182;    0,955
998,198; 2751,672;    1,727;   -1,500
998,748; 2939,217;    1,091;   -2,318
999,297; 2870,035;   -0,818;   -0,409
999,846; 2936,399;    1,000;   -0,773
1000,395; 2964,035;   -0,818;    0,500
1000,945; 2907,035;    1,818;   -0,773
1001,494; 3003,217;    2,364;    0,682
1002,043; 2988,854;    4,636;    0,864
1002,592; 2860,581;   -1,091;    1,955
1003,141; 2979,308;   -0,455;   -0,682
1003,690; 2835,035;    1,727;    0,500
1004,238; 2917,126;    1,455;   -0,045
1004,787; 2567,672;    1,364;    1,227
1005,336; 2813,581;    0,364;    0,682
1005,885; 2945,035;    1,364;   -2,773
1006,433; 3085,308;    0,545;    0,955
1006,982; 3141,672;    0,455;    1,682
1007,531; 3057,399;   -1,818;   -0,227
1008,079; 3008,944;   -2,273;    0,500
1008,627; 3140,217;   -1,455;    0,409
1009,176; 2881,672;    0,000;   -1,955
1009,724; 2925,217;    1,091;    0,864
1010,273; 2974,944;    1,273;    0,500
1010,821; 3102,399;    0,091;    1,409
1011,369; 2845,944;   -1,364;    1,318
1011,917; 2821,399;   -1,364;   -0,591
1012,465; 3089,581;    1,273;   -1,591
1013,013; 3207,581;    2,091;   -1,682
1013,561; 3086,399;    0,455;   -0,773
1014,109; 3110,944;   -1,909;    1,682
1014,657; 2993,763;    0,364;    0,591
1015,205; 3129,944;    1,636;   -0,955
1015,753; 3166,672;   -0,545;   -1,409
1016,301; 3198,854;   -2,636;    3,045
1016,848; 3203,854;   -1,273;    0,409
1017,396; 3233,854;    2,545;    0,045
1017,944; 3387,308;    1,182;    1,864
1018,491; 3132,763;    0,273;    1,409
1019,039; 3281,126;    0,455;    0,591
1019,586; 3198,672;   -1,364;    1,682
1020,134; 3313,672;    0,455;    1,500
1020,681; 3318,944;    0,182;   -1,136
1021,228; 3330,035;    2,909;   -2,227
1021,776; 3172,126;    1,182;   -1,136
1022,323; 3372,763;    0,455;    0,773
1022,870; 3310,854;   -1,000;   -0,045
1023,417; 3210,490;    2,636;    1,864
1023,964; 3357,126;    2,636;    1,227
1024,511; 3195,126;    1,000;    0,773
1025,058; 2997,944;    3,182;   -0,045
1025,605; 3052,944;   -2,273;    3,136
1026,152; 3262,763;    1,727;   -0,591
1026,699; 2990,944;    1,818;    1,318
1027,245; 3161,035;   -0,091;    0,318
1027,792; 3387,672;   -1,000;    1,409
1028,339; 3251,581;    2,364;   -0,045
1028,885; 3106,672;    1,000;   -0,227
1029,432; 3055,490;   -0,091;    0,227
1029,978; 3116,308;   -1,000;   -1,591
1030,525; 3018,490;    1,000;    0,409
1031,071; 3276,308;   -1,364;    1,136
1031,618; 3372,854;    0,364;    1,682
1032,164; 3163,854;   -0,091;    3,045
1032,710; 3206,490;    1,636;   -1,500
1033,256; 3120,126;   -0,636;   -0,136
1033,803; 3097,944;   -0,545;    1,500
1034,349; 2846,126;   -1,364;    0,136
1034,895; 2988,944;    0,000;   -0,318
1035,441; 2967,854;   -0,818;    0,318
1035,987; 2983,217;   -2,364;   -0,682
1036,533; 2972,854;   -1,455;   -0,955
1037,078; 3165,672;    1,455;    1,682
1037,624; 2990,490;    2,455;   -0,955
1038,170; 3008,217;    0,455;   -0,318
1038,716; 2920,490;    1,636;   -0,409
1039,261; 2841,490;   -2,273;   -0,773
1039,807; 2790,490;   -0,091;    3,409
1040,352; 2841,126;   -1,909;   -0,318
1040,898; 2906,944;   -1,545;   -0,682
1041,443; 2804,490;   -1,455;   -2,591
1041,989; 2827,399;    1,091;    1,591
1042,534; 2705,217;   -0,364;    2,591
1043,079; 2815,944;    2,909;    0,955
1043,625; 2613,308;    1,818;    0,500
1044,170; 2656,763;   -1,364;    1,045
1044,715; 2898,035;    2,455;    0,955
1045,260; 2733,944;    2,182;   -0,955
1045,805; 2799,581;    1,182;   -0,591
1046,350; 2722,308;    1,364;   -0,409
1046,895; 2672,035;    2,909;    1,591
1047,440; 2622,490;    5,364;    0,409
1047,985; 2529,126;    2,818;   -0,955
1048,530; 2451,490;    1,545;    1,227
1049,074; 2510,672;    0,000;    0,318
1049,619; 2490,035;   -1,364;    1,955
1050,164; 2305,126;    0,455;    0,227
1050,708; 2327,581;   -0,455;    0,045
1051,253; 2693,763;    1,273;   -2,227
1051,797; 2414,854;    0,818;   -1,318
1052,342; 2431,217;   -1,182;    1,045
1052,886; 2421,944;    0,364;   -1,409
1053,430; 2302,217;   -1,364;    0,136
1053,975; 2333,035;   -0,818;   -0,318
1054,519; 2313,854;   -0,727;    3,227
1055,063; 2329,126;    0,909;    1,318
1055,607; 2208,581;   -0,182;    0,227
1056,151; 2227,217;    2,909;    1,682
1056,695; 2156,944;    2,273;   -1,136
1057,239; 2219,944;   -1,727;   -0,682
1057,783; 2226,581;    0,818;   -1,500
1058,327; 2159,308;    0,000;    1,409
1058,871; 2384,854;   -0,545;    1,318
1059,415; 2101,581;   -0,818;   -0,045
1059,958; 2349,854;    1,455;    2,591
1060,502; 2070,854;   -1,000;   -0,773
1061,046; 1985,490;    0,364;   -0,955
1061,589; 1973,944;   -3,000;   -1,136
1062,133; 1859,217;   -1,273;    1,864
1062,676; 1808,035;    1,182;    0,864
1063,220; 1795,399;    1,091;    0,500
1063,763; 1812,944;    0,909;    1,136
1064,306; 1896,944;   -0,909;    1,864
1064,849; 1786,308;   -0,909;    0,591
1065,393; 1795,399;    2,000;   -1,500
1065,936; 1918,763;    0,182;   -0,409
1066,479; 1803,854;   -1,455;    1,318
1067,022; 1810,581;   -0,273;   -0,227
1067,565; 1712,944;   -0,091;   -1,318
1068,108; 1743,581;    0,727;   -0,591
1068,651; 1706,399;   -0,636;    1,409
1069,194; 1651,217;   -0,455;   -1,682
1069,736; 1651,217;   -1,273;    0,955
1070,279; 1630,217;   -1,364;   -0,500
1070,822; 1671,854;   -2,000;   -0,318
1071,364; 1753,035;   -0,364;    1,318
1071,907; 1576,490;   -0,727;    3,227
1072,450; 1479,763;    0,000;   -0,045
1072,992; 1469,308;   -0,273;    3,136
1073,535; 1614,490;    2,091;    2,136
1074,077; 1406,308;   -0,727;    2,045
1074,619; 1380,672;   -1,364;    0,591
1075,161; 1409,854;   -1,091;    1,500
1075,704; 1585,399;    1,545;    1,227
1076,246; 1392,126;   -0,182;    0,682
1076,788; 1323,763;   -0,364;    1,773
1077,330; 1398,944;    1,273;    2,136
1077,872; 1360,217;    0,909;    0,955
1078,414; 1582,399;    2,727;    0,773
1078,956; 1317,854;    1,273;   -0,227
1079,498; 1561,308;    1,636;    0,318
1080,040; 1277,035;    1,909;   -1,318
1080,581; 1219,490;    1,636;   -0,318
1081,123; 1141,854;    0,091;   -0,773
1081,665; 1200,217;   -1,182;   -0,955
1082,206; 1498,217;    1,364;   -0,500
1082,748; 1347,217;    0,727;    2,045
1083,289; 1235,399;   -2,000;    1,318
1083,831; 1144,763;   -0,545;    0,227
1084,372; 1175,581;    0,000;    0,591
1084,913; 1158,854;    1,091;    0,864
1085,455; 1145,854;   -1,909;   -2,045
1085,996; 1112,581;   -2,273;    0,136
1086,537; 1137,126;   -0,091;    0,864
1087,078; 1168,217;   -0,909;   -2,136
1087,619; 1218,217;   -1,273;    0,227
1088,160; 1130,763;    0,000;    1,318
1088,701; 1107,854;   -1,091;    0,682
1089,242; 1057,035;    1,364;   -2,227
1089,783; 1145,217;   -0,273;    1,409
1090,324; 1109,581;    0,455;    0,682
1090,865;  992,854;    2,727;   -0,409
1091,405;  970,581;    0,727;    2,227
1091,946;  994,763;    0,182;   -0,955
1092,487;  932,581;    0,818;   -1,409
1093,027; 1087,490;   -1,364;   -1,500
1093,568;  939,944;   -0,364;    1,227
1094,108; 1028,763;    0,273;    1,773
1094,649;  988,308;   -1,182;    0,136
1095,189;  906,490;   -0,636;   -0,682
1095,729;  854,035;   -0,091;    0,955
1096,269;  868,308;    0,727;   -0,955
1096,810; 1168,126;   -1,364;    0,500
1097,350; 1002,126;    1,364;   -0,773
1097,890;  914,035;    0,364;    1,227
1098,430; 1157,126;    2,364;    2,864
1098,970; 1028,490;    2,182;    1,682
1099,510;  890,399;    0,545;   -2,318
1100,050;  815,581;    1,000;   -1,591
1100,589;  784,672;   -0,727;   -0,318
1101,129;  911,035;    0,818;   -0,955
1101,669; 1059,490;    1,727;    2,136
1102,209;  888,399;   -0,091;    2,227
1102,748;  840,217;    0,000;    0,955
1103,288;  831,399;    1,273;   -1,227
1103,827;  848,672;    3,091;   -2,227
1104,367;  741,035;   -0,091;   -2,409
1104,906;  709,581;    1,364;   -1,136
1105,445;  776,035;    0,636;   -1,136
1105,985;  711,581;   -0,727;    1,500
1106,524;  756,490;   -1,727;   -0,682
1107,063;  732,490;   -2,727;    1,409
1107,602;  716,035;   -1,909;   -1,500
1108,141;  637,308;   -1,909;    1,500
1108,680;  739,581;   -3,455;   -0,591
1109,219;  679,217;   -0,909;   -0,500
1109,758;  677,581;    0,455;    0,682
1110,297;  644,944;    1,000;   -0,682
1110,836;  595,035;   -0,727;    0,955
1111,375;  745,308;   -2,545;    0,409
1111,913;  762,763;   -1,000;    0,773
1112,452;  692,944;   -0,273;    0,136
1112,991;  587,672;    1,091;    1,955
1113,529;  537,217;   -0,818;   -0,045
1114,068;  606,035;   -0,273;    2,955
1114,606;  521,763;   -0,364;   -0,955
1115,144;  684,763;   -1,273;    1,045
1115,683;  615,126;   -0,727;    0,318
1116,221;  662,672;   -0,455;   -0,864
1116,759;  576,490;    0,636;   -0,864
1117,297;  768,672;    0,000;    1,864
1117,836;  580,672;   -2,182;   -1,227
1118,374;  588,126;    0,182;   -0,682
1118,912;  516,490;    0,909;    2,682
1119,450;  502,581;    1,000;    0,864
1119,988;  560,763;    1,545;    2,136
1120,525; 1017,854;    5,091;    3,318
1121,063;  715,217;    1,182;    1,864
1121,601;  522,035;   -0,909;   -1,227
1122,139;  480,854;   -0,727;   -2,045
1122,676;  673,944;   -0,727;    2,773
1123,214;  606,308;   -1,182;    4,409
1123,751;  422,126;    1,727;    2,227
1124,289;  566,490;   -0,091;   -0,409
1124,826;  427,854;    1,727;    0,227
1125,364;  352,399;    1,727;   -0,955
1125,901;  545,490;    1,182;    1,227
1126,438;  647,854;    0,818;    0,955
1126,975;  379,217;   -0,727;   -0,773
1127,513;  449,581;    0,273;    2,136
1128,050;  361,854;    1,636;   -0,682
1128,587;  449,944;    2,000;   -0,227
1129,124;  494,217;    0,091;    1,318
1129,661;  368,035;    0,273;    0,227
1130,198;  522,672;    1,636;    0,773
1130,734;  464,217;    0,182;    1,409
1131,271;  318,854;   -0,909;    0,864
1131,808;  501,944;    2,909;    3,045
1132,345;  369,126;    1,545;    0,318
1132,881;  244,854;   -1,545;   -1,864
1133,418;  387,581;    0,727;   -1,136
1133,954;  317,763;    2,455;   -2,682
1134,491;  396,035;    1,364;   -0,773
1135,027;  297,763;    2,364;    0,864
1135,564;  382,581;    0,273;    2,955
1136,100;  374,490;    0,364;    2,136
1136,636;  256,854;   -1,273;   -1,045
1137,172;  355,217;    0,000;   -1,045
1137,708;  279,399;   -1,364;   -1,045
1138,245;  282,126;    1,273;   -1,227
1138,781;  234,126;    1,091;   -3,318
1139,317;  300,399;    1,273;   -1,409
1139,852;  286,217;    3,091;    0,136
1140,388;  405,581;   -1,182;   -0,409
1140,924;  288,581;   -1,091;   -2,227
1141,460;  217,581;   -1,636;    0,136
1141,996;  166,035;   -1,364;    2,682
1142,531;  214,126;    1,364;    3,318
1143,067;  419,399;    1,182;    1,045
1143,602;  473,035;   -0,091;   -0,318
1144,138;  322,490;   -2,636;    1,045
1144,673;  194,126;   -1,455;    1,409
1145,209;  255,035;   -1,909;   -0,318
1145,744;  182,399;   -0,727;    0,864
1146,279;  310,035;    1,818;   -0,136
1146,815;  226,217;    1,545;   -2,682
1147,350;  270,490;   -1,364;    0,045
1147,885;  174,308;   -0,818;   -1,318
1148,420;  187,854;   -2,273;    0,773
1148,955;  174,217;   -1,727;    1,864
1149,490;  192,944;   -0,909;   -1,591
1150,025;  172,944;    0,455;   -1,773
1150,560;  283,581;    1,091;   -0,955
1151,094;  252,854;    1,455;   -0,591
1151,629;  264,035;    1,636;    0,864
1152,164;  184,581;    1,364;    1,318
1152,698;  146,035;   -0,182;   -0,136
1153,233;  102,581;    0,091;   -0,682
1153,767;  152,854;   -3,000;   -2,318
1154,302;  206,490;   -1,455;    1,773
1154,836;  197,126;   -0,455;   -2,136
1155,371;  255,854;   -1,364;    3,682
1155,905;  202,581;   -0,636;    1,682
1156,439;  173,035;   -0,636;   -0,500
1156,973;  207,126;    0,364;    0,318
1157,507;  144,217;   -0,364;    0,682
1158,042;  166,399;   -0,727;    1,045
1158,576;  209,308;    0,182;    1,773
1159,110;  203,035;   -0,818;    2,409
1159,643;  180,854;    0,636;   -0,045
1160,177;  116,399;   -1,545;    1,500

