
Integration time [ms]:   0,040
Averaging Nr. [scans]: 11
Smoothing Nr. [pixels]: 0
Data measured with spectrometer [name]: 7318044SP
Wave   ;Sample   ;Dark     ;Reference
[nm]   ;[counts] ;[counts] ;[counts] 

186,757;   23,207;   31,551;    1,318
187,357;   57,942;   22,551;    0,955
187,958;   27,187;   15,460;   -1,591
188,558;   68,932;    8,915;   -1,227
189,159;   36,490;    6,733;   -4,500
189,759;   11,640;    7,278;   -3,591
190,360;    5,664;    2,824;   -2,136
190,960;   47,263;    2,915;   -4,136
191,560;   52,939;    3,189;   -6,591
192,161;  271,616;    4,372;   -3,500
192,761;  123,182;    4,010;   -3,227
193,361;   78,106;    1,556;   -3,773
193,962;  126,593;    2,010;   -2,682
194,562;   53,020;    1,189;   -3,955
195,162;   76,854;   -2,448;   -2,227
195,762;  211,570;   -3,176;   -0,045
196,362;  156,671;    1,370;   -2,500
196,963;   58,080;    2,006;   -0,864
197,563;  112,751;    1,551;   -0,955
198,163;   64,266;    0,096;   -0,682
198,763;   76,100;    1,733;   -0,500
199,363;  166,436;    3,096;   -0,500
199,963;  131,008;    0,369;    0,409
200,563;  110,141;    2,823;   -1,409
201,163;   84,912;    3,277;   -0,227
201,763;  160,726;    3,732;    0,318
202,363;   98,794;    1,459;    1,500
202,963;  192,323;    1,459;    1,045
203,563;  286,344;    0,277;    0,500
204,162;  155,438;    2,096;   -1,864
204,762;  151,656;    0,550;    0,591
205,362;  117,157;    3,004;    1,955
205,962;  209,184;    3,096;    1,955
206,562;  205,180;    1,823;    2,318
207,161;  163,817;   -0,087;    0,318
207,761;  315,665;    1,277;    2,409
208,361;  207,986;   -0,268;    1,409
208,960;  287,146;    0,459;    1,500
209,560;  331,477;    1,277;    1,591
210,160;  326,465;    0,550;    1,864
210,759;  291,306;    4,186;    1,227
211,359;  292,762;    1,459;    1,045
211,958;  530,286;    1,277;    2,045
212,558;  593,099;    1,732;    1,864
213,157;  451,474;    1,822;    1,500
213,757;  842,222;    3,822;   -0,227
214,356;  563,785;    1,277;   -0,409
214,956;  866,457;    3,095;    0,409
215,555;  538,226;    2,095;    2,136
216,154;  466,620;   -2,723;   -0,591
216,754;  466,891;    0,277;    0,773
217,353;  573,934;   -0,268;   -1,045
217,952;  438,395;   -0,178;    0,318
218,552;  670,669;    1,368;   -0,773
219,151;  547,346;    0,277;    0,955
219,750;  542,059;    0,004;   -0,227
220,349;  602,279;   -0,451;    1,045
220,948;  712,836;   -1,360;    1,136
221,548;  665,300;    0,913;    1,227
222,147;  765,417;   -0,087;   -0,409
222,746; 1024,742;   -0,451;   -0,955
223,345;  878,019;    0,731;    0,500
223,944;  877,700;   -0,451;    0,773
224,543;  981,053;    1,004;   -1,409
225,142; 1091,369;    0,094;    0,136
225,741;  992,584;   -0,814;    1,045
226,340;  981,801;   -0,451;   -0,955
226,939; 1345,597;   -0,996;   -0,136
227,538; 1178,703;   -0,360;   -0,773
228,137; 1348,924;   -0,814;    0,864
228,735; 1347,014;   -0,541;    1,227
229,334; 1152,739;   -0,905;   -0,227
229,933; 1501,620;    0,459;    0,591
230,532; 1576,247;    1,186;   -0,409
231,131; 1655,998;    1,732;    0,318
231,729; 1618,616;   -2,450;   -2,318
232,328; 1582,038;   -0,723;   -1,500
232,927; 1593,508;    1,004;   -0,500
233,525; 1639,664;    3,640;    0,045
234,124; 1805,580;    2,368;   -1,591
234,723; 1770,405;    0,913;   -1,045
235,321; 1856,842;    2,277;    0,136
235,920; 1977,617;    1,186;   -1,227
236,518; 2198,418;    3,459;    0,318
237,117; 2218,361;    0,004;   -0,227
237,715; 2337,528;    0,640;   -0,500
238,314; 2411,522;   -0,087;   -2,318
238,912; 2564,825;   -0,723;   -1,409
239,510; 2542,731;    0,459;   -1,227
240,109; 2714,895;    0,004;    3,773
240,707; 2726,232;   -0,996;    1,227
241,305; 2940,269;    0,550;    0,136
241,904; 3136,723;   -0,178;   -2,045
242,502; 3199,726;   -0,632;   -0,227
243,100; 3159,981;   -0,087;   -0,955
243,698; 3347,511;    0,732;    1,682
244,297; 3495,013;   -0,632;    0,682
244,895; 3462,840;   -0,269;   -2,318
245,493; 3757,545;    2,186;   -0,591
246,091; 3797,057;    1,368;   -1,318
246,689; 3764,874;    1,004;    0,591
247,287; 3925,025;    0,822;   -1,136
247,885; 4182,223;   -1,451;    1,227
248,483; 4303,539;    1,822;   -0,500
249,081; 4409,663;    0,185;    1,591
249,679; 4580,054;   -0,178;    1,682
250,277; 4793,945;   -1,723;    0,864
250,875; 4792,436;   -1,087;   -1,045
251,473; 4834,302;   -1,178;    0,500
252,071; 5039,084;    1,459;    1,045
252,669; 5181,700;   -1,814;    0,318
253,267; 5385,274;   -0,087;    0,773
253,864; 5308,116;   -0,360;    0,682
254,462; 5324,675;    1,640;    1,591
255,060; 5246,217;   -0,269;    1,318
255,658; 5501,700;    0,822;   -0,136
256,255; 5907,751;    0,186;   -2,045
256,853; 5800,405;   -0,269;    1,409
257,451; 5782,271;    0,822;    1,864
258,048; 6081,176;    1,822;    1,864
258,646; 5836,129;    1,731;   -1,045
259,243; 6013,950;   -0,087;    2,227
259,841; 6067,216;   -0,814;    0,318
260,438; 6017,284;   -0,087;    0,864
261,036; 6616,226;   -1,905;    1,409
261,633; 6556,974;   -0,087;    2,227
262,231; 6317,637;    2,731;   -0,045
262,828; 6420,038;   -0,905;    1,136
263,425; 6468,083;    0,913;   -0,591
264,023; 6698,671;    0,186;    0,045
264,620; 6293,400;   -0,360;   -0,318
265,217; 6628,610;   -2,087;    3,136
265,815; 6735,298;   -1,905;    2,136
266,412; 6556,157;    0,731;    0,136
267,009; 6585,725;   -1,451;    0,773
267,606; 6529,311;    0,822;   -0,955
268,203; 6508,987;   -0,269;   -0,591
268,801; 6754,457;    1,731;    0,591
269,398; 7023,438;   -0,360;    2,500
269,995; 6980,402;    0,277;    1,591
270,592; 6783,043;   -0,632;   -0,500
271,189; 6949,105;    0,186;    0,409
271,786; 7076,024;   -0,632;    1,227
272,383; 6936,682;   -1,087;    0,227
272,980; 7089,605;    0,277;    0,318
273,577; 7501,214;    0,004;    1,227
274,174; 7097,794;    0,822;    2,591
274,771; 7041,245;   -0,814;   -0,773
275,367; 7223,668;    2,277;    1,409
275,964; 7194,376;    0,731;   -0,500
276,561; 7277,157;    1,549;   -1,045
277,158; 7492,963;    0,095;   -1,773
277,755; 7638,390;    2,185;    0,409
278,351; 7096,310;   -0,451;   -1,500
278,948; 7404,632;   -0,815;    0,045
279,545; 7411,925;   -1,360;    2,318
280,141; 8018,540;   -1,723;   -2,045
280,738; 7885,244;   -0,451;   -0,136
281,334; 8104,893;   -1,633;    0,591
281,931; 7576,072;   -0,087;   -1,318
282,528; 7718,371;    0,822;   -0,500
283,124; 8398,039;   -1,087;   -0,500
283,721; 8335,341;   -0,451;    1,409
284,317; 8182,225;    0,185;    2,500
284,913; 8729,312;   -1,360;    0,591
285,510; 8922,403;    0,640;   -0,318
286,106; 8989,725;   -2,269;   -0,955
286,703; 8618,144;   -0,360;    1,955
287,299; 8867,034;   -1,451;   -0,591
287,895; 9090,431;    0,822;   -1,045
288,491; 9644,075;    0,186;    2,136
289,088; 9432,506;   -2,360;    2,409
289,684; 9496,336;   -1,723;    1,500
290,280; 9518,538;    0,368;    0,682
290,876; 9630,369;    1,822;    5,500
291,472; 9573,448;    1,276;    2,227
292,068; 9674,000;    1,367;    0,227
292,665; 9401,670;    2,095;    0,773
293,261; 9132,834;    0,276;    2,136
293,857; 9522,718;    2,913;    2,136
294,453; 9458,165;    3,550;    0,955
295,049; 9381,453;   -0,268;    1,955
295,644; 9454,446;    0,095;    0,136
296,240; 9383,492;   -0,905;   -0,136
296,836; 9458,019;   -0,995;    0,318
297,432; 9696,761;    1,096;   -0,500
298,028; 9730,913;    0,732;    0,773
298,624;10144,930;    1,459;    1,864
299,220;10399,801;    2,368;    0,591
299,815;10081,600;    1,005;   -0,409
300,411; 9904,453;    0,914;    1,773
301,007; 9943,911;    1,368;    0,227
301,602; 9976,172;   -0,541;   -2,318
302,198;10131,903;    0,732;   -0,773
302,794;10464,950;    1,187;   -0,500
303,389;10595,771;   -1,177;    1,045
303,985;10668,197;    0,550;    1,409
304,580;10614,404;    1,459;    1,591
305,176;10618,968;   -3,086;    0,136
305,771;10524,915;   -1,268;   -1,227
306,367;10422,617;    4,095;    0,136
306,962;10735,899;    0,641;    1,500
307,558;10408,383;   -0,450;    0,136
308,153;10347,150;    1,095;   -1,136
308,748;10569,842;   -0,814;    1,682
309,344;10534,102;   -0,632;   -1,318
309,939;10627,216;   -1,905;   -1,318
310,534;10878,614;   -0,086;   -1,682
311,130;10797,086;    0,459;   -2,500
311,725;10544,911;    1,004;   -0,500
312,320;10860,870;    2,459;    0,045
312,915;10716,160;    1,459;   -1,045
313,510;10760,033;    1,550;   -0,500
314,105;11223,005;    1,096;    1,409
314,700;10635,830;   -3,086;   -1,045
315,295;10312,495;   -0,904;    0,045
315,890; 9930,170;    1,277;    0,864
316,485;10256,821;   -0,359;   -0,318
317,080;10369,991;   -3,086;    1,591
317,675;10872,416;    2,005;   -0,682
318,270;10278,816;    5,550;    3,318
318,865;10321,906;    3,278;    3,045
319,460;10147,323;   -0,904;    0,591
320,055;10408,686;   -0,541;   -1,227
320,650;10085,197;   -1,995;   -0,591
321,244;10130,236;   -0,177;   -1,409
321,839;11003,378;   -1,541;   -0,227
322,434;10871,597;   -1,086;   -1,591
323,029;10527,214;    1,732;    1,591
323,623;10367,569;    1,550;    0,773
324,218;10170,027;    2,368;    1,409
324,812;10081,587;    1,096;    1,591
325,407; 9899,414;   -0,814;    2,045
326,002; 9802,476;    0,277;   -0,409
326,596;10118,191;    0,914;    1,318
327,191;10302,381;    0,823;   -1,045
327,785; 9941,100;   -0,813;   -0,227
328,379;10183,593;    1,368;    0,136
328,974; 9973,987;    0,914;   -3,955
329,568;10222,982;    0,186;   -2,409
330,163;10067,701;    2,096;    1,045
330,757;10409,884;    2,459;    1,591
331,351; 9796,178;    0,459;    0,682
331,945;10085,404;    0,914;    1,409
332,540; 9750,543;   -1,723;   -0,591
333,134; 9898,946;   -1,086;    0,773
333,728;10135,330;    0,005;    0,318
334,322;10459,895;   -1,177;   -0,864
334,916; 9793,743;    0,277;    0,955
335,510;10133,207;   -0,450;   -0,136
336,105;10408,562;   -1,086;    1,591
336,699;10139,545;   -1,086;    0,591
337,293;10086,984;   -1,723;    0,318
337,887;10229,628;   -2,723;    1,955
338,481;10345,845;    0,459;    0,591
339,074;10501,015;   -0,359;    2,682
339,668;10356,980;   -1,632;    1,227
340,262;10610,796;    1,732;    3,227
340,856;10154,266;    1,822;   -0,682
341,450; 9575,061;    1,004;    1,864
342,044;10451,984;    1,459;    0,136
342,637;10253,622;    0,913;   -2,136
343,231;10103,150;   -2,360;    0,682
343,825;10087,999;   -1,086;   -0,591
344,419;10065,409;   -1,995;    0,500
345,012; 9849,614;    2,459;    4,045
345,606; 9864,487;    4,641;    1,591
346,199; 9731,779;   -1,813;   -0,227
346,793; 9312,472;    1,914;    2,045
347,386; 9503,010;   -0,813;   -1,136
347,980; 9481,856;   -0,268;   -0,045
348,573; 9318,448;    2,278;    0,409
349,167; 9025,403;    5,278;    4,773
349,760; 9341,344;    2,914;    2,682
350,354; 9315,972;   -0,813;    1,136
350,947; 9089,293;    1,096;    1,682
351,540; 8766,776;   -0,358;   -1,409
352,134; 8727,102;    1,096;    1,136
352,727; 8790,761;   -0,086;    1,136
353,320; 8619,591;    0,005;    0,591
353,913; 8472,900;   -1,995;    1,864
354,507; 8634,177;    0,823;   -1,227
355,100; 8653,899;    0,460;    0,864
355,693; 7911,322;    2,005;    2,409
356,286; 7952,919;    0,823;    2,773
356,879; 8294,437;   -0,722;    1,227
357,472; 7937,652;   -0,904;    1,500
358,065; 8131,698;   -0,722;    2,500
358,658; 8048,436;   -0,540;    2,318
359,251; 7706,074;   -1,631;   -0,591
359,844; 7215,332;   -1,904;   -1,136
360,437; 7391,143;   -2,995;    0,045
361,030; 7623,134;    1,369;   -0,682
361,623; 7230,597;    2,824;    0,318
362,215; 7266,090;   -0,086;    2,045
362,808; 7114,368;   -2,358;   -1,682
363,401; 7285,832;   -2,449;    0,136
363,994; 7057,158;   -0,631;   -1,500
364,586; 6972,164;    0,824;   -1,500
365,179; 7155,816;   -0,449;   -1,136
365,772; 6664,024;   -1,995;    2,045
366,364; 6942,309;    1,915;   -3,227
366,957; 7147,452;    2,279;   -0,045
367,549; 7123,473;    2,188;   -0,864
368,142; 6794,816;    1,825;   -1,500
368,734; 7026,168;    0,734;   -2,136
369,327; 6941,334;    1,643;   -0,500
369,919; 6881,185;   -1,538;    0,409
370,512; 6693,811;   -1,083;   -0,500
371,104; 6444,527;   -0,901;    1,591
371,696; 6641,108;    1,191;   -0,955
372,289; 6697,752;    0,373;    1,136
372,881; 6807,354;   -2,080;    1,318
373,473; 6736,730;   -2,170;    1,136
374,066; 6531,675;   -0,169;    0,500
374,658; 6400,666;    0,378;    1,136
375,250; 6727,302;    0,653;   -1,409
375,842; 6574,459;    0,473;   -0,045
376,434; 6443,720;   -0,435;   -0,409
377,026; 6994,497;    0,204;   -2,500
377,618; 6896,950;   -0,158;   -0,682
378,210; 6736,064;   -0,338;   -1,955
378,802; 6586,445;    0,754;   -0,591
379,394; 6555,093;    1,846;    0,682
379,986; 7113,344;    1,393;   -0,955
380,578; 7202,563;   -0,153;    0,773
381,170; 6580,675;   -0,972;    0,045
381,762; 6510,601;    0,755;    1,409
382,354; 6678,936;   -0,065;   -1,318
382,945; 6804,940;   -2,976;    0,318
383,537; 6952,930;   -2,705;   -1,955
384,129; 6957,884;   -2,160;   -1,136
384,721; 7134,628;   -0,252;    0,955
385,312; 7060,783;   -0,161;   -0,955
385,904; 7131,272;   -2,706;    1,591
386,496; 6554,153;   -0,979;    1,045
387,087; 6693,374;    1,022;    2,500
387,679; 6720,714;   -1,160;    0,045
388,270; 6850,331;    2,840;    2,045
388,862; 6927,011;    1,295;   -0,318
389,453; 6810,275;   -0,887;    1,045
390,045; 7062,154;   -0,705;   -2,682
390,636; 7015,737;    0,204;   -0,591
391,227; 6871,947;   -0,523;   -0,045
391,819; 6972,053;    0,204;    0,773
392,410; 7022,315;    1,022;    0,045
393,001; 6974,314;   -0,979;   -1,591
393,593; 7243,539;    1,930;   -0,045
394,184; 7103,407;    1,385;   -0,409
394,775; 6994,984;    1,839;    2,136
395,366; 7216,286;    1,385;    0,773
395,957; 7195,893;    0,113;    0,136
396,548; 7480,460;   -0,342;    2,682
397,139; 7765,517;   -2,433;    0,591
397,730; 7513,436;   -1,888;    0,955
398,321; 7567,092;   -1,252;    0,955
398,912; 7577,130;   -0,615;    0,136
399,503; 7660,522;   -3,524;   -1,409
400,094; 7149,112;    0,294;    1,682
400,685; 7020,483;   -0,433;    0,045
401,276; 7090,295;    0,930;   -0,955
401,867; 7391,493;   -0,888;    0,773
402,458; 7452,353;   -2,251;   -2,318
403,048; 7451,226;    1,112;    0,591
403,639; 7076,018;    0,840;    0,864
404,230; 7319,713;    2,476;    0,318
404,821; 7243,977;   -0,615;    0,045
405,411; 7357,295;    1,203;   -2,591
406,002; 6963,894;   -1,252;   -1,136
406,592; 6826,824;    2,294;    0,045
407,183; 7087,883;    0,566;   -1,500
407,774; 7012,296;    3,475;   -0,136
408,364; 7295,985;    0,930;    0,409
408,954; 6940,236;    0,384;    1,227
409,545; 6969,325;    1,021;    1,045
410,135; 6538,894;    1,293;    0,500
410,726; 6682,148;    1,838;    0,318
411,316; 6978,269;    0,111;    0,773
411,906; 6659,773;   -0,253;   -0,409
412,497; 6187,772;   -1,070;   -0,045
413,087; 6732,380;   -1,980;   -0,227
413,677; 7060,997;   -0,707;    3,864
414,267; 6886,235;    0,656;    1,409
414,857; 6886,604;   -2,980;    4,227
415,448; 7130,961;    0,839;    0,500
416,038; 6826,359;    0,020;   -0,591
416,628; 6749,176;   -0,889;    0,409
417,218; 6283,612;    0,565;    3,318
417,808; 6478,344;    0,202;   -0,409
418,398; 6848,285;    0,020;    2,682
418,988; 6850,531;    2,020;    0,591
419,578; 7023,971;   -0,707;    1,409
420,168; 7300,047;   -1,343;   -0,955
420,757; 6920,264;   -1,343;   -1,500
421,347; 6607,549;    0,111;   -0,227
421,937; 6699,850;    2,292;    1,409
422,527; 6647,861;    0,838;   -0,773
423,116; 6453,860;   -0,253;   -0,045
423,706; 6721,840;   -1,889;    0,318
424,296; 6657,566;    1,384;    0,682
424,885; 7016,293;   -0,071;   -3,045
425,475; 7229,942;    1,474;   -2,864
426,065; 7141,244;   -0,980;   -0,318
426,654; 6802,703;   -0,435;   -0,318
427,244; 6873,249;    0,020;    1,409
427,833; 6357,152;    1,383;   -0,500
428,423; 6712,663;   -0,526;    1,136
429,012; 7380,322;   -0,344;   -1,136
429,601; 6871,546;   -1,344;    0,136
430,191; 7042,282;    1,292;    4,318
430,780; 6691,907;   -0,344;   -0,409
431,369; 6639,365;    0,746;   -0,045
431,959; 7166,854;   -1,254;    0,500
432,548; 6927,251;   -1,163;   -0,045
433,137; 6986,716;   -1,254;   -1,318
433,726; 7403,617;    0,292;    0,500
434,315; 6861,231;   -0,526;    2,409
434,905; 6931,931;   -1,254;    1,409
435,494; 6823,854;    0,746;    0,955
436,083; 7177,500;   -0,981;   -0,955
436,672; 6982,783;    0,110;    0,500
437,261; 6645,043;    0,292;   -1,955
437,850; 6720,732;    1,383;    0,682
438,439; 6654,005;    3,291;    1,955
439,027; 6453,557;    3,655;    1,773
439,616; 6711,150;    2,927;    1,227
440,205; 6516,376;    0,200;   -2,136
440,794; 6448,972;    2,109;   -0,045
441,383; 6591,690;   -1,346;   -0,591
441,971; 6453,868;   -2,436;    0,591
442,560; 6294,465;    0,563;   -1,773
443,149; 6023,277;    0,379;   -1,318
443,737; 6133,104;   -0,074;   -2,318
444,326; 6286,194;    0,018;    0,318
444,915; 6276,675;   -1,982;    0,864
445,503; 6513,393;   -2,891;   -0,318
446,092; 5951,400;    0,382;    2,136
446,680; 6353,322;    0,382;    0,318
447,269; 6437,117;   -0,346;   -0,318
447,857; 6205,770;    0,018;   -1,773
448,445; 6264,261;    0,563;    1,318
449,034; 6397,377;   -1,528;   -1,136
449,622; 6420,742;   -1,073;    3,500
450,210; 5885,596;    2,017;    2,227
450,799; 6235,875;    0,290;   -0,591
451,387; 6126,367;    1,381;   -0,591
451,975; 5857,085;    2,654;    0,864
452,563; 5948,948;    3,472;    2,318
453,151; 5907,700;   -0,528;   -1,227
453,739; 5792,522;   -1,347;    0,136
454,328; 5711,753;    2,381;   -2,136
454,916; 5455,251;    2,562;   -0,136
455,504; 5601,815;    1,017;    1,227
456,092; 5690,926;    0,017;   -1,591
456,679; 5611,079;    1,472;    0,682
457,267; 5737,823;    4,017;    1,045
457,855; 5690,894;    1,017;    1,409
458,443; 5416,459;   -0,165;    1,682
459,031; 5603,901;    0,108;    2,409
459,619; 5895,042;   -1,801;    2,864
460,206; 5890,262;    0,835;    2,045
460,794; 5952,213;   -2,983;   -0,227
461,382; 6100,541;   -0,529;   -0,864
461,970; 5758,298;    1,198;    1,864
462,557; 5814,964;   -0,711;   -0,682
463,145; 5932,469;   -3,165;   -1,682
463,732; 6002,496;    2,016;   -1,045
464,320; 5865,820;   -0,075;   -3,045
464,907; 5666,872;    2,743;   -0,773
465,495; 5550,064;    0,743;   -1,227
466,082; 5620,030;   -1,984;   -0,045
466,670; 5496,669;   -2,529;    1,227
467,257; 5823,950;   -1,711;    2,045
467,844; 5970,807;   -0,075;    0,045
468,432; 5946,113;    0,834;    3,500
469,019; 5569,015;    0,925;   -1,773
469,606; 5889,790;    0,470;    3,682
470,193; 5723,153;   -1,439;    0,227
470,780; 5459,098;   -2,075;    0,864
471,368; 5630,780;   -1,257;   -0,773
471,955; 5468,227;    1,379;   -0,682
472,542; 5159,098;    0,652;   -1,136
473,129; 5271,020;   -0,166;    0,136
473,716; 5078,256;    1,470;    0,591
474,303; 5141,530;    0,652;   -0,864
474,890; 5296,600;   -1,439;   -0,500
475,477; 5325,581;   -1,621;    0,409
476,064; 5201,150;    1,106;   -1,591
476,650; 5047,038;    0,288;    0,318
477,237; 4903,856;   -0,258;    0,955
477,824; 4987,891;   -1,076;    0,864
478,411; 4927,979;   -1,894;   -0,318
478,997; 5010,635;    0,560;   -0,773
479,584; 4995,175;    1,196;   -0,409
480,171; 5462,437;   -0,440;   -0,773
480,757; 5231,127;    2,651;    0,773
481,344; 5321,772;    0,469;    0,409
481,931; 4900,719;    1,105;    1,045
482,517; 5481,145;   -1,258;    0,318
483,104; 5734,235;    1,106;    2,864
483,690; 5795,419;   -1,804;    0,045
484,276; 5941,741;   -0,895;    0,227
484,863; 5796,821;    2,469;    1,136
485,449; 6054,665;   -0,077;    0,318
486,035; 6013,336;   -1,986;   -0,136
486,622; 6331,682;   -0,895;    0,045
487,208; 6230,299;    1,378;    1,500
487,794; 6158,255;    0,741;    0,318
488,380; 6252,898;    0,105;   -1,409
488,967; 6288,294;   -1,168;   -0,409
489,553; 6336,311;   -1,895;   -1,409
490,139; 6522,464;    1,559;    0,773
490,725; 6229,105;    0,741;   -0,227
491,311; 6034,797;    3,287;    3,045
491,897; 5684,709;   -0,986;    1,500
492,483; 5737,837;    0,105;    1,227
493,069; 5931,409;    3,923;    0,864
493,655; 5823,910;    1,650;    0,682
494,241; 5843,330;    1,377;   -0,955
494,826; 6176,401;    0,287;   -1,045
495,412; 5859,614;    2,559;   -0,682
495,998; 6105,111;   -0,805;   -0,318
496,584; 6225,949;    0,377;    1,045
497,169; 6289,291;    1,014;   -0,682
497,755; 6393,291;    0,650;    1,227
498,341; 7002,927;    0,559;    0,318
498,926; 6811,273;    1,832;    1,955
499,512; 7058,370;    1,286;    2,955
500,097; 7194,796;    0,195;   -0,318
500,683; 7321,241;   -0,350;    2,136
501,268; 7803,091;   -0,169;   -0,955
501,854; 7770,434;   -0,169;    1,227
502,439; 7875,276;   -0,624;   -1,773
503,024; 8190,865;    0,195;    0,500
503,610; 8403,075;   -0,078;   -0,682
504,195; 8559,569;    0,558;    1,955
504,780; 8848,367;    2,922;    1,227
505,366; 8896,362;    3,013;    2,864
505,951; 8826,812;    0,740;    1,045
506,536; 9031,656;   -3,260;   -3,682
507,121; 9167,403;    0,285;   -0,318
507,706; 9794,860;    2,376;    1,045
508,291;10276,267;    2,649;    1,136
508,876; 9912,344;   -0,988;    2,591
509,461; 9595,963;   -0,169;   -0,773
510,046;10151,990;    0,194;    0,318
510,631;10524,794;   -0,351;   -0,773
511,216;10330,684;    2,467;   -0,500
511,801;10797,082;   -0,442;    2,591
512,386;11184,224;    0,740;    0,500
512,971;11230,066;   -2,988;    0,955
513,555;10915,111;   -0,897;   -1,500
514,140;11750,511;   -0,442;   -3,136
514,725;11807,507;   -0,715;   -1,136
515,309;12033,593;   -0,533;    0,318
515,894;11617,289;   -0,624;   -2,227
516,479;12113,570;   -0,624;   -0,955
517,063;12032,017;    0,376;    1,227
517,648;12236,020;    1,012;   -1,136
518,232;11962,001;   -0,261;   -1,409
518,817;12326,427;   -0,079;    1,682
519,401;12569,755;    2,194;    0,591
519,985;12122,202;    1,103;    1,136
520,570;12040,612;    0,830;   -1,955
521,154;12409,775;    2,102;    0,591
521,738;12574,435;   -2,352;    2,409
522,323;13187,951;   -0,170;    1,682
522,907;12956,765;    0,466;   -0,136
523,491;12707,404;    0,557;    0,955
524,075;12702,920;    2,284;    0,591
524,659;12816,937;    1,466;    0,591
525,243;12318,607;    1,739;    0,409
525,827;12570,800;    0,648;   -0,045
526,411;13426,210;   -1,989;   -0,136
526,995;13660,551;   -0,352;    1,409
527,579;13261,764;   -0,443;   -1,045
528,163;13589,353;    0,375;   -1,500
528,747;13517,985;    2,466;   -0,773
529,331;13836,921;   -0,080;   -1,409
529,915;14055,295;    1,738;    0,955
530,499;14011,991;   -0,807;    1,227
531,082;13687,944;   -0,534;    1,591
531,666;13154,769;    1,374;    0,773
532,250;13789,775;    1,284;    2,682
532,833;14121,007;    0,920;    2,773
533,417;14053,130;   -1,807;    0,864
534,001;14020,995;    1,647;   -0,318
534,584;14712,589;    0,374;    0,500
535,168;14571,860;    0,465;    1,409
535,751;14627,346;    0,647;    0,045
536,334;14072,536;   -0,898;   -0,409
536,918;14659,564;    0,011;    1,591
537,501;14757,575;   -0,899;    1,318
538,085;14802,854;   -0,444;    1,045
538,668;14934,098;    0,829;    2,409
539,251;15204,614;    1,829;    3,773
539,834;15271,884;    0,101;    0,773
540,418;15179,301;   -1,990;    4,318
541,001;15311,537;   -0,990;    1,773
541,584;15305,818;    2,101;    2,227
542,167;14984,790;    1,374;    2,955
542,750;15133,555;    1,919;   -0,773
543,333;14711,734;    0,555;    2,136
543,916;15496,565;    0,192;    2,500
544,499;16080,724;   -1,354;    0,227
545,082;16102,878;    1,374;    3,591
545,665;16233,720;    1,919;    1,500
546,248;16566,643;    1,010;   -0,318
546,830;16254,063;   -0,445;    1,955
547,413;16620,234;    1,010;   -0,773
547,996;17178,123;    0,555;    0,500
548,579;16964,652;    0,919;    0,955
549,161;16752,897;    1,828;    2,682
549,744;16571,790;   -0,809;    0,409
550,326;17073,246;   -0,809;   -1,136
550,909;16821,500;    2,737;    0,591
551,492;17230,786;   -0,263;    0,227
552,074;17018,355;   -0,173;   -1,318
552,657;17535,053;    2,373;    0,045
553,239;17315,602;   -0,173;   -0,773
553,821;17252,222;   -1,082;    1,045
554,404;16792,294;    1,282;    1,136
554,986;17132,122;    0,464;    1,045
555,568;17676,217;    1,191;   -0,955
556,151;16918,734;    1,191;   -0,227
556,733;17148,754;   -0,264;   -0,864
557,315;17600,145;    0,100;    0,500
557,897;17388,929;    0,554;   -0,500
558,479;17533,052;   -1,991;    1,318
559,061;17689,805;   -0,719;   -0,864
559,643;18039,944;   -0,264;    0,045
560,225;18358,371;    1,645;    2,864
560,807;18341,581;    0,918;    0,318
561,389;17871,737;    0,554;    2,318
561,971;18584,678;    0,463;    2,136
562,553;18401,836;   -1,628;    1,591
563,135;18504,955;   -0,537;    1,136
563,717;18123,287;    3,372;    1,136
564,298;18819,145;    3,645;   -0,045
564,880;18598,877;    0,645;   -1,409
565,462;18765,241;    0,645;    1,318
566,043;19892,971;   -0,446;    2,318
566,625;19373,607;    1,918;    1,227
567,207;19254,531;    1,099;    1,682
567,788;20337,262;   -1,264;    1,500
568,370;21141,980;    1,917;   -0,500
568,951;20993,147;    0,190;    0,227
569,533;21755,992;   -0,628;   -0,500
570,114;22143,464;   -0,446;    0,682
570,695;22696,406;   -0,174;   -1,318
571,277;23165,598;   -0,265;   -1,682
571,858;23822,892;    2,008;   -1,136
572,439;24733,578;    1,554;   -1,045
573,021;24881,471;    2,099;   -2,773
573,602;25364,279;   -1,265;    0,318
574,183;26298,441;   -2,083;    2,227
574,764;26433,317;   -1,629;    0,409
575,345;26893,053;    0,917;   -0,136
575,926;27530,214;   -0,356;    0,136
576,507;27523,914;    1,099;   -0,227
577,088;28584,611;    3,099;    1,682
577,669;28552,051;    0,735;    1,955
578,250;29210,623;    0,644;   -1,045
578,831;29892,257;   -1,356;   -2,227
579,412;30132,567;   -0,810;    0,955
579,993;31047,630;    1,008;    0,227
580,573;31428,753;   -0,629;   -0,955
581,154;30396,628;    0,735;   -0,591
581,735;31248,019;    0,644;    0,773
582,315;30677,929;   -0,629;    2,136
582,896;31008,499;   -0,174;    1,227
583,477;30547,973;    0,189;    1,227
584,057;30748,418;    0,553;    0,955
584,638;31007,721;    2,553;    2,318
585,218;30970,780;   -0,538;    2,682
585,799;31168,167;    0,281;   -0,227
586,379;31183,793;    0,372;    1,591
586,959;29952,593;    0,735;    0,318
587,540;29297,708;   -0,629;    2,227
588,120;28936,853;    1,007;   -0,045
588,700;27904,864;    2,553;    2,136
589,281;28166,873;    0,462;   -0,955
589,861;28100,273;    0,099;   -1,682
590,441;28005,693;    2,371;   -2,682
591,021;26993,448;   -0,265;   -2,591
591,601;27195,999;   -0,537;    0,500
592,181;27223,390;   -0,719;   -0,773
592,761;26574,143;    0,007;    1,409
593,341;26462,562;   -0,901;    0,045
593,921;26446,126;   -0,265;    1,591
594,501;26352,169;   -0,538;    1,318
595,081;26249,882;    0,917;   -0,318
595,661;26575,497;   -1,447;    0,955
596,240;27095,666;   -0,537;    0,136
596,820;26680,499;    0,372;    1,955
597,400;26783,071;    2,008;    0,773
597,980;27097,508;    2,008;    1,045
598,559;27174,250;    2,735;   -0,227
599,139;26874,255;   -0,174;   -1,227
599,718;26784,982;   -0,174;   -0,409
600,298;26978,917;    0,735;    0,682
600,877;27175,420;    2,917;    1,409
601,457;27482,162;    2,281;    1,136
602,036;27400,089;    0,190;    2,045
602,616;27621,689;    0,644;    1,682
603,195;27962,161;   -0,355;    3,500
603,774;27460,772;   -0,901;    2,045
604,354;27336,197;    0,826;   -0,500
604,933;26845,906;    0,463;    1,864
605,512;26968,078;    3,554;    0,591
606,091;27062,397;   -0,537;    3,773
606,671;27856,859;    0,281;    0,773
607,250;26886,225;    1,644;    3,136
607,829;27167,024;    2,372;    3,227
608,408;27109,729;    1,190;    2,591
608,987;26133,794;    1,281;    3,409
609,566;26388,589;   -1,265;   -2,500
610,145;26521,948;   -1,082;    0,682
610,723;26940,982;    4,372;    6,864
611,302;26213,695;   -0,446;    1,682
611,881;25695,793;    5,008;   11,227
612,460;26493,401;    1,645;    3,955
613,039;26954,142;   -0,082;    2,045
613,617;25762,876;    1,736;    4,773
614,196;25931,522;    1,099;    1,227
614,775;26260,473;    1,009;    2,409
615,353;26203,615;    0,736;    0,864
615,932;25933,860;    0,100;    2,409
616,510;26519,291;    0,554;    0,591
617,089;26010,014;    7,100;   17,591
617,667;25793,861;    2,372;    6,136
618,246;25710,791;   -1,537;    1,318
618,824;25857,036;   -3,355;   -0,955
619,402;25417,310;   -2,900;   -1,773
619,981;25955,481;   -0,173;   -1,045
620,559;25732,715;    0,009;    1,682
621,137;25320,599;   -0,718;    1,864
621,715;25330,360;   -1,173;   -0,682
622,293;25239,658;   -0,537;   -0,773
622,871;25710,872;   -0,718;    0,500
623,450;25304,217;    0,373;   -0,864
624,028;25170,745;    0,191;   -0,955
624,606;24818,766;   -1,718;    1,682
625,183;25238,178;   -1,536;   -1,136
625,761;24812,541;    1,009;    1,136
626,339;25110,103;    1,373;    2,591
626,917;25547,796;   -0,172;   -0,045
627,495;25579,557;   -0,354;    1,318
628,073;24960,938;   -0,263;    2,864
628,650;24707,382;    0,100;    2,136
629,228;25086,789;    0,373;    4,409
629,806;24536,930;    2,282;    1,136
630,383;24826,157;    1,464;   -0,318
630,961;24645,415;    2,555;   -0,955
631,539;24386,852;    2,464;    0,227
632,116;23705,869;   11,373;   15,409
632,694;24320,068;    2,555;    6,500
633,271;24586,345;    0,828;    2,682
633,848;24483,902;    1,828;    2,045
634,426;24520,578;   -1,081;    1,773
635,003;23700,427;    1,101;   -0,409
635,580;23977,878;    1,192;    3,682
636,158;24514,871;    3,737;    1,227
636,735;24499,375;    0,555;   -0,500
637,312;24662,966;   -0,809;   -0,682
637,889;24780,453;   -4,354;   -0,682
638,466;24205,600;   -3,990;   -0,409
639,043;24209,425;    2,101;   -1,136
639,620;24547,484;   -2,262;   -0,955
640,197;24879,903;    1,100;    1,682
640,774;25003,314;   -0,172;    1,136
641,351;25399,815;    0,737;    1,136
641,928;24824,954;   -0,627;    1,409
642,505;24449,183;    0,828;   -0,500
643,082;24634,412;   -1,718;    1,227
643,658;23630,914;   -0,718;    1,500
644,235;24375,507;    1,191;    2,500
644,812;24671,554;    1,918;    0,773
645,388;24462,510;   -0,991;    1,409
645,965;24511,194;   -0,809;    1,682
646,542;24577,969;   -1,445;   -0,227
647,118;24508,925;    1,009;   -0,955
647,695;24885,881;   -0,263;    1,136
648,271;24793,747;   -0,536;    0,500
648,848;25081,158;    0,736;    2,227
649,424;24883,751;    0,827;    1,318
650,000;24706,889;   -0,354;   -1,045
650,577;24497,754;   -0,627;   -0,955
651,153;24964,983;   -1,809;    0,955
651,729;25929,304;    1,191;    0,864
652,305;26031,169;    0,645;    2,773
652,881;30047,671;   -0,082;    1,136
653,458;36542,627;    1,100;    0,227
654,034;40373,493;    0,282;    1,591
654,610;41916,904;    0,554;    0,773
655,186;43215,497;    0,645;    3,045
655,762;42868,908;   -0,991;    0,409
656,338;42953,682;    0,100;    0,136
656,913;43966,457;   -0,082;    0,409
657,489;43181,868;    0,827;   -0,318
658,065;43157,460;   -0,173;   -1,591
658,641;43881,508;   -0,900;   -0,864
659,217;43201,555;   -0,991;    0,409
659,792;42594,784;    0,645;   -0,409
660,368;42866,650;   -2,173;   -0,682
660,944;42580,606;   -2,082;    1,227
661,519;38443,835;   -0,628;    0,409
662,095;32806,883;   -1,719;    0,591
662,670;28227,021;    1,281;   -0,136
663,246;26952,159;    1,009;   -0,409
663,821;26221,934;    0,281;    1,682
664,396;25705,890;    0,009;    1,864
664,972;25997,574;    0,009;   -0,500
665,547;26269,348;    1,372;    0,136
666,122;26296,668;   -1,082;    0,318
666,698;26579,352;   -0,173;    0,318
667,273;25922,399;   -0,173;    0,136
667,848;26719,810;    2,372;    1,500
668,423;26545,949;    2,190;    2,318
668,998;27101,360;    2,827;   -0,682
669,573;27570,407;   -3,264;   -1,500
670,148;27422,272;   -1,446;   -0,682
670,723;27210,411;   -1,810;    0,318
671,298;27611,458;    2,372;    1,045
671,873;27751,323;   -0,082;   -0,136
672,448;27724,553;    0,645;    0,136
673,023;28047,782;   -1,992;   -0,227
673,597;28372,556;    0,827;    2,318
674,172;28131,513;   -0,355;    0,318
674,747;27602,196;    0,372;   -1,045
675,321;27475,426;   -0,628;    3,318
675,896;27053,109;    0,645;    1,045
676,471;28045,520;    2,645;    1,591
677,045;27836,386;   -1,264;    0,682
677,620;27860,524;    0,190;    1,136
678,194;28178,844;   -2,628;    1,136
678,769;27695,982;   -1,083;   -0,318
679,343;27966,393;   -0,628;    1,773
679,917;27851,895;   -1,446;    1,955
680,492;27936,215;    0,826;    3,227
681,066;28069,717;    3,372;    0,409
681,640;28131,855;    1,463;   -0,318
682,214;28937,539;    0,735;    0,500
682,788;28477,950;   -1,356;   -0,773
683,363;28389,724;   -1,810;    1,682
683,937;28107,681;   -1,719;   -0,318
684,511;28830,364;    0,463;   -0,591
685,085;28549,866;   -1,356;    0,318
685,659;28320,186;   -2,538;    0,864
686,232;28550,052;   -0,356;   -0,318
686,806;28268,281;   -0,901;    0,409
687,380;28924,965;   -0,174;    0,591
687,954;29184,921;   -1,174;    1,136
688,528;28835,059;   -0,719;    1,955
689,101;29607,198;   -3,992;    1,045
689,675;29192,972;   -0,356;   -0,136
690,249;28517,201;   -0,719;    0,409
690,822;28847,249;    0,280;    0,318
691,396;29015,660;   -0,265;    1,227
691,969;28417,434;    1,280;    0,136
692,543;28905,391;   -0,447;   -1,955
693,116;28543,347;   -0,265;   -1,409
693,690;28424,667;    0,099;    0,500
694,263;28978,442;   -1,083;    2,955
694,836;29026,762;    1,371;    3,591
695,410;27680,900;   -0,265;    1,773
695,983;28195,220;    0,189;    0,591
696,556;28127,267;   -0,447;   -1,045
697,129;28508,860;   -0,356;    1,409
697,703;28165,544;   -1,629;    1,955
698,276;28137,955;    1,462;   -0,773
698,849;27966,820;    1,280;    1,409
699,422;28336,686;   -1,083;    0,591
699,995;27990,369;    0,007;    0,136
700,568;28464,689;   -0,629;    3,045
701,140;28549,100;   -2,811;    1,682
701,713;28289,057;   -0,174;    2,409
702,286;28034,559;   -0,538;    0,864
702,859;27929,242;   -0,902;   -0,591
703,432;27088,926;    0,825;    0,682
704,004;27618,337;    0,462;    0,318
704,577;27474,021;   -0,629;    0,136
705,150;28027,159;    0,189;    2,500
705,722;27805,388;   -0,356;   -3,227
706,295;27585,708;   -0,175;   -0,591
706,867;27435,755;   -0,175;    1,955
707,440;27620,076;   -1,720;   -0,409
708,012;27875,396;    0,462;    0,591
708,584;27821,807;    2,462;    0,227
709,157;28126,127;    1,825;   -0,591
709,729;27793,901;    2,280;    2,045
710,301;28606,948;    0,734;    0,045
710,874;28635,723;   -1,447;   -0,227
711,446;27512,952;    0,371;    0,864
712,018;27379,636;    0,098;    0,500
712,590;27128,138;   -1,993;    1,682
713,162;27651,185;    0,825;    1,318
713,734;27923,778;    1,825;   -2,045
714,306;27814,552;   -1,902;   -0,409
714,878;26506,691;    0,825;    0,864
715,450;27314,102;    0,643;    0,864
716,022;27563,422;    1,552;    1,318
716,593;27787,560;    0,189;    0,591
717,165;27691,335;   -3,175;   -1,227
717,737;27381,927;    0,280;    0,409
718,309;27039,611;    0,280;   -0,045
718,880;26997,386;   -0,539;   -1,409
719,452;27258,615;   -0,175;   -1,591
720,024;26860,298;    0,734;   -0,591
720,595;27392,255;   -2,902;    0,955
721,167;26953,302;    0,370;   -2,045
721,738;26466,622;   -0,812;   -1,045
722,309;26485,851;   -0,993;   -1,227
722,881;26192,171;   -1,357;    0,773
723,452;26813,491;   -2,630;    2,864
724,023;26993,084;   -0,721;    2,682
724,595;26815,222;    0,007;    0,682
725,166;26548,633;    0,007;   -0,409
725,737;26216,317;    1,734;    0,227
726,308;26326,910;   -0,266;    0,318
726,879;26697,048;   -1,630;    1,227
727,450;26535,095;    0,552;   -0,045
728,021;26542,143;    3,097;    0,682
728,592;26343,372;    0,734;    0,500
729,163;26654,419;    0,643;   -0,136
729,734;26675,285;    0,188;   -0,227
730,305;27043,787;    1,734;    0,136
730,876;27357,016;    0,188;    2,955
731,447;27072,972;    2,188;    2,682
732,017;27208,201;    1,097;    1,864
732,588;26637,430;    0,734;    1,227
733,159;26826,296;    0,643;   -1,045
733,729;26675,980;    0,006;    0,409
734,300;25968,391;    0,915;    0,864
734,870;26380,256;    3,461;    0,591
735,441;26964,303;    0,370;   -0,591
736,011;26715,532;    0,643;   -1,591
736,582;26651,398;   -0,812;    0,045
737,152;26102,445;   -1,721;   -2,045
737,722;26521,674;   -0,267;   -0,682
738,293;26335,358;   -1,358;    1,318
738,863;26195,133;    2,461;    2,318
739,433;25976,635;    5,279;    0,318
740,003;26638,955;   -0,994;   -0,682
740,573;26052,457;    2,097;   -1,591
741,143;25993,504;   -1,085;    0,318
741,713;26771,824;    1,188;   -0,500
742,283;26475,053;    0,915;    1,591
742,853;26259,464;    1,915;    1,591
743,423;25751,057;    1,733;    0,045
743,993;25874,740;   -0,358;    1,500
744,563;25252,515;    0,097;   -0,864
745,133;25194,562;   -0,812;   -0,864
745,702;25878,882;   -0,267;    1,773
746,272;25124,021;   -0,176;    0,591
746,842;24864,613;   -1,358;   -0,591
747,411;25314,115;   -0,267;   -0,318
747,981;25518,799;    0,097;    0,500
748,551;25546,574;    2,278;   -1,045
749,120;25389,166;    0,642;   -0,227
749,690;25767,305;   -0,631;    2,409
750,259;26044,352;    1,369;    2,955
750,828;25950,036;    1,551;   -1,955
751,398;26217,810;    1,278;   -0,045
751,967;25696,857;    2,187;    0,409
752,536;26023,996;   -0,813;   -0,227
753,105;26385,407;    0,096;    0,227
753,675;26153,181;    0,096;    1,773
754,244;26181,229;   -0,904;    3,591
754,813;26155,094;    0,551;    1,227
755,382;25773,960;    0,460;    0,955
755,951;26345,734;    1,551;    3,682
756,520;25833,963;   -0,085;    1,864
757,089;26396,738;    0,278;    0,500
757,658;26535,694;    1,733;    1,227
758,227;26532,378;    1,096;    0,318
758,795;26815,607;    1,187;    1,136
759,364;27077,109;   -0,086;   -0,591
759,933;26087,338;   -1,176;   -0,045
760,501;25642,022;    0,733;   -1,318
761,070;26113,978;   -2,813;   -1,409
761,639;26813,662;   -1,904;    1,318
762,207;26083,800;    1,551;   -0,955
762,776;26021,302;    0,369;    0,864
763,344;26004,622;   -0,995;    0,591
763,913;25135,033;   -0,722;    1,409
764,481;25853,171;    1,005;   -0,136
765,049;25653,582;   -1,358;    1,409
765,618;25563,539;   -0,086;    0,318
766,186;25643,313;    0,278;    0,136
766,754;25845,633;    0,005;    1,864
767,322;24858,499;   -1,995;    0,409
767,890;24898,455;   -0,722;   -1,773
768,459;25299,139;   -2,177;   -0,318
769,027;25396,095;    1,641;    3,409
769,595;24405,688;    3,278;    2,591
770,163;24883,554;    3,823;    2,955
770,730;24638,874;    0,732;   -0,136
771,298;24542,557;    0,187;   -1,409
771,866;24656,150;   -1,541;    4,955
772,434;24920,379;   -0,631;   -1,864
773,002;25035,699;    0,005;    0,682
773,569;24772,292;    0,914;    1,682
774,137;24551,158;   -0,268;   -0,045
774,705;25318,023;    0,278;   -0,136
775,272;24840,707;    0,641;    0,682
775,840;24605,845;   -0,177;    2,682
776,407;24155,165;    0,277;    1,955
776,975;23744,940;   -0,632;    0,318
777,542;24746,805;   -1,086;   -0,045
778,110;24570,307;   -1,268;   -0,045
778,677;24288,809;   -2,359;   -0,864
779,244;24051,765;    2,186;    1,045
779,812;24110,540;    1,823;    0,864
780,379;23990,860;    0,005;    1,136
780,946;24260,271;    1,005;   -0,773
781,513;24584,500;   -1,450;    0,318
782,080;23942,456;   -0,086;    2,864
782,647;24646,686;   -0,268;    3,045
783,214;24261,733;   -0,177;    3,864
783,781;23892,235;   -0,723;   -0,682
784,348;23752,464;   -0,632;    1,500
784,915;24246,602;   -3,177;    0,318
785,482;24017,286;    1,368;    2,591
786,049;24422,060;    0,186;   -0,591
786,615;24560,017;    0,277;   -0,955
787,182;24318,973;    0,186;   -0,682
787,749;23990,475;   -2,814;    1,409
788,315;23306,704;   -1,632;   -0,409
788,882;23603,388;    1,550;   -1,227
789,448;24282,799;    1,732;   -0,955
790,015;24307,119;    1,095;    3,227
790,581;23847,712;    1,459;    0,227
791,148;23717,123;    0,641;    1,045
791,714;24051,624;   -0,541;    3,136
792,280;23723,945;    0,186;    1,591
792,847;23254,810;    0,550;    2,500
793,413;23822,403;   -0,269;   -0,318
793,979;23369,087;    3,459;   -1,318
794,545;23442,679;    4,459;    2,682
795,111;22841,727;    2,186;    1,318
795,678;23043,138;    0,731;   -1,682
796,244;22681,276;    3,368;    0,136
796,810;23229,050;    1,731;    0,773
797,375;22956,461;    0,549;   -2,136
797,941;23013,145;   -0,541;    0,591
798,507;23145,283;   -0,451;   -0,955
799,073;22695,058;   -0,360;    0,591
799,639;22717,469;   -2,632;    3,136
800,205;22811,698;    0,095;    2,682
800,770;22309,563;    0,640;    1,773
801,336;22427,974;    1,368;   -0,955
801,901;22106,931;    4,549;    3,136
802,467;22672,251;   -0,542;    2,045
803,033;22018,935;   -0,087;    0,864
803,598;22268,709;    1,913;   -1,045
804,163;22286,029;    1,095;   -0,318
804,729;22240,622;   -0,178;    1,136
805,294;22654,760;    0,822;    2,227
805,859;22433,171;    0,731;   -0,409
806,425;21937,855;    1,186;    2,682
806,990;21574,993;    2,186;    4,318
807,555;22076,131;   -1,451;    2,591
808,120;21930,270;    0,822;   -0,409
808,685;22033,680;    0,185;   -2,500
809,250;21493,001;    0,004;   -0,500
809,815;21874,411;    1,913;    0,682
810,380;22352,459;   -0,269;    1,591
810,945;22818,688;   -1,087;    2,045
811,510;22046,735;    2,094;    1,591
812,075;21772,692;   -0,633;   -1,409
812,640;21805,739;    2,003;    1,409
813,204;21832,059;    0,822;   -0,227
813,769;22329,288;    2,094;   -0,045
814,334;21757,881;    0,458;    0,864
814,898;21816,019;    0,367;    0,591
815,463;21706,067;    1,276;   -0,773
816,027;21682,477;   -0,724;   -2,318
816,592;21750,343;    0,640;   -2,045
817,156;21267,208;    2,094;    1,136
817,721;21106,347;    4,276;    2,318
818,285;21102,212;    2,912;    1,500
818,849;21736,350;   -1,451;    1,682
819,414;21640,670;   -0,269;    2,955
819,978;21232,172;   -1,269;    1,773
820,542;21751,220;    2,003;    0,500
821,106;21487,358;   -0,815;    0,682
821,670;21594,314;   -0,815;    2,591
822,234;21354,362;   -0,270;    1,409
822,798;20718,409;    0,003;    0,500
823,362;20673,820;   -0,633;    4,227
823,926;20048,231;    0,094;    1,136
824,490;20232,824;   -0,997;   -0,682
825,054;20663,416;   -0,088;   -1,136
825,618;20280,555;   -1,542;   -1,500
826,181;20250,875;    0,458;   -1,318
826,745;20157,104;    1,367;   -1,045
827,309;20485,515;    1,185;    1,318
827,872;19910,017;    1,367;    0,955
828,436;20891,064;    1,185;   -0,773
828,999;20936,384;   -0,997;    1,227
829,563;19757,886;   -0,179;    1,136
830,126;19552,933;   -0,179;   -0,591
830,690;19555,708;   -1,997;    2,864
831,253;19081,482;   -0,543;    2,227
831,816;19251,621;   -1,906;    0,500
832,380;19184,850;    0,185;    0,864
832,943;19358,624;   -1,361;   -0,500
833,506;18854,490;    2,639;   -1,227
834,069;19666,810;    3,912;   -0,955
834,632;19736,130;    1,730;    1,318
835,195;19642,632;    1,003;    0,955
835,758;18846,406;   -0,997;    1,955
836,321;18686,090;    0,730;   -1,045
836,884;18775,228;   -0,725;   -0,955
837,447;18847,185;   -2,816;    1,773
838,010;19052,778;    0,366;    3,227
838,573;19359,007;   -1,179;    0,773
839,135;19343,418;   -1,361;   -0,955
839,698;18783,101;    1,275;    0,409
840,261;18306,512;    1,003;   -0,227
840,823;18162,378;   -0,543;    0,864
841,386;18495,698;   -0,452;   -2,409
841,948;18342,654;   -1,361;    1,773
842,511;18114,338;    0,912;    1,682
843,073;18225,113;    1,912;    0,227
843,636;18049,614;   -0,361;   -0,227
844,198;17964,298;    0,911;    0,591
844,760;18075,800;    1,093;    1,955
845,322;17727,120;    0,548;    1,136
845,885;18164,258;    0,730;    0,591
846,447;18603,215;   -1,998;    0,227
847,009;18178,353;    1,911;   -0,682
847,571;18486,127;    0,820;   -2,045
848,133;18583,902;   -1,089;   -1,864
848,695;18430,040;   -0,543;    1,409
849,257;17982,906;   -1,089;   -1,682
849,819;18147,135;   -0,998;   -0,409
850,381;18197,728;   -0,725;   -0,864
850,942;18532,957;    1,093;   -0,591
851,504;18509,641;    1,184;    0,227
852,066;18566,324;    1,275;   -1,591
852,628;18068,917;   -0,180;    1,955
853,189;17625,873;    1,638;    2,682
853,751;17746,103;   -0,907;    1,409
854,312;17596,241;   -0,453;   -1,682
854,874;18060,379;   -2,089;   -0,773
855,435;18588,608;   -0,907;   -1,682
855,997;18769,201;   -1,816;   -0,136
856,558;18039,430;    0,366;    1,773
857,119;18189,386;    0,820;    2,864
857,681;17850,797;    0,002;    0,318
858,242;17903,845;    1,911;   -2,136
858,803;18341,528;    0,456;   -0,773
859,364;18901,667;    0,184;   -4,773
859,925;18243,714;   -2,453;   -0,955
860,486;18134,579;   -0,453;   -0,955
861,047;17824,354;   -0,544;   -1,227
861,608;17683,220;   -1,089;   -0,773
862,169;17811,358;    0,638;   -0,045
862,730;17546,496;    0,456;    1,409
863,291;17808,362;   -0,635;   -0,500
863,852;18177,136;   -0,635;    1,955
864,412;17606,456;   -0,271;   -0,864
864,973;16209,049;   -0,089;    0,500
865,534;16106,187;   -1,726;    0,227
866,094;17569,780;    1,820;    0,227
866,655;17274,736;    1,274;    3,318
867,215;17533,238;    0,274;    0,136
867,776;17381,831;    0,547;   -0,136
868,336;17513,969;   -1,453;    0,136
868,897;16931,835;    2,638;    1,682
869,457;16692,882;    1,365;    0,318
870,017;16932,748;    0,547;   -1,227
870,578;17457,795;   -0,817;    0,773
871,138;17149,206;   -2,089;   -0,955
871,698;16678,344;   -0,817;   -1,318
872,258;16567,937;   -0,453;   -2,864
872,818;16926,257;    2,729;    0,045
873,378;16900,577;    0,638;    1,045
873,938;16436,533;    0,547;    0,500
874,498;16786,944;    0,274;   -1,955
875,058;16715,810;    2,183;    1,773
875,618;16546,584;    1,910;   -2,682
876,177;16473,177;    1,274;    0,136
876,737;16053,497;   -0,090;    1,955
877,297;16076,090;    0,183;    1,955
877,856;16092,592;   -0,362;    0,318
878,416;16020,094;    1,183;   -0,136
878,976;16245,959;   -1,817;    0,409
879,535;16429,552;    0,092;    3,136
880,095;16143,963;   -0,544;    0,045
880,654;16297,556;   -1,090;    1,318
881,213;16347,421;    2,456;    1,500
881,773;15994,650;    2,637;    2,682
882,332;16352,334;    3,365;    5,136
882,891;16195,563;    3,092;    2,136
883,451;16660,611;   -1,272;    1,682
884,010;16135,567;   -2,908;   -0,409
884,569;16233,705;   -0,999;   -0,045
885,128;16350,207;    2,819;   -1,864
885,687;16421,436;    4,455;    0,682
886,246;16109,756;    1,455;    2,136
886,805;15899,349;    2,455;    2,045
887,364;16190,215;   -0,999;   -0,500
887,922;16562,262;   -1,181;    0,045
888,481;16033,491;   -1,545;    0,591
889,040;16307,356;    1,183;    2,136
889,599;17007,495;    2,455;    1,409
890,157;17064,815;    1,455;    2,409
890,716;16708,771;   -0,090;    0,227
891,274;16612,819;    0,092;   -1,136
891,833;17022,320;    1,546;    0,864
892,391;16886,913;   -0,454;    0,500
892,950;16947,688;    1,819;   -0,773
893,508;17337,644;    0,455;   -0,409
894,067;16643,782;    0,637;    0,136
894,625;16545,102;   -0,636;   -1,500
895,183;16849,786;   -0,363;   -0,682
895,741;16733,379;    1,728;   -1,773
896,299;16560,063;   -0,545;   -2,409
896,858;16717,837;    0,819;   -1,591
897,416;16865,975;    2,728;   -1,318
897,974;16597,205;    1,819;    0,318
898,532;16748,343;    6,091;    2,682
899,089;16671,754;    2,091;   -0,682
899,647;16705,892;   -1,454;    1,318
900,205;16428,485;    1,182;    1,045
900,763;16626,441;   -0,454;    0,227
901,321;16665,216;    2,364;   -1,409
901,878;16094,627;   -1,000;   -0,773
902,436;15965,129;   -1,363;    1,318
902,994;16332,721;    4,728;    3,682
903,551;15771,041;    0,728;    0,409
904,109;16158,180;    0,182;   -1,409
904,666;15790,954;    2,455;    1,045
905,224;15629,092;    0,182;   -0,409
905,781;15362,594;    0,727;   -0,318
906,338;15425,914;   -1,363;    1,045
906,895;15354,507;    0,637;    2,045
907,453;15284,645;    1,727;    1,136
908,010;15318,238;   -0,909;    0,409
908,567;14965,195;    1,273;    0,591
909,124;14476,969;    0,364;   -1,500
909,681;14568,380;   -2,909;    0,682
910,238;14727,518;    0,636;   -1,318
910,795;15023,566;   -0,273;   -1,136
911,352;14653,384;   -2,909;   -2,682
911,909;14061,384;   -1,364;   -0,864
912,466;14591,475;   -3,182;    1,500
913,022;14148,293;   -1,636;    0,500
913,579;14507,202;   -0,909;    2,045
914,136;14234,111;    1,636;    0,955
914,692;14560,020;    0,091;   -1,227
915,249;14124,657;    1,455;    0,409
915,806;14361,747;    0,182;    1,955
916,362;14108,657;    1,909;    1,864
916,918;13707,020;    2,000;    1,045
917,475;13663,929;   -1,182;    0,955
918,031;13755,747;    3,364;   -0,045
918,587;13205,020;   -0,909;   -0,318
919,144;13415,838;   -2,273;    0,227
919,700;13732,747;    1,727;    0,773
920,256;13334,202;    0,727;    0,045
920,812;12968,111;   -0,727;   -1,045
921,368;12947,747;   -1,727;   -1,045
921,924;12590,566;    0,182;   -0,136
922,480;12143,111;   -0,545;    1,227
923,036;12737,111;    1,273;    1,955
923,592;12707,475;    0,455;    0,318
924,148;12624,566;    0,455;   -0,955
924,704;11964,475;   -1,364;   -0,409
925,259;12249,929;   -0,273;    0,591
925,815;12020,747;    1,455;    0,500
926,371;11550,384;    2,909;    1,409
926,926;11432,929;    2,091;    0,591
927,482;11051,838;   -1,364;    0,773
928,037;10921,929;    0,909;    2,045
928,593;11204,566;    1,636;    1,045
929,148;11063,747;   -1,818;   -1,500
929,704;10598,566;   -1,455;   -0,500
930,259;10780,838;    0,091;   -0,136
930,814; 9872,475;   -0,818;    1,955
931,369; 9548,929;    1,091;   -0,773
931,925; 9433,747;   -0,091;    0,136
932,480; 9332,020;   -2,818;   -2,591
933,035; 9199,384;    0,545;   -0,318
933,590; 8964,929;    0,364;   -1,773
934,145; 8649,020;   -1,364;   -0,318
934,700; 9018,566;    0,455;   -0,591
935,255; 8800,838;   -0,091;    0,045
935,809; 8085,384;    3,182;    0,864
936,364; 7250,747;   -0,455;   -0,136
936,919; 7229,657;    0,455;   -1,773
937,474; 7132,657;    1,455;    0,136
938,028; 6875,929;   -1,636;    1,136
938,583; 6350,111;    1,818;    4,682
939,138; 6641,293;    2,091;    2,136
939,692; 6097,202;    1,636;   -1,136
940,247; 5825,020;   -0,727;   -1,045
940,801; 5379,929;   -0,636;    0,227
941,355; 5285,293;   -0,364;    2,591
941,910; 4943,111;   -0,273;   -2,136
942,464; 5049,111;   -0,818;   -0,318
943,018; 4830,293;    1,000;   -0,227
943,572; 4777,566;    2,545;   -0,682
944,126; 4211,566;    0,091;   -0,409
944,681; 4106,020;    3,091;    0,227
945,235; 4091,475;    1,000;   -0,591
945,789; 4038,657;    0,364;   -1,864
946,342; 4128,657;    0,455;   -0,591
946,896; 3944,838;   -2,273;    0,955
947,450; 3717,747;    1,545;   -0,227
948,004; 3900,657;    1,727;   -0,045
948,558; 3897,020;    0,273;   -0,864
949,111; 3821,020;   -0,273;   -0,318
949,665; 3855,020;    1,636;   -0,682
950,219; 3733,475;   -0,091;   -1,045
950,772; 3810,202;   -1,909;    1,864
951,326; 3727,202;    0,545;   -0,955
951,879; 3797,838;    0,727;   -2,318
952,433; 3812,929;    0,000;    2,227
952,986; 3672,020;    2,909;    0,682
953,539; 3634,929;   -0,273;    0,591
954,093; 3568,293;    0,545;   -1,318
954,646; 3694,384;    0,909;    1,318
955,199; 3517,929;    0,000;   -0,500
955,752; 3396,111;   -0,455;    1,773
956,305; 3373,384;   -0,091;    2,955
956,858; 3513,384;    0,818;   -0,318
957,411; 3695,747;   -0,545;    2,136
957,964; 3530,929;    1,364;    2,136
958,517; 3501,111;   -1,545;    3,136
959,070; 3341,747;   -0,455;    1,955
959,623; 3436,475;    1,091;    1,500
960,176; 3209,566;    1,727;    2,045
960,728; 3195,384;   -2,727;    0,773
961,281; 3255,475;    0,545;    0,500
961,834; 3276,384;   -0,909;    0,864
962,386; 3202,293;    1,727;    1,045
962,939; 3134,747;    0,364;   -0,318
963,491; 3258,384;    0,455;    1,136
964,043; 3151,475;    1,182;    2,409
964,596; 3264,020;   -1,000;    2,227
965,148; 3107,475;   -1,000;    1,773
965,700; 3052,838;    1,091;   -0,227
966,253; 3193,111;   -0,636;    0,318
966,805; 3023,747;   -2,273;    0,773
967,357; 3064,384;    1,091;   -1,500
967,909; 3025,929;    0,455;   -1,227
968,461; 3140,293;    0,545;    3,136
969,013; 3070,202;   -0,182;   -0,864
969,565; 3154,566;   -0,455;   -1,136
970,117; 3224,202;   -0,364;    1,045
970,669; 3040,838;    0,182;   -0,136
971,220; 2919,657;   -0,455;   -1,500
971,772; 2837,929;   -0,636;   -0,318
972,324; 2961,020;    0,091;   -0,500
972,876; 2917,020;    0,818;   -0,045
973,427; 3048,566;    1,909;   -1,045
973,979; 2988,566;   -0,727;   -2,500
974,530; 3042,293;    1,818;    1,318
975,082; 3057,838;   -0,545;    1,682
975,633; 2944,111;    1,091;    1,682
976,184; 3092,566;    0,909;    0,773
976,736; 2891,111;    0,091;    0,227
977,287; 2708,566;   -0,909;   -0,500
977,838; 2878,747;    0,909;   -0,318
978,389; 2922,657;   -1,000;   -0,500
978,940; 2796,475;    0,545;   -0,409
979,491; 2830,475;    0,091;   -0,500
980,042; 2778,566;    0,182;    3,045
980,593; 2857,020;   -2,545;    0,227
981,144; 2887,111;    2,545;   -0,500
981,695; 2867,475;    1,455;    1,500
982,246; 2831,657;   -0,273;    1,045
982,797; 2986,838;   -1,727;    0,682
983,347; 3083,657;    0,364;    0,591
983,898; 3247,111;    3,091;    0,409
984,449; 3067,384;    2,182;    0,773
984,999; 2966,657;    1,455;   -1,136
985,550; 2763,747;    0,182;   -0,318
986,100; 2805,384;   -0,455;   -0,318
986,651; 2834,384;   -0,818;    0,045
987,201; 2817,202;   -1,000;   -0,591
987,751; 2881,384;    0,818;    2,864
988,302; 2882,657;    2,636;    1,500
988,852; 2892,566;    0,455;   -1,136
989,402; 2958,111;    0,091;    0,682
989,952; 2873,202;   -2,182;    0,864
990,502; 2957,202;   -0,091;    0,682
991,052; 2941,202;   -0,727;    0,045
991,602; 2815,657;   -2,909;    1,318
992,152; 2788,020;    0,455;    0,682
992,702; 2781,384;    1,364;   -0,045
993,252; 2694,202;   -3,000;   -0,500
993,802; 2787,657;   -0,273;    1,318
994,352; 3025,111;   -1,545;    1,136
994,901; 3120,111;   -0,182;    3,227
995,451; 3027,020;   -0,182;    0,318
996,000; 3109,657;    1,636;    0,318
996,550; 2848,747;    2,273;    0,227
997,100; 2827,202;    1,273;   -0,045
997,649; 3091,111;    2,182;    0,955
998,198; 2750,384;    1,727;   -1,500
998,748; 2940,384;    1,091;   -2,318
999,297; 2849,111;   -0,818;   -0,409
999,846; 2918,293;    1,000;   -0,773
1000,395; 2955,566;   -0,818;    0,500
1000,945; 2910,111;    1,818;   -0,773
1001,494; 2992,838;    2,364;    0,682
1002,043; 2988,747;    4,636;    0,864
1002,592; 2833,566;   -1,091;    1,955
1003,141; 2981,929;   -0,455;   -0,682
1003,690; 2839,111;    1,727;    0,500
1004,238; 2915,657;    1,455;   -0,045
1004,787; 2563,111;    1,364;    1,227
1005,336; 2783,475;    0,364;    0,682
1005,885; 2937,838;    1,364;   -2,773
1006,433; 3084,747;    0,545;    0,955
1006,982; 3136,384;    0,455;    1,682
1007,531; 3040,929;   -1,818;   -0,227
1008,079; 2985,747;   -2,273;    0,500
1008,627; 3120,475;   -1,455;    0,409
1009,176; 2875,202;    0,000;   -1,955
1009,724; 2919,747;    1,091;    0,864
1010,273; 2979,111;    1,273;    0,500
1010,821; 3091,384;    0,091;    1,409
1011,369; 2823,475;   -1,364;    1,318
1011,917; 2819,929;   -1,364;   -0,591
1012,465; 3096,293;    1,273;   -1,591
1013,013; 3195,657;    2,091;   -1,682
1013,561; 3087,384;    0,455;   -0,773
1014,109; 3125,020;   -1,909;    1,682
1014,657; 3006,293;    0,364;    0,591
1015,205; 3128,838;    1,636;   -0,955
1015,753; 3157,020;   -0,545;   -1,409
1016,301; 3195,657;   -2,636;    3,045
1016,848; 3201,657;   -1,273;    0,409
1017,396; 3237,566;    2,545;    0,045
1017,944; 3369,384;    1,182;    1,864
1018,491; 3128,475;    0,273;    1,409
1019,039; 3283,929;    0,455;    0,591
1019,586; 3196,747;   -1,364;    1,682
1020,134; 3301,020;    0,455;    1,500
1020,681; 3319,202;    0,182;   -1,136
1021,228; 3334,475;    2,909;   -2,227
1021,776; 3162,020;    1,182;   -1,136
1022,323; 3364,111;    0,455;    0,773
1022,870; 3302,838;   -1,000;   -0,045
1023,417; 3212,020;    2,636;    1,864
1023,964; 3365,838;    2,636;    1,227
1024,511; 3198,566;    1,000;    0,773
1025,058; 3010,384;    3,182;   -0,045
1025,605; 3063,838;   -2,273;    3,136
1026,152; 3266,566;    1,727;   -0,591
1026,699; 3009,566;    1,818;    1,318
1027,245; 3177,293;   -0,091;    0,318
1027,792; 3370,929;   -1,000;    1,409
1028,339; 3258,020;    2,364;   -0,045
1028,885; 3121,202;    1,000;   -0,227
1029,432; 3069,020;   -0,091;    0,227
1029,978; 3133,384;   -1,000;   -1,591
1030,525; 3030,293;    1,000;    0,409
1031,071; 3265,566;   -1,364;    1,136
1031,618; 3363,747;    0,364;    1,682
1032,164; 3168,657;   -0,091;    3,045
1032,710; 3206,838;    1,636;   -1,500
1033,256; 3130,475;   -0,636;   -0,136
1033,803; 3112,929;   -0,545;    1,500
1034,349; 2839,020;   -1,364;    0,136
1034,895; 2986,111;    0,000;   -0,318
1035,441; 2968,384;   -0,818;    0,318
1035,987; 2969,384;   -2,364;   -0,682
1036,533; 2958,020;   -1,455;   -0,955
1037,078; 3154,202;    1,455;    1,682
1037,624; 2986,202;    2,455;   -0,955
1038,170; 3019,384;    0,455;   -0,318
1038,716; 2908,202;    1,636;   -0,409
1039,261; 2841,929;   -2,273;   -0,773
1039,807; 2798,020;   -0,091;    3,409
1040,352; 2860,838;   -1,909;   -0,318
1040,898; 2889,657;   -1,545;   -0,682
1041,443; 2816,020;   -1,455;   -2,591
1041,989; 2825,929;    1,091;    1,591
1042,534; 2729,111;   -0,364;    2,591
1043,079; 2841,384;    2,909;    0,955
1043,625; 2608,475;    1,818;    0,500
1044,170; 2659,111;   -1,364;    1,045
1044,715; 2919,747;    2,455;    0,955
1045,260; 2721,566;    2,182;   -0,955
1045,805; 2778,020;    1,182;   -0,591
1046,350; 2726,747;    1,364;   -0,409
1046,895; 2674,293;    2,909;    1,591
1047,440; 2620,838;    5,364;    0,409
1047,985; 2520,384;    2,818;   -0,955
1048,530; 2455,929;    1,545;    1,227
1049,074; 2509,747;    0,000;    0,318
1049,619; 2481,929;   -1,364;    1,955
1050,164; 2300,747;    0,455;    0,227
1050,708; 2325,929;   -0,455;    0,045
1051,253; 2691,475;    1,273;   -2,227
1051,797; 2423,747;    0,818;   -1,318
1052,342; 2423,657;   -1,182;    1,045
1052,886; 2422,293;    0,364;   -1,409
1053,430; 2305,475;   -1,364;    0,136
1053,975; 2308,475;   -0,818;   -0,318
1054,519; 2292,657;   -0,727;    3,227
1055,063; 2301,929;    0,909;    1,318
1055,607; 2191,566;   -0,182;    0,227
1056,151; 2227,566;    2,909;    1,682
1056,695; 2148,747;    2,273;   -1,136
1057,239; 2214,838;   -1,727;   -0,682
1057,783; 2236,566;    0,818;   -1,500
1058,327; 2157,747;    0,000;    1,409
1058,871; 2379,475;   -0,545;    1,318
1059,415; 2092,111;   -0,818;   -0,045
1059,958; 2340,384;    1,455;    2,591
1060,502; 2080,747;   -1,000;   -0,773
1061,046; 1989,384;    0,364;   -0,955
1061,589; 1982,747;   -3,000;   -1,136
1062,133; 1860,838;   -1,273;    1,864
1062,676; 1796,838;    1,182;    0,864
1063,220; 1782,747;    1,091;    0,500
1063,763; 1811,838;    0,909;    1,136
1064,306; 1905,020;   -0,909;    1,864
1064,849; 1782,475;   -0,909;    0,591
1065,393; 1795,929;    2,000;   -1,500
1065,936; 1889,384;    0,182;   -0,409
1066,479; 1788,747;   -1,455;    1,318
1067,022; 1819,657;   -0,273;   -0,227
1067,565; 1709,020;   -0,091;   -1,318
1068,108; 1745,566;    0,727;   -0,591
1068,651; 1721,202;   -0,636;    1,409
1069,194; 1640,202;   -0,455;   -1,682
1069,736; 1647,929;   -1,273;    0,955
1070,279; 1616,384;   -1,364;   -0,500
1070,822; 1663,929;   -2,000;   -0,318
1071,364; 1743,202;   -0,364;    1,318
1071,907; 1573,838;   -0,727;    3,227
1072,450; 1484,020;    0,000;   -0,045
1072,992; 1482,475;   -0,273;    3,136
1073,535; 1620,838;    2,091;    2,136
1074,077; 1420,657;   -0,727;    2,045
1074,619; 1399,202;   -1,364;    0,591
1075,161; 1417,020;   -1,091;    1,500
1075,704; 1584,838;    1,545;    1,227
1076,246; 1388,838;   -0,182;    0,682
1076,788; 1325,475;   -0,364;    1,773
1077,330; 1406,657;    1,273;    2,136
1077,872; 1364,657;    0,909;    0,955
1078,414; 1575,111;    2,727;    0,773
1078,956; 1304,202;    1,273;   -0,227
1079,498; 1569,747;    1,636;    0,318
1080,040; 1283,020;    1,909;   -1,318
1080,581; 1222,384;    1,636;   -0,318
1081,123; 1160,929;    0,091;   -0,773
1081,665; 1197,838;   -1,182;   -0,955
1082,206; 1491,202;    1,364;   -0,500
1082,748; 1355,929;    0,727;    2,045
1083,289; 1234,657;   -2,000;    1,318
1083,831; 1145,566;   -0,545;    0,227
1084,372; 1174,475;    0,000;    0,591
1084,913; 1182,020;    1,091;    0,864
1085,455; 1143,747;   -1,909;   -2,045
1085,996; 1113,657;   -2,273;    0,136
1086,537; 1140,020;   -0,091;    0,864
1087,078; 1166,838;   -0,909;   -2,136
1087,619; 1212,384;   -1,273;    0,227
1088,160; 1130,838;    0,000;    1,318
1088,701; 1106,384;   -1,091;    0,682
1089,242; 1046,293;    1,364;   -2,227
1089,783; 1147,475;   -0,273;    1,409
1090,324; 1122,747;    0,455;    0,682
1090,865;  996,747;    2,727;   -0,409
1091,405;  964,657;    0,727;    2,227
1091,946;  993,111;    0,182;   -0,955
1092,487;  931,566;    0,818;   -1,409
1093,027; 1088,111;   -1,364;   -1,500
1093,568;  943,384;   -0,364;    1,227
1094,108; 1035,475;    0,273;    1,773
1094,649;  955,202;   -1,182;    0,136
1095,189;  900,566;   -0,636;   -0,682
1095,729;  854,929;   -0,091;    0,955
1096,269;  868,020;    0,727;   -0,955
1096,810; 1174,566;   -1,364;    0,500
1097,350; 1002,020;    1,364;   -0,773
1097,890;  909,747;    0,364;    1,227
1098,430; 1155,475;    2,364;    2,864
1098,970; 1028,747;    2,182;    1,682
1099,510;  893,293;    0,545;   -2,318
1100,050;  829,475;    1,000;   -1,591
1100,589;  792,747;   -0,727;   -0,318
1101,129;  918,111;    0,818;   -0,955
1101,669; 1056,929;    1,727;    2,136
1102,209;  877,929;   -0,091;    2,227
1102,748;  839,838;    0,000;    0,955
1103,288;  828,020;    1,273;   -1,227
1103,827;  853,929;    3,091;   -2,227
1104,367;  739,838;   -0,091;   -2,409
1104,906;  700,566;    1,364;   -1,136
1105,445;  769,293;    0,636;   -1,136
1105,985;  717,020;   -0,727;    1,500
1106,524;  764,475;   -1,727;   -0,682
1107,063;  744,384;   -2,727;    1,409
1107,602;  706,020;   -1,909;   -1,500
1108,141;  630,111;   -1,909;    1,500
1108,680;  738,747;   -3,455;   -0,591
1109,219;  675,293;   -0,909;   -0,500
1109,758;  676,202;    0,455;    0,682
1110,297;  636,020;    1,000;   -0,682
1110,836;  600,020;   -0,727;    0,955
1111,375;  754,202;   -2,545;    0,409
1111,913;  771,020;   -1,000;    0,773
1112,452;  704,293;   -0,273;    0,136
1112,991;  592,657;    1,091;    1,955
1113,529;  548,929;   -0,818;   -0,045
1114,068;  609,929;   -0,273;    2,955
1114,606;  520,929;   -0,364;   -0,955
1115,144;  672,747;   -1,273;    1,045
1115,683;  604,111;   -0,727;    0,318
1116,221;  657,020;   -0,455;   -0,864
1116,759;  567,293;    0,636;   -0,864
1117,297;  761,566;    0,000;    1,864
1117,836;  575,475;   -2,182;   -1,227
1118,374;  586,657;    0,182;   -0,682
1118,912;  529,384;    0,909;    2,682
1119,450;  519,566;    1,000;    0,864
1119,988;  555,202;    1,545;    2,136
1120,525; 1004,293;    5,091;    3,318
1121,063;  712,475;    1,182;    1,864
1121,601;  528,020;   -0,909;   -1,227
1122,139;  487,838;   -0,727;   -2,045
1122,676;  676,747;   -0,727;    2,773
1123,214;  609,929;   -1,182;    4,409
1123,751;  426,293;    1,727;    2,227
1124,289;  555,293;   -0,091;   -0,409
1124,826;  423,657;    1,727;    0,227
1125,364;  351,838;    1,727;   -0,955
1125,901;  531,657;    1,182;    1,227
1126,438;  644,475;    0,818;    0,955
1126,975;  375,566;   -0,727;   -0,773
1127,513;  431,838;    0,273;    2,136
1128,050;  354,384;    1,636;   -0,682
1128,587;  451,111;    2,000;   -0,227
1129,124;  494,384;    0,091;    1,318
1129,661;  359,020;    0,273;    0,227
1130,198;  519,475;    1,636;    0,773
1130,734;  471,747;    0,182;    1,409
1131,271;  329,838;   -0,909;    0,864
1131,808;  493,111;    2,909;    3,045
1132,345;  367,475;    1,545;    0,318
1132,881;  252,293;   -1,545;   -1,864
1133,418;  388,838;    0,727;   -1,136
1133,954;  328,020;    2,455;   -2,682
1134,491;  397,566;    1,364;   -0,773
1135,027;  300,202;    2,364;    0,864
1135,564;  382,020;    0,273;    2,955
1136,100;  370,657;    0,364;    2,136
1136,636;  253,657;   -1,273;   -1,045
1137,172;  349,202;    0,000;   -1,045
1137,708;  269,384;   -1,364;   -1,045
1138,245;  281,111;    1,273;   -1,227
1138,781;  223,929;    1,091;   -3,318
1139,317;  296,202;    1,273;   -1,409
1139,852;  285,929;    3,091;    0,136
1140,388;  402,111;   -1,182;   -0,409
1140,924;  283,293;   -1,091;   -2,227
1141,460;  226,566;   -1,636;    0,136
1141,996;  161,111;   -1,364;    2,682
1142,531;  205,475;    1,364;    3,318
1143,067;  419,020;    1,182;    1,045
1143,602;  475,657;   -0,091;   -0,318
1144,138;  324,111;   -2,636;    1,045
1144,673;  194,657;   -1,455;    1,409
1145,209;  259,020;   -1,909;   -0,318
1145,744;  180,475;   -0,727;    0,864
1146,279;  307,566;    1,818;   -0,136
1146,815;  227,838;    1,545;   -2,682
1147,350;  272,929;   -1,364;    0,045
1147,885;  184,747;   -0,818;   -1,318
1148,420;  180,111;   -2,273;    0,773
1148,955;  160,293;   -1,727;    1,864
1149,490;  183,747;   -0,909;   -1,591
1150,025;  168,929;    0,455;   -1,773
1150,560;  288,202;    1,091;   -0,955
1151,094;  246,293;    1,455;   -0,591
1151,629;  253,475;    1,636;    0,864
1152,164;  179,384;    1,364;    1,318
1152,698;  142,838;   -0,182;   -0,136
1153,233;  106,475;    0,091;   -0,682
1153,767;  143,566;   -3,000;   -2,318
1154,302;  193,566;   -1,455;    1,773
1154,836;  188,202;   -0,455;   -2,136
1155,371;  251,838;   -1,364;    3,682
1155,905;  203,747;   -0,636;    1,682
1156,439;  167,384;   -0,636;   -0,500
1156,973;  183,838;    0,364;    0,318
1157,507;  140,747;   -0,364;    0,682
1158,042;  168,384;   -0,727;    1,045
1158,576;  216,657;    0,182;    1,773
1159,110;  200,384;   -0,818;    2,409
1159,643;  168,747;    0,636;   -0,045
1160,177;  114,293;   -1,545;    1,500

