
Integration time [ms]:   0,040
Averaging Nr. [scans]: 11
Smoothing Nr. [pixels]: 0
Data measured with spectrometer [name]: 7318044SP
Wave   ;Sample   ;Dark     ;Reference
[nm]   ;[counts] ;[counts] ;[counts] 

186,757;   18,382;   31,551;    1,318
187,357;   40,029;   22,551;    0,955
187,958;   14,547;   15,460;   -1,591
188,558;   57,381;    8,915;   -1,227
189,159;   31,304;    6,733;   -4,500
189,759;    0,091;    7,278;   -3,591
190,360;  -15,336;    2,824;   -2,136
190,960;   24,358;    2,915;   -4,136
191,560;   29,315;    3,189;   -6,591
192,161;  231,192;    4,372;   -3,500
192,761;   92,775;    4,010;   -3,227
193,361;   45,882;    1,556;   -3,773
193,962;  102,268;    2,010;   -2,682
194,562;   22,491;    1,189;   -3,955
195,162;   38,132;   -2,448;   -2,227
195,762;  160,480;   -3,176;   -0,045
196,362;  112,125;    1,370;   -2,500
196,963;   21,441;    2,006;   -0,864
197,563;   61,927;    1,551;   -0,955
198,163;   19,166;    0,096;   -0,682
198,763;   33,547;    1,733;   -0,500
199,363;   89,973;    3,096;   -0,500
199,963;   63,997;    0,369;    0,409
200,563;   47,129;    2,823;   -1,409
201,163;   23,899;    3,277;   -0,227
201,763;   70,804;    3,732;    0,318
202,363;   30,507;    1,459;    1,500
202,963;   77,762;    1,459;    1,045
203,563;  139,875;    0,277;    0,500
204,162;   57,788;    2,096;   -1,864
204,762;   50,729;    0,550;    0,591
205,362;   22,049;    3,004;    1,955
205,962;   72,898;    3,096;    1,955
206,562;   71,619;    1,823;    2,318
207,161;   46,434;   -0,087;    0,318
207,761;  157,922;    1,277;    2,409
208,361;   59,335;   -0,268;    1,409
208,960;  109,494;    0,459;    1,500
209,560;  119,549;    1,277;    1,591
210,160;  132,903;    0,550;    1,864
210,759;  105,744;    4,186;    1,227
211,359;   96,924;    1,459;    1,045
211,958;  269,087;    1,277;    2,045
212,558;  299,991;    1,732;    1,864
213,157;  196,183;    1,822;    1,500
213,757;  451,202;    3,822;   -0,227
214,356;  253,947;    1,277;   -0,409
214,956;  448,350;    3,095;    0,409
215,555;  228,933;    2,095;    2,136
216,154;  176,236;   -2,723;   -0,591
216,754;  168,507;    0,277;    0,773
217,353;  225,188;   -0,268;   -1,045
217,952;  118,009;   -0,178;    0,318
218,552;  278,646;    1,368;   -0,773
219,151;  198,140;    0,277;    0,955
219,750;  190,943;    0,004;   -0,227
220,349;  167,255;   -0,451;    1,045
220,948;  301,357;   -1,360;    1,136
221,548;  208,914;    0,913;    1,227
222,147;  268,395;   -0,087;   -0,409
222,746;  470,355;   -0,451;   -0,955
223,345;  329,904;    0,731;    0,500
223,944;  329,223;   -0,451;    0,773
224,543;  366,486;    1,004;   -1,409
225,142;  412,070;    0,094;    0,136
225,741;  360,197;   -0,814;    1,045
226,340;  335,959;   -0,451;   -0,955
226,939;  526,758;   -0,996;   -0,136
227,538;  333,135;   -0,360;   -0,773
228,137;  509,176;   -0,814;    0,864
228,735;  435,357;   -0,541;    1,227
229,334;  292,537;   -0,905;   -0,227
229,933;  543,690;    0,459;    0,591
230,532;  564,681;    1,186;   -0,409
231,131;  641,070;    1,732;    0,318
231,729;  501,414;   -2,450;   -2,318
232,328;  405,927;   -0,723;   -1,500
232,927;  406,580;    1,004;   -0,500
233,525;  391,278;    3,640;    0,045
234,124;  463,105;    2,368;   -1,591
234,723;  360,748;    0,913;   -1,045
235,321;  373,820;    2,277;    0,136
235,920;  440,415;    1,186;   -1,227
236,518;  632,578;    3,459;    0,318
237,117;  446,884;    0,004;   -0,227
237,715;  469,871;    0,640;   -0,500
238,314;  561,684;   -0,087;   -2,318
238,912;  755,532;   -0,723;   -1,409
239,510;  602,984;    0,459;   -1,227
240,109;  794,241;    0,004;    3,773
240,707;  765,032;   -0,996;    1,227
241,305;  615,977;    0,550;    0,136
241,904;  788,704;   -0,178;   -2,045
242,502;  929,525;   -0,632;   -0,227
243,100;  829,051;   -0,087;   -0,955
243,698;  831,038;    0,732;    1,682
244,297;  923,992;   -0,632;    0,682
244,895;  939,000;   -0,269;   -2,318
245,493; 1242,523;    2,186;   -0,591
246,091; 1249,853;    1,368;   -1,318
246,689; 1213,216;    1,004;    0,591
247,287; 1221,821;    0,822;   -1,136
247,885; 1280,109;   -1,451;    1,227
248,483; 1295,880;    1,822;   -0,500
249,081; 1435,638;    0,185;    1,591
249,679; 1561,029;   -0,178;    1,682
250,277; 1558,922;   -1,723;    0,864
250,875; 1662,961;   -1,087;   -1,045
251,473; 1649,734;   -1,178;    0,500
252,071; 1797,880;    1,459;    1,045
252,669; 1857,132;   -1,814;    0,318
253,267; 1909,612;   -0,087;    0,773
253,864; 1887,639;   -0,360;    0,682
254,462; 2084,652;    1,640;    1,591
255,060; 1920,830;   -0,269;    1,318
255,658; 2006,950;    0,822;   -0,136
256,255; 2292,366;    0,186;   -2,045
256,853; 2302,836;   -0,269;    1,409
257,451; 2289,976;    0,822;    1,864
258,048; 2780,336;    1,822;    1,864
258,646; 2409,742;    1,731;   -1,045
259,243; 2534,381;   -0,087;    2,227
259,841; 2534,375;   -0,814;    0,318
260,438; 2462,261;   -0,087;    0,864
261,036; 2788,569;   -1,905;    1,409
261,633; 2795,315;   -0,087;    2,227
262,231; 2710,887;    2,731;   -0,045
262,828; 2787,200;   -0,905;    1,136
263,425; 2822,880;    0,913;   -0,591
264,023; 2969,103;    0,186;    0,045
264,620; 2838,922;   -0,360;   -0,318
265,217; 3033,587;   -2,087;    3,136
265,815; 3019,545;   -1,905;    2,136
266,412; 3030,588;    0,731;    0,136
267,009; 3053,884;   -1,451;    0,773
267,606; 3155,378;    0,822;   -0,955
268,203; 2991,148;   -0,269;   -0,591
268,801; 3159,707;    1,731;    0,591
269,398; 3282,869;   -0,360;    2,500
269,995; 3321,291;    0,277;    1,591
270,592; 3160,567;   -0,632;   -0,500
271,189; 3244,445;    0,186;    0,409
271,786; 3331,729;   -0,632;    1,227
272,383; 3418,570;   -1,087;    0,227
272,980; 3378,128;    0,277;    0,318
273,577; 3565,013;    0,004;    1,227
274,174; 3291,956;    0,822;    2,591
274,771; 3295,859;   -0,814;   -0,773
275,367; 3609,103;    2,277;    1,409
275,964; 3527,355;    0,731;   -0,500
276,561; 3533,679;    1,549;   -1,045
277,158; 3604,756;    0,095;   -1,773
277,755; 3794,001;    2,185;    0,409
278,351; 3405,469;   -0,451;   -1,500
278,948; 3631,243;   -0,815;    0,045
279,545; 3586,810;   -1,360;    2,318
280,141; 4125,246;   -1,723;   -2,045
280,738; 3946,676;   -0,451;   -0,136
281,334; 3967,141;   -1,633;    0,591
281,931; 3709,045;   -0,087;   -1,318
282,528; 3907,253;    0,822;   -0,500
283,124; 4399,743;   -1,087;   -0,500
283,721; 4318,769;   -0,451;    1,409
284,317; 4221,107;    0,185;    2,500
284,913; 4684,285;   -1,360;    0,591
285,510; 4954,104;    0,640;   -0,318
286,106; 4962,700;   -2,269;   -0,955
286,703; 4587,574;   -0,360;    1,955
287,299; 4829,556;   -1,451;   -0,591
287,895; 5034,953;    0,822;   -1,045
288,491; 5473,869;    0,186;    2,136
289,088; 5389,754;   -2,360;    2,409
289,684; 5461,495;   -1,723;    1,500
290,280; 5574,062;    0,368;    0,682
290,876; 5704,527;    1,822;    5,500
291,472; 5697,150;    1,276;    2,227
292,068; 5833,610;    1,367;    0,227
292,665; 5639,466;    2,095;    0,773
293,261; 5541,174;    0,276;    2,136
293,857; 5848,515;    2,913;    2,136
294,453; 5875,417;    3,550;    0,955
295,049; 5881,073;   -0,268;    1,955
295,644; 6002,700;    0,095;    0,136
296,240; 6003,657;   -0,905;   -0,136
296,836; 6144,822;   -0,995;    0,318
297,432; 6397,384;    1,096;   -0,500
298,028; 6518,445;    0,732;    0,773
298,624; 6870,551;    1,459;    1,864
299,220; 7091,605;    2,368;    0,591
299,815; 6854,221;    1,005;   -0,409
300,411; 6829,982;    0,914;    1,773
301,007; 6864,171;    1,368;    0,227
301,602; 6863,429;   -0,541;   -2,318
302,198; 7034,708;    0,732;   -0,773
302,794; 7371,572;    1,187;   -0,500
303,389; 7457,484;   -1,177;    1,045
303,985; 7536,637;    0,550;    1,409
304,580; 7558,390;    1,459;    1,591
305,176; 7550,043;   -3,086;    0,136
305,771; 7481,898;   -1,268;   -1,227
306,367; 7464,145;    4,095;    0,136
306,962; 7689,066;    0,641;    1,500
307,558; 7380,641;   -0,450;    0,136
308,153; 7313,225;    1,095;   -1,136
308,748; 7492,008;   -0,814;    1,682
309,344; 7489,994;   -0,632;   -1,318
309,939; 7593,382;   -1,905;   -1,318
310,534; 7738,688;   -0,086;   -1,682
311,130; 7607,979;    0,459;   -2,500
311,725; 7365,440;    1,004;   -0,500
312,320; 7633,764;    2,459;    0,045
312,915; 7530,507;    1,459;   -1,045
313,510; 7571,744;    1,550;   -0,500
314,105; 7905,446;    1,096;    1,409
314,700; 7376,725;   -3,086;   -1,045
315,295; 7104,299;   -0,904;    0,045
315,890; 6740,973;    1,277;    0,864
316,485; 6988,078;   -0,359;   -0,318
317,080; 7049,703;   -3,086;    1,591
317,675; 7452,037;    2,005;   -0,682
318,270; 7017,076;    5,550;    3,318
318,865; 7008,166;    3,278;    3,045
319,460; 6838,308;   -0,904;    0,591
320,055; 6995,401;   -0,541;   -1,227
320,650; 6716,549;   -1,995;   -0,591
321,244; 6752,769;   -0,177;   -1,409
321,839; 7501,727;   -1,541;   -0,227
322,434; 7353,218;   -1,086;   -1,591
323,029; 7092,292;    1,732;    1,591
323,623; 6945,735;    1,550;    0,773
324,218; 6830,105;    2,368;    1,409
324,812; 6729,937;    1,096;    1,591
325,407; 6633,490;   -0,814;    2,045
326,002; 6581,642;    0,277;   -0,409
326,596; 6863,814;    0,914;    1,318
327,191; 7043,820;    0,823;   -1,045
327,785; 6773,268;   -0,813;   -0,227
328,379; 7016,760;    1,368;    0,136
328,974; 6814,336;    0,914;   -3,955
329,568; 7121,877;    0,186;   -2,409
330,163; 7034,506;    2,096;    1,045
330,757; 7361,140;    2,459;    1,591
331,351; 6866,890;    0,459;    0,682
331,945; 7200,662;    0,914;    1,409
332,540; 6975,436;   -1,723;   -0,591
333,134; 7135,929;   -1,086;    0,773
333,728; 7353,951;    0,005;    0,318
334,322; 7696,971;   -1,177;   -0,864
334,916; 7128,180;    0,277;    0,955
335,510; 7508,737;   -0,450;   -0,136
336,105; 7789,729;   -1,086;    1,591
336,699; 7577,984;   -1,086;    0,591
337,293; 7604,057;   -1,723;    0,318
337,887; 7757,067;   -2,723;    1,955
338,481; 7898,648;    0,459;    0,591
339,074; 8140,361;   -0,359;    2,682
339,668; 8051,963;   -1,632;    1,227
340,262; 8381,597;    1,732;    3,227
340,856; 7956,702;    1,822;   -0,682
341,450; 7483,497;    1,004;    1,864
342,044; 8239,239;    1,459;    0,136
342,637; 8126,059;    0,913;   -2,136
343,231; 8042,037;   -2,360;    0,682
343,825; 8070,983;   -1,086;   -0,591
344,419; 8115,758;   -1,995;    0,500
345,012; 8004,600;    2,459;    4,045
345,606; 8031,837;    4,641;    1,591
346,199; 7931,858;   -1,813;   -0,227
346,793; 7606,642;    1,914;    2,045
347,386; 7780,269;   -0,813;   -1,136
347,980; 7769,573;   -0,268;   -0,045
348,573; 7663,348;    2,278;    0,409
349,167; 7452,850;    5,278;    4,773
349,760; 7795,973;    2,914;    2,682
350,354; 7726,877;   -0,813;    1,136
350,947; 7519,287;    1,096;    1,682
351,540; 7284,680;   -0,358;   -1,409
352,134; 7226,912;    1,096;    1,136
352,727; 7294,842;   -0,086;    1,136
353,320; 7135,038;    0,005;    0,591
353,913; 6969,073;   -1,995;    1,864
354,507; 7124,622;    0,823;   -1,227
355,100; 7199,435;    0,460;    0,864
355,693; 6571,226;    2,005;    2,409
356,286; 6567,821;    0,823;    2,773
356,879; 6873,701;   -0,722;    1,227
357,472; 6514,371;   -0,904;    1,500
358,065; 6708,146;   -0,722;    2,500
358,658; 6598,883;   -0,540;    2,318
359,251; 6271,611;   -1,631;   -0,591
359,844; 5867,962;   -1,904;   -1,136
360,437; 6025,225;   -2,995;    0,045
361,030; 6233,581;    1,369;   -0,682
361,623; 5882,682;    2,824;    0,318
362,215; 5914,265;   -0,086;    2,045
362,808; 5769,815;   -2,358;   -1,682
363,401; 5922,464;   -2,449;    0,136
363,994; 5735,244;   -0,631;   -1,500
364,586; 5636,980;    0,824;   -1,500
365,179; 5765,088;   -0,449;   -1,136
365,772; 5328,200;   -1,995;    2,045
366,364; 5536,763;    1,915;   -3,227
366,957; 5714,637;    2,279;   -0,045
367,549; 5701,568;    2,188;   -0,864
368,142; 5423,458;    1,825;   -1,500
368,734; 5574,724;    0,734;   -2,136
369,327; 5537,982;    1,643;   -0,500
369,919; 5446,018;   -1,538;    0,409
370,512; 5309,740;   -1,083;   -0,500
371,104; 5082,736;   -0,901;    1,591
371,696; 5217,871;    1,191;   -0,955
372,289; 5255,339;    0,373;    1,136
372,881; 5352,405;   -2,080;    1,318
373,473; 5270,608;   -2,170;    1,136
374,066; 5108,932;   -0,169;    0,500
374,658; 4999,579;    0,378;    1,136
375,250; 5258,416;    0,653;   -1,409
375,842; 5129,049;    0,473;   -0,045
376,434; 5014,327;   -0,435;   -0,409
377,026; 5469,491;    0,204;   -2,500
377,618; 5377,876;   -0,158;   -0,682
378,210; 5224,827;   -0,338;   -1,955
378,802; 5063,314;    0,754;   -0,591
379,394; 5101,973;    1,846;    0,682
379,986; 5534,687;    1,393;   -0,955
380,578; 5586,363;   -0,153;    0,773
381,170; 5097,466;   -0,972;    0,045
381,762; 5028,109;    0,755;    1,409
382,354; 5145,791;   -0,065;   -1,318
382,945; 5223,142;   -2,976;    0,318
383,537; 5365,114;   -2,705;   -1,955
384,129; 5383,781;   -2,160;   -1,136
384,721; 5516,157;   -0,252;    0,955
385,312; 5405,763;   -0,161;   -0,955
385,904; 5529,982;   -2,706;    1,591
386,496; 4980,684;   -0,979;    1,045
387,087; 5130,002;    1,022;    2,500
387,679; 5126,071;   -1,160;    0,045
388,270; 5242,781;    2,840;    2,045
388,862; 5325,460;    1,295;   -0,318
389,453; 5162,543;   -0,887;    1,045
390,045; 5420,695;   -0,705;   -2,682
390,636; 5352,098;    0,204;   -0,591
391,227; 5209,487;   -0,523;   -0,045
391,819; 5346,046;    0,204;    0,773
392,410; 5405,124;    1,022;    0,045
393,001; 5331,299;   -0,979;   -1,591
393,593; 5539,432;    1,930;   -0,045
394,184; 5440,755;    1,385;   -0,409
394,775; 5308,332;    1,839;    2,136
395,366; 5515,456;    1,385;    0,773
395,957; 5448,338;    0,113;    0,136
396,548; 5705,176;   -0,342;    2,682
397,139; 5993,600;   -2,433;    0,591
397,730; 5727,878;   -1,888;    0,955
398,321; 5773,169;   -1,252;    0,955
398,912; 5779,024;   -0,615;    0,136
399,503; 5884,962;   -3,524;   -1,409
400,094; 5431,095;    0,294;    1,682
400,685; 5327,197;   -0,433;    0,045
401,276; 5338,372;    0,930;   -0,955
401,867; 5577,205;   -0,888;    0,773
402,458; 5650,977;   -2,251;   -2,318
403,048; 5641,392;    1,112;    0,591
403,639; 5301,914;    0,840;    0,864
404,230; 5559,060;    2,476;    0,318
404,821; 5491,507;   -0,615;    0,045
405,411; 5538,006;    1,203;   -2,591
406,002; 5177,424;   -1,252;   -1,136
406,592; 5109,079;    2,294;    0,045
407,183; 5296,407;    0,566;   -1,500
407,774; 5184,094;    3,475;   -0,136
408,364; 5409,511;    0,930;    0,409
408,954; 5107,853;    0,384;    1,227
409,545; 5135,487;    1,021;    1,045
410,135; 4678,963;    1,293;    0,500
410,726; 4788,667;    1,838;    0,318
411,316; 5088,609;    0,111;    0,773
411,906; 4751,384;   -0,253;   -0,409
412,497; 4369,750;   -1,070;   -0,045
413,087; 4768,176;   -1,980;   -0,227
413,677; 4985,698;   -0,707;    3,864
414,267; 4817,937;    0,656;    1,409
414,857; 4730,487;   -2,980;    4,227
415,448; 4878,120;    0,839;    0,500
416,038; 4628,518;    0,020;   -0,591
416,628; 4529,423;   -0,889;    0,409
417,218; 4201,403;    0,565;    3,318
417,808; 4340,862;    0,202;   -0,409
418,398; 4501,802;    0,020;    2,682
418,988; 4421,048;    2,020;    0,591
419,578; 4491,399;   -0,707;    1,409
420,168; 4691,203;   -1,343;   -0,955
420,757; 4366,878;   -1,343;   -1,500
421,347; 4036,246;    0,111;   -0,227
421,937; 4072,365;    2,292;    1,409
422,527; 4070,012;    0,838;   -0,773
423,116; 3909,832;   -0,253;   -0,045
423,706; 4017,266;   -1,889;    0,318
424,296; 3854,355;    1,384;    0,682
424,885; 4127,628;   -0,071;   -3,045
425,475; 4218,275;    1,474;   -2,864
426,065; 4064,123;   -0,980;   -0,318
426,654; 3809,214;   -0,435;   -0,318
427,244; 3948,036;    0,020;    1,409
427,833; 3559,849;    1,383;   -0,500
428,423; 3675,357;   -0,526;    1,136
429,012; 4071,832;   -0,344;   -1,136
429,601; 3731,146;   -1,344;    0,136
430,191; 3750,157;    1,292;    4,318
430,780; 3421,237;   -0,344;   -0,409
431,369; 3494,056;    0,746;   -0,045
431,959; 3750,272;   -1,254;    0,500
432,548; 3474,214;   -1,163;   -0,045
433,137; 3430,405;   -1,254;   -1,318
433,726; 3720,125;    0,292;    0,500
434,315; 3358,920;   -0,526;    2,409
434,905; 3387,344;   -1,254;    1,409
435,494; 3382,905;    0,746;    0,955
436,083; 3417,462;   -0,981;   -0,955
436,672; 3232,198;    0,110;    0,500
437,261; 3049,093;    0,292;   -1,955
437,850; 3227,237;    1,383;    0,682
438,439; 3160,871;    3,291;    1,955
439,027; 3094,968;    3,655;    1,773
439,616; 3134,195;    2,927;    1,227
440,205; 2821,241;    0,200;   -2,136
440,794; 2636,017;    2,109;   -0,045
441,383; 2624,642;   -1,346;   -0,591
441,971; 2442,548;   -2,436;    0,591
442,560; 2325,687;    0,563;   -1,773
443,149; 2118,021;    0,379;   -1,318
443,737; 2185,139;   -0,074;   -2,318
444,326; 2189,599;    0,018;    0,318
444,915; 2170,262;   -1,982;    0,864
445,503; 2212,435;   -2,891;   -0,318
446,092; 2257,260;    0,382;    2,136
446,680; 2275,453;    0,382;    0,318
447,269; 2201,065;   -0,346;   -0,318
447,857; 2008,626;    0,018;   -1,773
448,445; 1963,661;    0,563;    1,318
449,034; 1966,415;   -1,528;   -1,136
449,622; 1895,052;   -1,073;    3,500
450,210; 2147,811;    2,017;    2,227
450,799; 2075,999;    0,290;   -0,591
451,387; 1857,308;    1,381;   -0,591
451,975; 1775,300;    2,654;    0,864
452,563; 1920,074;    3,472;    2,318
453,151; 1618,005;   -0,528;   -1,227
453,739; 1602,641;   -1,347;    0,136
454,328; 1775,510;    2,381;   -2,136
454,916; 1584,098;    2,562;   -0,136
455,504; 1557,117;    1,017;    1,227
456,092; 1478,865;    0,017;   -1,591
456,679; 1334,837;    1,472;    0,682
457,267; 1988,488;    4,017;    1,045
457,855; 1461,830;    1,017;    1,409
458,443; 1140,758;   -0,165;    1,682
459,031; 1518,928;    0,108;    2,409
459,619; 1456,797;   -1,801;    2,864
460,206; 1259,471;    0,835;    2,045
460,794; 1274,694;   -2,983;   -0,227
461,382; 1372,110;   -0,529;   -0,864
461,970; 1241,413;    1,198;    1,864
462,557; 1183,624;   -0,711;   -0,682
463,145; 1393,221;   -3,165;   -1,682
463,732; 1685,154;    2,016;   -1,045
464,320; 1334,021;   -0,075;   -3,045
464,907; 1520,802;    2,743;   -0,773
465,495; 1334,171;    0,743;   -1,227
466,082; 1187,049;   -1,984;   -0,045
466,670; 1153,234;   -2,529;    1,227
467,257; 1068,151;   -1,711;    2,045
467,844; 1231,006;   -0,075;    0,045
468,432; 1199,676;    0,834;    3,500
469,019; 1053,667;    0,925;   -1,773
469,606; 1153,897;    0,470;    3,682
470,193; 1188,893;   -1,439;    0,227
470,780; 1133,205;   -2,075;    0,864
471,368;  999,431;   -1,257;   -0,773
471,955; 1126,878;    1,379;   -0,682
472,542;  991,565;    0,652;   -1,136
473,129;  789,398;   -0,166;    0,136
473,716;  761,453;    1,470;    0,591
474,303;  813,727;    0,652;   -0,864
474,890;  826,520;   -1,439;   -0,500
475,477;  965,318;   -1,621;    0,409
476,064;  778,158;    1,106;   -1,591
476,650;  918,320;    0,288;    0,318
477,237;  786,138;   -0,258;    0,955
477,824;  717,355;   -1,076;    0,864
478,411;  541,988;   -1,894;   -0,318
478,997;  520,006;    0,560;   -0,773
479,584;  411,452;    1,196;   -0,409
480,171;  759,534;   -0,440;   -0,773
480,757;  871,767;    2,651;    0,773
481,344;  631,869;    0,469;    0,409
481,931;  420,990;    1,105;    1,045
482,517;  682,146;   -1,258;    0,318
483,104;  815,694;    1,106;    2,864
483,690;  608,151;   -1,804;    0,045
484,276;  554,380;   -0,895;    0,227
484,863;  904,552;    2,469;    1,136
485,449;  623,484;   -0,077;    0,318
486,035;  523,063;   -1,986;   -0,136
486,622;  715,684;   -0,895;    0,045
487,208;  568,028;    1,378;    1,500
487,794;  403,618;    0,741;    0,318
488,380;  417,897;    0,105;   -1,409
488,967;  429,653;   -1,168;   -0,409
489,553;  446,399;   -1,895;   -1,409
490,139;  604,824;    1,559;    0,773
490,725;  441,646;    0,741;   -0,227
491,311;  515,339;    3,287;    3,045
491,897;  432,705;   -0,986;    1,500
492,483;  459,924;    0,105;    1,227
493,069; 1225,587;    3,923;    0,864
493,655;  744,450;    1,650;    0,682
494,241;  565,506;    1,377;   -0,955
494,826;  654,944;    0,287;   -1,045
495,412;  785,156;    2,559;   -0,682
495,998;  663,285;   -0,805;   -0,318
496,584;  804,215;    0,377;    1,045
497,169;  804,738;    1,014;   -0,682
497,755;  713,826;    0,650;    1,227
498,341; 1140,465;    0,559;    0,318
498,926; 1375,355;    1,832;    1,955
499,512; 1042,536;    1,286;    2,955
500,097; 1052,056;    0,195;   -0,318
500,683; 1181,411;   -0,350;    2,136
501,268; 1283,261;   -0,169;   -0,955
501,854; 1416,058;   -0,169;    1,227
502,439; 1477,897;   -0,624;   -1,773
503,024; 1724,124;    0,195;    0,500
503,610; 1960,516;   -0,078;   -0,682
504,195; 1979,100;    0,558;    1,955
504,780; 2325,355;    2,922;    1,227
505,366; 2654,169;    3,013;    2,864
505,951; 2696,249;    0,740;    1,045
506,536; 2941,729;   -3,260;   -3,682
507,121; 3179,205;    0,285;   -0,318
507,706; 3692,480;    2,376;    1,045
508,291; 4096,704;    2,649;    1,136
508,876; 4138,685;   -0,988;    2,591
509,461; 4187,487;   -0,169;   -0,773
510,046; 4809,060;    0,194;    0,318
510,631; 5281,411;   -0,351;   -0,773
511,216; 5398,028;    2,467;   -0,500
511,801; 6038,610;   -0,442;    2,591
512,386; 6524,205;    0,740;    0,500
512,971; 6843,862;   -2,988;    0,955
513,555; 6882,908;   -0,897;   -1,500
514,140; 7801,853;   -0,442;   -3,136
514,725; 8079,301;   -0,715;   -1,136
515,309; 8478,388;   -0,533;    0,318
515,894; 8412,902;   -0,624;   -2,227
516,479; 9080,909;   -0,624;   -0,955
517,063; 9203,357;    0,376;    1,227
517,648; 9609,087;    1,012;   -1,136
518,232; 9475,246;   -0,261;   -1,409
518,817;10022,944;   -0,079;    1,682
519,401;10501,272;    2,194;    0,591
519,985;10250,448;    1,103;    1,136
520,570;10326,129;    0,830;   -1,955
521,154;10773,018;    2,102;    0,591
521,738;11047,857;   -2,352;    2,409
522,323;11754,377;   -0,170;    1,682
522,907;11661,642;    0,466;   -0,136
523,491;11549,826;    0,557;    0,955
524,075;11660,343;    2,284;    0,591
524,659;11863,906;    1,466;    0,591
525,243;11454,394;    1,739;    0,409
525,827;11767,222;    0,648;   -0,045
526,411;12675,633;   -1,989;   -0,136
526,995;12939,429;   -0,352;    1,409
527,579;12600,638;   -0,443;   -1,045
528,163;12955,863;    0,375;   -1,500
528,747;12945,222;    2,466;   -0,773
529,331;13326,795;   -0,080;   -1,409
529,915;13564,622;    1,738;    0,955
530,499;13596,955;   -0,807;    1,227
531,082;13300,909;   -0,534;    1,591
531,666;12801,640;    1,374;    0,773
532,250;13469,375;    1,284;    2,682
532,833;13850,787;    0,920;    2,773
533,417;13760,910;   -1,807;    0,864
534,001;13728,955;    1,647;   -0,318
534,584;14483,365;    0,374;    0,500
535,168;14336,182;    0,465;    1,409
535,751;14345,126;    0,647;    0,045
536,334;13823,132;   -0,898;   -0,409
536,918;14445,252;    0,011;    1,591
537,501;14590,989;   -0,899;    1,318
538,085;14584,177;   -0,444;    1,045
538,668;14730,057;    0,829;    2,409
539,251;15065,573;    1,829;    3,773
539,834;15132,843;    0,101;    0,773
540,418;15063,258;   -1,990;    4,318
541,001;15194,312;   -0,990;    1,773
541,584;15179,953;    2,101;    2,227
542,167;14862,473;    1,374;    2,955
542,750;15028,147;    1,919;   -0,773
543,333;14640,141;    0,555;    2,136
543,916;15379,246;    0,192;    2,500
544,499;16001,678;   -1,354;    0,227
545,082;16008,831;    1,374;    3,591
545,665;16121,401;    1,919;    1,500
546,248;16441,869;    1,010;   -0,318
546,830;16145,561;   -0,445;    1,955
547,413;16586,730;    1,010;   -0,773
547,996;17109,164;    0,555;    0,500
548,579;16885,873;    0,919;    0,955
549,161;16703,390;    1,828;    2,682
549,744;16510,918;   -0,809;    0,409
550,326;16991,465;   -0,809;   -1,136
550,909;16757,718;    2,737;    0,591
551,492;17167,915;   -0,263;    0,227
552,074;16948,936;   -0,173;   -1,318
552,657;17500,361;    2,373;    0,045
553,239;17276,365;   -0,173;   -0,773
553,821;17190,441;   -1,082;    1,045
554,404;16671,693;    1,282;    1,136
554,986;17087,975;    0,464;    1,045
555,568;17650,251;    1,191;   -0,955
556,151;16900,950;    1,191;   -0,227
556,733;17090,789;   -0,264;   -0,864
557,315;17578,177;    0,100;    0,500
557,897;17379,143;    0,554;   -0,500
558,479;17482,630;   -1,991;    1,318
559,061;17605,834;   -0,719;   -0,864
559,643;17948,702;   -0,264;    0,045
560,225;18304,496;    1,645;    2,864
560,807;18330,612;    0,918;    0,318
561,389;17818,676;    0,554;    2,318
561,971;18550,523;    0,463;    2,136
562,553;18365,593;   -1,628;    1,591
563,135;18516,440;   -0,537;    1,136
563,717;18102,681;    3,372;    1,136
564,298;18823,355;    3,645;   -0,045
564,880;18540,448;    0,645;   -1,409
565,462;18674,448;    0,645;    1,318
566,043;19796,908;   -0,446;    2,318
566,625;19356,726;    1,918;    1,227
567,207;19222,648;    1,099;    1,682
567,788;20298,925;   -1,264;    1,500
568,370;21114,913;    1,917;   -0,500
568,951;20901,354;    0,190;    0,227
569,533;21695,924;   -0,628;   -0,500
570,114;22176,764;   -0,446;    0,682
570,695;22638,066;   -0,174;   -1,318
571,277;23121,529;   -0,265;   -1,682
571,858;23789,916;    2,008;   -1,136
572,439;24699,512;    1,554;   -1,045
573,021;24825,855;    2,099;   -2,773
573,602;25324,300;   -1,265;    0,318
574,183;26233,097;   -2,083;    2,227
574,764;26337,246;   -1,629;    0,409
575,345;26847,982;    0,917;   -0,136
575,926;27441,509;   -0,356;    0,136
576,507;27438,481;    1,099;   -0,227
577,088;28533,814;    3,099;    1,682
577,669;28476,616;    0,735;    1,955
578,250;29174,734;    0,644;   -1,045
578,831;29831,820;   -1,356;   -2,227
579,412;30084,314;   -0,810;    0,955
579,993;31015,922;    1,008;    0,227
580,573;31352,772;   -0,629;   -0,955
581,154;30365,375;    0,735;   -0,591
581,735;31218,221;    0,644;    0,773
582,315;30707,039;   -0,629;    2,136
582,896;31002,792;   -0,174;    1,227
583,477;30507,083;    0,189;    1,227
584,057;30706,892;    0,553;    0,955
584,638;30992,377;    2,553;    2,318
585,218;30939,890;   -0,538;    2,682
585,799;31135,733;    0,281;   -0,227
586,379;31098,087;    0,372;    1,591
586,959;29909,795;    0,735;    0,318
587,540;29305,908;   -0,629;    2,227
588,120;28883,868;    1,007;   -0,045
588,700;27896,791;    2,553;    2,136
589,281;28187,438;    0,462;   -0,955
589,861;28092,746;    0,099;   -1,682
590,441;27889,167;    2,371;   -2,682
591,021;26897,194;   -0,265;   -2,591
591,601;27166,021;   -0,537;    0,500
592,181;27205,685;   -0,719;   -0,773
592,761;26524,887;    0,007;    1,409
593,341;26454,400;   -0,901;    0,045
593,921;26470,056;   -0,265;    1,591
594,501;26341,644;   -0,538;    1,318
595,081;26192,267;    0,917;   -0,318
595,661;26547,336;   -1,447;    0,955
596,240;27076,688;   -0,537;    0,136
596,820;26687,523;    0,372;    1,955
597,400;26796,273;    2,008;    0,773
597,980;27028,804;    2,008;    1,045
598,559;27106,998;    2,735;   -0,227
599,139;26798,548;   -0,174;   -1,227
599,718;26719,366;   -0,174;   -0,409
600,298;26952,302;    0,735;    0,682
600,877;27144,897;    2,917;    1,409
601,457;27449,640;    2,281;    1,136
602,036;27338,475;    0,190;    2,045
602,616;27584,894;    0,644;    1,682
603,195;27888,185;   -0,355;    3,500
603,774;27419,068;   -0,901;    2,045
604,354;27285,494;    0,826;   -0,500
604,933;26802,837;    0,463;    1,864
605,512;26967,193;    3,554;    0,591
606,091;27053,695;   -0,537;    3,773
606,671;27830,247;    0,281;    0,773
607,250;26935,339;    1,644;    3,136
607,829;27199,413;    2,372;    3,227
608,408;26997,754;    1,190;    2,591
608,987;26063,276;    1,281;    3,409
609,566;26345,064;   -1,265;   -2,500
610,145;26431,339;   -1,082;    0,682
610,723;26874,827;    4,372;    6,864
611,302;26143,087;   -0,446;    1,682
611,881;25685,548;    5,008;   11,227
612,460;26551,519;    1,645;    3,955
613,039;26947,080;   -0,082;    2,045
613,617;25647,537;    1,736;    4,773
614,196;25855,914;    1,099;    1,227
614,775;26191,503;    1,009;    2,409
615,353;26171,919;    0,736;    0,864
615,932;25864,527;    0,100;    2,409
616,510;26490,502;    0,554;    0,591
617,089;26045,862;    7,100;   17,591
617,667;25768,527;    2,372;    6,136
618,246;25704,549;   -1,537;    1,318
618,824;25834,067;   -3,355;   -0,955
619,402;25405,431;   -2,900;   -1,773
619,981;25886,967;   -0,173;   -1,045
620,559;25758,293;    0,009;    1,682
621,137;25262,540;   -0,718;    1,864
621,715;25285,937;   -1,173;   -0,682
622,293;25231,781;   -0,537;   -0,773
622,871;25672,995;   -0,718;    0,500
623,450;25276,978;    0,373;   -0,864
624,028;25135,687;    0,191;   -0,955
624,606;24795,254;   -1,718;    1,682
625,183;25191,577;   -1,536;   -1,136
625,761;24785,849;    1,009;    1,136
626,339;25048,773;    1,373;    2,591
626,917;25497,197;   -0,172;   -0,045
627,495;25536,321;   -0,354;    1,318
628,073;24987,249;   -0,263;    2,864
628,650;24683,600;    0,100;    2,136
629,228;25094,278;    0,373;    4,409
629,806;24513,329;    2,282;    1,136
630,383;24794,740;    1,464;   -0,318
630,961;24551,450;    2,555;   -0,955
631,539;24308,072;    2,464;    0,227
632,116;23636,178;   11,373;   15,409
632,694;24215,560;    2,555;    6,500
633,271;24531,294;    0,828;    2,682
633,848;24474,577;    1,828;    2,045
634,426;24549,710;   -1,081;    1,773
635,003;23685,743;    1,101;   -0,409
635,580;23951,195;    1,192;    3,682
636,158;24490,276;    3,737;    1,227
636,735;24470,688;    0,555;   -0,500
637,312;24613,459;   -0,809;   -0,682
637,889;24746,312;   -4,354;   -0,682
638,466;24196,736;   -3,990;   -0,409
639,043;24165,472;    2,101;   -1,136
639,620;24532,713;   -2,262;   -0,955
640,197;24838,669;    1,100;    1,682
640,774;24968,807;   -0,172;    1,136
641,351;25348,036;    0,737;    1,136
641,928;24841,356;   -0,627;    1,409
642,505;24485,494;    0,828;   -0,500
643,082;24598,268;   -1,718;    1,227
643,658;23663,133;   -0,718;    1,500
644,235;24422,635;    1,191;    2,500
644,812;24651,864;    1,918;    0,773
645,388;24406,275;   -0,991;    1,409
645,965;24489,594;   -0,809;    1,682
646,542;24575,732;   -1,445;   -0,227
647,118;24509,689;    1,009;   -0,955
647,695;24806,008;   -0,263;    1,136
648,271;24757,601;   -0,536;    0,500
648,848;25049,830;    0,736;    2,227
649,424;24924,241;    0,827;    1,318
650,000;24613,560;   -0,354;   -1,045
650,577;24444,971;   -0,627;   -0,955
651,153;24894,655;   -1,809;    0,955
651,729;25864,520;    1,191;    0,864
652,305;26027,658;    0,645;    2,773
652,881;30004,614;   -0,082;    1,136
653,458;36494,479;    1,100;    0,227
654,034;40381,254;    0,282;    1,591
654,610;41905,574;    0,554;    0,773
655,186;43194,348;    0,645;    3,045
655,762;42928,031;   -0,991;    0,409
656,338;42946,260;    0,100;    0,136
656,913;43877,762;   -0,082;    0,409
657,489;43144,536;    0,827;   -0,318
658,065;43173,856;   -0,173;   -1,591
658,641;43832,358;   -0,900;   -0,864
659,217;43164,587;   -0,991;    0,409
659,792;42528,088;    0,645;   -0,409
660,368;42796,772;   -2,173;   -0,682
660,944;42551,819;   -2,082;    1,227
661,519;38434,048;   -0,628;    0,409
662,095;32781,640;   -1,719;    0,591
662,670;28182,051;    1,281;   -0,136
663,246;26968,916;    1,009;   -0,409
663,821;26207,509;    0,281;    1,682
664,396;25660,011;    0,009;    1,864
664,972;25907,058;    0,009;   -0,500
665,547;26206,559;    1,372;    0,136
666,122;26257,334;   -1,082;    0,318
666,698;26542,017;   -0,173;    0,318
667,273;25940,701;   -0,173;    0,136
667,848;26753,293;    2,372;    1,500
668,423;26468,249;    2,190;    2,318
668,998;27026,297;    2,827;   -0,682
669,573;27555,616;   -3,264;   -1,500
670,148;27342,754;   -1,446;   -0,682
670,723;27196,074;   -1,810;    0,318
671,298;27563,758;    2,372;    1,045
671,873;27703,714;   -0,082;   -0,136
672,448;27697,397;    0,645;    0,136
673,023;28045,081;   -1,992;   -0,227
673,597;28324,764;    0,827;    2,318
674,172;28083,721;   -0,355;    0,318
674,747;27587,586;    0,372;   -1,045
675,321;27486,997;   -0,628;    3,318
675,896;27065,953;    0,645;    1,045
676,471;28054,363;    2,645;    1,591
677,045;27833,774;   -1,264;    0,682
677,620;27842,821;    0,190;    1,136
678,194;28170,323;   -2,628;    1,136
678,769;27700,370;   -1,083;   -0,318
679,343;27959,872;   -0,628;    1,773
679,917;27835,555;   -1,446;    1,955
680,492;27963,420;    0,826;    3,227
681,066;28071,649;    3,372;    0,409
681,640;28107,242;    1,463;   -0,318
682,214;28893,107;    0,735;    0,500
682,788;28381,972;   -1,356;   -0,773
683,363;28350,565;   -1,810;    1,682
683,937;28092,158;   -1,719;   -0,318
684,511;28835,023;    0,463;   -0,591
685,085;28526,888;   -1,356;    0,318
685,659;28313,753;   -2,538;    0,864
686,232;28581,528;   -0,356;   -0,318
686,806;28322,211;   -0,901;    0,409
687,380;28932,895;   -0,174;    0,591
687,954;29146,033;   -1,174;    1,136
688,528;28811,171;   -0,719;    1,955
689,101;29581,945;   -3,992;    1,045
689,675;29205,447;   -0,356;   -0,136
690,249;28550,130;   -0,719;    0,409
690,822;28853,632;    0,280;    0,318
691,396;28916,497;   -0,265;    1,227
691,969;28426,999;    1,280;    0,136
692,543;28893,137;   -0,447;   -1,955
693,116;28544,548;   -0,265;   -1,409
693,690;28454,413;    0,099;    0,500
694,263;28953,005;   -1,083;    2,955
694,836;29004,780;    1,371;    3,591
695,410;27688,463;   -0,265;    1,773
695,983;28091,692;    0,189;    0,591
696,556;28073,921;   -0,447;   -1,045
697,129;28489,514;   -0,356;    1,409
697,703;28107,379;   -1,629;    1,955
698,276;28086,335;    1,462;   -0,773
698,849;27898,019;    1,280;    1,409
699,422;28312,248;   -1,083;    0,591
699,995;28010,022;    0,007;    0,136
700,568;28482,433;   -0,629;    3,045
701,140;28513,389;   -2,811;    1,682
701,713;28215,527;   -0,174;    2,409
702,286;28022,847;   -0,538;    0,864
702,859;27924,712;   -0,902;   -0,591
703,432;27107,123;    0,825;    0,682
704,004;27603,715;    0,462;    0,318
704,577;27440,126;   -0,629;    0,136
705,150;28003,446;    0,189;    2,500
705,722;27787,038;   -0,356;   -3,227
706,295;27599,813;   -0,175;   -0,591
706,867;27458,587;   -0,175;    1,955
707,440;27636,725;   -1,720;   -0,409
708,012;27869,500;    0,462;    0,591
708,584;27775,910;    2,462;    0,227
709,157;28079,866;    1,825;   -0,591
709,729;27768,277;    2,280;    2,045
710,301;28649,688;    0,734;    0,045
710,874;28653,826;   -1,447;   -0,227
711,446;27465,600;    0,371;    0,864
712,018;27397,738;    0,098;    0,500
712,590;27123,967;   -1,993;    1,682
713,162;27629,196;    0,825;    1,318
713,734;27874,152;    1,825;   -2,045
714,306;27826,745;   -1,902;   -0,409
714,878;26559,883;    0,825;    0,864
715,450;27324,930;    0,643;    0,864
716,022;27564,068;    1,552;    1,318
716,593;27695,115;    0,189;    0,591
717,165;27675,526;   -3,175;   -1,227
717,737;27351,482;    0,280;    0,409
718,309;27005,166;    0,280;   -0,045
718,880;26990,849;   -0,539;   -1,409
719,452;27195,987;   -0,175;   -1,591
720,024;26833,489;    0,734;   -0,591
720,595;27371,445;   -2,902;    0,955
721,167;26927,765;    0,370;   -2,045
721,738;26437,539;   -0,812;   -1,045
722,309;26422,132;   -0,993;   -1,227
722,881;26189,542;   -1,357;    0,773
723,452;26838,862;   -2,630;    2,864
724,023;27023,364;   -0,721;    2,682
724,595;26775,138;    0,007;    0,682
725,166;26568,367;    0,007;   -0,409
725,737;26207,687;    1,734;    0,227
726,308;26301,825;   -0,266;    0,318
726,879;26721,054;   -1,630;    1,227
727,450;26565,737;    0,552;   -0,045
728,021;26534,239;    3,097;    0,682
728,592;26343,104;    0,734;    0,500
729,163;26642,333;    0,643;   -0,136
729,734;26633,926;    0,188;   -0,227
730,305;27027,246;    1,734;    0,136
730,876;27363,384;    0,188;    2,955
731,447;27020,613;    2,188;    2,682
732,017;27141,296;    1,097;    1,864
732,588;26646,707;    0,734;    1,227
733,159;26781,845;    0,643;   -1,045
733,729;26677,437;    0,006;    0,409
734,300;25957,848;    0,915;    0,864
734,870;26412,350;    3,461;    0,591
735,441;26973,760;    0,370;   -0,591
736,011;26702,898;    0,643;   -1,591
736,582;26670,218;   -0,812;    0,045
737,152;26086,720;   -1,721;   -2,045
737,722;26548,858;   -0,267;   -0,682
738,293;26282,178;   -1,358;    1,318
738,863;26160,407;    2,461;    2,318
739,433;25992,999;    5,279;    0,318
740,003;26620,137;   -0,994;   -0,682
740,573;25993,821;    2,097;   -1,591
741,143;25971,504;   -1,085;    0,318
741,713;26751,460;    1,188;   -0,500
742,283;26425,507;    0,915;    1,591
742,853;26258,100;    1,915;    1,591
743,423;25736,420;    1,733;    0,045
743,993;25791,831;   -0,358;    1,500
744,563;25193,059;    0,097;   -0,864
745,133;25188,379;   -0,812;   -0,864
745,702;25863,699;   -0,267;    1,773
746,272;25107,201;   -0,176;    0,591
746,842;24884,339;   -1,358;   -0,591
747,411;25280,295;   -0,267;   -0,318
747,981;25396,797;    0,097;    0,500
748,551;25510,662;    2,278;   -1,045
749,120;25359,709;    0,642;   -0,227
749,690;25727,574;   -0,631;    2,409
750,259;26038,894;    1,369;    2,955
750,828;25973,850;    1,551;   -1,955
751,398;26256,988;    1,278;   -0,045
751,967;25716,763;    2,187;    0,409
752,536;25936,992;   -0,813;   -0,227
753,105;26341,584;    0,096;    0,227
753,675;26189,268;    0,096;    1,773
754,244;26131,860;   -0,904;    3,591
754,813;26142,907;    0,551;    1,227
755,382;25790,227;    0,460;    0,955
755,951;26305,092;    1,551;    3,682
756,520;25800,321;   -0,085;    1,864
757,089;26287,278;    0,278;    0,500
757,658;26435,779;    1,733;    1,227
758,227;26510,190;    1,096;    0,318
758,795;26823,601;    1,187;    1,136
759,364;27024,557;   -0,086;   -0,591
759,933;26071,695;   -1,176;   -0,045
760,501;25592,469;    0,733;   -1,318
761,070;26067,244;   -2,813;   -1,409
761,639;26782,473;   -1,904;    1,318
762,207;26085,429;    1,551;   -0,955
762,776;25991,112;    0,369;    0,864
763,344;25954,614;   -0,995;    0,591
763,913;25154,116;   -0,722;    1,409
764,481;25835,435;    1,005;   -0,136
765,049;25639,573;   -1,358;    1,409
765,618;25523,711;   -0,086;    0,318
766,186;25635,577;    0,278;    0,136
766,754;25808,260;    0,005;    1,864
767,322;24863,034;   -1,995;    0,409
767,890;24901,627;   -0,722;   -1,773
768,459;25271,765;   -2,177;   -0,318
769,027;25399,539;    1,641;    3,409
769,595;24389,405;    3,278;    2,591
770,163;24840,270;    3,823;    2,955
770,730;24572,772;    0,732;   -0,136
771,298;24476,455;    0,187;   -1,409
771,866;24578,502;   -1,541;    4,955
772,434;24870,458;   -0,631;   -1,864
773,002;25043,233;    0,005;    0,682
773,569;24737,371;    0,914;    1,682
774,137;24552,236;   -0,268;   -0,045
774,705;25339,738;    0,278;   -0,136
775,272;24820,330;    0,641;    0,682
775,840;24562,196;   -0,177;    2,682
776,407;24114,879;    0,277;    1,955
776,975;23671,926;   -0,632;    0,318
777,542;24729,791;   -1,086;   -0,045
778,110;24564,111;   -1,268;   -0,045
778,677;24303,886;   -2,359;   -0,864
779,244;23989,933;    2,186;    1,045
779,812;24099,889;    1,823;    0,864
780,379;23965,572;    0,005;    1,136
780,946;24236,983;    1,005;   -0,773
781,513;24563,757;   -1,450;    0,318
782,080;23971,532;   -0,086;    2,864
782,647;24702,215;   -0,268;    3,045
783,214;24239,808;   -0,177;    3,864
783,781;23901,128;   -0,723;   -0,682
784,348;23704,084;   -0,632;    1,500
784,915;24221,676;   -3,177;    0,318
785,482;23952,360;    1,368;    2,591
786,049;24396,407;    0,186;   -0,591
786,615;24500,909;    0,277;   -0,955
787,182;24266,228;    0,186;   -0,682
787,749;23968,821;   -2,814;    1,409
788,315;23281,505;   -1,632;   -0,409
788,882;23595,370;    1,550;   -1,227
789,448;24268,781;    1,732;   -0,955
790,015;24304,646;    1,095;    3,227
790,581;23851,602;    1,459;    0,227
791,148;23786,467;    0,641;    1,045
791,714;23999,423;   -0,541;    3,136
792,280;23646,107;    0,186;    1,591
792,847;23238,609;    0,550;    2,500
793,413;23791,928;   -0,269;   -0,318
793,979;23380,248;    3,459;   -1,318
794,545;23377,750;    4,459;    2,682
795,111;22785,797;    2,186;    1,318
795,678;22963,753;    0,731;   -1,682
796,244;22570,800;    3,368;    0,136
796,810;23182,029;    1,731;    0,773
797,375;22958,349;    0,549;   -2,136
797,941;22950,305;   -0,541;    0,591
798,507;23067,534;   -0,451;   -0,955
799,073;22667,309;   -0,360;    0,591
799,639;22747,901;   -2,632;    3,136
800,205;22776,221;    0,095;    2,682
800,770;22311,904;    0,640;    1,773
801,336;22376,951;    1,368;   -0,955
801,901;22089,817;    4,549;    3,136
802,467;22655,409;   -0,542;    2,045
803,033;22045,275;   -0,087;    0,864
803,598;22254,140;    1,913;   -1,045
804,163;22238,551;    1,095;   -0,318
804,729;22210,507;   -0,178;    1,136
805,294;22637,190;    0,822;    2,227
805,859;22434,510;    0,731;   -0,409
806,425;21890,830;    1,186;    2,682
806,990;21540,877;    2,186;    4,318
807,555;22043,379;   -1,451;    2,591
808,120;21897,062;    0,822;   -0,409
808,685;21967,291;    0,185;   -2,500
809,250;21474,702;    0,004;   -0,500
809,815;21788,931;    1,913;    0,682
810,380;22334,978;   -0,269;    1,591
810,945;22854,207;   -1,087;    2,045
811,510;22010,072;    2,094;    1,591
812,075;21688,483;   -0,633;   -1,409
812,640;21734,439;    2,003;    1,409
813,204;21799,577;    0,822;   -0,227
813,769;22333,988;    2,094;   -0,045
814,334;21759,762;    0,458;    0,864
814,898;21835,446;    0,367;    0,591
815,463;21671,947;    1,276;   -0,773
816,027;21663,267;   -0,724;   -2,318
816,592;21761,951;    0,640;   -2,045
817,156;21215,179;    2,094;    1,136
817,721;21078,772;    4,276;    2,318
818,285;21043,274;    2,912;    1,500
818,849;21715,503;   -1,451;    1,682
819,414;21606,731;   -0,269;    2,955
819,978;21189,142;   -1,269;    1,773
820,542;21751,008;    2,003;    0,500
821,106;21516,964;   -0,815;    0,682
821,670;21568,920;   -0,815;    2,591
822,234;21343,603;   -0,270;    1,409
822,798;20708,105;    0,003;    0,500
823,362;20683,698;   -0,633;    4,227
823,926;19969,745;    0,094;    1,136
824,490;20203,155;   -0,997;   -0,682
825,054;20633,748;   -0,088;   -1,136
825,618;20272,613;   -1,542;   -1,500
826,181;20240,842;    0,458;   -1,318
826,745;20135,253;    1,367;   -1,045
827,309;20466,845;    1,185;    1,318
827,872;19868,347;    1,367;    0,955
828,436;20876,849;    1,185;   -0,773
828,999;20905,987;   -0,997;    1,227
829,563;19730,579;   -0,179;    1,136
830,126;19577,717;   -0,179;   -0,591
830,690;19541,492;   -1,997;    2,864
831,253;19108,357;   -0,543;    2,227
831,816;19234,950;   -1,906;    0,500
832,380;19169,360;    0,185;    0,864
832,943;19357,316;   -1,361;   -0,500
833,506;18827,000;    2,639;   -1,227
834,069;19619,047;    3,912;   -0,955
834,632;19704,821;    1,730;    1,318
835,195;19624,414;    1,003;    0,955
835,758;18825,734;   -0,997;    1,955
836,321;18668,145;    0,730;   -1,045
836,884;18758,919;   -0,725;   -0,955
837,447;18814,875;   -2,816;    1,773
838,010;19080,104;    0,366;    3,227
838,573;19315,606;   -1,179;    0,773
839,135;19284,289;   -1,361;   -0,955
839,698;18730,064;    1,275;    0,409
840,261;18278,383;    1,003;   -0,227
840,823;18138,703;   -0,543;    0,864
841,386;18469,568;   -0,452;   -2,409
841,948;18347,797;   -1,361;    1,773
842,511;18079,754;    0,912;    1,682
843,073;18212,164;    1,912;    0,227
843,636;18046,848;   -0,361;   -0,227
844,198;17989,713;    0,911;    0,591
844,760;18044,578;    1,093;    1,955
845,322;17708,444;    0,548;    1,136
845,885;18095,036;    0,730;    0,591
846,447;18550,901;   -1,998;    0,227
847,009;18139,585;    1,911;   -0,682
847,571;18454,905;    0,820;   -2,045
848,133;18577,770;   -1,089;   -1,864
848,695;18379,272;   -0,543;    1,409
849,257;17966,410;   -1,089;   -1,682
849,819;18124,911;   -0,998;   -0,409
850,381;18228,868;   -0,725;   -0,864
850,942;18569,187;    1,093;   -0,591
851,504;18512,416;    1,184;    0,227
852,066;18531,463;    1,275;   -1,591
852,628;18060,329;   -0,180;    1,955
853,189;17642,830;    1,638;    2,682
853,751;17745,877;   -0,907;    1,409
854,312;17532,106;   -0,453;   -1,682
854,874;18051,790;   -2,089;   -0,773
855,435;18591,564;   -0,907;   -1,682
855,997;18763,339;   -1,816;   -0,136
856,558;18041,840;    0,366;    1,773
857,119;18134,524;    0,820;    2,864
857,681;17828,480;    0,002;    0,318
858,242;17895,345;    1,911;   -2,136
858,803;18333,301;    0,456;   -0,773
859,364;18880,076;    0,184;   -4,773
859,925;18234,032;   -2,453;   -0,955
860,486;18116,261;   -0,453;   -0,955
861,047;17837,853;   -0,544;   -1,227
861,608;17627,082;   -1,089;   -0,773
862,169;17762,493;    0,638;   -0,045
862,730;17567,358;    0,456;    1,409
863,291;17799,769;   -0,635;   -0,500
863,852;18134,089;   -0,635;    1,955
864,412;17617,591;   -0,271;   -0,864
864,973;16199,456;   -0,089;    0,500
865,534;16074,957;   -1,726;    0,227
866,094;17575,823;    1,820;    0,227
866,655;17220,961;    1,274;    3,318
867,215;17519,372;    0,274;    0,136
867,776;17402,146;    0,547;   -0,136
868,336;17482,920;   -1,453;    0,136
868,897;16961,331;    2,638;    1,682
869,457;16679,105;    1,365;    0,318
870,017;16921,425;    0,547;   -1,227
870,578;17418,745;   -0,817;    0,773
871,138;17093,338;   -2,089;   -0,955
871,698;16681,930;   -0,817;   -1,318
872,258;16542,886;   -0,453;   -2,864
872,818;16921,933;    2,729;    0,045
873,378;16879,344;    0,638;    1,045
873,938;16416,300;    0,547;    0,500
874,498;16782,257;    0,274;   -1,955
875,058;16723,213;    2,183;    1,773
875,618;16514,169;    1,910;   -2,682
876,177;16460,943;    1,274;    0,136
876,737;16081,172;   -0,090;    1,955
877,297;16065,583;    0,183;    1,955
877,856;16061,630;   -0,362;    0,318
878,416;16050,859;    1,183;   -0,136
878,976;16262,633;   -1,817;    0,409
879,535;16405,044;    0,092;    3,136
880,095;16150,182;   -0,544;    0,045
880,654;16277,593;   -1,090;    1,318
881,213;16328,185;    2,456;    1,500
881,773;15986,233;    2,637;    2,682
882,332;16314,280;    3,365;    5,136
882,891;16189,781;    3,092;    2,136
883,451;16678,647;   -1,272;    1,682
884,010;16134,875;   -2,908;   -0,409
884,569;16226,104;   -0,999;   -0,045
885,128;16320,333;    2,819;   -1,864
885,687;16427,199;    4,455;    0,682
886,246;16101,246;    1,455;    2,136
886,805;15876,475;    2,455;    2,045
887,364;16183,613;   -0,999;   -0,500
887,922;16541,478;   -1,181;    0,045
888,481;16041,889;   -1,545;    0,591
889,040;16338,663;    1,183;    2,136
889,599;17033,801;    2,455;    1,409
890,157;17062,121;    1,455;    2,409
890,716;16735,350;   -0,090;    0,227
891,274;16539,033;    0,092;   -1,136
891,833;16997,444;    1,546;    0,864
892,391;16868,037;   -0,454;    0,500
892,950;16946,993;    1,819;   -0,773
893,508;17321,131;    0,455;   -0,409
894,067;16685,360;    0,637;    0,136
894,625;16612,316;   -0,636;   -1,500
895,183;16843,181;   -0,363;   -0,682
895,741;16714,319;    1,728;   -1,773
896,299;16538,730;   -0,545;   -2,409
896,858;16706,777;    0,819;   -1,591
897,416;16812,915;    2,728;   -1,318
897,974;16577,144;    1,819;    0,318
898,532;16674,191;    6,091;    2,682
899,089;16604,147;    2,091;   -0,682
899,647;16675,194;   -1,454;    1,318
900,205;16423,878;    1,182;    1,045
900,763;16579,834;   -0,454;    0,227
901,321;16607,972;    2,364;   -1,409
901,878;16082,746;   -1,000;   -0,773
902,436;15973,339;   -1,363;    1,318
902,994;16373,204;    4,728;    3,682
903,551;15744,433;    0,728;    0,409
904,109;16123,571;    0,182;   -1,409
904,666;15752,982;    2,455;    1,045
905,224;15635,484;    0,182;   -0,409
905,781;15330,622;    0,727;   -0,318
906,338;15419,760;   -1,363;    1,045
906,895;15388,170;    0,637;    2,045
907,453;15266,399;    1,727;    1,136
908,010;15312,174;   -0,909;    0,409
908,567;14946,766;    1,273;    0,591
909,124;14465,268;    0,364;   -1,500
909,681;14572,497;   -2,909;    0,682
910,238;14719,544;    0,636;   -1,318
910,795;15037,682;   -0,273;   -1,136
911,352;14665,409;   -2,909;   -2,682
911,909;14093,864;   -1,364;   -0,864
912,466;14559,136;   -3,182;    1,500
913,022;14125,682;   -1,636;    0,500
913,579;14486,409;   -0,909;    2,045
914,136;14202,500;    1,636;    0,955
914,692;14533,500;    0,091;   -1,227
915,249;14129,591;    1,455;    0,409
915,806;14321,409;    0,182;    1,955
916,362;14093,500;    1,909;    1,864
916,918;13659,045;    2,000;    1,045
917,475;13590,227;   -1,182;    0,955
918,031;13672,136;    3,364;   -0,045
918,587;13161,136;   -0,909;   -0,318
919,144;13425,227;   -2,273;    0,227
919,700;13719,318;    1,727;    0,773
920,256;13312,773;    0,727;    0,045
920,812;12924,682;   -0,727;   -1,045
921,368;12930,409;   -1,727;   -1,045
921,924;12584,864;    0,182;   -0,136
922,480;12156,500;   -0,545;    1,227
923,036;12757,227;    1,273;    1,955
923,592;12717,955;    0,455;    0,318
924,148;12628,773;    0,455;   -0,955
924,704;11949,409;   -1,364;   -0,409
925,259;12221,227;   -0,273;    0,591
925,815;11962,409;    1,455;    0,500
926,371;11485,318;    2,909;    1,409
926,926;11413,500;    2,091;    0,591
927,482;11028,500;   -1,364;    0,773
928,037;10917,682;    0,909;    2,045
928,593;11215,409;    1,636;    1,045
929,148;11044,227;   -1,818;   -1,500
929,704;10580,227;   -1,455;   -0,500
930,259;10781,227;    0,091;   -0,136
930,814; 9854,591;   -0,818;    1,955
931,369; 9522,227;    1,091;   -0,773
931,925; 9445,045;   -0,091;    0,136
932,480; 9331,318;   -2,818;   -2,591
933,035; 9196,318;    0,545;   -0,318
933,590; 8981,136;    0,364;   -1,773
934,145; 8648,864;   -1,364;   -0,318
934,700; 9000,682;    0,455;   -0,591
935,255; 8792,955;   -0,091;    0,045
935,809; 8095,773;    3,182;    0,864
936,364; 7250,682;   -0,455;   -0,136
936,919; 7241,682;    0,455;   -1,773
937,474; 7090,500;    1,455;    0,136
938,028; 6868,500;   -1,636;    1,136
938,583; 6357,136;    1,818;    4,682
939,138; 6655,773;    2,091;    2,136
939,692; 6118,955;    1,636;   -1,136
940,247; 5827,318;   -0,727;   -1,045
940,801; 5375,500;   -0,636;    0,227
941,355; 5277,955;   -0,364;    2,591
941,910; 4944,045;   -0,273;   -2,136
942,464; 5032,136;   -0,818;   -0,318
943,018; 4813,136;    1,000;   -0,227
943,572; 4771,591;    2,545;   -0,682
944,126; 4219,136;    0,091;   -0,409
944,681; 4120,864;    3,091;    0,227
945,235; 4081,500;    1,000;   -0,591
945,789; 4025,136;    0,364;   -1,864
946,342; 4137,500;    0,455;   -0,591
946,896; 3931,409;   -2,273;    0,955
947,450; 3718,045;    1,545;   -0,227
948,004; 3905,045;    1,727;   -0,045
948,558; 3899,318;    0,273;   -0,864
949,111; 3831,227;   -0,273;   -0,318
949,665; 3862,136;    1,636;   -0,682
950,219; 3721,409;   -0,091;   -1,045
950,772; 3818,864;   -1,909;    1,864
951,326; 3717,227;    0,545;   -0,955
951,879; 3826,045;    0,727;   -2,318
952,433; 3840,500;    0,000;    2,227
952,986; 3663,227;    2,909;    0,682
953,539; 3619,318;   -0,273;    0,591
954,093; 3579,682;    0,545;   -1,318
954,646; 3719,500;    0,909;    1,318
955,199; 3510,136;    0,000;   -0,500
955,752; 3413,955;   -0,455;    1,773
956,305; 3358,682;   -0,091;    2,955
956,858; 3511,409;    0,818;   -0,318
957,411; 3690,591;   -0,545;    2,136
957,964; 3507,227;    1,364;    2,136
958,517; 3504,409;   -1,545;    3,136
959,070; 3334,045;   -0,455;    1,955
959,623; 3418,955;    1,091;    1,500
960,176; 3190,409;    1,727;    2,045
960,728; 3171,864;   -2,727;    0,773
961,281; 3237,318;    0,545;    0,500
961,834; 3278,227;   -0,909;    0,864
962,386; 3190,318;    1,727;    1,045
962,939; 3111,773;    0,364;   -0,318
963,491; 3260,591;    0,455;    1,136
964,043; 3128,773;    1,182;    2,409
964,596; 3247,500;   -1,000;    2,227
965,148; 3100,591;   -1,000;    1,773
965,700; 3037,227;    1,091;   -0,227
966,253; 3168,500;   -0,636;    0,318
966,805; 3024,136;   -2,273;    0,773
967,357; 3081,045;    1,091;   -1,500
967,909; 3014,318;    0,455;   -1,227
968,461; 3128,045;    0,545;    3,136
969,013; 3074,045;   -0,182;   -0,864
969,565; 3153,864;   -0,455;   -1,136
970,117; 3211,045;   -0,364;    1,045
970,669; 3032,136;    0,182;   -0,136
971,220; 2911,955;   -0,455;   -1,500
971,772; 2843,500;   -0,636;   -0,318
972,324; 2944,773;    0,091;   -0,500
972,876; 2890,227;    0,818;   -0,045
973,427; 3040,500;    1,909;   -1,045
973,979; 3008,045;   -0,727;   -2,500
974,530; 3044,591;    1,818;    1,318
975,082; 3067,045;   -0,545;    1,682
975,633; 2955,045;    1,091;    1,682
976,184; 3081,136;    0,909;    0,773
976,736; 2863,318;    0,091;    0,227
977,287; 2692,955;   -0,909;   -0,500
977,838; 2872,591;    0,909;   -0,318
978,389; 2946,409;   -1,000;   -0,500
978,940; 2796,500;    0,545;   -0,409
979,491; 2827,045;    0,091;   -0,500
980,042; 2812,136;    0,182;    3,045
980,593; 2831,591;   -2,545;    0,227
981,144; 2887,682;    2,545;   -0,500
981,695; 2863,045;    1,455;    1,500
982,246; 2830,045;   -0,273;    1,045
982,797; 2980,682;   -1,727;    0,682
983,347; 3086,773;    0,364;    0,591
983,898; 3251,409;    3,091;    0,409
984,449; 3060,682;    2,182;    0,773
984,999; 2975,500;    1,455;   -1,136
985,550; 2775,500;    0,182;   -0,318
986,100; 2803,045;   -0,455;   -0,318
986,651; 2824,136;   -0,818;    0,045
987,201; 2815,136;   -1,000;   -0,591
987,751; 2900,136;    0,818;    2,864
988,302; 2881,864;    2,636;    1,500
988,852; 2907,591;    0,455;   -1,136
989,402; 2948,045;    0,091;    0,682
989,952; 2865,045;   -2,182;    0,864
990,502; 2969,227;   -0,091;    0,682
991,052; 2933,045;   -0,727;    0,045
991,602; 2793,136;   -2,909;    1,318
992,152; 2787,591;    0,455;    0,682
992,702; 2766,864;    1,364;   -0,045
993,252; 2706,409;   -3,000;   -0,500
993,802; 2797,591;   -0,273;    1,318
994,352; 3002,136;   -1,545;    1,136
994,901; 3096,045;   -0,182;    3,227
995,451; 3035,864;   -0,182;    0,318
996,000; 3118,409;    1,636;    0,318
996,550; 2827,773;    2,273;    0,227
997,100; 2814,682;    1,273;   -0,045
997,649; 3108,227;    2,182;    0,955
998,198; 2761,682;    1,727;   -1,500
998,748; 2944,955;    1,091;   -2,318
999,297; 2855,864;   -0,818;   -0,409
999,846; 2912,955;    1,000;   -0,773
1000,395; 2951,136;   -0,818;    0,500
1000,945; 2917,136;    1,818;   -0,773
1001,494; 3017,773;    2,364;    0,682
1002,043; 2994,500;    4,636;    0,864
1002,592; 2836,045;   -1,091;    1,955
1003,141; 2980,773;   -0,455;   -0,682
1003,690; 2836,955;    1,727;    0,500
1004,238; 2915,773;    1,455;   -0,045
1004,787; 2564,227;    1,364;    1,227
1005,336; 2785,955;    0,364;    0,682
1005,885; 2929,500;    1,364;   -2,773
1006,433; 3079,136;    0,545;    0,955
1006,982; 3141,045;    0,455;    1,682
1007,531; 3048,409;   -1,818;   -0,227
1008,079; 3004,409;   -2,273;    0,500
1008,627; 3158,500;   -1,455;    0,409
1009,176; 2892,955;    0,000;   -1,955
1009,724; 2937,136;    1,091;    0,864
1010,273; 2999,955;    1,273;    0,500
1010,821; 3101,773;    0,091;    1,409
1011,369; 2830,864;   -1,364;    1,318
1011,917; 2804,409;   -1,364;   -0,591
1012,465; 3085,500;    1,273;   -1,591
1013,013; 3195,318;    2,091;   -1,682
1013,561; 3081,045;    0,455;   -0,773
1014,109; 3125,500;   -1,909;    1,682
1014,657; 3003,045;    0,364;    0,591
1015,205; 3136,773;    1,636;   -0,955
1015,753; 3144,318;   -0,545;   -1,409
1016,301; 3193,955;   -2,636;    3,045
1016,848; 3211,136;   -1,273;    0,409
1017,396; 3225,773;    2,545;    0,045
1017,944; 3341,682;    1,182;    1,864
1018,491; 3120,409;    0,273;    1,409
1019,039; 3278,409;    0,455;    0,591
1019,586; 3196,682;   -1,364;    1,682
1020,134; 3294,591;    0,455;    1,500
1020,681; 3322,318;    0,182;   -1,136
1021,228; 3314,955;    2,909;   -2,227
1021,776; 3144,409;    1,182;   -1,136
1022,323; 3370,500;    0,455;    0,773
1022,870; 3304,773;   -1,000;   -0,045
1023,417; 3211,955;    2,636;    1,864
1023,964; 3345,682;    2,636;    1,227
1024,511; 3194,955;    1,000;    0,773
1025,058; 2988,773;    3,182;   -0,045
1025,605; 3061,864;   -2,273;    3,136
1026,152; 3277,045;    1,727;   -0,591
1026,699; 3006,500;    1,818;    1,318
1027,245; 3159,955;   -0,091;    0,318
1027,792; 3368,318;   -1,000;    1,409
1028,339; 3256,045;    2,364;   -0,045
1028,885; 3118,682;    1,000;   -0,227
1029,432; 3067,864;   -0,091;    0,227
1029,978; 3112,409;   -1,000;   -1,591
1030,525; 3020,682;    1,000;    0,409
1031,071; 3263,045;   -1,364;    1,136
1031,618; 3355,500;    0,364;    1,682
1032,164; 3154,955;   -0,091;    3,045
1032,710; 3200,864;    1,636;   -1,500
1033,256; 3119,318;   -0,636;   -0,136
1033,803; 3095,682;   -0,545;    1,500
1034,349; 2825,136;   -1,364;    0,136
1034,895; 2962,864;    0,000;   -0,318
1035,441; 2959,409;   -0,818;    0,318
1035,987; 2958,045;   -2,364;   -0,682
1036,533; 2959,500;   -1,455;   -0,955
1037,078; 3167,500;    1,455;    1,682
1037,624; 2987,318;    2,455;   -0,955
1038,170; 3018,045;    0,455;   -0,318
1038,716; 2907,864;    1,636;   -0,409
1039,261; 2836,955;   -2,273;   -0,773
1039,807; 2779,591;   -0,091;    3,409
1040,352; 2847,682;   -1,909;   -0,318
1040,898; 2895,409;   -1,545;   -0,682
1041,443; 2781,682;   -1,455;   -2,591
1041,989; 2811,500;    1,091;    1,591
1042,534; 2702,864;   -0,364;    2,591
1043,079; 2816,682;    2,909;    0,955
1043,625; 2614,500;    1,818;    0,500
1044,170; 2654,682;   -1,364;    1,045
1044,715; 2912,045;    2,455;    0,955
1045,260; 2730,136;    2,182;   -0,955
1045,805; 2778,682;    1,182;   -0,591
1046,350; 2720,955;    1,364;   -0,409
1046,895; 2663,864;    2,909;    1,591
1047,440; 2617,227;    5,364;    0,409
1047,985; 2527,591;    2,818;   -0,955
1048,530; 2459,318;    1,545;    1,227
1049,074; 2505,955;    0,000;    0,318
1049,619; 2489,682;   -1,364;    1,955
1050,164; 2295,591;    0,455;    0,227
1050,708; 2346,955;   -0,455;    0,045
1051,253; 2702,864;    1,273;   -2,227
1051,797; 2417,591;    0,818;   -1,318
1052,342; 2428,136;   -1,182;    1,045
1052,886; 2405,955;    0,364;   -1,409
1053,430; 2316,955;   -1,364;    0,136
1053,975; 2319,045;   -0,818;   -0,318
1054,519; 2294,136;   -0,727;    3,227
1055,063; 2302,318;    0,909;    1,318
1055,607; 2193,682;   -0,182;    0,227
1056,151; 2225,136;    2,909;    1,682
1056,695; 2135,773;    2,273;   -1,136
1057,239; 2210,591;   -1,727;   -0,682
1057,783; 2212,318;    0,818;   -1,500
1058,327; 2167,682;    0,000;    1,409
1058,871; 2390,045;   -0,545;    1,318
1059,415; 2097,227;   -0,818;   -0,045
1059,958; 2355,227;    1,455;    2,591
1060,502; 2094,045;   -1,000;   -0,773
1061,046; 1987,500;    0,364;   -0,955
1061,589; 1962,591;   -3,000;   -1,136
1062,133; 1841,045;   -1,273;    1,864
1062,676; 1786,500;    1,182;    0,864
1063,220; 1792,682;    1,091;    0,500
1063,763; 1829,318;    0,909;    1,136
1064,306; 1895,682;   -0,909;    1,864
1064,849; 1774,591;   -0,909;    0,591
1065,393; 1787,682;    2,000;   -1,500
1065,936; 1894,500;    0,182;   -0,409
1066,479; 1799,591;   -1,455;    1,318
1067,022; 1817,227;   -0,273;   -0,227
1067,565; 1704,045;   -0,091;   -1,318
1068,108; 1738,591;    0,727;   -0,591
1068,651; 1716,500;   -0,636;    1,409
1069,194; 1647,045;   -0,455;   -1,682
1069,736; 1634,318;   -1,273;    0,955
1070,279; 1614,591;   -1,364;   -0,500
1070,822; 1657,955;   -2,000;   -0,318
1071,364; 1751,591;   -0,364;    1,318
1071,907; 1582,409;   -0,727;    3,227
1072,450; 1492,500;    0,000;   -0,045
1072,992; 1480,682;   -0,273;    3,136
1073,535; 1613,136;    2,091;    2,136
1074,077; 1412,045;   -0,727;    2,045
1074,619; 1385,955;   -1,364;    0,591
1075,161; 1413,227;   -1,091;    1,500
1075,704; 1586,136;    1,545;    1,227
1076,246; 1394,500;   -0,182;    0,682
1076,788; 1326,500;   -0,364;    1,773
1077,330; 1392,409;    1,273;    2,136
1077,872; 1350,864;    0,909;    0,955
1078,414; 1573,409;    2,727;    0,773
1078,956; 1319,955;    1,273;   -0,227
1079,498; 1559,864;    1,636;    0,318
1080,040; 1276,773;    1,909;   -1,318
1080,581; 1223,227;    1,636;   -0,318
1081,123; 1158,318;    0,091;   -0,773
1081,665; 1199,955;   -1,182;   -0,955
1082,206; 1488,682;    1,364;   -0,500
1082,748; 1351,227;    0,727;    2,045
1083,289; 1237,227;   -2,000;    1,318
1083,831; 1146,864;   -0,545;    0,227
1084,372; 1176,500;    0,000;    0,591
1084,913; 1174,682;    1,091;    0,864
1085,455; 1155,773;   -1,909;   -2,045
1085,996; 1115,682;   -2,273;    0,136
1086,537; 1129,136;   -0,091;    0,864
1087,078; 1162,318;   -0,909;   -2,136
1087,619; 1206,682;   -1,273;    0,227
1088,160; 1129,591;    0,000;    1,318
1088,701; 1117,227;   -1,091;    0,682
1089,242; 1058,682;    1,364;   -2,227
1089,783; 1149,591;   -0,273;    1,409
1090,324; 1112,591;    0,455;    0,682
1090,865;  989,773;    2,727;   -0,409
1091,405;  970,409;    0,727;    2,227
1091,946;  996,045;    0,182;   -0,955
1092,487;  923,500;    0,818;   -1,409
1093,027; 1076,773;   -1,364;   -1,500
1093,568;  934,045;   -0,364;    1,227
1094,108; 1033,682;    0,273;    1,773
1094,649;  965,591;   -1,182;    0,136
1095,189;  909,864;   -0,636;   -0,682
1095,729;  854,682;   -0,091;    0,955
1096,269;  854,318;    0,727;   -0,955
1096,810; 1168,955;   -1,364;    0,500
1097,350;  988,773;    1,364;   -0,773
1097,890;  901,955;    0,364;    1,227
1098,430; 1165,045;    2,364;    2,864
1098,970; 1019,591;    2,182;    1,682
1099,510;  885,136;    0,545;   -2,318
1100,050;  814,591;    1,000;   -1,591
1100,589;  788,227;   -0,727;   -0,318
1101,129;  906,318;    0,818;   -0,955
1101,669; 1063,045;    1,727;    2,136
1102,209;  879,409;   -0,091;    2,227
1102,748;  824,227;    0,000;    0,955
1103,288;  822,318;    1,273;   -1,227
1103,827;  856,955;    3,091;   -2,227
1104,367;  742,409;   -0,091;   -2,409
1104,906;  697,955;    1,364;   -1,136
1105,445;  763,682;    0,636;   -1,136
1105,985;  711,773;   -0,727;    1,500
1106,524;  748,045;   -1,727;   -0,682
1107,063;  731,864;   -2,727;    1,409
1107,602;  720,136;   -1,909;   -1,500
1108,141;  631,955;   -1,909;    1,500
1108,680;  736,591;   -3,455;   -0,591
1109,219;  673,955;   -0,909;   -0,500
1109,758;  673,136;    0,455;    0,682
1110,297;  637,045;    1,000;   -0,682
1110,836;  592,045;   -0,727;    0,955
1111,375;  754,864;   -2,545;    0,409
1111,913;  764,409;   -1,000;    0,773
1112,452;  694,136;   -0,273;    0,136
1112,991;  588,955;    1,091;    1,955
1113,529;  553,955;   -0,818;   -0,045
1114,068;  614,409;   -0,273;    2,955
1114,606;  509,682;   -0,364;   -0,955
1115,144;  671,136;   -1,273;    1,045
1115,683;  606,409;   -0,727;    0,318
1116,221;  662,864;   -0,455;   -0,864
1116,759;  580,955;    0,636;   -0,864
1117,297;  766,227;    0,000;    1,864
1117,836;  577,227;   -2,182;   -1,227
1118,374;  583,955;    0,182;   -0,682
1118,912;  529,864;    0,909;    2,682
1119,450;  507,682;    1,000;    0,864
1119,988;  562,227;    1,545;    2,136
1120,525; 1006,773;    5,091;    3,318
1121,063;  714,045;    1,182;    1,864
1121,601;  523,591;   -0,909;   -1,227
1122,139;  485,227;   -0,727;   -2,045
1122,676;  684,045;   -0,727;    2,773
1123,214;  611,864;   -1,182;    4,409
1123,751;  426,409;    1,727;    2,227
1124,289;  548,955;   -0,091;   -0,409
1124,826;  431,409;    1,727;    0,227
1125,364;  359,318;    1,727;   -0,955
1125,901;  537,682;    1,182;    1,227
1126,438;  645,227;    0,818;    0,955
1126,975;  371,955;   -0,727;   -0,773
1127,513;  444,500;    0,273;    2,136
1128,050;  350,955;    1,636;   -0,682
1128,587;  452,591;    2,000;   -0,227
1129,124;  487,955;    0,091;    1,318
1129,661;  359,318;    0,273;    0,227
1130,198;  531,500;    1,636;    0,773
1130,734;  466,318;    0,182;    1,409
1131,271;  328,864;   -0,909;    0,864
1131,808;  499,682;    2,909;    3,045
1132,345;  376,682;    1,545;    0,318
1132,881;  250,682;   -1,545;   -1,864
1133,418;  378,136;    0,727;   -1,136
1133,954;  318,682;    2,455;   -2,682
1134,491;  390,773;    1,364;   -0,773
1135,027;  291,591;    2,364;    0,864
1135,564;  375,773;    0,273;    2,955
1136,100;  364,773;    0,364;    2,136
1136,636;  260,773;   -1,273;   -1,045
1137,172;  346,409;    0,000;   -1,045
1137,708;  271,318;   -1,364;   -1,045
1138,245;  276,227;    1,273;   -1,227
1138,781;  234,591;    1,091;   -3,318
1139,317;  295,409;    1,273;   -1,409
1139,852;  283,045;    3,091;    0,136
1140,388;  398,045;   -1,182;   -0,409
1140,924;  287,864;   -1,091;   -2,227
1141,460;  221,409;   -1,636;    0,136
1141,996;  157,500;   -1,364;    2,682
1142,531;  207,773;    1,364;    3,318
1143,067;  414,227;    1,182;    1,045
1143,602;  468,045;   -0,091;   -0,318
1144,138;  322,409;   -2,636;    1,045
1144,673;  197,045;   -1,455;    1,409
1145,209;  258,500;   -1,909;   -0,318
1145,744;  186,591;   -0,727;    0,864
1146,279;  315,773;    1,818;   -0,136
1146,815;  228,864;    1,545;   -2,682
1147,350;  267,773;   -1,364;    0,045
1147,885;  180,227;   -0,818;   -1,318
1148,420;  177,500;   -2,273;    0,773
1148,955;  162,500;   -1,727;    1,864
1149,490;  189,773;   -0,909;   -1,591
1150,025;  177,227;    0,455;   -1,773
1150,560;  287,864;    1,091;   -0,955
1151,094;  254,318;    1,455;   -0,591
1151,629;  254,227;    1,636;    0,864
1152,164;  183,045;    1,364;    1,318
1152,698;  141,955;   -0,182;   -0,136
1153,233;   96,136;    0,091;   -0,682
1153,767;  150,591;   -3,000;   -2,318
1154,302;  199,955;   -1,455;    1,773
1154,836;  189,591;   -0,455;   -2,136
1155,371;  249,864;   -1,364;    3,682
1155,905;  200,500;   -0,636;    1,682
1156,439;  167,500;   -0,636;   -0,500
1156,973;  199,773;    0,364;    0,318
1157,507;  143,955;   -0,364;    0,682
1158,042;  167,591;   -0,727;    1,045
1158,576;  211,682;    0,182;    1,773
1159,110;  203,773;   -0,818;    2,409
1159,643;  173,591;    0,636;   -0,045
1160,177;  105,227;   -1,545;    1,500

