
Integration time [ms]:   0,040
Averaging Nr. [scans]: 11
Smoothing Nr. [pixels]: 0
Data measured with spectrometer [name]: 7318044SP
Wave   ;Sample   ;Dark     ;Reference
[nm]   ;[counts] ;[counts] ;[counts] 

186,757;   28,164;   31,551;    1,318
187,357;   63,355;   22,551;    0,955
187,958;   39,691;   15,460;   -1,591
188,558;   74,526;    8,915;   -1,227
189,159;   52,630;    6,733;   -4,500
189,759;   21,053;    7,278;   -3,591
190,360;   17,625;    2,824;   -2,136
190,960;   55,954;    2,915;   -4,136
191,560;   62,726;    3,189;   -6,591
192,161;  300,142;    4,372;   -3,500
192,761;  142,719;    4,010;   -3,227
193,361;   92,098;    1,556;   -3,773
193,962;  147,669;    2,010;   -2,682
194,562;   69,810;    1,189;   -3,955
195,162;   93,273;   -2,448;   -2,227
195,762;  248,895;   -3,176;   -0,045
196,362;  200,632;    1,370;   -2,500
196,963;   67,676;    2,006;   -0,864
197,563;  137,618;    1,551;   -0,955
198,163;   87,494;    0,096;   -0,682
198,763;  111,693;    1,733;   -0,500
199,363;  211,755;    3,096;   -0,500
199,963;  173,235;    0,369;    0,409
200,563;  153,003;    2,823;   -1,409
201,163;  121,683;    3,277;   -0,227
201,763;  211,860;    3,732;    0,318
202,363;  149,564;    1,459;    1,500
202,963;  249,729;    1,459;    1,045
203,563;  358,478;    0,277;    0,500
204,162;  213,754;    2,096;   -1,864
204,762;  207,606;    0,550;    0,591
205,362;  176,744;    3,004;    1,955
205,962;  268,954;    3,096;    1,955
206,562;  272,676;    1,823;    2,318
207,161;  236,675;   -0,087;    0,318
207,761;  398,889;    1,277;    2,409
208,361;  277,210;   -0,268;    1,409
208,960;  361,915;    0,459;    1,500
209,560;  431,335;    1,277;    1,591
210,160;  413,143;    0,550;    1,864
210,759;  375,711;    4,186;    1,227
211,359;  388,529;    1,459;    1,045
211,958;  644,145;    1,277;    2,045
212,558;  717,231;    1,732;    1,864
213,157;  556,605;    1,822;    1,500
213,757;  992,443;    3,822;   -0,227
214,356;  697,461;    1,277;   -0,409
214,956; 1016,862;    3,095;    0,409
215,555;  649,628;    2,095;    2,136
216,154;  603,386;   -2,723;   -0,591
216,754;  609,203;    0,277;    0,773
217,353;  731,974;   -0,268;   -1,045
217,952;  595,251;   -0,178;    0,318
218,552;  817,706;    1,368;   -0,773
219,151;  726,473;    0,277;    0,955
219,750;  716,095;    0,004;   -0,227
220,349;  826,588;   -0,451;    1,045
220,948;  902,054;   -1,360;    1,136
221,548;  898,883;    0,913;    1,227
222,147; 1004,273;   -0,087;   -0,409
222,746; 1288,415;   -0,451;   -0,955
223,345; 1161,328;    0,731;    0,500
223,944; 1143,283;   -0,451;    0,773
224,543; 1304,364;    1,004;   -1,409
225,142; 1428,132;    0,094;    0,136
225,741; 1322,894;   -0,814;    1,045
226,340; 1339,838;   -0,451;   -0,955
226,939; 1754,363;   -0,996;   -0,136
227,538; 1684,013;   -0,360;   -0,773
228,137; 1840,690;   -0,814;    0,864
228,735; 1936,416;   -0,541;    1,227
229,334; 1706,505;   -0,905;   -0,227
229,933; 2069,295;    0,459;    0,591
230,532; 2160,922;    1,186;   -0,409
231,131; 2203,310;    1,732;    0,318
231,729; 2274,291;   -2,450;   -2,318
232,328; 2349,622;   -0,723;   -1,500
232,927; 2404,730;    1,004;   -0,500
233,525; 2511,338;    3,640;    0,045
234,124; 2697,346;    2,368;   -1,591
234,723; 2710,443;    0,913;   -1,045
235,321; 2821,698;    2,277;    0,136
235,920; 3031,565;    1,186;   -1,227
236,518; 3269,911;    3,459;    0,318
237,117; 3388,035;    0,004;   -0,227
237,715; 3548,839;    0,640;   -0,500
238,314; 3590,016;   -0,087;   -2,318
238,912; 3712,046;   -0,723;   -1,409
239,510; 3762,952;    0,459;   -1,227
240,109; 3908,027;    0,004;    3,773
240,707; 3960,273;   -0,996;    1,227
241,305; 4254,945;    0,550;    0,136
241,904; 4457,672;   -0,178;   -2,045
242,502; 4456,493;   -0,632;   -0,227
243,100; 4438,383;   -0,087;   -0,955
243,698; 4663,460;    0,732;    1,682
244,297; 4828,143;   -0,632;    0,682
244,895; 4676,878;   -0,269;   -2,318
245,493; 4996,128;    2,186;   -0,591
246,091; 5056,549;    1,368;   -1,318
246,689; 5054,912;    1,004;    0,591
247,287; 5213,881;    0,822;   -1,136
247,885; 5474,442;   -1,451;    1,227
248,483; 5600,122;    1,822;   -0,500
249,081; 5714,881;    0,185;    1,591
249,679; 5867,817;   -0,178;    1,682
250,277; 6144,618;   -1,723;    0,864
250,875; 6106,020;   -1,087;   -1,045
251,473; 6131,976;   -1,178;    0,500
252,071; 6321,304;    1,459;    1,045
252,669; 6476,737;   -1,814;    0,318
253,267; 6715,582;   -0,087;    0,773
253,864; 6674,153;   -0,360;    0,682
254,462; 6593,712;    1,640;    1,591
255,060; 6564,890;   -0,269;    1,318
255,658; 6874,828;    0,822;   -0,136
256,255; 7260,698;    0,186;   -2,045
256,853; 7116,169;   -0,269;    1,409
257,451; 7134,581;    0,822;    1,864
258,048; 7403,668;    1,822;    1,864
258,646; 7139,439;    1,731;   -1,045
259,243; 7365,805;   -0,087;    2,227
259,841; 7422,071;   -0,814;    0,318
260,438; 7320,412;   -0,087;    0,864
261,036; 8000,356;   -1,905;    1,409
261,633; 7915,648;   -0,087;    2,227
262,231; 7700,493;    2,731;   -0,045
262,828; 7783,896;   -0,905;    1,136
263,425; 7772,121;    0,913;   -0,591
264,023; 8038,436;    0,186;    0,045
264,620; 7623,074;   -0,360;   -0,318
265,217; 7959,374;   -2,087;    3,136
265,815; 8090,516;   -1,905;    2,136
266,412; 7874,831;    0,731;    0,136
267,009; 7909,490;   -1,451;    0,773
267,606; 7812,075;    0,822;   -0,955
268,203; 7821,480;   -0,269;   -0,591
268,801; 8077,131;    1,731;    0,591
269,398; 8348,747;   -0,360;    2,500
269,995; 8325,623;    0,277;    1,591
270,592; 8147,263;   -0,632;   -0,500
271,189; 8311,505;    0,186;    0,409
271,786; 8406,789;   -0,632;    1,227
272,383; 8263,539;   -1,087;    0,227
272,980; 8441,461;    0,277;    0,318
273,577; 8889,163;    0,004;    1,227
274,174; 8458,924;    0,822;    2,591
274,771; 8415,919;   -0,814;   -0,773
275,367; 8582,798;    2,277;    1,409
275,964; 8564,051;    0,731;   -0,500
276,561; 8675,194;    1,549;   -1,045
277,158; 8856,999;    0,095;   -1,773
277,755; 8999,517;    2,185;    0,409
278,351; 8413,983;   -0,451;   -1,500
278,948; 8725,122;   -0,815;    0,045
279,545; 8757,780;   -1,360;    2,318
280,141; 9331,942;   -1,723;   -2,045
280,738; 9201,645;   -0,451;   -0,136
281,334; 9426,293;   -1,633;    0,591
281,931; 8820,652;   -0,087;   -1,318
282,528; 8956,224;    0,822;   -0,500
283,124; 9694,167;   -1,087;   -0,500
283,721; 9591,831;   -0,451;    1,409
284,317; 9407,805;    0,185;    2,500
284,913; 9953,892;   -1,360;    0,591
285,510;10141,802;    0,640;   -0,318
286,106;10163,215;   -2,269;   -0,955
286,703; 9789,816;   -0,360;    1,955
287,299; 9997,162;   -1,451;   -0,591
287,895;10174,377;    0,822;   -1,045
288,491;10781,838;    0,186;    2,136
289,088;10511,906;   -2,360;    2,409
289,684;10563,010;   -1,723;    1,500
290,280;10571,303;    0,368;    0,682
290,876;10677,588;    1,822;    5,500
291,472;10601,302;    1,276;    2,227
292,068;10680,035;    1,367;    0,227
292,665;10418,071;    2,095;    0,773
293,261;10052,234;    0,276;    2,136
293,857;10435,120;    2,913;    2,136
294,453;10422,295;    3,550;    0,955
295,049;10280,585;   -0,268;    1,955
295,644;10312,486;    0,095;    0,136
296,240;10238,442;   -0,905;   -0,136
296,836;10299,970;   -0,995;    0,318
297,432;10562,714;    1,096;   -0,500
298,028;10589,502;    0,732;    0,773
298,624;10988,609;    1,459;    1,864
299,220;11265,026;    2,368;    0,591
299,815;10914,278;    1,005;   -0,409
300,411;10778,585;    0,914;    1,773
301,007;10738,045;    1,368;    0,227
301,602;10805,123;   -0,541;   -2,318
302,198;10948,674;    0,732;   -0,773
302,794;11303,720;    1,187;   -0,500
303,389;11392,359;   -1,177;    1,045
303,985;11464,785;    0,550;    1,409
304,580;11421,265;    1,459;    1,591
305,176;11395,009;   -3,086;    0,136
305,771;11360,138;   -1,268;   -1,227
306,367;11203,295;    4,095;    0,136
306,962;11524,487;    0,641;    1,500
307,558;11254,607;   -0,450;    0,136
308,153;11168,828;    1,095;   -1,136
308,748;11434,702;   -0,814;    1,682
309,344;11369,780;   -0,632;   -1,318
309,939;11443,076;   -1,905;   -1,318
310,534;11743,110;   -0,086;   -1,682
311,130;11681,037;    0,459;   -2,500
311,725;11413,498;    1,004;   -0,500
312,320;11747,276;    2,459;    0,045
312,915;11595,383;    1,459;   -1,045
313,510;11622,438;    1,550;   -0,500
314,105;12123,139;    1,096;    1,409
314,700;11542,146;   -3,086;   -1,045
315,295;11180,538;   -0,904;    0,045
315,890;10779,667;    1,277;    0,864
316,485;11128,863;   -0,359;   -0,318
317,080;11219,852;   -3,086;    1,591
317,675;11748,640;    2,005;   -0,682
318,270;11166,405;    5,550;    3,318
318,865;11199,950;    3,278;    3,045
319,460;11018,274;   -0,904;    0,591
320,055;11237,639;   -0,541;   -1,227
320,650;10908,241;   -1,995;   -0,591
321,244;10998,916;   -0,177;   -1,409
321,839;11936,330;   -1,541;   -0,227
322,434;11780,912;   -1,086;   -1,591
323,029;11439,803;    1,732;    1,591
323,623;11250,520;    1,550;    0,773
324,218;11012,707;    2,368;    1,409
324,812;10888,721;    1,096;    1,591
325,407;10726,183;   -0,814;    2,045
326,002;10639,609;    0,277;   -0,409
326,596;10939,507;    0,914;    1,318
327,191;11142,059;    0,823;   -1,045
327,785;10755,689;   -0,813;   -0,227
328,379;10970,726;    1,368;    0,136
328,974;10746,030;    0,914;   -3,955
329,568;10966,934;    0,186;   -2,409
330,163;10789,017;    2,096;    1,045
330,757;11155,925;    2,459;    1,591
331,351;10528,947;    0,459;    0,682
331,945;10850,356;    0,914;    1,409
332,540;10447,312;   -1,723;   -0,591
333,134;10583,078;   -1,086;    0,773
333,728;10839,645;    0,005;    0,318
334,322;11142,301;   -1,177;   -0,864
334,916;10443,238;    0,277;    0,955
335,510;10788,067;   -0,450;   -0,136
336,105;11033,332;   -1,086;    1,591
336,699;10772,041;   -1,086;    0,591
337,293;10703,570;   -1,723;    0,318
337,887;10846,488;   -2,723;    1,955
338,481;10918,978;    0,459;    0,591
339,074;11094,237;   -0,359;    2,682
339,668;10932,930;   -1,632;    1,227
340,262;11178,110;    1,732;    3,227
340,856;10723,579;    1,822;   -0,682
341,450;10107,192;    1,004;    1,864
342,044;10979,570;    1,459;    0,136
342,637;10750,754;    0,913;   -2,136
343,231;10634,552;   -2,360;    0,682
343,825;10618,677;   -1,086;   -0,591
344,419;10576,088;   -1,995;    0,500
345,012;10383,293;    2,459;    4,045
345,606;10380,076;    4,641;    1,591
346,199;10230,187;   -1,813;   -0,227
346,793; 9778,062;    1,914;    2,045
347,386; 9985,780;   -0,813;   -1,136
347,980; 9942,356;   -0,268;   -0,045
348,573; 9722,222;    2,278;    0,409
349,167; 9461,359;    5,278;    4,773
349,760; 9800,846;    2,914;    2,682
350,354; 9770,839;   -0,813;    1,136
350,947; 9507,068;    1,096;    1,682
351,540; 9200,824;   -0,358;   -1,409
352,134; 9151,422;    1,096;    1,136
352,727; 9221,988;   -0,086;    1,136
353,320; 9011,002;    0,005;    0,591
353,913; 8879,582;   -1,995;    1,864
354,507; 9070,313;    0,823;   -1,227
355,100; 9088,763;    0,460;    0,864
355,693; 8335,734;    2,005;    2,409
356,286; 8350,603;    0,823;    2,773
356,879; 8721,938;   -0,722;    1,227
357,472; 8320,153;   -0,904;    1,500
358,065; 8527,110;   -0,722;    2,500
358,658; 8451,483;   -0,540;    2,318
359,251; 8120,302;   -1,631;   -0,591
359,844; 7588,289;   -1,904;   -1,136
360,437; 7768,825;   -2,995;    0,045
361,030; 8061,545;    1,369;   -0,682
361,623; 7645,372;    2,824;    0,318
362,215; 7692,592;   -0,086;    2,045
362,808; 7537,597;   -2,358;   -1,682
363,401; 7719,608;   -2,449;    0,136
363,994; 7456,116;   -0,631;   -1,500
364,586; 7369,487;    0,824;   -1,500
365,179; 7569,231;   -0,449;   -1,136
365,772; 7077,708;   -1,995;    2,045
366,364; 7391,451;    1,915;   -3,227
366,957; 7564,779;    2,279;   -0,045
367,549; 7560,164;    2,188;   -0,864
368,142; 7246,144;    1,825;   -1,500
368,734; 7427,954;    0,734;   -2,136
369,327; 7381,575;    1,643;   -0,500
369,919; 7327,337;   -1,538;    0,409
370,512; 7125,603;   -1,083;   -0,500
371,104; 6893,050;   -0,901;    1,591
371,696; 7069,637;    1,191;   -0,955
372,289; 7144,648;    0,373;    1,136
372,881; 7263,984;   -2,080;    1,318
373,473; 7202,093;   -2,170;    1,136
374,066; 6987,957;   -0,169;    0,500
374,658; 6871,142;    0,378;    1,136
375,250; 7209,608;    0,653;   -1,409
375,842; 7048,688;    0,473;   -0,045
376,434; 6912,051;   -0,435;   -0,409
377,026; 7497,661;    0,204;   -2,500
377,618; 7399,037;   -0,158;   -0,682
378,210; 7232,436;   -0,338;   -1,955
378,802; 7078,918;    0,754;   -0,591
379,394; 7045,027;    1,846;    0,682
379,986; 7620,011;    1,393;   -0,955
380,578; 7698,958;   -0,153;    0,773
381,170; 7085,429;   -0,972;    0,045
381,762; 7041,984;    0,755;    1,409
382,354; 7209,490;   -0,065;   -1,318
382,945; 7336,484;   -2,976;    0,318
383,537; 7485,281;   -2,705;   -1,955
384,129; 7486,862;   -2,160;   -1,136
384,721; 7669,604;   -0,252;    0,955
385,312; 7579,028;   -0,161;   -0,955
385,904; 7689,792;   -2,706;    1,591
386,496; 7035,493;   -0,979;    1,045
387,087; 7202,627;    1,022;    2,500
387,679; 7226,059;   -1,160;    0,045
388,270; 7362,496;    2,840;    2,045
388,862; 7483,630;    1,295;   -0,318
389,453; 7352,713;   -0,887;    1,045
390,045; 7620,864;   -0,705;   -2,682
390,636; 7589,539;    0,204;   -0,591
391,227; 7432,566;   -0,523;   -0,045
391,819; 7516,670;    0,204;    0,773
392,410; 7601,659;    1,022;    0,045
393,001; 7517,108;   -0,979;   -1,591
393,593; 7810,423;    1,930;   -0,045
394,184; 7672,837;    1,385;   -0,409
394,775; 7553,232;    1,839;    2,136
395,366; 7786,083;    1,385;    0,773
395,957; 7754,509;    0,113;    0,136
396,548; 8044,893;   -0,342;    2,682
397,139; 8360,407;   -2,433;    0,591
397,730; 8106,778;   -1,888;    0,955
398,321; 8172,615;   -1,252;    0,955
398,912; 8169,288;   -0,615;    0,136
399,503; 8250,862;   -3,524;   -1,409
400,094; 7694,178;    0,294;    1,682
400,685; 7559,642;   -0,433;    0,045
401,276; 7664,999;    0,930;   -0,955
401,867; 7964,923;   -0,888;    0,773
402,458; 8049,967;   -2,251;   -2,318
403,048; 8019,202;    1,112;    0,591
403,639; 7652,814;    0,840;    0,864
404,230; 7876,597;    2,476;    0,318
404,821; 7827,862;   -0,615;    0,045
405,411; 7950,634;    1,203;   -2,591
406,002; 7550,143;   -1,252;   -1,136
406,592; 7415,435;    2,294;    0,045
407,183; 7696,946;    0,566;   -1,500
407,774; 7608,360;    3,475;   -0,136
408,364; 7916,868;    0,930;    0,409
408,954; 7543,846;    0,384;    1,227
409,545; 7616,389;    1,021;    1,045
410,135; 7186,320;    1,293;    0,500
410,726; 7288,571;    1,838;    0,318
411,316; 7650,876;    0,111;    0,773
411,906; 7355,106;   -0,253;   -0,409
412,497; 6853,653;   -1,070;   -0,045
413,087; 7425,079;   -1,980;   -0,227
413,677; 7806,147;   -0,707;    3,864
414,267; 7640,114;    0,656;    1,409
414,857; 7625,573;   -2,980;    4,227
415,448; 7918,205;    0,839;    0,500
416,038; 7608,330;    0,020;   -0,591
416,628; 7582,691;   -0,889;    0,409
417,218; 7071,489;    0,565;    3,318
417,808; 7303,039;    0,202;   -0,409
418,398; 7703,707;    0,020;    2,682
418,988; 7709,589;    2,020;    0,591
419,578; 7952,303;   -0,707;    1,409
420,168; 8262,471;   -1,343;   -0,955
420,757; 7835,508;   -1,343;   -1,500
421,347; 7557,425;    0,111;   -0,227
421,937; 7700,726;    2,292;    1,409
422,527; 7618,645;    0,838;   -0,773
423,116; 7434,191;   -0,253;   -0,045
423,706; 7772,716;   -1,889;    0,318
424,296; 7750,169;    1,384;    0,682
424,885; 8144,806;   -0,071;   -3,045
425,475; 8378,090;    1,474;   -2,864
426,065; 8310,756;   -0,980;   -0,318
426,654; 7962,031;   -0,435;   -0,318
427,244; 8048,669;    0,020;    1,409
427,833; 7506,664;    1,383;   -0,500
428,423; 7959,446;   -0,526;    1,136
429,012; 8646,104;   -0,344;   -1,136
429,601; 8197,691;   -1,344;    0,136
430,191; 8407,246;    1,292;    4,318
430,780; 8034,326;   -0,344;   -0,409
431,369; 7966,509;    0,746;   -0,045
431,959; 8552,998;   -1,254;    0,500
432,548; 8341,122;   -1,163;   -0,045
433,137; 8468,041;   -1,254;   -1,318
433,726; 8937,125;    0,292;    0,500
434,315; 8306,010;   -0,526;    2,409
434,905; 8420,436;   -1,254;    1,409
435,494; 8317,905;    0,746;    0,955
436,083; 8749,189;   -0,981;   -0,955
436,672; 8607,744;    0,110;    0,500
437,261; 8171,003;    0,292;   -1,955
437,850; 8289,874;    1,383;    0,682
438,439; 8244,327;    3,291;    1,955
439,027; 8072,151;    3,655;    1,773
439,616; 8392,288;    2,927;    1,227
440,205; 8246,879;    0,200;   -2,136
440,794; 8278,383;    2,109;   -0,045
441,383; 8500,736;   -1,346;   -0,591
441,971; 8374,733;   -2,436;    0,591
442,560; 8210,146;    0,563;   -1,773
443,149; 7953,670;    0,379;   -1,318
443,737; 8087,872;   -0,074;   -2,318
444,326; 8313,148;    0,018;    0,318
444,915; 8338,811;   -1,982;    0,864
445,503; 8667,166;   -2,891;   -0,318
446,092; 7972,900;    0,382;    2,136
446,680; 8462,275;    0,382;    0,318
447,269; 8615,706;   -0,346;   -0,318
447,857; 8390,631;    0,018;   -1,773
448,445; 8485,303;    0,563;    1,318
449,034; 8703,511;   -1,528;   -1,136
449,622; 8762,603;   -1,073;    3,500
450,210; 8063,091;    2,017;    2,227
450,799; 8575,551;    0,290;   -0,591
451,387; 8520,224;    1,381;   -0,591
451,975; 8181,488;    2,654;    0,864
452,563; 8258,171;    3,472;    2,318
453,151; 8260,739;   -0,528;   -1,227
453,739; 8191,741;   -1,347;    0,136
454,328; 8040,609;    2,381;   -2,136
454,916; 7773,743;    2,562;   -0,136
455,504; 7937,943;    1,017;    1,227
456,092; 8103,873;    0,017;   -1,591
456,679; 8046,936;    1,472;    0,682
457,267; 8009,133;    4,017;    1,045
457,855; 8128,839;    1,017;    1,409
458,443; 7845,494;   -0,165;    1,682
459,031; 8000,755;    0,108;    2,409
459,619; 8442,169;   -1,801;    2,864
460,206; 8505,389;    0,835;    2,045
460,794; 8591,612;   -2,983;   -0,227
461,382; 8788,757;   -0,529;   -0,864
461,970; 8410,969;    1,198;    1,864
462,557; 8459,634;   -0,711;   -0,682
463,145; 8603,322;   -3,165;   -1,682
463,732; 8730,074;    2,016;   -1,045
464,320; 8637,487;   -0,075;   -3,045
464,907; 8320,086;    2,743;   -0,773
465,495; 8217,093;    0,743;   -1,227
466,082; 8360,697;   -1,984;   -0,045
466,670; 8265,155;   -2,529;    1,227
467,257; 8631,072;   -1,711;    2,045
467,844; 8793,110;   -0,075;    0,045
468,432; 8790,961;    0,834;    3,500
469,019; 8327,680;    0,925;   -1,773
469,606; 8753,092;    0,470;    3,682
470,193; 8580,907;   -1,439;    0,227
470,780; 8207,490;   -2,075;    0,864
471,368; 8504,626;   -1,257;   -0,773
471,955; 8293,619;    1,379;   -0,682
472,542; 7934,034;    0,652;   -1,136
473,129; 8154,320;   -0,166;    0,136
473,716; 7889,375;    1,470;    0,591
474,303; 8041,013;    0,652;   -0,864
474,890; 8289,444;   -1,439;   -0,500
475,477; 8314,333;   -1,621;    0,409
476,064; 8190,356;    1,106;   -1,591
476,650; 8097,244;    0,288;    0,318
477,237; 7908,881;   -0,258;    0,955
477,824; 8051,280;   -1,076;    0,864
478,411; 8053,458;   -1,894;   -0,318
478,997; 8200,567;    0,560;   -0,773
479,584; 8240,560;    1,196;   -0,409
480,171; 8850,278;   -0,440;   -0,773
480,757; 8553,512;    2,651;    0,773
481,344; 8763,613;    0,469;    0,409
481,931; 8292,555;    1,105;    1,045
482,517; 9115,073;   -1,258;    0,318
483,104; 9538,439;    1,106;    2,864
483,690; 9730,259;   -1,804;    0,045
484,276; 9998,762;   -0,895;    0,227
484,863; 9755,297;    2,469;    1,136
485,449;10290,957;   -0,077;    0,318
486,035;10288,900;   -1,986;   -0,136
486,622;10677,611;   -0,895;    0,045
487,208;10585,864;    1,378;    1,500
487,794;10467,819;    0,741;    0,318
488,380;10576,189;    0,105;   -1,409
488,967;10634,310;   -1,168;   -0,409
489,553;10682,055;   -1,895;   -1,409
490,139;10874,117;    1,559;    0,773
490,725;10438,667;    0,741;   -0,227
491,311;10078,269;    3,287;    3,045
491,897; 9530,089;   -0,986;    1,500
492,483; 9468,399;    0,105;    1,227
493,069; 9360,062;    3,923;    0,864
493,655; 9333,471;    1,650;    0,682
494,241; 9283,618;    1,377;   -0,955
494,826; 9675,691;    0,287;   -1,045
495,412; 9197,267;    2,559;   -0,682
495,998; 9410,671;   -0,805;   -0,318
496,584; 9546,782;    0,377;    1,045
497,169; 9585,578;    1,014;   -0,682
497,755; 9613,485;    0,650;    1,227
498,341;10192,214;    0,559;    0,318
498,926; 9833,468;    1,832;    1,955
499,512;10051,743;    1,286;    2,955
500,097;10204,898;    0,195;   -0,318
500,683;10269,434;   -0,350;    2,136
501,268;10655,102;   -0,169;   -0,955
501,854;10443,627;   -0,169;    1,227
502,439;10435,830;   -0,624;   -1,773
503,024;10676,693;    0,195;    0,500
503,610;10825,449;   -0,078;   -0,682
504,195;10891,033;    0,558;    1,955
504,780;11069,833;    2,922;    1,227
505,366;10957,464;    3,013;    2,864
505,951;10789,910;    0,740;    1,045
506,536;10899,754;   -3,260;   -3,682
507,121;10911,957;    0,285;   -0,318
507,706;11493,232;    2,376;    1,045
508,291;11871,093;    2,649;    1,136
508,876;11435,439;   -0,988;    2,591
509,461;10988,877;   -0,169;   -0,773
510,046;11421,632;    0,194;    0,318
510,631;11715,073;   -0,351;   -0,773
511,216;11419,145;    2,467;   -0,500
511,801;11832,090;   -0,442;    2,591
512,386;12163,140;    0,740;    0,500
512,971;12138,980;   -2,988;    0,955
513,555;11742,662;   -0,897;   -1,500
514,140;12536,789;   -0,442;   -3,136
514,725;12553,511;   -0,715;   -1,136
515,309;12699,688;   -0,533;    0,318
515,894;12222,929;   -0,624;   -2,227
516,479;12669,573;   -0,624;   -0,955
517,063;12537,748;    0,376;    1,227
517,648;12698,751;    1,012;   -1,136
518,232;12355,366;   -0,261;   -1,409
518,817;12699,973;   -0,079;    1,682
519,401;12915,756;    2,194;    0,591
519,985;12445,386;    1,103;    1,136
520,570;12385,612;    0,830;   -1,955
521,154;12704,411;    2,102;    0,591
521,738;12797,069;   -2,352;    2,409
522,323;13428,134;   -0,170;    1,682
522,907;13148,945;    0,466;   -0,136
523,491;12870,039;    0,557;    0,955
524,075;12899,282;    2,284;    0,591
524,659;13039,391;    1,466;    0,591
525,243;12474,243;    1,739;    0,409
525,827;12702,435;    0,648;   -0,045
526,411;13513,209;   -1,989;   -0,136
526,995;13728,550;   -0,352;    1,409
527,579;13351,942;   -0,443;   -1,045
528,163;13687,622;    0,375;   -1,500
528,747;13575,254;    2,466;   -0,773
529,331;13878,463;   -0,080;   -1,409
529,915;14119,472;    1,738;    0,955
530,499;14083,169;   -0,807;    1,227
531,082;13773,486;   -0,534;    1,591
531,666;13224,036;    1,374;    0,773
532,250;13896,134;    1,284;    2,682
532,833;14196,002;    0,920;    2,773
533,417;14065,579;   -1,807;    0,864
534,001;14040,079;    1,647;   -0,318
534,584;14737,763;    0,374;    0,500
535,168;14572,125;    0,465;    1,409
535,751;14595,522;    0,647;    0,045
536,334;14075,257;   -0,898;   -0,409
536,918;14702,739;    0,011;    1,591
537,501;14815,568;   -0,899;    1,318
538,085;14787,483;   -0,444;    1,045
538,668;14944,272;    0,829;    2,409
539,251;15203,516;    1,829;    3,773
539,834;15245,240;    0,101;    0,773
540,418;15176,293;   -1,990;    4,318
541,001;15302,438;   -0,990;    1,773
541,584;15333,353;    2,101;    2,227
542,167;15019,235;    1,374;    2,955
542,750;15147,000;    1,919;   -0,773
543,333;14748,814;    0,555;    2,136
543,916;15510,191;    0,192;    2,500
544,499;16120,168;   -1,354;    0,227
545,082;16111,503;    1,374;    3,591
545,665;16251,164;    1,919;    1,500
546,248;16539,359;    1,010;   -0,318
546,830;16261,143;   -0,445;    1,955
547,413;16664,403;    1,010;   -0,773
547,996;17197,565;    0,555;    0,500
548,579;16960,275;    0,919;    0,955
549,161;16757,337;    1,828;    2,682
549,744;16561,684;   -0,809;    0,409
550,326;17048,231;   -0,809;   -1,136
550,909;16818,302;    2,737;    0,591
551,492;17240,590;   -0,263;    0,227
552,074;16987,157;   -0,173;   -1,318
552,657;17562,854;    2,373;    0,045
553,239;17340,767;   -0,173;   -0,773
553,821;17261,843;   -1,082;    1,045
554,404;16786,641;    1,282;    1,136
554,986;17132,651;    0,464;    1,045
555,568;17753,745;    1,191;   -0,955
556,151;16975,626;    1,191;   -0,227
556,733;17184,738;   -0,264;   -0,864
557,315;17595,035;    0,100;    0,500
557,897;17386,274;    0,554;   -0,500
558,479;17544,125;   -1,991;    1,318
559,061;17654,966;   -0,719;   -0,864
559,643;18002,107;   -0,264;    0,045
560,225;18367,990;    1,645;    2,864
560,807;18348,470;    0,918;    0,318
561,389;17866,990;    0,554;    2,318
561,971;18595,838;    0,463;    2,136
562,553;18400,180;   -1,628;    1,591
563,135;18513,571;   -0,537;    1,136
563,717;18121,086;    3,372;    1,136
564,298;18831,760;    3,645;   -0,045
564,880;18599,036;    0,645;   -1,409
565,462;18759,854;    0,645;    1,318
566,043;19853,314;   -0,446;    2,318
566,625;19396,949;    1,918;    1,227
567,207;19239,963;    1,099;    1,682
567,788;20326,513;   -1,264;    1,500
568,370;21118,229;    1,917;   -0,500
568,951;20954,033;    0,190;    0,227
569,533;21791,331;   -0,628;   -0,500
570,114;22208,079;   -0,446;    0,682
570,695;22664,927;   -0,174;   -1,318
571,277;23152,482;   -0,265;   -1,682
571,858;23846,959;    2,008;   -1,136
572,439;24760,737;    1,554;   -1,045
573,021;24920,082;    2,099;   -2,773
573,602;25370,526;   -1,265;    0,318
574,183;26224,324;   -2,083;    2,227
574,764;26375,018;   -1,629;    0,409
575,345;26870,299;    0,917;   -0,136
575,926;27534,644;   -0,356;    0,136
576,507;27519,343;    1,099;   -0,227
577,088;28568,222;    3,099;    1,682
577,669;28524,570;    0,735;    1,955
578,250;29214,324;    0,644;   -1,045
578,831;29848,502;   -1,356;   -2,227
579,412;30107,814;   -0,810;    0,955
579,993;31088,785;    1,008;    0,227
580,573;31431,999;   -0,629;   -0,955
581,154;30401,147;    0,735;   -0,591
581,735;31203,266;    0,644;    0,773
582,315;30679,629;   -0,629;    2,136
582,896;31044,564;   -0,174;    1,227
583,477;30559,128;    0,189;    1,227
584,057;30716,664;    0,553;    0,955
584,638;30945,240;    2,553;    2,318
585,218;30956,481;   -0,538;    2,682
585,799;31160,323;    0,281;   -0,227
586,379;31116,222;    0,372;    1,591
586,959;29955,385;    0,735;    0,318
587,540;29323,226;   -0,629;    2,227
588,120;28919,278;    1,007;   -0,045
588,700;27893,836;    2,553;    2,136
589,281;28180,301;    0,462;   -0,955
589,861;28140,064;    0,099;   -1,682
590,441;27930,575;    2,371;   -2,682
591,021;26941,694;   -0,265;   -2,591
591,601;27194,883;   -0,537;    0,500
592,181;27209,911;   -0,719;   -0,773
592,761;26492,933;    0,007;    1,409
593,341;26434,444;   -0,901;    0,045
593,921;26424,191;   -0,265;    1,591
594,501;26331,506;   -0,538;    1,318
595,081;26191,039;    0,917;   -0,318
595,661;26552,562;   -1,447;    0,955
596,240;27035,096;   -0,537;    0,136
596,820;26687,475;    0,372;    1,955
597,400;26860,045;    2,008;    0,773
597,980;27079,302;    2,008;    1,045
598,559;27124,588;    2,735;   -0,227
599,139;26806,047;   -0,174;   -1,227
599,718;26710,502;   -0,174;   -0,409
600,298;26959,255;    0,735;    0,682
600,877;27177,668;    2,917;    1,409
601,457;27457,774;    2,281;    1,136
602,036;27376,610;    0,190;    2,045
602,616;27570,210;    0,644;    1,682
603,195;27864,410;   -0,355;    3,500
603,774;27396,475;   -0,901;    2,045
604,354;27290,719;    0,826;   -0,500
604,933;26802,336;    0,463;    1,864
605,512;26977,145;    3,554;    0,591
606,091;27015,010;   -0,537;    3,773
606,671;27840,563;    0,281;    0,773
607,250;26941,928;    1,644;    3,136
607,829;27210,274;    2,372;    3,227
608,408;27053,433;    1,190;    2,591
608,987;26081,590;    1,281;    3,409
609,566;26361,381;   -1,265;   -2,500
610,145;26467,108;   -1,082;    0,682
610,723;26864,869;    4,372;    6,864
611,302;26168,492;   -0,446;    1,682
611,881;25710,226;    5,008;   11,227
612,460;26533,834;    1,645;    3,955
613,039;26943,758;   -0,082;    2,045
613,617;25671,671;    1,736;    4,773
614,196;25912,955;    1,099;    1,227
614,775;26236,817;    1,009;    2,409
615,353;26220,505;    0,736;    0,864
615,932;25905,204;    0,100;    2,409
616,510;26508,816;    0,554;    0,591
617,089;25989,812;    7,100;   17,591
617,667;25754,023;    2,372;    6,136
618,246;25682,953;   -1,537;    1,318
618,824;25817,198;   -3,355;   -0,955
619,402;25405,654;   -2,900;   -1,773
619,981;25905,371;   -0,173;   -1,045
620,559;25751,333;    0,009;    1,682
621,137;25329,489;   -0,718;    1,864
621,715;25280,250;   -1,173;   -0,682
622,293;25224,367;   -0,537;   -0,773
622,871;25655,399;   -0,718;    0,500
623,450;25273,654;    0,373;   -0,864
624,028;25185,908;    0,191;   -0,955
624,606;24791,749;   -1,718;    1,682
625,183;25192,616;   -1,536;   -1,136
625,761;24803,070;    1,009;    1,136
626,339;25119,267;    1,373;    2,591
626,917;25537,599;   -0,172;   -0,045
627,495;25569,359;   -0,354;    1,318
628,073;24959,560;   -0,263;    2,864
628,650;24675,821;    0,100;    2,136
629,228;25132,772;    0,373;    4,409
629,806;24511,186;    2,282;    1,136
630,383;24835,142;    1,464;   -0,318
630,961;24569,762;    2,555;   -0,955
631,539;24323,928;    2,464;    0,227
632,116;23630,944;   11,373;   15,409
632,694;24238,144;    2,555;    6,500
633,271;24601,876;    0,828;    2,682
633,848;24461,978;    1,828;    2,045
634,426;24499,020;   -1,081;    1,773
635,003;23644,870;    1,101;   -0,409
635,580;23932,049;    1,192;    3,682
636,158;24541,586;    3,737;    1,227
636,735;24520,634;    0,555;   -0,500
637,312;24634,315;   -0,809;   -0,682
637,889;24716,076;   -4,354;   -0,682
638,466;24174,135;   -3,990;   -0,409
639,043;24215,870;    2,101;   -1,136
639,620;24546,566;   -2,262;   -0,955
640,197;24831,979;    1,100;    1,682
640,774;25002,208;   -0,172;    1,136
641,351;25409,619;    0,737;    1,136
641,928;24778,303;   -0,627;    1,409
642,505;24426,441;    0,828;   -0,500
643,082;24566,124;   -1,718;    1,227
643,658;23616,080;   -0,718;    1,500
644,235;24378,037;    1,191;    2,500
644,812;24684,993;    1,918;    0,773
645,388;24387,767;   -0,991;    1,409
645,965;24465,087;   -0,809;    1,682
646,542;24541,407;   -1,445;   -0,227
647,118;24514,182;    1,009;   -0,955
647,695;24812,138;   -0,263;    1,136
648,271;24767,549;   -0,536;    0,500
648,848;25074,687;    0,736;    2,227
649,424;24875,098;    0,827;    1,318
650,000;24667,872;   -0,354;   -1,045
650,577;24477,465;   -0,627;   -0,955
651,153;24934,785;   -1,809;    0,955
651,729;25934,832;    1,191;    0,864
652,305;26026,606;    0,645;    2,773
652,881;30019,835;   -0,082;    1,136
653,458;36492,064;    1,100;    0,227
654,034;40341,748;    0,282;    1,591
654,610;41870,977;    0,554;    0,773
655,186;43182,206;    0,645;    3,045
655,762;42896,980;   -0,991;    0,409
656,338;42906,118;    0,100;    0,136
656,913;43866,529;   -0,082;    0,409
657,489;43178,758;    0,827;   -0,318
658,065;43159,442;   -0,173;   -1,591
658,641;43824,671;   -0,900;   -0,864
659,217;43212,718;   -0,991;    0,409
659,792;42551,947;    0,645;   -0,409
660,368;42768,085;   -2,173;   -0,682
660,944;42507,223;   -2,082;    1,227
661,519;38400,816;   -0,628;    0,409
662,095;32786,227;   -1,719;    0,591
662,670;28176,547;    1,281;   -0,136
663,246;26993,139;    1,009;   -0,409
663,821;26214,823;    0,281;    1,682
664,396;25705,143;    0,009;    1,864
664,972;25923,008;    0,009;   -0,500
665,547;26196,237;    1,372;    0,136
666,122;26302,011;   -1,082;    0,318
666,698;26527,331;   -0,173;    0,318
667,273;25909,742;   -0,173;    0,136
667,848;26720,153;    2,372;    1,500
668,423;26495,200;    2,190;    2,318
668,998;26998,884;    2,827;   -0,682
669,573;27579,113;   -3,264;   -1,500
670,148;27403,433;   -1,446;   -0,682
670,723;27244,025;   -1,810;    0,318
671,298;27672,891;    2,372;    1,045
671,873;27735,938;   -0,082;   -0,136
672,448;27718,349;    0,645;    0,136
673,023;28006,850;   -1,992;   -0,227
673,597;28321,534;    0,827;    2,318
674,172;28105,217;   -0,355;    0,318
674,747;27595,628;    0,372;   -1,045
675,321;27436,403;   -0,628;    3,318
675,896;26988,995;    0,645;    1,045
676,471;27972,133;    2,645;    1,591
677,045;27772,090;   -1,264;    0,682
677,620;27854,864;    0,190;    1,136
678,194;28160,002;   -2,628;    1,136
678,769;27731,049;   -1,083;   -0,318
679,343;27983,188;   -0,628;    1,773
679,917;27827,417;   -1,446;    1,955
680,492;27931,918;    0,826;    3,227
681,066;28058,056;    3,372;    0,409
681,640;28082,104;    1,463;   -0,318
682,214;28897,605;    0,735;    0,500
682,788;28424,652;   -1,356;   -0,773
683,363;28371,063;   -1,810;    1,682
683,937;28050,747;   -1,719;   -0,318
684,511;28798,703;    0,463;   -0,591
685,085;28519,478;   -1,356;    0,318
685,659;28292,616;   -2,538;    0,864
686,232;28548,117;   -0,356;   -0,318
686,806;28301,437;   -0,901;    0,409
687,380;28982,394;   -0,174;    0,591
687,954;29157,532;   -1,174;    1,136
688,528;28855,942;   -0,719;    1,955
689,101;29554,171;   -3,992;    1,045
689,675;29177,310;   -0,356;   -0,136
690,249;28542,811;   -0,719;    0,409
690,822;28867,858;    0,280;    0,318
691,396;29015,269;   -0,265;    1,227
691,969;28423,953;    1,280;    0,136
692,543;28894,545;   -0,447;   -1,955
693,116;28601,956;   -0,265;   -1,409
693,690;28435,367;    0,099;    0,500
694,263;28931,596;   -1,083;    2,955
694,836;28964,280;    1,371;    3,591
695,410;27647,327;   -0,265;    1,773
695,983;28114,919;    0,189;    0,591
696,556;28083,967;   -0,447;   -1,045
697,129;28537,741;   -0,356;    1,409
697,703;28159,788;   -1,629;    1,955
698,276;28145,654;    1,462;   -0,773
698,849;27950,701;    1,280;    1,409
699,422;28305,839;   -1,083;    0,591
699,995;28019,068;    0,007;    0,136
700,568;28526,661;   -0,629;    3,045
701,140;28534,435;   -2,811;    1,682
701,713;28244,391;   -0,174;    2,409
702,286;28001,802;   -0,538;    0,864
702,859;27937,304;   -0,902;   -0,591
703,432;27058,078;    0,825;    0,682
704,004;27587,853;    0,462;    0,318
704,577;27447,445;   -0,629;    0,136
705,150;28021,765;    0,189;    2,500
705,722;27769,358;   -0,356;   -3,227
706,295;27579,405;   -0,175;   -0,591
706,867;27422,089;   -0,175;    1,955
707,440;27654,045;   -1,720;   -0,409
708,012;27883,728;    0,462;    0,591
708,584;27764,685;    2,462;    0,227
709,157;28093,641;    1,825;   -0,591
709,729;27799,961;    2,280;    2,045
710,301;28609,463;    0,734;    0,045
710,874;28618,328;   -1,447;   -0,227
711,446;27475,739;    0,371;    0,864
712,018;27356,059;    0,098;    0,500
712,590;27111,833;   -1,993;    1,682
713,162;27584,971;    0,825;    1,318
713,734;27887,564;    1,825;   -2,045
714,306;27796,157;   -1,902;   -0,409
714,878;26542,931;    0,825;    0,864
715,450;27375,978;    0,643;    0,864
716,022;27572,207;    1,552;    1,318
716,593;27689,891;    0,189;    0,591
717,165;27682,574;   -3,175;   -1,227
717,737;27414,440;    0,280;    0,409
718,309;27028,032;    0,280;   -0,045
718,880;26992,534;   -0,539;   -1,409
719,452;27245,581;   -0,175;   -1,591
720,024;26790,810;    0,734;   -0,591
720,595;27369,221;   -2,902;    0,955
721,167;26948,905;    0,370;   -2,045
721,738;26429,497;   -0,812;   -1,045
722,309;26447,544;   -0,993;   -1,227
722,881;26202,137;   -1,357;    0,773
723,452;26779,821;   -2,630;    2,864
724,023;26970,322;   -0,721;    2,682
724,595;26768,824;    0,007;    0,682
725,166;26568,326;    0,007;   -0,409
725,737;26193,464;    1,734;    0,227
726,308;26268,329;   -0,266;    0,318
726,879;26725,104;   -1,630;    1,227
727,450;26552,969;    0,552;   -0,045
728,021;26514,198;    3,097;    0,682
728,592;26335,609;    0,734;    0,500
729,163;26704,201;    0,643;   -0,136
729,734;26701,158;    0,188;   -0,227
730,305;26997,659;    1,734;    0,136
730,876;27354,070;    0,188;    2,955
731,447;27028,572;    2,188;    2,682
732,017;27180,619;    1,097;    1,864
732,588;26656,212;    0,734;    1,227
733,159;26829,441;    0,643;   -1,045
733,729;26679,670;    0,006;    0,409
734,300;25957,262;    0,915;    0,864
734,870;26388,673;    3,461;    0,591
735,441;26921,902;    0,370;   -0,591
736,011;26711,586;    0,643;   -1,591
736,582;26643,906;   -0,812;    0,045
737,152;26129,317;   -1,721;   -2,045
737,722;26572,909;   -0,267;   -0,682
738,293;26289,320;   -1,358;    1,318
738,863;26179,822;    2,461;    2,318
739,433;25989,233;    5,279;    0,318
740,003;26603,734;   -0,994;   -0,682
740,573;26010,509;    2,097;   -1,591
741,143;25977,465;   -1,085;    0,318
741,713;26744,330;    1,188;   -0,500
742,283;26404,468;    0,915;    1,591
742,853;26223,243;    1,915;    1,591
743,423;25680,926;    1,733;    0,045
743,993;25832,337;   -0,358;    1,500
744,563;25227,203;    0,097;   -0,864
745,133;25148,250;   -0,812;   -0,864
745,702;25830,842;   -0,267;    1,773
746,272;25056,071;   -0,176;    0,591
746,842;24843,119;   -1,358;   -0,591
747,411;25252,257;   -0,267;   -0,318
747,981;25492,758;    0,097;    0,500
748,551;25542,806;    2,278;   -1,045
749,120;25397,126;    0,642;   -0,227
749,690;25786,900;   -0,631;    2,409
750,259;26077,402;    1,369;    2,955
750,828;25976,540;    1,551;   -1,955
751,398;26251,587;    1,278;   -0,045
751,967;25719,816;    2,187;    0,409
752,536;25956,954;   -0,813;   -0,227
753,105;26375,274;    0,096;    0,227
753,675;26195,139;    0,096;    1,773
754,244;26183,823;   -0,904;    3,591
754,813;26159,416;    0,551;    1,227
755,382;25724,826;    0,460;    0,955
755,951;26281,783;    1,551;    3,682
756,520;25808,193;   -0,085;    1,864
757,089;26382,241;    0,278;    0,500
757,658;26498,924;    1,733;    1,227
758,227;26500,062;    1,096;    0,318
758,795;26825,109;    1,187;    1,136
759,364;27047,702;   -0,086;   -0,591
759,933;26091,386;   -1,176;   -0,045
760,501;25624,342;    0,733;   -1,318
761,070;26006,844;   -2,813;   -1,409
761,639;26715,254;   -1,904;    1,318
762,207;26103,574;    1,551;   -0,955
762,776;26008,076;    0,369;    0,864
763,344;25991,396;   -0,995;    0,591
763,913;25145,898;   -0,722;    1,409
764,481;25862,672;    1,005;   -0,136
765,049;25596,810;   -1,358;    1,409
765,618;25541,948;   -0,086;    0,318
766,186;25645,723;    0,278;    0,136
766,754;25826,497;    0,005;    1,864
767,322;24841,544;   -1,995;    0,409
767,890;24867,773;   -0,722;   -1,773
768,459;25274,093;   -2,177;   -0,318
769,027;25416,141;    1,641;    3,409
769,595;24420,551;    3,278;    2,591
770,163;24851,235;    3,823;    2,955
770,730;24677,828;    0,732;   -0,136
771,298;24468,511;    0,187;   -1,409
771,866;24545,558;   -1,541;    4,955
772,434;24919,696;   -0,631;   -1,864
773,002;25044,562;    0,005;    0,682
773,569;24701,154;    0,914;    1,682
774,137;24530,656;   -0,268;   -0,045
774,705;25326,703;    0,278;   -0,136
775,272;24823,114;    0,641;    0,682
775,840;24520,434;   -0,177;    2,682
776,407;24093,845;    0,277;    1,955
776,975;23768,983;   -0,632;    0,318
777,542;24724,394;   -1,086;   -0,045
778,110;24563,532;   -1,268;   -0,045
778,677;24276,488;   -2,359;   -0,864
779,244;24055,626;    2,186;    1,045
779,812;24125,219;    1,823;    0,864
780,379;23962,357;    0,005;    1,136
780,946;24170,495;    1,005;   -0,773
781,513;24558,451;   -1,450;    0,318
782,080;23931,862;   -0,086;    2,864
782,647;24694,273;   -0,268;    3,045
783,214;24225,956;   -0,177;    3,864
783,781;23857,276;   -0,723;   -0,682
784,348;23782,869;   -0,632;    1,500
784,915;24194,371;   -3,177;    0,318
785,482;23925,327;    1,368;    2,591
786,049;24404,556;    0,186;   -0,591
786,615;24529,603;    0,277;   -0,955
787,182;24298,196;    0,186;   -0,682
787,749;23921,061;   -2,814;    1,409
788,315;23272,472;   -1,632;   -0,409
788,882;23554,337;    1,550;   -1,227
789,448;24226,294;    1,732;   -0,955
790,015;24298,523;    1,095;    3,227
790,581;23843,661;    1,459;    0,227
791,148;23758,162;    0,641;    1,045
791,714;24006,028;   -0,541;    3,136
792,280;23667,802;    0,186;    1,591
792,847;23217,577;    0,550;    2,500
793,413;23796,533;   -0,269;   -0,318
793,979;23302,762;    3,459;   -1,318
794,545;23410,809;    4,459;    2,682
795,111;22794,675;    2,186;    1,318
795,678;23000,631;    0,731;   -1,682
796,244;22627,587;    3,368;    0,136
796,810;23173,816;    1,731;    0,773
797,375;22942,045;    0,549;   -2,136
797,941;22938,092;   -0,541;    0,591
798,507;23068,139;   -0,451;   -0,955
799,073;22671,096;   -0,360;    0,591
799,639;22721,143;   -2,632;    3,136
800,205;22775,554;    0,095;    2,682
800,770;22285,237;    0,640;    1,773
801,336;22401,830;    1,368;   -0,955
801,901;22074,968;    4,549;    3,136
802,467;22638,197;   -0,542;    2,045
803,033;22031,517;   -0,087;    0,864
803,598;22223,928;    1,913;   -1,045
804,163;22260,429;    1,095;   -0,318
804,729;22245,931;   -0,178;    1,136
805,294;22638,615;    0,822;    2,227
805,859;22436,026;    0,731;   -0,409
806,425;21874,255;    1,186;    2,682
806,990;21537,029;    2,186;    4,318
807,555;22018,076;   -1,451;    2,591
808,120;21874,669;    0,822;   -0,409
808,685;21952,171;    0,185;   -2,500
809,250;21449,490;    0,004;   -0,500
809,815;21772,447;    1,913;    0,682
810,380;22315,312;   -0,269;    1,591
810,945;22863,541;   -1,087;    2,045
811,510;22064,497;    2,094;    1,591
812,075;21795,272;   -0,633;   -1,409
812,640;21781,955;    2,003;    1,409
813,204;21838,548;    0,822;   -0,227
813,769;22285,141;    2,094;   -0,045
814,334;21734,097;    0,458;    0,864
814,898;21837,780;    0,367;    0,591
815,463;21680,919;    1,276;   -0,773
816,027;21656,966;   -0,724;   -2,318
816,592;21745,467;    0,640;   -2,045
817,156;21265,060;    2,094;    1,136
817,721;21081,744;    4,276;    2,318
818,285;21078,154;    2,912;    1,500
818,849;21725,565;   -1,451;    1,682
819,414;21626,522;   -0,269;    2,955
819,978;21203,751;   -1,269;    1,773
820,542;21773,889;    2,003;    0,500
821,106;21527,299;   -0,815;    0,682
821,670;21611,710;   -0,815;    2,591
822,234;21309,848;   -0,270;    1,409
822,798;20723,623;    0,003;    0,500
823,362;20662,034;   -0,633;    4,227
823,926;19969,535;    0,094;    1,136
824,490;20219,764;   -0,997;   -0,682
825,054;20708,902;   -0,088;   -1,136
825,618;20297,131;   -1,542;   -1,500
826,181;20220,360;    0,458;   -1,318
826,745;20127,226;    1,367;   -1,045
827,309;20442,909;    1,185;    1,318
827,872;19868,047;    1,367;    0,955
828,436;20840,095;    1,185;   -0,773
828,999;20912,324;   -0,997;    1,227
829,563;19728,462;   -0,179;    1,136
830,126;19567,963;   -0,179;   -0,591
830,690;19553,192;   -1,997;    2,864
831,253;19072,149;   -0,543;    2,227
831,816;19207,014;   -1,906;    0,500
832,380;19180,516;    0,185;    0,864
832,943;19360,108;   -1,361;   -0,500
833,506;18869,247;    2,639;   -1,227
834,069;19651,930;    3,912;   -0,955
834,632;19723,250;    1,730;    1,318
835,195;19568,752;    1,003;    0,955
835,758;18817,799;   -0,997;    1,955
836,321;18671,210;    0,730;   -1,045
836,884;18788,166;   -0,725;   -0,955
837,447;18832,850;   -2,816;    1,773
838,010;19044,897;    0,366;    3,227
838,573;19357,308;   -1,179;    0,773
839,135;19286,809;   -1,361;   -0,955
839,698;18793,856;    1,275;    0,409
840,261;18292,722;    1,003;   -0,227
840,823;18154,860;   -0,543;    0,864
841,386;18486,362;   -0,452;   -2,409
841,948;18342,409;   -1,361;    1,773
842,511;18067,820;    0,912;    1,682
843,073;18189,321;    1,912;    0,227
843,636;18060,823;   -0,361;   -0,227
844,198;17965,416;    0,911;    0,591
844,760;18072,372;    1,093;    1,955
845,322;17730,510;    0,548;    1,136
845,885;18133,739;    0,730;    0,591
846,447;18614,059;   -1,998;    0,227
847,009;18149,743;    1,911;   -0,682
847,571;18501,608;    0,820;   -2,045
848,133;18604,746;   -1,089;   -1,864
848,695;18428,611;   -0,543;    1,409
849,257;17954,022;   -1,089;   -1,682
849,819;18094,342;   -0,998;   -0,409
850,381;18180,207;   -0,725;   -0,864
850,942;18556,073;    1,093;   -0,591
851,504;18517,120;    1,184;    0,227
852,066;18533,440;    1,275;   -1,591
852,628;18094,123;   -0,180;    1,955
853,189;17663,807;    1,638;    2,682
853,751;17764,309;   -0,907;    1,409
854,312;17544,720;   -0,453;   -1,682
854,874;18038,403;   -2,089;   -0,773
855,435;18559,450;   -0,907;   -1,682
855,997;18723,316;   -1,816;   -0,136
856,558;18028,817;    0,366;    1,773
857,119;18166,410;    0,820;    2,864
857,681;17838,912;    0,002;    0,318
858,242;17888,959;    1,911;   -2,136
858,803;18328,642;    0,456;   -0,773
859,364;18868,417;    0,184;   -4,773
859,925;18232,464;   -2,453;   -0,955
860,486;18109,511;   -0,453;   -0,955
861,047;17829,104;   -0,544;   -1,227
861,608;17646,333;   -1,089;   -0,773
862,169;17800,380;    0,638;   -0,045
862,730;17574,518;    0,456;    1,409
863,291;17790,474;   -0,635;   -0,500
863,852;18177,522;   -0,635;    1,955
864,412;17653,751;   -0,271;   -0,864
864,973;16231,343;   -0,089;    0,500
865,534;16078,300;   -1,726;    0,227
866,094;17574,710;    1,820;    0,227
866,655;17280,576;    1,274;    3,318
867,215;17528,077;    0,274;    0,136
867,776;17383,306;    0,547;   -0,136
868,336;17460,899;   -1,453;    0,136
868,897;16897,583;    2,638;    1,682
869,457;16679,175;    1,365;    0,318
870,017;16926,768;    0,547;   -1,227
870,578;17452,451;   -0,817;    0,773
871,138;17105,135;   -2,089;   -0,955
871,698;16633,364;   -0,817;   -1,318
872,258;16478,866;   -0,453;   -2,864
872,818;16896,458;    2,729;    0,045
873,378;16866,960;    0,638;    1,045
873,938;16453,553;    0,547;    0,500
874,498;16782,145;    0,274;   -1,955
875,058;16664,011;    2,183;    1,773
875,618;16517,331;    1,910;   -2,682
876,177;16437,832;    1,274;    0,136
876,737;16066,061;   -0,090;    1,955
877,297;16091,108;    0,183;    1,955
877,856;16081,701;   -0,362;    0,318
878,416;16045,476;    1,183;   -0,136
878,976;16257,614;   -1,817;    0,409
879,535;16449,115;    0,092;    3,136
880,095;16170,981;   -0,544;    0,045
880,654;16269,755;   -1,090;    1,318
881,213;16345,711;    2,456;    1,500
881,773;16002,486;    2,637;    2,682
882,332;16308,351;    3,365;    5,136
882,891;16204,853;    3,092;    2,136
883,451;16694,809;   -1,272;    1,682
884,010;16149,311;   -2,908;   -0,409
884,569;16202,631;   -0,999;   -0,045
885,128;16347,133;    2,819;   -1,864
885,687;16379,816;    4,455;    0,682
886,246;16072,227;    1,455;    2,136
886,805;15862,183;    2,455;    2,045
887,364;16210,503;   -0,999;   -0,500
887,922;16570,096;   -1,181;    0,045
888,481;16063,688;   -1,545;    0,591
889,040;16324,372;    1,183;    2,136
889,599;16958,328;    2,455;    1,409
890,157;17057,739;    1,455;    2,409
890,716;16730,241;   -0,090;    0,227
891,274;16552,743;    0,092;   -1,136
891,833;16993,881;    1,546;    0,864
892,391;16926,746;   -0,454;    0,500
892,950;16954,884;    1,819;   -0,773
893,508;17331,931;    0,455;   -0,409
894,067;16700,524;    0,637;    0,136
894,625;16603,117;   -0,636;   -1,500
895,183;16817,891;   -0,363;   -0,682
895,741;16653,665;    1,728;   -1,773
896,299;16522,258;   -0,545;   -2,409
896,858;16721,942;    0,819;   -1,591
897,416;16846,443;    2,728;   -1,318
897,974;16615,854;    1,819;    0,318
898,532;16756,901;    6,091;    2,682
899,089;16620,949;    2,091;   -0,682
899,647;16669,905;   -1,454;    1,318
900,205;16421,861;    1,182;    1,045
900,763;16621,726;   -0,454;    0,227
901,321;16617,410;    2,364;   -1,409
901,878;16071,003;   -1,000;   -0,773
902,436;15980,050;   -1,363;    1,318
902,994;16301,279;    4,728;    3,682
903,551;15756,690;    0,728;    0,409
904,109;16173,919;    0,182;   -1,409
904,666;15809,148;    2,455;    1,045
905,224;15631,558;    0,182;   -0,409
905,781;15347,060;    0,727;   -0,318
906,338;15407,835;   -1,363;    1,045
906,895;15353,700;    0,637;    2,045
907,453;15261,838;    1,727;    1,136
908,010;15334,431;   -0,909;    0,409
908,567;15019,569;    1,273;    0,591
909,124;14493,798;    0,364;   -1,500
909,681;14555,390;   -2,909;    0,682
910,238;14705,801;    0,636;   -1,318
910,795;15036,939;   -0,273;   -1,136
911,352;14636,212;   -2,909;   -2,682
911,909;14090,212;   -1,364;   -0,864
912,466;14591,212;   -3,182;    1,500
913,022;14130,212;   -1,636;    0,500
913,579;14525,667;   -0,909;    2,045
914,136;14220,485;    1,636;    0,955
914,692;14527,848;    0,091;   -1,227
915,249;14090,939;    1,455;    0,409
915,806;14336,030;    0,182;    1,955
916,362;14129,394;    1,909;    1,864
916,918;13687,758;    2,000;    1,045
917,475;13645,576;   -1,182;    0,955
918,031;13730,030;    3,364;   -0,045
918,587;13185,303;   -0,909;   -0,318
919,144;13406,758;   -2,273;    0,227
919,700;13702,848;    1,727;    0,773
920,256;13293,212;    0,727;    0,045
920,812;12951,576;   -0,727;   -1,045
921,368;12953,212;   -1,727;   -1,045
921,924;12592,939;    0,182;   -0,136
922,480;12147,576;   -0,545;    1,227
923,036;12759,848;    1,273;    1,955
923,592;12725,121;    0,455;    0,318
924,148;12609,848;    0,455;   -0,955
924,704;11910,939;   -1,364;   -0,409
925,259;12243,212;   -0,273;    0,591
925,815;11986,576;    1,455;    0,500
926,371;11529,030;    2,909;    1,409
926,926;11416,030;    2,091;    0,591
927,482;11061,576;   -1,364;    0,773
928,037;10936,212;    0,909;    2,045
928,593;11196,848;    1,636;    1,045
929,148;11044,576;   -1,818;   -1,500
929,704;10544,212;   -1,455;   -0,500
930,259;10745,394;    0,091;   -0,136
930,814; 9858,394;   -0,818;    1,955
931,369; 9527,576;    1,091;   -0,773
931,925; 9426,303;   -0,091;    0,136
932,480; 9353,121;   -2,818;   -2,591
933,035; 9206,667;    0,545;   -0,318
933,590; 8997,030;    0,364;   -1,773
934,145; 8661,030;   -1,364;   -0,318
934,700; 9007,030;    0,455;   -0,591
935,255; 8836,121;   -0,091;    0,045
935,809; 8128,848;    3,182;    0,864
936,364; 7245,394;   -0,455;   -0,136
936,919; 7220,939;    0,455;   -1,773
937,474; 7115,848;    1,455;    0,136
938,028; 6866,848;   -1,636;    1,136
938,583; 6340,394;    1,818;    4,682
939,138; 6652,303;    2,091;    2,136
939,692; 6116,303;    1,636;   -1,136
940,247; 5823,758;   -0,727;   -1,045
940,801; 5384,939;   -0,636;    0,227
941,355; 5273,121;   -0,364;    2,591
941,910; 4927,212;   -0,273;   -2,136
942,464; 5034,394;   -0,818;   -0,318
943,018; 4840,848;    1,000;   -0,227
943,572; 4807,212;    2,545;   -0,682
944,126; 4232,030;    0,091;   -0,409
944,681; 4110,667;    3,091;    0,227
945,235; 4109,394;    1,000;   -0,591
945,789; 4051,030;    0,364;   -1,864
946,342; 4131,121;    0,455;   -0,591
946,896; 3931,394;   -2,273;    0,955
947,450; 3697,848;    1,545;   -0,227
948,004; 3893,303;    1,727;   -0,045
948,558; 3906,758;    0,273;   -0,864
949,111; 3809,030;   -0,273;   -0,318
949,665; 3836,212;    1,636;   -0,682
950,219; 3719,667;   -0,091;   -1,045
950,772; 3817,667;   -1,909;    1,864
951,326; 3722,576;    0,545;   -0,955
951,879; 3822,848;    0,727;   -2,318
952,433; 3831,485;    0,000;    2,227
952,986; 3677,485;    2,909;    0,682
953,539; 3623,576;   -0,273;    0,591
954,093; 3586,212;    0,545;   -1,318
954,646; 3703,848;    0,909;    1,318
955,199; 3516,030;    0,000;   -0,500
955,752; 3425,394;   -0,455;    1,773
956,305; 3370,212;   -0,091;    2,955
956,858; 3523,121;    0,818;   -0,318
957,411; 3696,121;   -0,545;    2,136
957,964; 3521,485;    1,364;    2,136
958,517; 3520,121;   -1,545;    3,136
959,070; 3347,848;   -0,455;    1,955
959,623; 3438,394;    1,091;    1,500
960,176; 3194,667;    1,727;    2,045
960,728; 3185,848;   -2,727;    0,773
961,281; 3248,485;    0,545;    0,500
961,834; 3290,303;   -0,909;    0,864
962,386; 3205,303;    1,727;    1,045
962,939; 3120,576;    0,364;   -0,318
963,491; 3265,394;    0,455;    1,136
964,043; 3133,485;    1,182;    2,409
964,596; 3255,667;   -1,000;    2,227
965,148; 3114,667;   -1,000;    1,773
965,700; 3021,848;    1,091;   -0,227
966,253; 3154,394;   -0,636;    0,318
966,805; 3019,939;   -2,273;    0,773
967,357; 3076,485;    1,091;   -1,500
967,909; 3023,212;    0,455;   -1,227
968,461; 3137,121;    0,545;    3,136
969,013; 3071,394;   -0,182;   -0,864
969,565; 3136,212;   -0,455;   -1,136
970,117; 3218,212;   -0,364;    1,045
970,669; 3043,394;    0,182;   -0,136
971,220; 2911,848;   -0,455;   -1,500
971,772; 2826,121;   -0,636;   -0,318
972,324; 2948,212;    0,091;   -0,500
972,876; 2920,121;    0,818;   -0,045
973,427; 3042,303;    1,909;   -1,045
973,979; 3014,212;   -0,727;   -2,500
974,530; 3052,030;    1,818;    1,318
975,082; 3051,576;   -0,545;    1,682
975,633; 2954,758;    1,091;    1,682
976,184; 3077,121;    0,909;    0,773
976,736; 2881,394;    0,091;    0,227
977,287; 2694,758;   -0,909;   -0,500
977,838; 2858,030;    0,909;   -0,318
978,389; 2909,939;   -1,000;   -0,500
978,940; 2779,212;    0,545;   -0,409
979,491; 2809,576;    0,091;   -0,500
980,042; 2781,485;    0,182;    3,045
980,593; 2828,939;   -2,545;    0,227
981,144; 2896,939;    2,545;   -0,500
981,695; 2875,121;    1,455;    1,500
982,246; 2817,394;   -0,273;    1,045
982,797; 2955,758;   -1,727;    0,682
983,347; 3072,030;    0,364;    0,591
983,898; 3235,030;    3,091;    0,409
984,449; 3069,303;    2,182;    0,773
984,999; 2974,576;    1,455;   -1,136
985,550; 2775,394;    0,182;   -0,318
986,100; 2807,848;   -0,455;   -0,318
986,651; 2853,394;   -0,818;    0,045
987,201; 2832,394;   -1,000;   -0,591
987,751; 2898,485;    0,818;    2,864
988,302; 2860,030;    2,636;    1,500
988,852; 2897,030;    0,455;   -1,136
989,402; 2951,848;    0,091;    0,682
989,952; 2857,394;   -2,182;    0,864
990,502; 2960,303;   -0,091;    0,682
991,052; 2941,394;   -0,727;    0,045
991,602; 2816,939;   -2,909;    1,318
992,152; 2798,212;    0,455;    0,682
992,702; 2776,758;    1,364;   -0,045
993,252; 2717,576;   -3,000;   -0,500
993,802; 2789,576;   -0,273;    1,318
994,352; 3011,485;   -1,545;    1,136
994,901; 3107,303;   -0,182;    3,227
995,451; 3035,848;   -0,182;    0,318
996,000; 3112,303;    1,636;    0,318
996,550; 2833,667;    2,273;    0,227
997,100; 2831,667;    1,273;   -0,045
997,649; 3102,303;    2,182;    0,955
998,198; 2755,939;    1,727;   -1,500
998,748; 2939,667;    1,091;   -2,318
999,297; 2864,394;   -0,818;   -0,409
999,846; 2923,576;    1,000;   -0,773
1000,395; 2956,667;   -0,818;    0,500
1000,945; 2928,848;    1,818;   -0,773
1001,494; 3010,485;    2,364;    0,682
1002,043; 2982,667;    4,636;    0,864
1002,592; 2830,212;   -1,091;    1,955
1003,141; 2992,667;   -0,455;   -0,682
1003,690; 2849,030;    1,727;    0,500
1004,238; 2929,212;    1,455;   -0,045
1004,787; 2573,485;    1,364;    1,227
1005,336; 2811,576;    0,364;    0,682
1005,885; 2943,303;    1,364;   -2,773
1006,433; 3073,121;    0,545;    0,955
1006,982; 3130,303;    0,455;    1,682
1007,531; 3055,030;   -1,818;   -0,227
1008,079; 2996,758;   -2,273;    0,500
1008,627; 3135,485;   -1,455;    0,409
1009,176; 2878,212;    0,000;   -1,955
1009,724; 2936,939;    1,091;    0,864
1010,273; 2983,576;    1,273;    0,500
1010,821; 3105,030;    0,091;    1,409
1011,369; 2834,939;   -1,364;    1,318
1011,917; 2824,394;   -1,364;   -0,591
1012,465; 3084,667;    1,273;   -1,591
1013,013; 3184,758;    2,091;   -1,682
1013,561; 3080,576;    0,455;   -0,773
1014,109; 3138,485;   -1,909;    1,682
1014,657; 3013,394;    0,364;    0,591
1015,205; 3135,939;    1,636;   -0,955
1015,753; 3170,848;   -0,545;   -1,409
1016,301; 3183,303;   -2,636;    3,045
1016,848; 3176,667;   -1,273;    0,409
1017,396; 3235,939;    2,545;    0,045
1017,944; 3367,848;    1,182;    1,864
1018,491; 3156,667;    0,273;    1,409
1019,039; 3292,212;    0,455;    0,591
1019,586; 3213,485;   -1,364;    1,682
1020,134; 3303,121;    0,455;    1,500
1020,681; 3306,848;    0,182;   -1,136
1021,228; 3344,576;    2,909;   -2,227
1021,776; 3165,576;    1,182;   -1,136
1022,323; 3375,030;    0,455;    0,773
1022,870; 3319,212;   -1,000;   -0,045
1023,417; 3211,939;    2,636;    1,864
1023,964; 3363,394;    2,636;    1,227
1024,511; 3200,848;    1,000;    0,773
1025,058; 2996,394;    3,182;   -0,045
1025,605; 3058,485;   -2,273;    3,136
1026,152; 3277,121;    1,727;   -0,591
1026,699; 3009,212;    1,818;    1,318
1027,245; 3174,576;   -0,091;    0,318
1027,792; 3380,758;   -1,000;    1,409
1028,339; 3264,394;    2,364;   -0,045
1028,885; 3118,758;    1,000;   -0,227
1029,432; 3057,030;   -0,091;    0,227
1029,978; 3111,848;   -1,000;   -1,591
1030,525; 3040,121;    1,000;    0,409
1031,071; 3270,212;   -1,364;    1,136
1031,618; 3375,758;    0,364;    1,682
1032,164; 3167,212;   -0,091;    3,045
1032,710; 3212,303;    1,636;   -1,500
1033,256; 3135,758;   -0,636;   -0,136
1033,803; 3107,758;   -0,545;    1,500
1034,349; 2856,667;   -1,364;    0,136
1034,895; 3009,303;    0,000;   -0,318
1035,441; 2972,303;   -0,818;    0,318
1035,987; 2983,667;   -2,364;   -0,682
1036,533; 2978,303;   -1,455;   -0,955
1037,078; 3171,848;    1,455;    1,682
1037,624; 2994,848;    2,455;   -0,955
1038,170; 3022,303;    0,455;   -0,318
1038,716; 2924,121;    1,636;   -0,409
1039,261; 2824,939;   -2,273;   -0,773
1039,807; 2779,758;   -0,091;    3,409
1040,352; 2845,030;   -1,909;   -0,318
1040,898; 2892,758;   -1,545;   -0,682
1041,443; 2803,939;   -1,455;   -2,591
1041,989; 2815,939;    1,091;    1,591
1042,534; 2721,667;   -0,364;    2,591
1043,079; 2833,212;    2,909;    0,955
1043,625; 2613,394;    1,818;    0,500
1044,170; 2670,212;   -1,364;    1,045
1044,715; 2933,212;    2,455;    0,955
1045,260; 2748,667;    2,182;   -0,955
1045,805; 2777,303;    1,182;   -0,591
1046,350; 2715,939;    1,364;   -0,409
1046,895; 2674,485;    2,909;    1,591
1047,440; 2628,121;    5,364;    0,409
1047,985; 2523,212;    2,818;   -0,955
1048,530; 2436,758;    1,545;    1,227
1049,074; 2511,758;    0,000;    0,318
1049,619; 2486,758;   -1,364;    1,955
1050,164; 2281,758;    0,455;    0,227
1050,708; 2327,758;   -0,455;    0,045
1051,253; 2695,121;    1,273;   -2,227
1051,797; 2415,667;    0,818;   -1,318
1052,342; 2422,939;   -1,182;    1,045
1052,886; 2420,939;    0,364;   -1,409
1053,430; 2314,667;   -1,364;    0,136
1053,975; 2331,212;   -0,818;   -0,318
1054,519; 2317,303;   -0,727;    3,227
1055,063; 2326,212;    0,909;    1,318
1055,607; 2202,394;   -0,182;    0,227
1056,151; 2236,758;    2,909;    1,682
1056,695; 2155,485;    2,273;   -1,136
1057,239; 2218,394;   -1,727;   -0,682
1057,783; 2228,030;    0,818;   -1,500
1058,327; 2174,030;    0,000;    1,409
1058,871; 2392,667;   -0,545;    1,318
1059,415; 2102,485;   -0,818;   -0,045
1059,958; 2359,576;    1,455;    2,591
1060,502; 2066,212;   -1,000;   -0,773
1061,046; 1996,303;    0,364;   -0,955
1061,589; 1989,303;   -3,000;   -1,136
1062,133; 1870,030;   -1,273;    1,864
1062,676; 1814,030;    1,182;    0,864
1063,220; 1813,485;    1,091;    0,500
1063,763; 1836,848;    0,909;    1,136
1064,306; 1912,303;   -0,909;    1,864
1064,849; 1776,576;   -0,909;    0,591
1065,393; 1795,212;    2,000;   -1,500
1065,936; 1901,212;    0,182;   -0,409
1066,479; 1799,576;   -1,455;    1,318
1067,022; 1819,394;   -0,273;   -0,227
1067,565; 1707,667;   -0,091;   -1,318
1068,108; 1740,030;    0,727;   -0,591
1068,651; 1714,121;   -0,636;    1,409
1069,194; 1642,303;   -0,455;   -1,682
1069,736; 1636,667;   -1,273;    0,955
1070,279; 1619,303;   -1,364;   -0,500
1070,822; 1667,485;   -2,000;   -0,318
1071,364; 1751,303;   -0,364;    1,318
1071,907; 1579,121;   -0,727;    3,227
1072,450; 1482,030;    0,000;   -0,045
1072,992; 1474,758;   -0,273;    3,136
1073,535; 1606,030;    2,091;    2,136
1074,077; 1408,576;   -0,727;    2,045
1074,619; 1383,576;   -1,364;    0,591
1075,161; 1408,848;   -1,091;    1,500
1075,704; 1594,758;    1,545;    1,227
1076,246; 1383,030;   -0,182;    0,682
1076,788; 1314,848;   -0,364;    1,773
1077,330; 1394,576;    1,273;    2,136
1077,872; 1360,303;    0,909;    0,955
1078,414; 1575,848;    2,727;    0,773
1078,956; 1316,939;    1,273;   -0,227
1079,498; 1574,212;    1,636;    0,318
1080,040; 1278,667;    1,909;   -1,318
1080,581; 1225,394;    1,636;   -0,318
1081,123; 1148,030;    0,091;   -0,773
1081,665; 1199,848;   -1,182;   -0,955
1082,206; 1498,212;    1,364;   -0,500
1082,748; 1349,848;    0,727;    2,045
1083,289; 1231,848;   -2,000;    1,318
1083,831; 1134,394;   -0,545;    0,227
1084,372; 1177,848;    0,000;    0,591
1084,913; 1179,485;    1,091;    0,864
1085,455; 1153,576;   -1,909;   -2,045
1085,996; 1122,667;   -2,273;    0,136
1086,537; 1130,394;   -0,091;    0,864
1087,078; 1162,485;   -0,909;   -2,136
1087,619; 1208,394;   -1,273;    0,227
1088,160; 1126,576;    0,000;    1,318
1088,701; 1121,303;   -1,091;    0,682
1089,242; 1054,758;    1,364;   -2,227
1089,783; 1148,030;   -0,273;    1,409
1090,324; 1123,939;    0,455;    0,682
1090,865; 1006,212;    2,727;   -0,409
1091,405;  972,394;    0,727;    2,227
1091,946;  997,121;    0,182;   -0,955
1092,487;  915,667;    0,818;   -1,409
1093,027; 1090,758;   -1,364;   -1,500
1093,568;  942,848;   -0,364;    1,227
1094,108; 1033,394;    0,273;    1,773
1094,649;  977,030;   -1,182;    0,136
1095,189;  920,939;   -0,636;   -0,682
1095,729;  871,758;   -0,091;    0,955
1096,269;  878,576;    0,727;   -0,955
1096,810; 1187,121;   -1,364;    0,500
1097,350; 1009,576;    1,364;   -0,773
1097,890;  909,485;    0,364;    1,227
1098,430; 1162,212;    2,364;    2,864
1098,970; 1027,303;    2,182;    1,682
1099,510;  901,485;    0,545;   -2,318
1100,050;  825,121;    1,000;   -1,591
1100,589;  797,939;   -0,727;   -0,318
1101,129;  923,667;    0,818;   -0,955
1101,669; 1072,667;    1,727;    2,136
1102,209;  888,758;   -0,091;    2,227
1102,748;  836,939;    0,000;    0,955
1103,288;  830,485;    1,273;   -1,227
1103,827;  859,030;    3,091;   -2,227
1104,367;  745,303;   -0,091;   -2,409
1104,906;  704,303;    1,364;   -1,136
1105,445;  766,939;    0,636;   -1,136
1105,985;  718,939;   -0,727;    1,500
1106,524;  760,394;   -1,727;   -0,682
1107,063;  734,212;   -2,727;    1,409
1107,602;  714,485;   -1,909;   -1,500
1108,141;  642,394;   -1,909;    1,500
1108,680;  734,939;   -3,455;   -0,591
1109,219;  677,576;   -0,909;   -0,500
1109,758;  678,303;    0,455;    0,682
1110,297;  650,121;    1,000;   -0,682
1110,836;  598,848;   -0,727;    0,955
1111,375;  767,576;   -2,545;    0,409
1111,913;  776,303;   -1,000;    0,773
1112,452;  699,485;   -0,273;    0,136
1112,991;  590,758;    1,091;    1,955
1113,529;  557,667;   -0,818;   -0,045
1114,068;  626,667;   -0,273;    2,955
1114,606;  522,485;   -0,364;   -0,955
1115,144;  688,212;   -1,273;    1,045
1115,683;  617,667;   -0,727;    0,318
1116,221;  663,394;   -0,455;   -0,864
1116,759;  573,939;    0,636;   -0,864
1117,297;  766,485;    0,000;    1,864
1117,836;  575,758;   -2,182;   -1,227
1118,374;  587,667;    0,182;   -0,682
1118,912;  536,939;    0,909;    2,682
1119,450;  513,485;    1,000;    0,864
1119,988;  573,939;    1,545;    2,136
1120,525; 1015,485;    5,091;    3,318
1121,063;  724,212;    1,182;    1,864
1121,601;  532,485;   -0,909;   -1,227
1122,139;  483,394;   -0,727;   -2,045
1122,676;  682,848;   -0,727;    2,773
1123,214;  605,576;   -1,182;    4,409
1123,751;  425,121;    1,727;    2,227
1124,289;  551,939;   -0,091;   -0,409
1124,826;  425,485;    1,727;    0,227
1125,364;  356,939;    1,727;   -0,955
1125,901;  533,212;    1,182;    1,227
1126,438;  651,121;    0,818;    0,955
1126,975;  383,667;   -0,727;   -0,773
1127,513;  445,848;    0,273;    2,136
1128,050;  353,848;    1,636;   -0,682
1128,587;  452,485;    2,000;   -0,227
1129,124;  489,576;    0,091;    1,318
1129,661;  362,030;    0,273;    0,227
1130,198;  525,394;    1,636;    0,773
1130,734;  477,848;    0,182;    1,409
1131,271;  332,121;   -0,909;    0,864
1131,808;  505,212;    2,909;    3,045
1132,345;  376,303;    1,545;    0,318
1132,881;  248,576;   -1,545;   -1,864
1133,418;  384,848;    0,727;   -1,136
1133,954;  321,758;    2,455;   -2,682
1134,491;  401,121;    1,364;   -0,773
1135,027;  302,758;    2,364;    0,864
1135,564;  390,758;    0,273;    2,955
1136,100;  373,576;    0,364;    2,136
1136,636;  262,394;   -1,273;   -1,045
1137,172;  354,848;    0,000;   -1,045
1137,708;  285,212;   -1,364;   -1,045
1138,245;  287,212;    1,273;   -1,227
1138,781;  232,576;    1,091;   -3,318
1139,317;  297,121;    1,273;   -1,409
1139,852;  289,939;    3,091;    0,136
1140,388;  404,939;   -1,182;   -0,409
1140,924;  286,667;   -1,091;   -2,227
1141,460;  232,576;   -1,636;    0,136
1141,996;  169,030;   -1,364;    2,682
1142,531;  212,485;    1,364;    3,318
1143,067;  422,030;    1,182;    1,045
1143,602;  476,758;   -0,091;   -0,318
1144,138;  328,121;   -2,636;    1,045
1144,673;  193,212;   -1,455;    1,409
1145,209;  258,030;   -1,909;   -0,318
1145,744;  189,485;   -0,727;    0,864
1146,279;  316,939;    1,818;   -0,136
1146,815;  228,758;    1,545;   -2,682
1147,350;  276,758;   -1,364;    0,045
1147,885;  181,576;   -0,818;   -1,318
1148,420;  180,939;   -2,273;    0,773
1148,955;  167,848;   -1,727;    1,864
1149,490;  195,394;   -0,909;   -1,591
1150,025;  180,394;    0,455;   -1,773
1150,560;  282,848;    1,091;   -0,955
1151,094;  252,303;    1,455;   -0,591
1151,629;  260,758;    1,636;    0,864
1152,164;  184,667;    1,364;    1,318
1152,698;  144,030;   -0,182;   -0,136
1153,233;  107,394;    0,091;   -0,682
1153,767;  152,030;   -3,000;   -2,318
1154,302;  192,394;   -1,455;    1,773
1154,836;  194,939;   -0,455;   -2,136
1155,371;  246,848;   -1,364;    3,682
1155,905;  204,758;   -0,636;    1,682
1156,439;  174,848;   -0,636;   -0,500
1156,973;  206,030;    0,364;    0,318
1157,507;  136,394;   -0,364;    0,682
1158,042;  168,121;   -0,727;    1,045
1158,576;  214,758;    0,182;    1,773
1159,110;  205,576;   -0,818;    2,409
1159,643;  177,485;    0,636;   -0,045
1160,177;  111,030;   -1,545;    1,500

