
Integration time [ms]:   0,040
Averaging Nr. [scans]: 11
Smoothing Nr. [pixels]: 0
Data measured with spectrometer [name]: 7318044SP
Wave   ;Sample   ;Dark     ;Reference
[nm]   ;[counts] ;[counts] ;[counts] 

186,757;    6,852;   31,551;    1,318
187,357;   45,314;   22,551;    0,955
187,958;   25,196;   15,460;   -1,591
188,558;   61,214;    8,915;   -1,227
189,159;   28,772;    6,733;   -4,500
189,759;   -0,624;    7,278;   -3,591
190,360;    1,673;    2,824;   -2,136
190,960;   29,543;    2,915;   -4,136
191,560;   46,217;    3,189;   -6,591
192,161;  253,710;    4,372;   -3,500
192,761;  111,909;    4,010;   -3,227
193,361;   66,651;    1,556;   -3,773
193,962;  110,412;    2,010;   -2,682
194,562;   37,116;    1,189;   -3,955
195,162;   50,861;   -2,448;   -2,227
195,762;  185,942;   -3,176;   -0,045
196,362;  138,407;    1,370;   -2,500
196,963;   33,543;    2,006;   -0,864
197,563;   75,033;    1,551;   -0,955
198,163;   37,912;    0,096;   -0,682
198,763;   48,292;    1,733;   -0,500
199,363;  115,627;    3,096;   -0,500
199,963;   88,200;    0,369;    0,409
200,563;   69,424;    2,823;   -1,409
201,163;   51,559;    3,277;   -0,227
201,763;  104,282;    3,732;    0,318
202,363;   57,804;    1,459;    1,500
202,963;  122,243;    1,459;    1,045
203,563;  217,628;    0,277;    0,500
204,162;  108,631;    2,096;   -1,864
204,762;   93,395;    0,550;    0,591
205,362;   64,986;    3,004;    1,955
205,962;  136,194;    3,096;    1,955
206,562;  141,555;    1,823;    2,318
207,161;  104,192;   -0,087;    0,318
207,761;  231,131;    1,277;    2,409
208,361;  124,451;   -0,268;    1,409
208,960;  197,793;    0,459;    1,500
209,560;  236,307;    1,277;    1,591
210,160;  231,931;    0,550;    1,864
210,759;  196,044;    4,186;    1,227
211,359;  196,956;    1,459;    1,045
211,958;  403,570;    1,277;    2,045
212,558;  451,929;    1,732;    1,864
213,157;  327,394;    1,822;    1,500
213,757;  664,416;    3,822;   -0,227
214,356;  413,524;    1,277;   -0,409
214,956;  670,923;    3,095;    0,409
215,555;  377,875;    2,095;    2,136
216,154;  321,723;   -2,723;   -0,591
216,754;  309,176;    0,277;    0,773
217,353;  401,946;   -0,268;   -1,045
217,952;  274,135;   -0,178;    0,318
218,552;  476,499;    1,368;   -0,773
219,151;  374,449;    0,277;    0,955
219,750;  360,890;    0,004;   -0,227
220,349;  374,927;   -0,451;    1,045
220,948;  515,939;   -1,360;    1,136
221,548;  425,858;    0,913;    1,227
222,147;  508,793;   -0,087;   -0,409
222,746;  751,755;   -0,451;   -0,955
223,345;  603,850;    0,731;    0,500
223,944;  588,985;   -0,451;    0,773
224,543;  655,156;    1,004;   -1,409
225,142;  753,746;    0,094;    0,136
225,741;  666,779;   -0,814;    1,045
226,340;  638,995;   -0,451;   -0,955
226,939;  916,155;   -0,996;   -0,136
227,538;  696,807;   -0,360;   -0,773
228,137;  902,754;   -0,814;    0,864
228,735;  854,753;   -0,541;    1,227
229,334;  666,024;   -0,905;   -0,227
229,933;  994,905;    0,459;    0,591
230,532; 1037,077;    1,186;   -0,409
231,131; 1119,010;    1,732;    0,318
231,729;  999,628;   -2,450;   -2,318
232,328;  909,504;   -0,723;   -1,500
232,927;  901,519;    1,004;   -0,500
233,525;  896,495;    3,640;    0,045
234,124; 1021,501;    2,368;   -1,591
234,723;  921,053;    0,913;   -1,045
235,321;  958,854;    2,277;    0,136
235,920; 1057,174;    1,186;   -1,227
236,518; 1317,612;    3,459;    0,318
237,117; 1176,828;    0,004;   -0,227
237,715; 1241,903;    0,640;   -0,500
238,314; 1328,352;   -0,087;   -2,318
238,912; 1535,564;   -0,723;   -1,409
239,510; 1413,652;    0,459;   -1,227
240,109; 1613,543;    0,004;    3,773
240,707; 1592,971;   -0,996;    1,227
241,305; 1598,008;    0,550;    0,136
241,904; 1812,735;   -0,178;   -2,045
242,502; 1915,010;   -0,632;   -0,227
243,100; 1838,993;   -0,087;   -0,955
243,698; 1975,886;    0,732;    1,682
244,297; 2103,389;   -0,632;    0,682
244,895; 2120,762;   -0,269;   -2,318
245,493; 2389,194;    2,186;   -0,591
246,091; 2409,524;    1,368;   -1,318
246,689; 2396,250;    1,004;    0,591
247,287; 2481,855;    0,822;   -1,136
247,885; 2680,872;   -1,451;    1,227
248,483; 2765,551;    1,822;   -0,500
249,081; 2894,949;    0,185;    1,591
249,679; 3027,340;   -0,178;    1,682
250,277; 3194,139;   -1,723;    0,864
250,875; 3224,903;   -1,087;   -1,045
251,473; 3270,405;   -1,178;    0,500
252,071; 3441,460;    1,459;    1,045
252,669; 3535,621;   -1,814;    0,318
253,267; 3690,560;   -0,087;    0,773
253,864; 3651,310;   -0,360;    0,682
254,462; 3734,779;    1,640;    1,591
255,060; 3652,502;   -0,269;    1,318
255,658; 3836,531;    0,822;   -0,136
256,255; 4183,672;    0,186;   -2,045
256,853; 4155,872;   -0,269;    1,409
257,451; 4153,374;    0,822;    1,864
258,048; 4512,643;    1,822;    1,864
258,646; 4213,869;    1,731;   -1,045
259,243; 4396,690;   -0,087;    2,227
259,841; 4401,501;   -0,814;    0,318
260,438; 4367,570;   -0,087;    0,864
261,036; 4865,965;   -1,905;    1,409
261,633; 4824,078;   -0,087;    2,227
262,231; 4668,468;    2,731;   -0,045
262,828; 4766,232;   -0,905;    1,136
263,425; 4794,095;    0,913;   -0,591
264,023; 5009,865;    0,186;    0,045
264,620; 4676,049;   -0,360;   -0,318
265,217; 4963,350;   -2,087;    3,136
265,815; 5051,492;   -1,905;    2,136
266,412; 4957,260;    0,731;    0,136
267,009; 4962,010;   -1,451;    0,773
267,606; 5010,414;    0,822;   -0,955
268,203; 4911,909;   -0,269;   -0,591
268,801; 5111,742;    1,731;    0,591
269,398; 5329,723;   -0,360;    2,500
269,995; 5312,414;    0,277;    1,591
270,592; 5164,691;   -0,632;   -0,500
271,189; 5274,754;    0,186;    0,409
271,786; 5393,127;   -0,632;    1,227
272,383; 5373,876;   -1,087;    0,227
272,980; 5407,708;    0,277;    0,318
273,577; 5726,317;    0,004;    1,227
274,174; 5355,351;    0,822;    2,591
274,771; 5332,531;   -0,814;   -0,773
275,367; 5572,134;    2,277;    1,409
275,964; 5539,206;    0,731;   -0,500
276,561; 5605,169;    1,549;   -1,045
277,158; 5748,885;    0,095;   -1,773
277,755; 5916,403;    2,185;    0,409
278,351; 5419,050;   -0,451;   -1,500
278,948; 5704,645;   -0,815;    0,045
279,545; 5719,301;   -1,360;    2,318
280,141; 6299,825;   -1,723;   -2,045
280,738; 6179,983;   -0,451;   -0,136
281,334; 6315,360;   -1,633;    0,591
281,931; 5887,812;   -0,087;   -1,318
282,528; 6076,838;    0,822;   -0,500
283,124; 6709,597;   -1,087;   -0,500
283,721; 6627,627;   -0,451;    1,409
284,317; 6504,329;    0,185;    2,500
284,913; 7043,234;   -1,360;    0,591
285,510; 7292,507;    0,640;   -0,318
286,106; 7347,556;   -2,269;   -0,955
286,703; 6964,520;   -0,360;    1,955
287,299; 7224,774;   -1,451;   -0,591
287,895; 7447,443;    0,822;   -1,045
288,491; 7974,451;    0,186;    2,136
289,088; 7799,519;   -2,360;    2,409
289,684; 7895,076;   -1,723;    1,500
290,280; 7938,368;    0,368;    0,682
290,876; 8055,472;    1,822;    5,500
291,472; 8034,643;    1,276;    2,227
292,068; 8172,649;    1,367;    0,227
292,665; 7956,501;    2,095;    0,773
293,261; 7731,029;    0,276;    2,136
293,857; 8086,366;    2,913;    2,136
294,453; 8092,359;    3,550;    0,955
295,049; 8040,464;   -0,268;    1,955
295,644; 8111,912;    0,095;    0,136
296,240; 8072,412;   -0,905;   -0,136
296,836; 8161,121;   -0,995;    0,318
297,432; 8438,863;    1,096;   -0,500
298,028; 8515,288;    0,732;    0,773
298,624; 8881,487;    1,459;    1,864
299,220; 9134,539;    2,368;    0,591
299,815; 8853,793;    1,005;   -0,409
300,411; 8709,555;    0,914;    1,773
301,007; 8779,922;    1,368;    0,227
301,602; 8803,728;   -0,541;   -2,318
302,198; 8962,095;    0,732;   -0,773
302,794; 9252,234;    1,187;   -0,500
303,389; 9360,872;   -1,177;    1,045
303,985; 9450,117;    0,550;    1,409
304,580; 9448,324;    1,459;    1,591
305,176; 9408,524;   -3,086;    0,136
305,771; 9355,835;   -1,268;   -1,227
306,367; 9245,538;    4,095;    0,136
306,962; 9542,455;    0,641;    1,500
307,558; 9259,758;   -0,450;    0,136
308,153; 9198,161;    1,095;   -1,136
308,748; 9379,671;   -0,814;    1,682
309,344; 9329,387;   -0,632;   -1,318
309,939; 9446,955;   -1,905;   -1,318
310,534; 9671,262;   -0,086;   -1,682
311,130; 9553,824;    0,459;   -2,500
311,725; 9292,376;    1,004;   -0,500
312,320; 9583,881;    2,459;    0,045
312,915; 9463,444;    1,459;   -1,045
313,510; 9498,681;    1,550;   -0,500
314,105; 9923,652;    1,096;    1,409
314,700; 9357,386;   -3,086;   -1,045
315,295; 9052,233;   -0,904;    0,045
315,890; 8676,090;    1,277;    0,864
316,485; 8954,378;   -0,359;   -0,318
317,080; 9063,184;   -3,086;    1,591
317,675; 9542,336;    2,005;   -0,682
318,270; 8993,463;    5,550;    3,318
318,865; 9049,280;    3,278;    3,045
319,460; 8871,243;   -0,904;    0,591
320,055; 9102,605;   -0,541;   -1,227
320,650; 8797,389;   -1,995;   -0,591
321,244; 8829,064;   -0,177;   -1,409
321,839; 9669,298;   -1,541;   -0,227
322,434; 9488,063;   -1,086;   -1,591
323,029; 9208,679;    1,732;    1,591
323,623; 9060,944;    1,550;    0,773
324,218; 8884,219;    2,368;    1,409
324,812; 8791,689;    1,096;    1,591
325,407; 8656,061;   -0,814;    2,045
326,002; 8579,305;    0,277;   -0,409
326,596; 8895,202;    0,914;    1,318
327,191; 9088,210;    0,823;   -1,045
327,785; 8761,566;   -0,813;   -0,227
328,379; 8973,331;    1,368;    0,136
328,974; 8782,362;    0,914;   -3,955
329,568; 9050,993;    0,186;   -2,409
330,163; 8935,075;    2,096;    1,045
330,757; 9275,805;    2,459;    1,591
331,351; 8673,099;    0,459;    0,682
331,945; 9004,233;    0,914;    1,409
332,540; 8738,918;   -1,723;   -0,591
333,134; 8879,594;   -1,086;    0,773
333,728; 9093,796;    0,005;    0,318
334,322; 9434,269;   -1,177;   -0,864
334,916; 8831,664;    0,277;    0,955
335,510; 9142,673;   -0,450;   -0,136
336,105; 9413,573;   -1,086;    1,591
336,699; 9179,375;   -1,086;    0,591
337,293; 9158,540;   -1,723;    0,318
337,887; 9300,002;   -2,723;    1,955
338,481; 9457,584;    0,459;    0,591
339,074; 9656,663;   -0,359;    2,682
339,668; 9506,537;   -1,632;    1,227
340,262; 9785,807;    1,732;    3,227
340,856; 9340,096;    1,822;   -0,682
341,450; 8800,164;    1,004;    1,864
342,044; 9653,904;    1,459;    0,136
342,637; 9441,361;    0,913;   -2,136
343,231; 9336,526;   -2,360;    0,682
343,825; 9342,010;   -1,086;   -0,591
344,419; 9324,783;   -1,995;    0,500
345,012; 9146,624;    2,459;    4,045
345,606; 9179,407;    4,641;    1,591
346,199; 9049,426;   -1,813;   -0,227
346,793; 8661,028;    1,914;    2,045
347,386; 8849,567;   -0,813;   -1,136
347,980; 8863,957;   -0,268;   -0,045
348,573; 8677,186;    2,278;    0,409
349,167; 8399,685;    5,278;    4,773
349,760; 8728,536;    2,914;    2,682
350,354; 8697,799;   -0,813;    1,136
350,947; 8451,211;    1,096;    1,682
351,540; 8207,512;   -0,358;   -1,409
352,134; 8133,748;    1,096;    1,136
352,727; 8181,953;   -0,086;    1,136
353,320; 8010,146;    0,005;    0,591
353,913; 7856,819;   -1,995;    1,864
354,507; 8042,914;    0,823;   -1,227
355,100; 8073,818;    0,460;    0,864
355,693; 7387,059;    2,005;    2,409
356,286; 7411,656;    0,823;    2,773
356,879; 7731,810;   -0,722;    1,227
357,472; 7359,752;   -0,904;    1,500
358,065; 7550,163;   -0,722;    2,500
358,658; 7482,627;   -0,540;    2,318
359,251; 7141,447;   -1,631;   -0,591
359,844; 6661,433;   -1,904;   -1,136
360,437; 6844,516;   -2,995;    0,045
361,030; 7096,053;    1,369;   -0,682
361,623; 6706,333;    2,824;    0,318
362,215; 6707,191;   -0,086;    2,045
362,808; 6563,650;   -2,358;   -1,682
363,401; 6756,659;   -2,449;    0,136
363,994; 6540,076;   -0,631;   -1,500
364,586; 6432,718;    0,824;   -1,500
365,179; 6599,551;   -0,449;   -1,136
365,772; 6093,942;   -1,995;    2,045
366,364; 6386,318;    1,915;   -3,227
366,957; 6585,097;    2,279;   -0,045
367,549; 6536,026;    2,188;   -0,864
368,142; 6251,641;    1,825;   -1,500
368,734; 6429,720;    0,734;   -2,136
369,327; 6364,613;    1,643;   -0,500
369,919; 6276,645;   -1,538;    0,409
370,512; 6120,725;   -1,083;   -0,500
371,104; 5880,894;   -0,901;    1,591
371,696; 6047,655;    1,191;   -0,955
372,289; 6108,844;    0,373;    1,136
372,881; 6221,898;   -2,080;    1,318
373,473; 6125,910;   -2,170;    1,136
374,066; 5967,852;   -0,169;    0,500
374,658; 5864,111;    0,378;    1,136
375,250; 6144,380;    0,653;   -1,409
375,842; 5989,443;    0,473;   -0,045
376,434; 5856,155;   -0,435;   -0,409
377,026; 6353,837;    0,204;   -2,500
377,618; 6248,195;   -0,158;   -0,682
378,210; 6135,032;   -0,338;   -1,955
378,802; 5980,957;    0,754;   -0,591
379,394; 5955,421;    1,846;    0,682
379,986; 6446,761;    1,393;   -0,955
380,578; 6547,070;   -0,153;    0,773
381,170; 5961,002;   -0,972;    0,045
381,762; 5894,294;    0,755;    1,409
382,354; 6046,540;   -0,065;   -1,318
382,945; 6139,820;   -2,976;    0,318
383,537; 6300,995;   -2,705;   -1,955
384,129; 6307,952;   -2,160;   -1,136
384,721; 6432,697;   -0,252;    0,955
385,312; 6391,125;   -0,161;   -0,955
385,904; 6477,705;   -2,706;    1,591
386,496; 5902,767;   -0,979;    1,045
387,087; 6026,078;    1,022;    2,500
387,679; 6062,417;   -1,160;    0,045
388,270; 6191,579;    2,840;    2,045
388,862; 6285,715;    1,295;   -0,318
389,453; 6142,706;   -0,887;    1,045
390,045; 6398,948;   -0,705;   -2,682
390,636; 6344,531;    0,204;   -0,591
391,227; 6200,287;   -0,523;   -0,045
391,819; 6302,756;    0,204;    0,773
392,410; 6351,564;    1,022;    0,045
393,001; 6264,565;   -0,979;   -1,591
393,593; 6532,245;    1,930;   -0,045
394,184; 6417,567;    1,385;   -0,409
394,775; 6333,780;    1,839;    2,136
395,366; 6493,991;    1,385;    0,773
395,957; 6451,142;    0,113;    0,136
396,548; 6717,710;   -0,342;    2,682
397,139; 7018,857;   -2,433;    0,591
397,730; 6773,959;   -1,888;    0,955
398,321; 6810,798;   -1,252;    0,955
398,912; 6848,562;   -0,615;    0,136
399,503; 6950,500;   -3,524;   -1,409
400,094; 6452,999;    0,294;    1,682
400,685; 6304,734;   -0,433;    0,045
401,276; 6359,727;    0,930;   -0,955
401,867; 6611,652;   -0,888;    0,773
402,458; 6685,149;   -2,251;   -2,318
403,048; 6693,113;    1,112;    0,591
403,639; 6329,268;    0,840;    0,864
404,230; 6587,600;    2,476;    0,318
404,821; 6504,682;   -0,615;    0,045
405,411; 6606,546;    1,203;   -2,591
406,002; 6222,418;   -1,252;   -1,136
406,592; 6126,166;    2,294;    0,045
407,183; 6338,498;    0,566;   -1,500
407,774; 6238,002;    3,475;   -0,136
408,364; 6493,054;    0,930;    0,409
408,954; 6153,670;    0,384;    1,227
409,545; 6200,485;    1,021;    1,045
410,135; 5739,418;    1,293;    0,500
410,726; 5851,582;    1,838;    0,318
411,316; 6159,521;    0,111;    0,773
411,906; 5842,298;   -0,253;   -0,409
412,497; 5423,751;   -1,070;   -0,045
413,087; 5891,541;   -1,980;   -0,227
413,677; 6171,795;   -0,707;    3,864
414,267; 6005,943;    0,656;    1,409
414,857; 5953,766;   -2,980;    4,227
415,448; 6171,304;    0,839;    0,500
416,038; 5865,429;    0,020;   -0,591
416,628; 5769,701;   -0,889;    0,409
417,218; 5370,410;    0,565;    3,318
417,808; 5539,597;    0,202;   -0,409
418,398; 5836,901;    0,020;    2,682
418,988; 5784,693;    2,020;    0,591
419,578; 5895,951;   -0,707;    1,409
420,168; 6130,845;   -1,343;   -0,955
420,757; 5787,607;   -1,343;   -1,500
421,347; 5452,348;    0,111;   -0,227
421,937; 5521,285;    2,292;    1,409
422,527; 5474,933;    0,838;   -0,773
423,116; 5289,658;   -0,253;   -0,045
423,706; 5484,639;   -1,889;    0,318
424,296; 5388,819;    1,384;    0,682
424,885; 5696,819;   -0,071;   -3,045
425,475; 5866,832;    1,474;   -2,864
426,065; 5748,861;   -0,980;   -0,318
426,654; 5424,684;   -0,435;   -0,318
427,244; 5523,684;    0,020;    1,409
427,833; 5069,678;    1,383;   -0,500
428,423; 5335,644;   -0,526;    1,136
429,012; 5862,758;   -0,344;   -1,136
429,601; 5411,164;   -1,344;    0,136
430,191; 5546,445;    1,292;    4,318
430,780; 5164,433;   -0,344;   -0,409
431,369; 5140,620;    0,746;   -0,045
431,959; 5605,109;   -1,254;    0,500
432,548; 5340,597;   -1,163;   -0,045
433,137; 5342,516;   -1,254;   -1,318
433,726; 5663,872;    0,292;    0,500
434,315; 5196,213;   -0,526;    2,409
434,905; 5243,005;   -1,254;    1,409
435,494; 5166,200;    0,746;    0,955
436,083; 5373,482;   -0,981;   -0,955
436,672; 5201,856;    0,110;    0,500
437,261; 4917,662;    0,292;   -1,955
437,850; 5007,532;    1,383;    0,682
438,439; 4905,806;    3,291;    1,955
439,027; 4767,904;    3,655;    1,773
439,616; 4910,952;    2,927;    1,227
440,205; 4647,268;    0,200;   -2,136
440,794; 4561,229;    2,109;   -0,045
441,383; 4635,765;   -1,346;   -0,591
441,971; 4449,489;   -2,436;    0,591
442,560; 4260,267;    0,563;   -1,773
443,149; 4012,902;    0,379;   -1,318
443,737; 4091,363;   -0,074;   -2,318
444,326; 4203,179;    0,018;    0,318
444,915; 4147,387;   -1,982;    0,864
445,503; 4285,832;   -2,891;   -0,318
446,092; 3969,384;    0,382;    2,136
446,680; 4183,306;    0,382;    0,318
447,269; 4190,738;   -0,346;   -0,318
447,857; 3981,846;    0,018;   -1,773
448,445; 3985,519;    0,563;    1,318
449,034; 4057,090;   -1,528;   -1,136
449,622; 4019,363;   -1,073;    3,500
450,210; 3800,855;    2,017;    2,227
450,799; 3973,679;    0,290;   -0,591
451,387; 3784,625;    1,381;   -0,591
451,975; 3597,616;    2,654;    0,864
452,563; 3729,297;    3,472;    2,318
453,151; 3573,776;   -0,528;   -1,227
453,739; 3457,599;   -1,347;    0,136
454,328; 3475,557;    2,381;   -2,136
454,916; 3274,602;    2,562;   -0,136
455,504; 3293,529;    1,017;    1,227
456,092; 3338,457;    0,017;   -1,591
456,679; 3236,247;    1,472;    0,682
457,267; 3603,719;    4,017;    1,045
457,855; 3339,517;    1,017;    1,409
458,443; 3012,174;   -0,165;    1,682
459,031; 3280,706;    0,108;    2,409
459,619; 3382,119;   -1,801;    2,864
460,206; 3274,430;    0,835;    2,045
460,794; 3343,655;   -2,983;   -0,227
461,382; 3425,074;   -0,529;   -0,864
461,970; 3164,286;    1,198;    1,864
462,557; 3198,406;   -0,711;   -0,682
463,145; 3336,366;   -3,165;   -1,682
463,732; 3456,575;    2,016;   -1,045
464,320; 3240,626;   -0,075;   -3,045
464,907; 3213,042;    2,743;   -0,773
465,495; 3055,962;    0,743;   -1,227
466,082; 3039,200;   -1,984;   -0,045
466,670; 2876,385;   -2,529;    1,227
467,257; 3047,757;   -1,711;    2,045
467,844; 3177,704;   -0,075;    0,045
468,432; 3166,466;    0,834;    3,500
469,019; 2921,732;    0,925;   -1,773
469,606; 3075,051;    0,470;    3,682
470,193; 3013,869;   -1,439;    0,227
470,780; 2877,450;   -2,075;    0,864
471,368; 2889,315;   -1,257;   -0,773
471,955; 2816,307;    1,379;   -0,682
472,542; 2599,723;    0,652;   -1,136
473,129; 2597,100;   -0,166;    0,136
473,716; 2451,881;    1,470;    0,591
474,303; 2457,247;    0,652;   -0,864
474,890; 2523,226;   -1,439;   -0,500
475,477; 2597,207;   -1,621;    0,409
476,064; 2459,686;    1,106;   -1,591
476,650; 2408,573;    0,288;    0,318
477,237; 2272,482;   -0,258;    0,955
477,824; 2270,882;   -1,076;    0,864
478,411; 2132,696;   -1,894;   -0,318
478,997; 2148,352;    0,560;   -0,773
479,584; 2077,984;    1,196;   -0,409
480,171; 2445,701;   -0,440;   -0,773
480,757; 2420,391;    2,651;    0,773
481,344; 2299,581;    0,469;    0,409
481,931; 1987,892;    1,105;    1,045
482,517; 2345,136;   -1,258;    0,318
483,104; 2449,862;    1,106;    2,864
483,690; 2362,501;   -1,804;    0,045
484,276; 2362,278;   -0,895;    0,227
484,863; 2529,085;    2,469;    1,136
485,449; 2431,748;   -0,077;    0,318
486,035; 2317,418;   -1,986;   -0,136
486,622; 2515,037;   -0,895;    0,045
487,208; 2393,382;    1,378;    1,500
487,794; 2305,610;    0,741;    0,318
488,380; 2378,253;    0,105;   -1,409
488,967; 2337,923;   -1,168;   -0,409
489,553; 2386,940;   -1,895;   -1,409
490,139; 2534,729;    1,559;    0,773
490,725; 2367,915;    0,741;   -0,227
491,311; 2293,699;    3,287;    3,045
491,897; 2100,701;   -0,986;    1,500
492,483; 2234,648;    0,105;    1,227
493,069; 2900,947;    3,923;    0,864
493,655; 2508,357;    1,650;    0,682
494,241; 2428,141;    1,377;   -0,955
494,826; 2634,212;    0,287;   -1,045
495,412; 2548,606;    2,559;   -0,682
495,998; 2668,013;   -0,805;   -0,318
496,584; 2767,760;    0,377;    1,045
497,169; 2777,921;    1,014;   -0,682
497,755; 2856,466;    0,650;    1,227
498,341; 3420,647;    0,559;    0,318
498,926; 3452,267;    1,832;    1,955
499,512; 3508,819;    1,286;    2,955
500,097; 3601,608;    0,195;   -0,318
500,683; 3801,144;   -0,350;    2,136
501,268; 4205,994;   -0,169;   -0,955
501,854; 4322,428;   -0,169;    1,227
502,439; 4490,543;   -0,624;   -1,773
503,024; 4775,677;    0,195;    0,500
503,610; 5075,705;   -0,078;   -0,682
504,195; 5282,473;    0,558;    1,955
504,780; 5675,270;    2,922;    1,227
505,366; 5885,447;    3,013;    2,864
505,951; 5933,534;    0,740;    1,045
506,536; 6248,014;   -3,260;   -3,682
507,121; 6467,489;    0,285;   -0,318
507,706; 7133,855;    2,376;    1,045
508,291; 7647,262;    2,649;    1,136
508,876; 7505,067;   -0,988;    2,591
509,461; 7371,958;   -0,169;   -0,773
510,046; 7970,167;    0,194;    0,318
510,631; 8424,789;   -0,351;   -0,773
511,216; 8376,861;    2,467;   -0,500
511,801; 8982,804;   -0,442;    2,591
512,386; 9433,674;    0,740;    0,500
512,971; 9582,607;   -2,988;    0,955
513,555; 9421,924;   -0,897;   -1,500
514,140;10360,779;   -0,442;   -3,136
514,725;10479,957;   -0,715;   -1,136
515,309;10814,680;   -0,533;    0,318
515,894;10494,103;   -0,624;   -2,227
516,479;11090,475;   -0,624;   -0,955
517,063;11070,195;    0,376;    1,227
517,648;11337,016;    1,012;   -1,136
518,232;11126,998;   -0,261;   -1,409
518,817;11525,242;   -0,079;    1,682
519,401;11882,297;    2,194;    0,591
519,985;11536,472;    1,103;    1,136
520,570;11505,609;    0,830;   -1,955
521,154;11894,226;    2,102;    0,591
521,738;12132,887;   -2,352;    2,409
522,323;12735,676;   -0,170;    1,682
522,907;12534,581;    0,466;   -0,136
523,491;12332,402;    0,557;    0,955
524,075;12370,464;    2,284;    0,591
524,659;12519,570;    1,466;    0,591
525,243;12048,423;    1,739;    0,409
525,827;12352,070;    0,648;   -0,045
526,411;13158,570;   -1,989;   -0,136
526,995;13422,730;   -0,352;    1,409
527,579;13060,126;   -0,443;   -1,045
528,163;13405,715;    0,375;   -1,500
528,747;13343,984;    2,466;   -0,773
529,331;13653,555;   -0,080;   -1,409
529,915;13890,838;    1,738;    0,955
530,499;13825,990;   -0,807;    1,227
531,082;13590,124;   -0,534;    1,591
531,666;13081,677;    1,374;    0,773
532,250;13723,682;    1,284;    2,682
532,833;14072,733;    0,920;    2,773
533,417;13977,220;   -1,807;    0,864
534,001;13957,812;    1,647;   -0,318
534,584;14666,588;    0,374;    0,500
535,168;14479,950;    0,465;    1,409
535,751;14512,709;    0,647;    0,045
536,334;14000,080;   -0,898;   -0,409
536,918;14598,381;    0,011;    1,591
537,501;14713,756;   -0,899;    1,318
538,085;14706,126;   -0,444;    1,045
538,668;14864,097;    0,829;    2,409
539,251;15169,341;    1,829;    3,773
539,834;15222,883;    0,101;    0,773
540,418;15162,483;   -1,990;    4,318
541,001;15241,173;   -0,990;    1,773
541,584;15244,273;    2,101;    2,227
542,167;14971,517;    1,374;    2,955
542,750;15172,282;    1,919;   -0,773
543,333;14698,826;    0,555;    2,136
543,916;15454,837;    0,192;    2,500
544,499;16054,452;   -1,354;    0,227
545,082;16055,333;    1,374;    3,591
545,665;16212,902;    1,919;    1,500
546,248;16541,189;    1,010;   -0,318
546,830;16219,609;   -0,445;    1,955
547,413;16636,780;    1,010;   -0,773
547,996;17172,851;    0,555;    0,500
548,579;16963,017;    0,919;    0,955
549,161;16752,262;    1,828;    2,682
549,744;16579,337;   -0,809;    0,409
550,326;17059,793;   -0,809;   -1,136
550,909;16790,138;    2,737;    0,591
551,492;17202,333;   -0,263;    0,227
552,074;17009,084;   -0,173;   -1,318
552,657;17546,600;    2,373;    0,045
553,239;17332,968;   -0,173;   -0,773
553,821;17250,678;   -1,082;    1,045
554,404;16789,660;    1,282;    1,136
554,986;17116,670;    0,464;    1,045
555,568;17719,129;    1,191;   -0,955
556,151;16956,463;    1,191;   -0,227
556,733;17139,484;   -0,264;   -0,864
557,315;17607,329;    0,100;    0,500
557,897;17418,113;    0,554;   -0,500
558,479;17537,964;   -1,991;    1,318
559,061;17655,535;   -0,719;   -0,864
559,643;17956,402;   -0,264;    0,045
560,225;18322,646;    1,645;    2,864
560,807;18381,674;    0,918;    0,318
561,389;17897,103;    0,554;    2,318
561,971;18600,136;    0,463;    2,136
562,553;18411,294;   -1,628;    1,591
563,135;18530,685;   -0,537;    1,136
563,717;18144,563;    3,372;    1,136
564,298;18823,329;    3,645;   -0,045
564,880;18597,336;    0,645;   -1,409
565,462;18744,336;    0,645;    1,318
566,043;19834,883;   -0,446;    2,318
566,625;19396,428;    1,918;    1,227
567,207;19233,716;    1,099;    1,682
567,788;20315,630;   -1,264;    1,500
568,370;21152,984;    1,917;   -0,500
568,951;20950,423;    0,190;    0,227
569,533;21771,905;   -0,628;   -0,500
570,114;22224,467;   -0,446;    0,682
570,695;22666,501;   -0,174;   -1,318
571,277;23148,511;   -0,265;   -1,682
571,858;23855,351;    2,008;   -1,136
572,439;24748,946;    1,554;   -1,045
573,021;24892,840;    2,099;   -2,773
573,602;25362,283;   -1,265;    0,318
574,183;26232,264;   -2,083;    2,227
574,764;26352,867;   -1,629;    0,409
575,345;26885,694;    0,917;   -0,136
575,926;27467,946;   -0,356;    0,136
576,507;27458,555;    1,099;   -0,227
577,088;28637,070;    3,099;    1,682
577,669;28555,874;    0,735;    1,955
578,250;29328,627;    0,644;   -1,045
578,831;29893,080;   -1,356;   -2,227
579,412;30111,572;   -0,810;    0,955
579,993;31044,271;    1,008;    0,227
580,573;31382,485;   -0,629;   -0,955
581,154;30415,451;    0,735;   -0,591
581,735;31199,751;    0,644;    0,773
582,315;30680,297;   -0,629;    2,136
582,896;31021,685;   -0,174;    1,227
583,477;30544,524;    0,189;    1,227
584,057;30693,241;    0,553;    0,955
584,638;30994,453;    2,553;    2,318
585,218;30946,694;   -0,538;    2,682
585,799;31157,536;    0,281;   -0,227
586,379;31109,343;    0,372;    1,591
586,959;30000,961;    0,735;    0,318
587,540;29420,531;   -0,629;    2,227
588,120;28897,586;    1,007;   -0,045
588,700;27872,688;    2,553;    2,136
589,281;28212,787;    0,462;   -0,955
589,861;28145,096;    0,099;   -1,682
590,441;27971,243;    2,371;   -2,682
591,021;26974,634;   -0,265;   -2,591
591,601;27198,731;   -0,537;    0,500
592,181;27216,485;   -0,719;   -0,773
592,761;26531,603;    0,007;    1,409
593,341;26489,930;   -0,901;    0,045
593,921;26489,767;   -0,265;    1,591
594,501;26401,901;   -0,538;    1,318
595,081;26224,705;    0,917;   -0,318
595,661;26512,592;   -1,447;    0,955
596,240;27047,852;   -0,537;    0,136
596,820;26620,958;    0,372;    1,955
597,400;26831,075;    2,008;    0,773
597,980;27102,149;    2,008;    1,045
598,559;27115,436;    2,735;   -0,227
599,139;26831,350;   -0,174;   -1,227
599,718;26752,350;   -0,174;   -0,409
600,298;26992,467;    0,735;    0,682
600,877;27187,697;    2,917;    1,409
601,457;27490,620;    2,281;    1,136
602,036;27343,912;    0,190;    2,045
602,616;27568,693;    0,644;    1,682
603,195;27878,983;   -0,355;    3,500
603,774;27419,867;   -0,901;    2,045
604,354;27356,383;    0,826;   -0,500
604,933;26863,910;    0,463;    1,864
605,512;26982,628;    3,554;    0,591
606,091;27058,219;   -0,537;    3,773
606,671;27826,409;    0,281;    0,773
607,250;26966,229;    1,644;    3,136
607,829;27217,027;    2,372;    3,227
608,408;27032,914;    1,190;    2,591
608,987;26060,160;    1,281;    3,409
609,566;26395,139;   -1,265;   -2,500
610,145;26509,406;   -1,082;    0,682
610,723;26915,167;    4,372;    6,864
611,302;26146,880;   -0,446;    1,682
611,881;25688,614;    5,008;   11,227
612,460;26554,495;    1,645;    3,955
613,039;26947,509;   -0,082;    2,045
613,617;25709,607;    1,736;    4,773
614,196;25924,071;    1,099;    1,227
614,775;26269,567;    1,009;    2,409
615,353;26167,436;    0,736;    0,864
615,932;25942,499;    0,100;    2,409
616,510;26522,566;    0,554;    0,591
617,089;26001,108;    7,100;   17,591
617,667;25770,591;    2,372;    6,136
618,246;25658,884;   -1,537;    1,318
618,824;25838,584;   -3,355;   -0,955
619,402;25433,040;   -2,900;   -1,773
619,981;25891,665;   -0,173;   -1,045
620,559;25713,990;    0,009;    1,682
621,137;25303,692;   -0,718;    1,864
621,715;25316,271;   -1,173;   -0,682
622,293;25228,388;   -0,537;   -0,773
622,871;25702,875;   -0,718;    0,500
623,450;25304,400;    0,373;   -0,864
624,028;25179,929;    0,191;   -0,955
624,606;24833,677;   -1,718;    1,682
625,183;25205,089;   -1,536;   -1,136
625,761;24817,361;    1,009;    1,136
626,339;25086,106;    1,373;    2,591
626,917;25522,616;   -0,172;   -0,045
627,495;25548,558;   -0,354;    1,318
628,073;25066,940;   -0,263;    2,864
628,650;24749,475;    0,100;    2,136
629,228;25115,609;    0,373;    4,409
629,806;24544,931;    2,282;    1,136
630,383;24825,159;    1,464;   -0,318
630,961;24603,417;    2,555;   -0,955
631,539;24381,127;    2,464;    0,227
632,116;23690,689;   11,373;   15,409
632,694;24251,888;    2,555;    6,500
633,271;24594,346;    0,828;    2,682
633,848;24482,540;    1,828;    2,045
634,426;24506,943;   -1,081;    1,773
635,003;23684,154;    1,101;   -0,409
635,580;23972,333;    1,192;    3,682
636,158;24558,235;    3,737;    1,227
636,735;24525,922;    0,555;   -0,500
637,312;24672,331;   -0,809;   -0,682
637,889;24766,544;   -4,354;   -0,682
638,466;24198,328;   -3,990;   -0,409
639,043;24197,061;    2,101;   -1,136
639,620;24559,302;   -2,262;   -0,955
640,197;24883,358;    1,100;    1,682
640,774;25018,769;   -0,172;    1,136
641,351;25444,362;    0,737;    1,136
641,928;24818,682;   -0,627;    1,409
642,505;24463,548;    0,828;   -0,500
643,082;24638,141;   -1,718;    1,227
643,658;23692,642;   -0,718;    1,500
644,235;24425,690;    1,191;    2,500
644,812;24694,737;    1,918;    0,773
645,388;24427,057;   -0,991;    1,409
645,965;24558,105;   -0,809;    1,682
646,542;24605,788;   -1,445;   -0,227
647,118;24548,654;    1,009;   -0,955
647,695;24827,610;   -0,263;    1,136
648,271;24772,476;   -0,536;    0,500
648,848;25080,614;    0,736;    2,227
649,424;24943,843;    0,827;    1,318
650,000;24644,345;   -0,354;   -1,045
650,577;24453,120;   -0,627;   -0,955
651,153;24942,349;   -1,809;    0,955
651,729;25910,215;    1,191;    0,864
652,305;26017,444;    0,645;    2,773
652,881;30044,855;   -0,082;    1,136
653,458;36525,902;    1,100;    0,227
654,034;40371,131;    0,282;    1,591
654,610;41974,542;    0,554;    0,773
655,186;43240,590;    0,645;    3,045
655,762;42905,819;   -0,991;    0,409
656,338;42947,957;    0,100;    0,136
656,913;43967,823;   -0,082;    0,409
657,489;43273,143;    0,827;   -0,318
658,065;43199,826;   -0,173;   -1,591
658,641;43893,965;   -0,900;   -0,864
659,217;43220,739;   -0,991;    0,409
659,792;42589,332;    0,645;   -0,409
660,368;42816,016;   -2,173;   -0,682
660,944;42634,154;   -2,082;    1,227
661,519;38426,111;   -0,628;    0,409
662,095;32810,249;   -1,719;    0,591
662,670;28182,296;    1,281;   -0,136
663,246;26953,707;    1,009;   -0,409
663,821;26244,027;    0,281;    1,682
664,396;25703,166;    0,009;    1,864
664,972;25954,849;    0,009;   -0,500
665,547;26246,260;    1,372;    0,136
666,122;26296,308;   -1,082;    0,318
666,698;26585,446;   -0,173;    0,318
667,273;25909,221;   -0,173;    0,136
667,848;26736,359;    2,372;    1,500
668,423;26546,770;    2,190;    2,318
668,998;27128,363;    2,827;   -0,682
669,573;27621,683;   -3,264;   -1,500
670,148;27411,912;   -1,446;   -0,682
670,723;27244,505;   -1,810;    0,318
671,298;27616,189;    2,372;    1,045
671,873;27740,327;   -0,082;   -0,136
672,448;27683,465;    0,645;    0,136
673,023;28010,512;   -1,992;   -0,227
673,597;28291,014;    0,827;    2,318
674,172;28128,153;   -0,355;    0,318
674,747;27648,655;    0,372;   -1,045
675,321;27528,247;   -0,628;    3,318
675,896;27097,295;    0,645;    1,045
676,471;28060,524;    2,645;    1,591
677,045;27855,753;   -1,264;    0,682
677,620;27918,073;    0,190;    1,136
678,194;28222,848;   -2,628;    1,136
678,769;27758,531;   -1,083;   -0,318
679,343;27964,579;   -0,628;    1,773
679,917;27851,444;   -1,446;    1,955
680,492;27965,219;    0,826;    3,227
681,066;28084,266;    3,372;    0,409
681,640;28123,768;    1,463;   -0,318
682,214;28889,543;    0,735;    0,500
682,788;28447,227;   -1,356;   -0,773
683,363;28396,001;   -1,810;    1,682
683,937;28098,958;   -1,719;   -0,318
684,511;28837,096;    0,463;   -0,591
685,085;28514,780;   -1,356;    0,318
685,659;28317,282;   -2,538;    0,864
686,232;28555,511;   -0,356;   -0,318
686,806;28267,740;   -0,901;    0,409
687,380;28989,060;   -0,174;    0,591
687,954;29170,835;   -1,174;    1,136
688,528;28828,246;   -0,719;    1,955
689,101;29587,475;   -3,992;    1,045
689,675;29229,795;   -0,356;   -0,136
690,249;28635,388;   -0,719;    0,409
690,822;28894,981;    0,280;    0,318
691,396;28951,937;   -0,265;    1,227
691,969;28428,803;    1,280;    0,136
692,543;28918,032;   -0,447;   -1,955
693,116;28587,170;   -0,265;   -1,409
693,690;28457,945;    0,099;    0,500
694,263;29000,901;   -1,083;    2,955
694,836;29050,585;    1,371;    3,591
695,410;27718,178;   -0,265;    1,773
695,983;28173,316;    0,189;    0,591
696,556;28148,727;   -0,447;   -1,045
697,129;28546,956;   -0,356;    1,409
697,703;28148,367;   -1,629;    1,955
698,276;28176,596;    1,462;   -0,773
698,849;27968,371;    1,280;    1,409
699,422;28305,873;   -1,083;    0,591
699,995;28013,920;    0,007;    0,136
700,568;28488,058;   -0,629;    3,045
701,140;28516,742;   -2,811;    1,682
701,713;28246,244;   -0,174;    2,409
702,286;28003,746;   -0,538;    0,864
702,859;27916,521;   -0,902;   -0,591
703,432;27100,386;    0,825;    0,682
704,004;27551,252;    0,462;    0,318
704,577;27466,390;   -0,629;    0,136
705,150;28052,892;    0,189;    2,500
705,722;27864,939;   -0,356;   -3,227
706,295;27593,532;   -0,175;   -0,591
706,867;27440,579;   -0,175;    1,955
707,440;27636,718;   -1,720;   -0,409
708,012;27898,583;    0,462;    0,591
708,584;27816,267;    2,462;    0,227
709,157;28165,860;    1,825;   -0,591
709,729;27785,362;    2,280;    2,045
710,301;28642,864;    0,734;    0,045
710,874;28582,729;   -1,447;   -0,227
711,446;27522,777;    0,371;    0,864
712,018;27388,460;    0,098;    0,500
712,590;27136,235;   -1,993;    1,682
713,162;27641,646;    0,825;    1,318
713,734;27929,239;    1,825;   -2,045
714,306;27808,922;   -1,902;   -0,409
714,878;26544,606;    0,825;    0,864
715,450;27321,381;    0,643;    0,864
716,022;27579,155;    1,552;    1,318
716,593;27731,476;    0,189;    0,591
717,165;27678,614;   -3,175;   -1,227
717,737;27427,207;    0,280;    0,409
718,309;27064,618;    0,280;   -0,045
718,880;27051,756;   -0,539;   -1,409
719,452;27297,167;   -0,175;   -1,591
720,024;26872,851;    0,734;   -0,591
720,595;27425,898;   -2,902;    0,955
721,167;26934,582;    0,370;   -2,045
721,738;26453,356;   -0,812;   -1,045
722,309;26437,131;   -0,993;   -1,227
722,881;26226,906;   -1,357;    0,773
723,452;26797,862;   -2,630;    2,864
724,023;27045,000;   -0,721;    2,682
724,595;26762,229;    0,007;    0,682
725,166;26550,550;    0,007;   -0,409
725,737;26225,870;    1,734;    0,227
726,308;26285,644;   -0,266;    0,318
726,879;26697,237;   -1,630;    1,227
727,450;26584,648;    0,552;   -0,045
728,021;26569,786;    3,097;    0,682
728,592;26384,197;    0,734;    0,500
729,163;26695,063;    0,643;   -0,136
729,734;26712,656;    0,188;   -0,227
730,305;27045,794;    1,734;    0,136
730,876;27400,114;    0,188;    2,955
731,447;27069,525;    2,188;    2,682
732,017;27144,300;    1,097;    1,864
732,588;26671,347;    0,734;    1,227
733,159;26862,122;    0,643;   -1,045
733,729;26694,351;    0,006;    0,409
734,300;25977,216;    0,915;    0,864
734,870;26371,991;    3,461;    0,591
735,441;26988,493;    0,370;   -0,591
736,011;26728,449;    0,643;   -1,591
736,582;26674,406;   -0,812;    0,045
737,152;26166,726;   -1,721;   -2,045
737,722;26554,955;   -0,267;   -0,682
738,293;26295,002;   -1,358;    1,318
738,863;26183,686;    2,461;    2,318
739,433;26071,188;    5,279;    0,318
740,003;26666,508;   -0,994;   -0,682
740,573;26000,737;    2,097;   -1,591
741,143;26002,057;   -1,085;    0,318
741,713;26779,196;    1,188;   -0,500
742,283;26478,061;    0,915;    1,591
742,853;26232,472;    1,915;    1,591
743,423;25730,611;    1,733;    0,045
743,993;25851,203;   -0,358;    1,500
744,563;25236,251;    0,097;   -0,864
745,133;25210,571;   -0,812;   -0,864
745,702;25921,800;   -0,267;    1,773
746,272;25094,029;   -0,176;    0,591
746,842;24854,531;   -1,358;   -0,591
747,411;25301,760;   -0,267;   -0,318
747,981;25502,171;    0,097;    0,500
748,551;25539,582;    2,278;   -1,045
749,120;25373,630;    0,642;   -0,227
749,690;25805,677;   -0,631;    2,409
750,259;26108,906;    1,369;    2,955
750,828;25971,135;    1,551;   -1,955
751,398;26298,183;    1,278;   -0,045
751,967;25723,139;    2,187;    0,409
752,536;25972,277;   -0,813;   -0,227
753,105;26397,507;    0,096;    0,227
753,675;26187,190;    0,096;    1,773
754,244;26167,874;   -0,904;    3,591
754,813;26175,740;    0,551;    1,227
755,382;25725,878;    0,460;    0,955
755,951;26278,743;    1,551;    3,682
756,520;25822,973;   -0,085;    1,864
757,089;26355,929;    0,278;    0,500
757,658;26511,613;    1,733;    1,227
758,227;26544,933;    1,096;    0,318
758,795;26813,162;    1,187;    1,136
759,364;27029,846;   -0,086;   -0,591
759,933;26091,166;   -1,176;   -0,045
760,501;25645,122;    0,733;   -1,318
761,070;26088,806;   -2,813;   -1,409
761,639;26726,762;   -1,904;    1,318
762,207;26065,901;    1,551;   -0,955
762,776;26040,948;    0,369;    0,864
763,344;26024,723;   -0,995;    0,591
763,913;25181,770;   -0,722;    1,409
764,481;25845,363;    1,005;   -0,136
765,049;25661,319;   -1,358;    1,409
765,618;25537,821;   -0,086;    0,318
766,186;25643,050;    0,278;    0,136
766,754;25805,734;    0,005;    1,864
767,322;24842,600;   -1,995;    0,409
767,890;24907,556;   -0,722;   -1,773
768,459;25245,785;   -2,177;   -0,318
769,027;25457,469;    1,641;    3,409
769,595;24469,516;    3,278;    2,591
770,163;24822,109;    3,823;    2,955
770,730;24595,429;    0,732;   -0,136
771,298;24478,295;    0,187;   -1,409
771,866;24570,706;   -1,541;    4,955
772,434;24898,208;   -0,631;   -1,864
773,002;25128,982;    0,005;    0,682
773,569;24721,939;    0,914;    1,682
774,137;24524,441;   -0,268;   -0,045
774,705;25329,306;    0,278;   -0,136
775,272;24840,717;    0,641;    0,682
775,840;24589,310;   -0,177;    2,682
776,407;24140,539;    0,277;    1,955
776,975;23758,041;   -0,632;    0,318
777,542;24745,452;   -1,086;   -0,045
778,110;24565,590;   -1,268;   -0,045
778,677;24272,183;   -2,359;   -0,864
779,244;24030,776;    2,186;    1,045
779,812;24133,551;    1,823;    0,864
780,379;23995,325;    0,005;    1,136
780,946;24283,918;    1,005;   -0,773
781,513;24594,238;   -1,450;    0,318
782,080;23944,377;   -0,086;    2,864
782,647;24687,515;   -0,268;    3,045
783,214;24272,380;   -0,177;    3,864
783,781;23915,882;   -0,723;   -0,682
784,348;23764,202;   -0,632;    1,500
784,915;24201,432;   -3,177;    0,318
785,482;23956,388;    1,368;    2,591
786,049;24445,799;    0,186;   -0,591
786,615;24565,392;    0,277;   -0,955
787,182;24344,894;    0,186;   -0,682
787,749;23948,214;   -2,814;    1,409
788,315;23318,079;   -1,632;   -0,409
788,882;23595,945;    1,550;   -1,227
789,448;24278,901;    1,732;   -0,955
790,015;24349,858;    1,095;    3,227
790,581;23852,996;    1,459;    0,227
791,148;23789,134;    0,641;    1,045
791,714;24015,091;   -0,541;    3,136
792,280;23704,320;    0,186;    1,591
792,847;23273,186;    0,550;    2,500
793,413;23808,687;   -0,269;   -0,318
793,979;23340,917;    3,459;   -1,318
794,545;23423,509;    4,459;    2,682
795,111;22840,557;    2,186;    1,318
795,678;23027,513;    0,731;   -1,682
796,244;22675,197;    3,368;    0,136
796,810;23227,426;    1,731;    0,773
797,375;22913,473;    0,549;   -2,136
797,941;22952,884;   -0,541;    0,591
798,507;23107,841;   -0,451;   -0,955
799,073;22670,434;   -0,360;    0,591
799,639;22791,208;   -2,632;    3,136
800,205;22785,256;    0,095;    2,682
800,770;22327,212;    0,640;    1,773
801,336;22422,078;    1,368;   -0,955
801,901;22104,216;    4,549;    3,136
802,467;22707,263;   -0,542;    2,045
803,033;22028,038;   -0,087;    0,864
803,598;22256,813;    1,913;   -1,045
804,163;22266,224;    1,095;   -0,318
804,729;22267,907;   -0,178;    1,136
805,294;22664,227;    0,822;    2,227
805,859;22437,184;    0,731;   -0,409
806,425;21856,322;    1,186;    2,682
806,990;21572,460;    2,186;    4,318
807,555;22070,053;   -1,451;    2,591
808,120;21930,192;    0,822;   -0,409
808,685;21970,421;    0,185;   -2,500
809,250;21480,104;    0,004;   -0,500
809,815;21833,606;    1,913;    0,682
810,380;22393,745;   -0,269;    1,591
810,945;22872,974;   -1,087;    2,045
811,510;22031,748;    2,094;    1,591
812,075;21754,887;   -0,633;   -1,409
812,640;21803,661;    2,003;    1,409
813,204;21828,527;    0,822;   -0,227
813,769;22363,301;    2,094;   -0,045
814,334;21791,440;    0,458;    0,864
814,898;21851,851;    0,367;    0,591
815,463;21668,716;    1,276;   -0,773
816,027;21662,673;   -0,724;   -2,318
816,592;21733,538;    0,640;   -2,045
817,156;21267,131;    2,094;    1,136
817,721;21123,269;    4,276;    2,318
818,285;21107,135;    2,912;    1,500
818,849;21727,819;   -1,451;    1,682
819,414;21625,957;   -0,269;    2,955
819,978;21227,186;   -1,269;    1,773
820,542;21774,415;    2,003;    0,500
821,106;21543,281;   -0,815;    0,682
821,670;21604,419;   -0,815;    2,591
822,234;21364,376;   -0,270;    1,409
822,798;20743,696;    0,003;    0,500
823,362;20670,652;   -0,633;    4,227
823,926;20036,518;    0,094;    1,136
824,490;20264,656;   -0,997;   -0,682
825,054;20692,340;   -0,088;   -1,136
825,618;20301,205;   -1,542;   -1,500
826,181;20260,707;    0,458;   -1,318
826,745;20172,482;    1,367;   -1,045
827,309;20478,256;    1,185;    1,318
827,872;19933,122;    1,367;    0,955
828,436;20886,533;    1,185;   -0,773
828,999;20928,308;   -0,997;    1,227
829,563;19788,173;   -0,179;    1,136
830,126;19620,220;   -0,179;   -0,591
830,690;19568,450;   -1,997;    2,864
831,253;19107,679;   -0,543;    2,227
831,816;19254,635;   -1,906;    0,500
832,380;19219,592;    0,185;    0,864
832,943;19417,821;   -1,361;   -0,500
833,506;18851,959;    2,639;   -1,227
834,069;19623,643;    3,912;   -0,955
834,632;19727,781;    1,730;    1,318
835,195;19639,919;    1,003;    0,955
835,758;18834,785;   -0,997;    1,955
836,321;18708,196;    0,730;   -1,045
836,884;18805,698;   -0,725;   -0,955
837,447;18875,745;   -2,816;    1,773
838,010;19107,883;    0,366;    3,227
838,573;19400,658;   -1,179;    0,773
839,135;19331,433;   -1,361;   -0,955
839,698;18776,207;    1,275;    0,409
840,261;18317,346;    1,003;   -0,227
840,823;18151,575;   -0,543;    0,864
841,386;18432,168;   -0,452;   -2,409
841,948;18316,397;   -1,361;    1,773
842,511;18113,171;    0,912;    1,682
843,073;18250,764;    1,912;    0,227
843,636;18055,357;   -0,361;   -0,227
844,198;17980,495;    0,911;    0,591
844,760;18132,270;    1,093;    1,955
845,322;17758,863;    0,548;    1,136
845,885;18132,274;    0,730;    0,591
846,447;18552,594;   -1,998;    0,227
847,009;18172,369;    1,911;   -0,682
847,571;18498,416;    0,820;   -2,045
848,133;18577,100;   -1,089;   -1,864
848,695;18430,329;   -0,543;    1,409
849,257;17965,558;   -1,089;   -1,682
849,819;18129,696;   -0,998;   -0,409
850,381;18211,653;   -0,725;   -0,864
850,942;18570,973;    1,093;   -0,591
851,504;18483,293;    1,184;    0,227
852,066;18581,340;    1,275;   -1,591
852,628;18099,206;   -0,180;    1,955
853,189;17654,435;    1,638;    2,682
853,751;17760,573;   -0,907;    1,409
854,312;17572,802;   -0,453;   -1,682
854,874;18108,122;   -2,089;   -0,773
855,435;18611,261;   -0,907;   -1,682
855,997;18764,490;   -1,816;   -0,136
856,558;18061,537;    0,366;    1,773
857,119;18145,403;    0,820;    2,864
857,681;17874,268;    0,002;    0,318
858,242;17864,770;    1,911;   -2,136
858,803;18329,545;    0,456;   -0,773
859,364;18903,683;    0,184;   -4,773
859,925;18212,821;   -2,453;   -0,955
860,486;18111,869;   -0,453;   -0,955
861,047;17845,098;   -0,544;   -1,227
861,608;17656,782;   -1,089;   -0,773
862,169;17811,738;    0,638;   -0,045
862,730;17600,331;    0,456;    1,409
863,291;17827,287;   -0,635;   -0,500
863,852;18169,062;   -0,635;    1,955
864,412;17666,746;   -0,271;   -0,864
864,973;16254,248;   -0,089;    0,500
865,534;16109,204;   -1,726;    0,227
866,094;17576,161;    1,820;    0,227
866,655;17252,481;    1,274;    3,318
867,215;17543,619;    0,274;    0,136
867,776;17396,939;    0,547;   -0,136
868,336;17464,441;   -1,453;    0,136
868,897;16938,761;    2,638;    1,682
869,457;16668,354;    1,365;    0,318
870,017;16898,583;    0,547;   -1,227
870,578;17447,903;   -0,817;    0,773
871,138;17112,496;   -2,089;   -0,955
871,698;16665,089;   -0,817;   -1,318
872,258;16551,682;   -0,453;   -2,864
872,818;16945,820;    2,729;    0,045
873,378;16870,140;    0,638;    1,045
873,938;16444,278;    0,547;    0,500
874,498;16773,598;    0,274;   -1,955
875,058;16676,464;    2,183;    1,773
875,618;16564,602;    1,910;   -2,682
876,177;16476,195;    1,274;    0,136
876,737;16056,515;   -0,090;    1,955
877,297;16076,017;    0,183;    1,955
877,856;16088,064;   -0,362;    0,318
878,416;16077,112;    1,183;   -0,136
878,976;16266,977;   -1,817;    0,409
879,535;16432,479;    0,092;    3,136
880,095;16171,345;   -0,544;    0,045
880,654;16271,665;   -1,090;    1,318
881,213;16379,258;    2,456;    1,500
881,773;15973,941;    2,637;    2,682
882,332;16324,534;    3,365;    5,136
882,891;16218,218;    3,092;    2,136
883,451;16689,629;   -1,272;    1,682
884,010;16150,767;   -2,908;   -0,409
884,569;16230,178;   -0,999;   -0,045
885,128;16357,953;    2,819;   -1,864
885,687;16434,091;    4,455;    0,682
886,246;16122,229;    1,455;    2,136
886,805;15900,095;    2,455;    2,045
887,364;16187,051;   -0,999;   -0,500
887,922;16555,099;   -1,181;    0,045
888,481;16056,873;   -1,545;    0,591
889,040;16382,830;    1,183;    2,136
889,599;17015,604;    2,455;    1,409
890,157;17116,106;    1,455;    2,409
890,716;16765,972;   -0,090;    0,227
891,274;16542,746;    0,092;   -1,136
891,833;16986,248;    1,546;    0,864
892,391;16894,296;   -0,454;    0,500
892,950;16964,616;    1,819;   -0,773
893,508;17325,845;    0,455;   -0,409
894,067;16713,529;    0,637;    0,136
894,625;16599,758;   -0,636;   -1,500
895,183;16832,260;   -0,363;   -0,682
895,741;16705,853;    1,728;   -1,773
896,299;16538,264;   -0,545;   -2,409
896,858;16713,129;    0,819;   -1,591
897,416;16834,722;    2,728;   -1,318
897,974;16617,678;    1,819;    0,318
898,532;16736,362;    6,091;    2,682
899,089;16631,682;    2,091;   -0,682
899,647;16679,730;   -1,454;    1,318
900,205;16431,141;    1,182;    1,045
900,763;16671,188;   -0,454;    0,227
901,321;16656,599;    2,364;   -1,409
901,878;16116,101;   -1,000;   -0,773
902,436;15988,057;   -1,363;    1,318
902,994;16322,196;    4,728;    3,682
903,551;15803,607;    0,728;    0,409
904,109;16189,836;    0,182;   -1,409
904,666;15771,974;    2,455;    1,045
905,224;15640,385;    0,182;   -0,409
905,781;15357,614;    0,727;   -0,318
906,338;15406,389;   -1,363;    1,045
906,895;15359,709;    0,637;    2,045
907,453;15301,211;    1,727;    1,136
908,010;15353,713;   -0,909;    0,409
908,567;14998,487;    1,273;    0,591
909,124;14510,807;    0,364;   -1,500
909,681;14584,037;   -2,909;    0,682
910,238;14738,993;    0,636;   -1,318
910,795;15072,495;   -0,273;   -1,136
911,352;14675,949;   -2,909;   -2,682
911,909;14078,586;   -1,364;   -0,864
912,466;14627,404;   -3,182;    1,500
913,022;14149,222;   -1,636;    0,500
913,579;14480,040;   -0,909;    2,045
914,136;14221,495;    1,636;    0,955
914,692;14563,404;    0,091;   -1,227
915,249;14174,495;    1,455;    0,409
915,806;14374,586;    0,182;    1,955
916,362;14127,586;    1,909;    1,864
916,918;13696,859;    2,000;    1,045
917,475;13642,586;   -1,182;    0,955
918,031;13744,586;    3,364;   -0,045
918,587;13207,040;   -0,909;   -0,318
919,144;13436,586;   -2,273;    0,227
919,700;13753,949;    1,727;    0,773
920,256;13321,222;    0,727;    0,045
920,812;12963,949;   -0,727;   -1,045
921,368;12945,677;   -1,727;   -1,045
921,924;12594,949;    0,182;   -0,136
922,480;12159,677;   -0,545;    1,227
923,036;12723,586;    1,273;    1,955
923,592;12685,677;    0,455;    0,318
924,148;12599,404;    0,455;   -0,955
924,704;11929,404;   -1,364;   -0,409
925,259;12233,495;   -0,273;    0,591
925,815;12050,404;    1,455;    0,500
926,371;11533,404;    2,909;    1,409
926,926;11428,131;    2,091;    0,591
927,482;11092,404;   -1,364;    0,773
928,037;10920,404;    0,909;    2,045
928,593;11185,131;    1,636;    1,045
929,148;11040,949;   -1,818;   -1,500
929,704;10551,859;   -1,455;   -0,500
930,259;10778,677;    0,091;   -0,136
930,814; 9856,131;   -0,818;    1,955
931,369; 9532,677;    1,091;   -0,773
931,925; 9427,404;   -0,091;    0,136
932,480; 9352,131;   -2,818;   -2,591
933,035; 9221,131;    0,545;   -0,318
933,590; 9012,586;    0,364;   -1,773
934,145; 8674,313;   -1,364;   -0,318
934,700; 9031,677;    0,455;   -0,591
935,255; 8816,313;   -0,091;    0,045
935,809; 8096,859;    3,182;    0,864
936,364; 7261,859;   -0,455;   -0,136
936,919; 7220,222;    0,455;   -1,773
937,474; 7116,586;    1,455;    0,136
938,028; 6874,131;   -1,636;    1,136
938,583; 6364,222;    1,818;    4,682
939,138; 6653,313;    2,091;    2,136
939,692; 6101,859;    1,636;   -1,136
940,247; 5802,677;   -0,727;   -1,045
940,801; 5384,040;   -0,636;    0,227
941,355; 5267,677;   -0,364;    2,591
941,910; 4933,768;   -0,273;   -2,136
942,464; 5034,859;   -0,818;   -0,318
943,018; 4817,949;    1,000;   -0,227
943,572; 4762,586;    2,545;   -0,682
944,126; 4207,949;    0,091;   -0,409
944,681; 4100,040;    3,091;    0,227
945,235; 4085,131;    1,000;   -0,591
945,789; 4033,949;    0,364;   -1,864
946,342; 4136,859;    0,455;   -0,591
946,896; 3953,677;   -2,273;    0,955
947,450; 3706,586;    1,545;   -0,227
948,004; 3892,768;    1,727;   -0,045
948,558; 3898,495;    0,273;   -0,864
949,111; 3821,677;   -0,273;   -0,318
949,665; 3862,768;    1,636;   -0,682
950,219; 3757,404;   -0,091;   -1,045
950,772; 3822,586;   -1,909;    1,864
951,326; 3716,040;    0,545;   -0,955
951,879; 3810,586;    0,727;   -2,318
952,433; 3847,677;    0,000;    2,227
952,986; 3658,768;    2,909;    0,682
953,539; 3626,404;   -0,273;    0,591
954,093; 3568,313;    0,545;   -1,318
954,646; 3692,949;    0,909;    1,318
955,199; 3512,768;    0,000;   -0,500
955,752; 3412,677;   -0,455;    1,773
956,305; 3370,677;   -0,091;    2,955
956,858; 3519,677;    0,818;   -0,318
957,411; 3688,768;   -0,545;    2,136
957,964; 3529,768;    1,364;    2,136
958,517; 3488,768;   -1,545;    3,136
959,070; 3331,949;   -0,455;    1,955
959,623; 3410,495;    1,091;    1,500
960,176; 3202,859;    1,727;    2,045
960,728; 3174,131;   -2,727;    0,773
961,281; 3229,768;    0,545;    0,500
961,834; 3293,404;   -0,909;    0,864
962,386; 3209,404;    1,727;    1,045
962,939; 3133,131;    0,364;   -0,318
963,491; 3273,859;    0,455;    1,136
964,043; 3141,313;    1,182;    2,409
964,596; 3255,495;   -1,000;    2,227
965,148; 3100,495;   -1,000;    1,773
965,700; 3047,222;    1,091;   -0,227
966,253; 3191,222;   -0,636;    0,318
966,805; 3009,131;   -2,273;    0,773
967,357; 3060,586;    1,091;   -1,500
967,909; 3036,495;    0,455;   -1,227
968,461; 3151,495;    0,545;    3,136
969,013; 3061,313;   -0,182;   -0,864
969,565; 3139,949;   -0,455;   -1,136
970,117; 3197,859;   -0,364;    1,045
970,669; 3039,949;    0,182;   -0,136
971,220; 2915,495;   -0,455;   -1,500
971,772; 2843,313;   -0,636;   -0,318
972,324; 2960,677;    0,091;   -0,500
972,876; 2901,677;    0,818;   -0,045
973,427; 3040,495;    1,909;   -1,045
973,979; 3004,313;   -0,727;   -2,500
974,530; 3039,495;    1,818;    1,318
975,082; 3036,404;   -0,545;    1,682
975,633; 2931,495;    1,091;    1,682
976,184; 3102,131;    0,909;    0,773
976,736; 2907,495;    0,091;    0,227
977,287; 2704,677;   -0,909;   -0,500
977,838; 2864,131;    0,909;   -0,318
978,389; 2901,040;   -1,000;   -0,500
978,940; 2784,131;    0,545;   -0,409
979,491; 2832,677;    0,091;   -0,500
980,042; 2821,040;    0,182;    3,045
980,593; 2867,586;   -2,545;    0,227
981,144; 2900,131;    2,545;   -0,500
981,695; 2859,768;    1,455;    1,500
982,246; 2830,677;   -0,273;    1,045
982,797; 2967,495;   -1,727;    0,682
983,347; 3067,222;    0,364;    0,591
983,898; 3244,495;    3,091;    0,409
984,449; 3069,768;    2,182;    0,773
984,999; 2985,222;    1,455;   -1,136
985,550; 2765,222;    0,182;   -0,318
986,100; 2796,131;   -0,455;   -0,318
986,651; 2846,859;   -0,818;    0,045
987,201; 2812,677;   -1,000;   -0,591
987,751; 2894,131;    0,818;    2,864
988,302; 2885,040;    2,636;    1,500
988,852; 2908,222;    0,455;   -1,136
989,402; 2963,768;    0,091;    0,682
989,952; 2873,859;   -2,182;    0,864
990,502; 2985,586;   -0,091;    0,682
991,052; 2919,859;   -0,727;    0,045
991,602; 2794,404;   -2,909;    1,318
992,152; 2788,677;    0,455;    0,682
992,702; 2796,949;    1,364;   -0,045
993,252; 2708,404;   -3,000;   -0,500
993,802; 2788,677;   -0,273;    1,318
994,352; 3027,222;   -1,545;    1,136
994,901; 3100,677;   -0,182;    3,227
995,451; 3015,495;   -0,182;    0,318
996,000; 3109,586;    1,636;    0,318
996,550; 2830,313;    2,273;    0,227
997,100; 2831,222;    1,273;   -0,045
997,649; 3106,768;    2,182;    0,955
998,198; 2755,949;    1,727;   -1,500
998,748; 2932,313;    1,091;   -2,318
999,297; 2863,131;   -0,818;   -0,409
999,846; 2927,040;    1,000;   -0,773
1000,395; 2949,131;   -0,818;    0,500
1000,945; 2901,222;    1,818;   -0,773
1001,494; 3012,949;    2,364;    0,682
1002,043; 2980,222;    4,636;    0,864
1002,592; 2826,586;   -1,091;    1,955
1003,141; 2973,040;   -0,455;   -0,682
1003,690; 2856,495;    1,727;    0,500
1004,238; 2929,859;    1,455;   -0,045
1004,787; 2568,313;    1,364;    1,227
1005,336; 2815,495;    0,364;    0,682
1005,885; 2950,222;    1,364;   -2,773
1006,433; 3066,949;    0,545;    0,955
1006,982; 3137,313;    0,455;    1,682
1007,531; 3048,404;   -1,818;   -0,227
1008,079; 2985,859;   -2,273;    0,500
1008,627; 3141,131;   -1,455;    0,409
1009,176; 2883,859;    0,000;   -1,955
1009,724; 2928,040;    1,091;    0,864
1010,273; 2981,404;    1,273;    0,500
1010,821; 3092,313;    0,091;    1,409
1011,369; 2839,495;   -1,364;    1,318
1011,917; 2829,040;   -1,364;   -0,591
1012,465; 3112,131;    1,273;   -1,591
1013,013; 3198,040;    2,091;   -1,682
1013,561; 3090,859;    0,455;   -0,773
1014,109; 3139,222;   -1,909;    1,682
1014,657; 3034,859;    0,364;    0,591
1015,205; 3142,768;    1,636;   -0,955
1015,753; 3174,768;   -0,545;   -1,409
1016,301; 3199,222;   -2,636;    3,045
1016,848; 3200,040;   -1,273;    0,409
1017,396; 3245,677;    2,545;    0,045
1017,944; 3350,859;    1,182;    1,864
1018,491; 3123,859;    0,273;    1,409
1019,039; 3276,677;    0,455;    0,591
1019,586; 3205,404;   -1,364;    1,682
1020,134; 3288,404;    0,455;    1,500
1020,681; 3331,040;    0,182;   -1,136
1021,228; 3324,586;    2,909;   -2,227
1021,776; 3152,495;    1,182;   -1,136
1022,323; 3372,131;    0,455;    0,773
1022,870; 3304,040;   -1,000;   -0,045
1023,417; 3204,949;    2,636;    1,864
1023,964; 3364,404;    2,636;    1,227
1024,511; 3201,949;    1,000;    0,773
1025,058; 3006,222;    3,182;   -0,045
1025,605; 3067,859;   -2,273;    3,136
1026,152; 3264,586;    1,727;   -0,591
1026,699; 2997,859;    1,818;    1,318
1027,245; 3180,222;   -0,091;    0,318
1027,792; 3384,040;   -1,000;    1,409
1028,339; 3263,768;    2,364;   -0,045
1028,885; 3112,949;    1,000;   -0,227
1029,432; 3062,404;   -0,091;    0,227
1029,978; 3106,040;   -1,000;   -1,591
1030,525; 3025,131;    1,000;    0,409
1031,071; 3259,495;   -1,364;    1,136
1031,618; 3364,586;    0,364;    1,682
1032,164; 3158,859;   -0,091;    3,045
1032,710; 3215,495;    1,636;   -1,500
1033,256; 3128,859;   -0,636;   -0,136
1033,803; 3102,131;   -0,545;    1,500
1034,349; 2835,949;   -1,364;    0,136
1034,895; 2990,131;    0,000;   -0,318
1035,441; 2968,040;   -0,818;    0,318
1035,987; 2972,949;   -2,364;   -0,682
1036,533; 2968,495;   -1,455;   -0,955
1037,078; 3179,313;    1,455;    1,682
1037,624; 3012,495;    2,455;   -0,955
1038,170; 3021,222;    0,455;   -0,318
1038,716; 2924,677;    1,636;   -0,409
1039,261; 2848,677;   -2,273;   -0,773
1039,807; 2778,586;   -0,091;    3,409
1040,352; 2848,040;   -1,909;   -0,318
1040,898; 2892,768;   -1,545;   -0,682
1041,443; 2805,495;   -1,455;   -2,591
1041,989; 2829,404;    1,091;    1,591
1042,534; 2708,949;   -0,364;    2,591
1043,079; 2827,040;    2,909;    0,955
1043,625; 2612,586;    1,818;    0,500
1044,170; 2673,586;   -1,364;    1,045
1044,715; 2915,768;    2,455;    0,955
1045,260; 2732,677;    2,182;   -0,955
1045,805; 2795,949;    1,182;   -0,591
1046,350; 2706,404;    1,364;   -0,409
1046,895; 2674,404;    2,909;    1,591
1047,440; 2627,404;    5,364;    0,409
1047,985; 2539,677;    2,818;   -0,955
1048,530; 2464,040;    1,545;    1,227
1049,074; 2515,859;    0,000;    0,318
1049,619; 2485,222;   -1,364;    1,955
1050,164; 2287,677;    0,455;    0,227
1050,708; 2343,859;   -0,455;    0,045
1051,253; 2697,404;    1,273;   -2,227
1051,797; 2404,768;    0,818;   -1,318
1052,342; 2428,495;   -1,182;    1,045
1052,886; 2411,131;    0,364;   -1,409
1053,430; 2310,040;   -1,364;    0,136
1053,975; 2318,040;   -0,818;   -0,318
1054,519; 2306,586;   -0,727;    3,227
1055,063; 2318,040;    0,909;    1,318
1055,607; 2197,859;   -0,182;    0,227
1056,151; 2228,222;    2,909;    1,682
1056,695; 2160,131;    2,273;   -1,136
1057,239; 2228,131;   -1,727;   -0,682
1057,783; 2235,768;    0,818;   -1,500
1058,327; 2168,131;    0,000;    1,409
1058,871; 2400,859;   -0,545;    1,318
1059,415; 2101,768;   -0,818;   -0,045
1059,958; 2371,313;    1,455;    2,591
1060,502; 2083,404;   -1,000;   -0,773
1061,046; 1995,404;    0,364;   -0,955
1061,589; 1975,586;   -3,000;   -1,136
1062,133; 1856,040;   -1,273;    1,864
1062,676; 1799,859;    1,182;    0,864
1063,220; 1791,404;    1,091;    0,500
1063,763; 1816,040;    0,909;    1,136
1064,306; 1891,313;   -0,909;    1,864
1064,849; 1788,313;   -0,909;    0,591
1065,393; 1787,313;    2,000;   -1,500
1065,936; 1892,131;    0,182;   -0,409
1066,479; 1792,586;   -1,455;    1,318
1067,022; 1809,859;   -0,273;   -0,227
1067,565; 1708,404;   -0,091;   -1,318
1068,108; 1742,859;    0,727;   -0,591
1068,651; 1717,495;   -0,636;    1,409
1069,194; 1649,949;   -0,455;   -1,682
1069,736; 1651,222;   -1,273;    0,955
1070,279; 1632,040;   -1,364;   -0,500
1070,822; 1671,677;   -2,000;   -0,318
1071,364; 1752,131;   -0,364;    1,318
1071,907; 1572,768;   -0,727;    3,227
1072,450; 1487,040;    0,000;   -0,045
1072,992; 1483,859;   -0,273;    3,136
1073,535; 1608,859;    2,091;    2,136
1074,077; 1414,586;   -0,727;    2,045
1074,619; 1371,313;   -1,364;    0,591
1075,161; 1407,313;   -1,091;    1,500
1075,704; 1591,586;    1,545;    1,227
1076,246; 1390,131;   -0,182;    0,682
1076,788; 1322,040;   -0,364;    1,773
1077,330; 1391,495;    1,273;    2,136
1077,872; 1349,040;    0,909;    0,955
1078,414; 1578,313;    2,727;    0,773
1078,956; 1326,586;    1,273;   -0,227
1079,498; 1569,404;    1,636;    0,318
1080,040; 1285,677;    1,909;   -1,318
1080,581; 1244,586;    1,636;   -0,318
1081,123; 1163,313;    0,091;   -0,773
1081,665; 1209,131;   -1,182;   -0,955
1082,206; 1493,040;    1,364;   -0,500
1082,748; 1341,586;    0,727;    2,045
1083,289; 1236,677;   -2,000;    1,318
1083,831; 1139,677;   -0,545;    0,227
1084,372; 1169,859;    0,000;    0,591
1084,913; 1175,677;    1,091;    0,864
1085,455; 1160,949;   -1,909;   -2,045
1085,996; 1123,495;   -2,273;    0,136
1086,537; 1130,586;   -0,091;    0,864
1087,078; 1156,222;   -0,909;   -2,136
1087,619; 1208,222;   -1,273;    0,227
1088,160; 1122,313;    0,000;    1,318
1088,701; 1110,677;   -1,091;    0,682
1089,242; 1057,677;    1,364;   -2,227
1089,783; 1159,586;   -0,273;    1,409
1090,324; 1112,131;    0,455;    0,682
1090,865;  995,495;    2,727;   -0,409
1091,405;  966,586;    0,727;    2,227
1091,946;  993,859;    0,182;   -0,955
1092,487;  916,768;    0,818;   -1,409
1093,027; 1085,495;   -1,364;   -1,500
1093,568;  931,222;   -0,364;    1,227
1094,108; 1031,677;    0,273;    1,773
1094,649;  978,222;   -1,182;    0,136
1095,189;  919,859;   -0,636;   -0,682
1095,729;  856,131;   -0,091;    0,955
1096,269;  866,586;    0,727;   -0,955
1096,810; 1180,768;   -1,364;    0,500
1097,350; 1007,131;    1,364;   -0,773
1097,890;  904,859;    0,364;    1,227
1098,430; 1164,495;    2,364;    2,864
1098,970; 1029,404;    2,182;    1,682
1099,510;  902,222;    0,545;   -2,318
1100,050;  820,586;    1,000;   -1,591
1100,589;  791,131;   -0,727;   -0,318
1101,129;  912,040;    0,818;   -0,955
1101,669; 1058,586;    1,727;    2,136
1102,209;  880,949;   -0,091;    2,227
1102,748;  838,040;    0,000;    0,955
1103,288;  822,677;    1,273;   -1,227
1103,827;  852,404;    3,091;   -2,227
1104,367;  740,040;   -0,091;   -2,409
1104,906;  707,404;    1,364;   -1,136
1105,445;  776,040;    0,636;   -1,136
1105,985;  714,404;   -0,727;    1,500
1106,524;  756,859;   -1,727;   -0,682
1107,063;  736,677;   -2,727;    1,409
1107,602;  709,040;   -1,909;   -1,500
1108,141;  641,949;   -1,909;    1,500
1108,680;  742,131;   -3,455;   -0,591
1109,219;  667,586;   -0,909;   -0,500
1109,758;  674,949;    0,455;    0,682
1110,297;  653,949;    1,000;   -0,682
1110,836;  602,768;   -0,727;    0,955
1111,375;  753,949;   -2,545;    0,409
1111,913;  775,586;   -1,000;    0,773
1112,452;  703,404;   -0,273;    0,136
1112,991;  597,949;    1,091;    1,955
1113,529;  552,859;   -0,818;   -0,045
1114,068;  611,222;   -0,273;    2,955
1114,606;  516,040;   -0,364;   -0,955
1115,144;  677,404;   -1,273;    1,045
1115,683;  611,495;   -0,727;    0,318
1116,221;  656,313;   -0,455;   -0,864
1116,759;  576,222;    0,636;   -0,864
1117,297;  769,495;    0,000;    1,864
1117,836;  583,859;   -2,182;   -1,227
1118,374;  579,222;    0,182;   -0,682
1118,912;  526,859;    0,909;    2,682
1119,450;  517,768;    1,000;    0,864
1119,988;  563,131;    1,545;    2,136
1120,525; 1018,495;    5,091;    3,318
1121,063;  715,859;    1,182;    1,864
1121,601;  528,404;   -0,909;   -1,227
1122,139;  489,768;   -0,727;   -2,045
1122,676;  684,040;   -0,727;    2,773
1123,214;  615,949;   -1,182;    4,409
1123,751;  434,768;    1,727;    2,227
1124,289;  550,131;   -0,091;   -0,409
1124,826;  425,222;    1,727;    0,227
1125,364;  362,040;    1,727;   -0,955
1125,901;  540,677;    1,182;    1,227
1126,438;  653,404;    0,818;    0,955
1126,975;  381,131;   -0,727;   -0,773
1127,513;  451,859;    0,273;    2,136
1128,050;  358,131;    1,636;   -0,682
1128,587;  452,495;    2,000;   -0,227
1129,124;  496,768;    0,091;    1,318
1129,661;  368,222;    0,273;    0,227
1130,198;  519,313;    1,636;    0,773
1130,734;  465,222;    0,182;    1,409
1131,271;  330,040;   -0,909;    0,864
1131,808;  503,222;    2,909;    3,045
1132,345;  369,949;    1,545;    0,318
1132,881;  242,222;   -1,545;   -1,864
1133,418;  392,404;    0,727;   -1,136
1133,954;  325,131;    2,455;   -2,682
1134,491;  385,131;    1,364;   -0,773
1135,027;  288,495;    2,364;    0,864
1135,564;  376,040;    0,273;    2,955
1136,100;  370,949;    0,364;    2,136
1136,636;  263,313;   -1,273;   -1,045
1137,172;  347,040;    0,000;   -1,045
1137,708;  280,768;   -1,364;   -1,045
1138,245;  275,313;    1,273;   -1,227
1138,781;  236,586;    1,091;   -3,318
1139,317;  305,859;    1,273;   -1,409
1139,852;  288,768;    3,091;    0,136
1140,388;  393,677;   -1,182;   -0,409
1140,924;  281,768;   -1,091;   -2,227
1141,460;  226,677;   -1,636;    0,136
1141,996;  162,040;   -1,364;    2,682
1142,531;  209,495;    1,364;    3,318
1143,067;  424,222;    1,182;    1,045
1143,602;  478,768;   -0,091;   -0,318
1144,138;  321,859;   -2,636;    1,045
1144,673;  186,313;   -1,455;    1,409
1145,209;  254,040;   -1,909;   -0,318
1145,744;  180,949;   -0,727;    0,864
1146,279;  315,313;    1,818;   -0,136
1146,815;  234,859;    1,545;   -2,682
1147,350;  278,768;   -1,364;    0,045
1147,885;  180,859;   -0,818;   -1,318
1148,420;  192,586;   -2,273;    0,773
1148,955;  164,949;   -1,727;    1,864
1149,490;  178,949;   -0,909;   -1,591
1150,025;  174,404;    0,455;   -1,773
1150,560;  284,495;    1,091;   -0,955
1151,094;  252,586;    1,455;   -0,591
1151,629;  252,949;    1,636;    0,864
1152,164;  184,768;    1,364;    1,318
1152,698;  144,949;   -0,182;   -0,136
1153,233;   94,768;    0,091;   -0,682
1153,767;  151,404;   -3,000;   -2,318
1154,302;  205,586;   -1,455;    1,773
1154,836;  196,859;   -0,455;   -2,136
1155,371;  253,677;   -1,364;    3,682
1155,905;  195,677;   -0,636;    1,682
1156,439;  166,859;   -0,636;   -0,500
1156,973;  198,313;    0,364;    0,318
1157,507;  138,768;   -0,364;    0,682
1158,042;  166,949;   -0,727;    1,045
1158,576;  211,859;    0,182;    1,773
1159,110;  202,040;   -0,818;    2,409
1159,643;  180,040;    0,636;   -0,045
1160,177;  113,495;   -1,545;    1,500

