
Integration time [ms]:   0,040
Averaging Nr. [scans]: 11
Smoothing Nr. [pixels]: 0
Data measured with spectrometer [name]: 7318044SP
Wave   ;Sample   ;Dark     ;Reference
[nm]   ;[counts] ;[counts] ;[counts] 

186,757;   26,325;   31,551;    1,318
187,357;   50,971;   22,551;    0,955
187,958;   31,670;   15,460;   -1,591
188,558;   71,596;    8,915;   -1,227
189,159;   39,973;    6,733;   -4,500
189,759;   11,760;    7,278;   -3,591
190,360;   12,059;    2,824;   -2,136
190,960;   53,387;    2,915;   -4,136
191,560;   64,158;    3,189;   -6,591
192,161;  289,482;    4,372;   -3,500
192,761;  137,603;    4,010;   -3,227
193,361;   93,255;    1,556;   -3,773
193,962;  144,645;    2,010;   -2,682
194,562;   70,060;    1,189;   -3,955
195,162;   97,887;   -2,448;   -2,227
195,762;  258,965;   -3,176;   -0,045
196,362;  203,883;    1,370;   -2,500
196,963;   72,291;    2,006;   -0,864
197,563;  145,233;    1,551;   -0,955
198,163;   97,928;    0,096;   -0,682
198,763;  118,400;    1,733;   -0,500
199,363;  218,553;    3,096;   -0,500
199,963;  182,669;    0,369;    0,409
200,563;  146,438;    2,823;   -1,409
201,163;  131,844;    3,277;   -0,227
201,763;  224,659;    3,732;    0,318
202,363;  169,726;    1,459;    1,500
202,963;  268,073;    1,459;    1,045
203,563;  381,458;    0,277;    0,500
204,162;  220,279;    2,096;   -1,864
204,762;  213,495;    0,550;    0,591
205,362;  188,724;    3,004;    1,955
205,962;  282,844;    3,096;    1,955
206,562;  274,384;    1,823;    2,318
207,161;  254,292;   -0,087;    0,318
207,761;  413,687;    1,277;    2,409
208,361;  281,372;   -0,268;    1,409
208,960;  378,077;    0,459;    1,500
209,560;  452,225;    1,277;    1,591
210,160;  434,759;    0,550;    1,864
210,759;  396,146;    4,186;    1,227
211,359;  407,691;    1,459;    1,045
211,958;  669,125;    1,277;    2,045
212,558;  747,393;    1,732;    1,864
213,157;  584,222;    1,822;    1,500
213,757; 1027,969;    3,822;   -0,227
214,356;  722,714;    1,277;   -0,409
214,956; 1052,933;    3,095;    0,409
215,555;  686,427;    2,095;    2,136
216,154;  625,912;   -2,723;   -0,591
216,754;  639,093;    0,277;    0,773
217,353;  769,682;   -0,268;   -1,045
217,952;  632,413;   -0,178;    0,318
218,552;  866,778;    1,368;   -0,773
219,151;  753,636;    0,277;    0,955
219,750;  761,349;    0,004;   -0,227
220,349;  873,478;   -0,451;    1,045
220,948;  944,853;   -1,360;    1,136
221,548;  963,046;    0,913;    1,227
222,147; 1061,345;   -0,087;   -0,409
222,746; 1348,669;   -0,451;   -0,955
223,345; 1227,218;    0,731;    0,500
223,944; 1238,718;   -0,451;    0,773
224,543; 1393,617;    1,004;   -1,409
225,142; 1505,113;    0,094;    0,136
225,741; 1415,421;   -0,814;    1,045
226,340; 1435,000;   -0,451;   -0,955
226,939; 1876,434;   -0,996;   -0,136
227,538; 1817,449;   -0,360;   -0,773
228,137; 1979,034;   -0,814;    0,864
228,735; 2118,488;   -0,541;    1,227
229,334; 1877,668;   -0,905;   -0,227
229,933; 2237,094;    0,459;    0,591
230,532; 2339,267;    1,186;   -0,409
231,131; 2375,291;    1,732;    0,318
231,729; 2493,636;   -2,450;   -2,318
232,328; 2583,512;   -0,723;   -1,500
232,927; 2661,074;    1,004;   -0,500
233,525; 2796,683;    3,640;    0,045
234,124; 2981,781;    2,368;   -1,591
234,723; 3022,879;    0,913;   -1,045
235,321; 3129,134;    2,277;    0,136
235,920; 3347,818;    1,186;   -1,227
236,518; 3610,164;    3,459;    0,318
237,117; 3761,652;    0,004;   -0,227
237,715; 3917,365;    0,640;   -0,500
238,314; 3948,087;   -0,087;   -2,318
238,912; 4047,481;   -0,723;   -1,409
239,510; 4096,660;    0,459;   -1,227
240,109; 4261,462;    0,004;    3,773
240,707; 4310,526;   -0,996;    1,227
241,305; 4687,835;    0,550;    0,136
241,904; 4862,744;   -0,178;   -2,045
242,502; 4849,655;   -0,632;   -0,227
243,100; 4803,727;   -0,087;   -0,955
243,698; 5033,350;    0,732;    1,682
244,297; 5207,032;   -0,632;    0,682
244,895; 5084,768;   -0,269;   -2,318
245,493; 5376,746;    2,186;   -0,591
246,091; 5426,712;    1,368;   -1,318
246,689; 5413,166;    1,004;    0,591
247,287; 5583,771;    0,822;   -1,136
247,885; 5861,059;   -1,451;    1,227
248,483; 5980,921;    1,822;   -0,500
249,081; 6100,226;    0,185;    1,591
249,679; 6235,617;   -0,178;    1,682
250,277; 6496,963;   -1,723;    0,864
250,875; 6475,183;   -1,087;   -1,045
251,473; 6504,593;   -1,178;    0,500
252,071; 6676,103;    1,459;    1,045
252,669; 6870,536;   -1,814;    0,318
253,267; 7127,382;   -0,087;    0,773
253,864; 7064,680;   -0,360;    0,682
254,462; 6946,511;    1,640;    1,591
255,060; 6917,871;   -0,269;    1,318
255,658; 7248,991;    0,822;   -0,136
256,255; 7639,952;    0,186;   -2,045
256,853; 7518,423;   -0,269;    1,409
257,451; 7497,653;    0,822;    1,864
258,048; 7787,377;    1,822;    1,864
258,646; 7541,329;    1,731;   -1,045
259,243; 7702,696;   -0,087;    2,227
259,841; 7766,325;   -0,814;    0,318
260,438; 7652,666;   -0,087;    0,864
261,036; 8344,882;   -1,905;    1,409
261,633; 8276,811;   -0,087;    2,227
262,231; 8046,019;    2,731;   -0,045
262,828; 8095,240;   -0,905;    1,136
263,425; 8137,466;    0,913;   -0,591
264,023; 8423,053;    0,186;    0,045
264,620; 7969,964;   -0,360;   -0,318
265,217; 8307,992;   -2,087;    3,136
265,815; 8436,042;   -1,905;    2,136
266,412; 8189,175;    0,731;    0,136
267,009; 8247,834;   -1,451;    0,773
267,606; 8158,420;    0,822;   -0,955
268,203; 8154,461;   -0,269;   -0,591
268,801; 8450,475;    1,731;    0,591
269,398; 8768,092;   -0,360;    2,500
269,995; 8719,785;    0,277;    1,591
270,592; 8486,698;   -0,632;   -0,500
271,189; 8681,395;    0,186;    0,409
271,786; 8780,770;   -0,632;    1,227
272,383; 8622,156;   -1,087;    0,227
272,980; 8824,805;    0,277;    0,318
273,577; 9267,234;    0,004;    1,227
274,174; 8826,450;    0,822;    2,591
274,771; 8811,991;   -0,814;   -0,773
275,367; 8970,325;    2,277;    1,409
275,964; 8949,395;    0,731;   -0,500
276,561; 9020,175;    1,549;   -1,045
277,158; 9236,980;    0,095;   -1,773
277,755; 9369,862;    2,185;    0,409
278,351; 8770,964;   -0,451;   -1,500
278,948; 9106,012;   -0,815;    0,045
279,545; 9092,852;   -1,360;    2,318
280,141; 9710,832;   -1,723;   -2,045
280,738; 9553,171;   -0,451;   -0,136
281,334; 9794,729;   -1,633;    0,591
281,931; 9220,360;   -0,087;   -1,318
282,528; 9297,296;    0,822;   -0,500
283,124; 9993,602;   -1,087;   -0,500
283,721; 9913,448;   -0,451;    1,409
284,317; 9755,513;    0,185;    2,500
284,913;10234,237;   -1,360;    0,591
285,510;10445,874;    0,640;   -0,318
286,106;10486,560;   -2,269;   -0,955
286,703;10126,798;   -0,360;    1,955
287,299;10283,052;   -1,451;   -0,591
287,895;10510,176;    0,822;   -1,045
288,491;11061,456;    0,186;    2,136
289,088;10824,523;   -2,360;    2,409
289,684;10868,900;   -1,723;    1,500
290,280;10847,375;    0,368;    0,682
290,876;10951,478;    1,822;    5,500
291,472;10860,920;    1,276;    2,227
292,068;10961,471;    1,367;    0,227
292,665;10679,325;    2,095;    0,773
293,261;10308,306;    0,276;    2,136
293,857;10676,555;    2,913;    2,136
294,453;10614,639;    3,550;    0,955
295,049;10505,838;   -0,268;    1,955
295,644;10552,921;    0,095;    0,136
296,240;10458,150;   -0,905;   -0,136
296,836;10502,405;   -0,995;    0,318
297,432;10776,785;    1,096;   -0,500
298,028;10806,664;    0,732;    0,773
298,624;11249,225;    1,459;    1,864
299,220;11487,461;    2,368;    0,591
299,815;11158,077;    1,005;   -0,409
300,411;10952,111;    0,914;    1,773
301,007;10972,480;    1,368;    0,227
301,602;11003,194;   -0,541;   -2,318
302,198;11149,472;    0,732;   -0,773
302,794;11505,609;    1,187;   -0,500
303,389;11639,521;   -1,177;    1,045
303,985;11699,493;    0,550;    1,409
304,580;11641,790;    1,459;    1,591
305,176;11641,444;   -3,086;    0,136
305,771;11571,664;   -1,268;   -1,227
306,367;11406,002;    4,095;    0,136
306,962;11745,376;    0,641;    1,500
307,558;11445,951;   -0,450;    0,136
308,153;11376,354;    1,095;   -1,136
308,748;11651,591;   -0,814;    1,682
309,344;11601,942;   -0,632;   -1,318
309,939;11660,511;   -1,905;   -1,318
310,534;11956,999;   -0,086;   -1,682
311,130;11896,472;    0,459;   -2,500
311,725;11618,842;    1,004;   -0,500
312,320;11901,620;    2,459;    0,045
312,915;11737,454;    1,459;   -1,045
313,510;11806,327;    1,550;   -0,500
314,105;12329,029;    1,096;    1,409
314,700;11745,399;   -3,086;   -1,045
315,295;11401,154;   -0,904;    0,045
315,890;10963,738;    1,277;    0,864
316,485;11332,661;   -0,359;   -0,318
317,080;11448,105;   -3,086;    1,591
317,675;11985,530;    2,005;   -0,682
318,270;11383,749;    5,550;    3,318
318,865;11407,112;    3,278;    3,045
319,460;11272,254;   -0,904;    0,591
320,055;11514,256;   -0,541;   -1,227
320,650;11193,858;   -1,995;   -0,591
321,244;11228,260;   -0,177;   -1,409
321,839;12163,765;   -1,541;   -0,227
322,434;12015,983;   -1,086;   -1,591
323,029;11611,238;    1,732;    1,591
323,623;11464,046;    1,550;    0,773
324,218;11255,050;    2,368;    1,409
324,812;11125,247;    1,096;    1,591
325,407;10936,254;   -0,814;    2,045
326,002;10853,680;    0,277;   -0,409
326,596;11167,578;    0,914;    1,318
327,191;11353,676;    0,823;   -1,045
327,785;10921,578;   -0,813;   -0,227
328,379;11160,343;    1,368;    0,136
328,974;10959,919;    0,914;   -3,955
329,568;11198,732;    0,186;   -2,409
330,163;11034,906;    2,096;    1,045
330,757;11354,269;    2,459;    1,591
331,351;10690,200;    0,459;    0,682
331,945;11014,790;    0,914;    1,409
332,540;10594,838;   -1,723;   -0,591
333,134;10755,422;   -1,086;    0,773
333,728;10981,171;    0,005;    0,318
334,322;11308,099;   -1,177;   -0,864
334,916;10628,673;    0,277;    0,955
335,510;10952,593;   -0,450;   -0,136
336,105;11205,949;   -1,086;    1,591
336,699;10904,749;   -1,086;    0,591
337,293;10858,277;   -1,723;    0,318
337,887;11005,832;   -2,723;    1,955
338,481;11104,231;    0,459;    0,591
339,074;11260,218;   -0,359;    2,682
339,668;11095,638;   -1,632;    1,227
340,262;11315,999;    1,732;    3,227
340,856;10839,469;    1,822;   -0,682
341,450;10242,263;    1,004;    1,864
342,044;11125,914;    1,459;    0,136
342,637;10902,371;    0,913;   -2,136
343,231;10737,260;   -2,360;    0,682
343,825;10730,021;   -1,086;   -0,591
344,419;10707,341;   -1,995;    0,500
345,012;10489,273;    2,459;    4,045
345,606;10494,147;    4,641;    1,591
346,199;10372,349;   -1,813;   -0,227
346,793; 9895,587;    1,914;    2,045
347,386;10095,852;   -0,813;   -1,136
347,980;10103,245;   -0,268;   -0,045
348,573; 9891,292;    2,278;    0,409
349,167; 9569,611;    5,278;    4,773
349,760; 9921,371;    2,914;    2,682
350,354; 9883,728;   -0,813;    1,136
350,947; 9602,866;    1,096;    1,682
351,540; 9284,895;   -0,358;   -1,409
352,134; 9237,401;    1,096;    1,136
352,727; 9331,786;   -0,086;    1,136
353,320; 9133,072;    0,005;    0,591
353,913; 8979,016;   -1,995;    1,864
354,507; 9161,384;    0,823;   -1,227
355,100; 9190,197;    0,460;    0,864
355,693; 8427,168;    2,005;    2,409
356,286; 8474,128;    0,823;    2,773
356,879; 8846,099;   -0,722;    1,227
357,472; 8460,860;   -0,904;    1,500
358,065; 8652,362;   -0,722;    2,500
358,658; 8581,917;   -0,540;    2,318
359,251; 8198,737;   -1,631;   -0,591
359,844; 7695,814;   -1,904;   -1,136
360,437; 7886,169;   -2,995;    0,045
361,030; 8163,070;    1,369;   -0,682
361,623; 7762,624;    2,824;    0,318
362,215; 7809,390;   -0,086;    2,045
362,808; 7624,486;   -2,358;   -1,682
363,401; 7824,860;   -2,449;    0,136
363,994; 7583,095;   -0,631;   -1,500
364,586; 7499,376;    0,824;   -1,500
365,179; 7728,119;   -0,449;   -1,136
365,772; 7195,961;   -1,995;    2,045
366,364; 7479,249;    1,915;   -3,227
366,957; 7674,758;    2,279;   -0,045
367,549; 7688,961;    2,188;   -0,864
368,142; 7352,213;    1,825;   -1,500
368,734; 7530,932;    0,734;   -2,136
369,327; 7510,280;    1,643;   -0,500
369,919; 7440,042;   -1,538;    0,409
370,512; 7246,489;   -1,083;   -0,500
371,104; 6981,481;   -0,901;    1,591
371,696; 7164,068;    1,191;   -0,955
372,289; 7223,533;    0,373;    1,136
372,881; 7374,140;   -2,080;    1,318
373,473; 7299,612;   -2,170;    1,136
374,066; 7103,201;   -0,169;    0,500
374,658; 6979,294;    0,378;    1,136
375,250; 7327,758;    0,653;   -1,409
375,842; 7196,746;    0,473;   -0,045
376,434; 7047,471;   -0,435;   -0,409
377,026; 7636,078;    0,204;   -2,500
377,618; 7509,180;   -0,158;   -0,682
378,210; 7337,850;   -0,338;   -1,955
378,802; 7193,966;    0,754;   -0,591
379,394; 7147,711;    1,846;    0,682
379,986; 7723,421;    1,393;   -0,955
380,578; 7847,823;   -0,153;    0,773
381,170; 7197,203;   -0,972;    0,045
381,762; 7191,578;    0,755;    1,409
382,354; 7367,358;   -0,065;   -1,318
382,945; 7468,990;   -2,976;    0,318
383,537; 7589,607;   -2,705;   -1,955
384,129; 7615,553;   -2,160;   -1,136
384,721; 7782,477;   -0,252;    0,955
385,312; 7700,629;   -0,161;   -0,955
385,904; 7770,847;   -2,706;    1,591
386,496; 7195,911;   -0,979;    1,045
387,087; 7331,499;    1,022;    2,500
387,679; 7362,204;   -1,160;    0,045
388,270; 7497,731;    2,840;    2,045
388,862; 7618,047;    1,295;   -0,318
389,453; 7518,766;   -0,887;    1,045
390,045; 7782,918;   -0,705;   -2,682
390,636; 7695,229;    0,204;   -0,591
391,227; 7574,711;   -0,523;   -0,045
391,819; 7674,724;    0,204;    0,773
392,410; 7745,076;    1,022;    0,045
393,001; 7674,799;   -0,979;   -1,591
393,593; 7965,296;    1,930;   -0,045
394,184; 7785,528;    1,385;   -0,409
394,775; 7722,560;    1,839;    2,136
395,366; 7930,137;    1,385;    0,773
395,957; 7870,017;    0,113;    0,136
396,548; 8195,311;   -0,342;    2,682
397,139; 8519,006;   -2,433;    0,591
397,730; 8249,468;   -1,888;    0,955
398,321; 8300,306;   -1,252;    0,955
398,912; 8337,797;   -0,615;    0,136
399,503; 8392,190;   -3,524;   -1,409
400,094; 7838,415;    0,294;    1,682
400,685; 7702,151;   -0,433;    0,045
401,276; 7810,781;    0,930;   -0,955
401,867; 8127,978;   -0,888;    0,773
402,458; 8166,294;   -2,251;   -2,318
403,048; 8163,074;    1,112;    0,591
403,639; 7804,504;    0,840;    0,864
404,230; 8069,470;    2,476;    0,318
404,821; 7991,644;   -0,615;    0,045
405,411; 8096,962;    1,203;   -2,591
406,002; 7684,834;   -1,252;   -1,136
406,592; 7561,308;    2,294;    0,045
407,183; 7838,638;    0,566;   -1,500
407,774; 7775,051;    3,475;   -0,136
408,364; 8099,286;    0,930;    0,409
408,954; 7706,628;    0,384;    1,227
409,545; 7737,262;    1,021;    1,045
410,135; 7291,012;    1,293;    0,500
410,726; 7453,991;    1,838;    0,318
411,316; 7835,386;    0,111;    0,773
411,906; 7538,616;   -0,253;   -0,409
412,497; 7032,254;   -1,070;   -0,045
413,087; 7622,225;   -1,980;   -0,227
413,677; 7960,021;   -0,707;    3,864
414,267; 7827,897;    0,656;    1,409
414,857; 7827,174;   -2,980;    4,227
415,448; 8119,169;    0,839;    0,500
416,038; 7796,749;    0,020;   -0,591
416,628; 7763,019;   -0,889;    0,409
417,218; 7284,727;    0,565;    3,318
417,808; 7494,641;    0,202;   -0,409
418,398; 7929,581;    0,020;    2,682
418,988; 7943,100;    2,020;    0,591
419,578; 8173,450;   -0,707;    1,409
420,168; 8526,527;   -1,343;   -0,955
420,757; 8091,927;   -1,343;   -1,500
421,347; 7780,572;    0,111;   -0,227
421,937; 7947,145;    2,292;    1,409
422,527; 7894,065;    0,838;   -0,773
423,116; 7723,065;   -0,253;   -0,045
423,706; 8088,772;   -1,889;    0,318
424,296; 8047,680;    1,384;    0,682
424,885; 8426,680;   -0,071;   -3,045
425,475; 8679,874;    1,474;   -2,864
426,065; 8600,902;   -0,980;   -0,318
426,654; 8215,542;   -0,435;   -0,318
427,244; 8356,271;    0,020;    1,409
427,833; 7816,629;    1,383;   -0,500
428,423; 8301,684;   -0,526;    1,136
429,012; 9051,615;   -0,344;   -1,136
429,601; 8523,838;   -1,344;    0,136
430,191; 8744,121;    1,292;    4,318
430,780; 8388,019;   -0,344;   -0,409
431,369; 8298,748;    0,746;   -0,045
431,959; 8956,419;   -1,254;    0,500
432,548; 8713,452;   -1,163;   -0,045
433,137; 8830,098;   -1,254;   -1,318
433,726; 9348,545;    0,292;    0,500
434,315; 8719,431;   -0,526;    2,409
434,905; 8817,402;   -1,254;    1,409
435,494; 8698,053;    0,746;    0,955
436,083; 9177,791;   -0,981;   -0,955
436,672; 9060,346;    0,110;    0,500
437,261; 8631,242;    0,292;   -1,955
437,850; 8725,203;    1,383;    0,682
438,439; 8682,566;    3,291;    1,955
439,027; 8504,209;    3,655;    1,773
439,616; 8834,982;    2,927;    1,227
440,205; 8735,482;    0,200;   -2,136
440,794; 8794,895;    2,109;   -0,045
441,383; 9004,521;   -1,346;   -0,591
441,971; 8910,427;   -2,436;    0,591
442,560; 8742,113;    0,563;   -1,773
443,149; 8469,275;    0,379;   -1,318
443,737; 8633,476;   -0,074;   -2,318
444,326; 8885,842;    0,018;    0,318
444,915; 8918,687;   -1,982;    0,864
445,503; 9293,587;   -2,891;   -0,318
446,092; 8599,957;    0,382;    2,136
446,680; 9099,515;    0,382;    0,318
447,269; 9249,946;   -0,346;   -0,318
447,857; 9013,143;    0,018;   -1,773
448,445; 9115,180;    0,563;    1,318
449,034; 9366,478;   -1,528;   -1,136
449,622; 9497,752;   -1,073;    3,500
450,210; 8697,695;    2,017;    2,227
450,799; 9229,609;    0,290;   -0,591
451,387; 9198,101;    1,381;   -0,591
451,975; 8861,910;    2,654;    0,864
452,563; 8932,956;    3,472;    2,318
453,151; 8979,525;   -0,528;   -1,227
453,739; 8901,618;   -1,347;    0,136
454,328; 8750,849;    2,381;   -2,136
454,916; 8471,256;    2,562;   -0,136
455,504; 8661,093;    1,017;    1,227
456,092; 8801,023;    0,017;   -1,591
456,679; 8799,176;    1,472;    0,682
457,267; 8695,738;    4,017;    1,045
457,855; 8850,535;    1,017;    1,409
458,443; 8637,917;   -0,165;    1,682
459,031; 8756,814;    0,108;    2,409
459,619; 9175,865;   -1,801;    2,864
460,206; 9314,539;    0,835;    2,045
460,794; 9402,671;   -2,983;   -0,227
461,382; 9610,271;   -0,529;   -0,864
461,970; 9206,028;    1,198;    1,864
462,557; 9223,239;   -0,711;   -0,682
463,145; 9390,654;   -3,165;   -1,682
463,732; 9521,498;    2,016;   -1,045
464,320; 9457,183;   -0,075;   -3,045
464,907; 9149,964;    2,743;   -0,773
465,495; 9039,608;    0,743;   -1,227
466,082; 9184,121;   -1,984;   -0,045
466,670; 9091,760;   -2,529;    1,227
467,257; 9511,677;   -1,711;    2,045
467,844; 9691,806;   -0,075;    0,045
468,432; 9680,112;    0,834;    3,500
469,019; 9203,922;    0,925;   -1,773
469,606; 9651,515;    0,470;    3,682
470,193; 9480,331;   -1,439;    0,227
470,780; 9062,187;   -2,075;    0,864
471,368; 9412,686;   -1,257;   -0,773
471,955; 9174,952;    1,379;   -0,682
472,542; 8786,912;    0,652;   -1,136
473,129; 9041,199;   -0,166;    0,136
473,716; 8783,072;    1,470;    0,591
474,303; 8975,710;    0,652;   -0,864
474,890; 9250,596;   -1,439;   -0,500
475,477; 9260,212;   -1,621;    0,409
476,064; 9148,235;    1,106;   -1,591
476,650; 9056,850;    0,288;    0,318
477,237; 8897,032;   -0,258;    0,955
477,824; 9061,340;   -1,076;    0,864
478,411; 9089,155;   -1,894;   -0,318
478,997; 9260,537;    0,560;   -0,773
479,584; 9304,258;    1,196;   -0,409
480,171; 9939,339;   -0,440;   -0,773
480,757; 9601,300;    2,651;    0,773
481,344; 9874,492;    0,469;    0,409
481,931; 9404,889;    1,105;    1,045
482,517;10319,044;   -1,258;    0,318
483,104;10791,772;    1,106;    2,864
483,690;11037,502;   -1,804;    0,045
484,276;11402,186;   -0,895;    0,227
484,863;11146,540;    2,469;    1,136
485,449;11674,110;   -0,077;    0,318
486,035;11680,507;   -1,986;   -0,136
486,622;12089,672;   -0,895;    0,045
487,208;12032,744;    1,378;    1,500
487,794;11883,062;    0,741;    0,318
488,380;11994,796;    0,105;   -1,409
488,967;12083,645;   -1,168;   -0,409
489,553;12131,390;   -1,895;   -1,409
490,139;12317,088;    1,559;    0,773
490,725;11801,274;    0,741;   -0,227
491,311;11425,149;    3,287;    3,045
491,897;10830,333;   -0,986;    1,500
492,483;10688,642;    0,105;    1,227
493,069;10507,124;    3,923;    0,864
493,655;10496,351;    1,650;    0,682
494,241;10413,135;    1,377;   -0,955
494,826;10810,116;    0,287;   -1,045
495,412;10301,965;    2,559;   -0,682
495,998;10486,187;   -0,805;   -0,318
496,584;10646,571;    0,377;    1,045
497,169;10642,549;    1,014;   -0,682
497,755;10615,547;    0,650;    1,227
498,341;11182,549;    0,559;    0,318
498,926;10769,258;    1,832;    1,955
499,512;10989,442;    1,286;    2,955
500,097;11137,960;    0,195;   -0,318
500,683;11121,951;   -0,350;    2,136
501,268;11528,620;   -0,169;   -0,955
501,854;11271,053;   -0,169;    1,227
502,439;11212,166;   -0,624;   -1,773
503,024;11432,211;    0,195;    0,500
503,610;11561,693;   -0,078;   -0,682
504,195;11593,369;    0,558;    1,955
504,780;11747,350;    2,922;    1,227
505,366;11609,072;    3,013;    2,864
505,951;11350,428;    0,740;    1,045
506,536;11412,999;   -3,260;   -3,682
507,121;11434,838;    0,285;   -0,318
507,706;11984,659;    2,376;    1,045
508,291;12352,702;    2,649;    1,136
508,876;11856,503;   -0,988;    2,591
509,461;11312,304;   -0,169;   -0,773
510,046;11780,332;    0,194;    0,318
510,631;12015,773;   -0,351;   -0,773
511,216;11720,844;    2,467;   -0,500
511,801;12125,426;   -0,442;    2,591
512,386;12429,658;    0,740;    0,500
512,971;12390,589;   -2,988;    0,955
513,555;11954,362;   -0,897;   -1,500
514,140;12750,307;   -0,442;   -3,136
514,725;12742,029;   -0,715;   -1,136
515,309;12879,297;   -0,533;    0,318
515,894;12357,447;   -0,624;   -2,227
516,479;12812,092;   -0,624;   -0,955
517,063;12669,175;    0,376;    1,227
517,648;12815,724;    1,012;   -1,136
518,232;12464,702;   -0,261;   -1,409
518,817;12814,855;   -0,079;    1,682
519,401;13014,729;    2,194;    0,591
519,985;12541,814;    1,103;    1,136
520,570;12440,858;    0,830;   -1,955
521,154;12768,657;    2,102;    0,591
521,738;12925,679;   -2,352;    2,409
522,323;13494,107;   -0,170;    1,682
522,907;13233,283;    0,466;   -0,136
523,491;12967,558;    0,557;    0,955
524,075;12956,165;    2,284;    0,591
524,659;13059,273;    1,466;    0,591
525,243;12515,125;    1,739;    0,409
525,827;12758,226;    0,648;   -0,045
526,411;13590,364;   -1,989;   -0,136
526,995;13789,705;   -0,352;    1,409
527,579;13379,734;   -0,443;   -1,045
528,163;13671,687;    0,375;   -1,500
528,747;13610,228;    2,466;   -0,773
529,331;13915,800;   -0,080;   -1,409
529,915;14141,537;    1,738;    0,955
530,499;14095,961;   -0,807;    1,227
531,082;13763,733;   -0,534;    1,591
531,666;13247,738;    1,374;    0,773
532,250;13924,108;    1,284;    2,682
532,833;14253,158;    0,920;    2,773
533,417;14124,372;   -1,807;    0,864
534,001;14064,417;    1,647;   -0,318
534,584;14767,465;    0,374;    0,500
535,168;14618,281;    0,465;    1,409
535,751;14649,042;    0,647;    0,045
536,334;14080,322;   -0,898;   -0,409
536,918;14700,532;    0,011;    1,591
537,501;14805,452;   -0,899;    1,318
538,085;14814,821;   -0,444;    1,045
538,668;14969,883;    0,829;    2,409
539,251;15259,218;    1,829;    3,773
539,834;15281,851;    0,101;    0,773
540,418;15202,085;   -1,990;    4,318
541,001;15299,776;   -0,990;    1,773
541,584;15298,782;    2,101;    2,227
542,167;15005,392;    1,374;    2,955
542,750;15168,611;    1,919;   -0,773
543,333;14820,607;    0,555;    2,136
543,916;15501,347;    0,192;    2,500
544,499;16122,597;   -1,354;    0,227
545,082;16122,569;    1,374;    3,591
545,665;16273,412;    1,919;    1,500
546,248;16593,061;    1,010;   -0,318
546,830;16270,027;   -0,445;    1,955
547,413;16719,105;    1,010;   -0,773
547,996;17234,903;    0,555;    0,500
548,579;16999,795;    0,919;    0,955
549,161;16810,222;    1,828;    2,682
549,744;16576,205;   -0,809;    0,409
550,326;17078,933;   -0,809;   -1,136
550,909;16850,823;    2,737;    0,591
551,492;17264,565;   -0,263;    0,227
552,074;17042,951;   -0,173;   -1,318
552,657;17545,103;    2,373;    0,045
553,239;17320,470;   -0,173;   -0,773
553,821;17284,818;   -1,082;    1,045
554,404;16791,526;    1,282;    1,136
554,986;17182,354;    0,464;    1,045
555,568;17750,539;    1,191;   -0,955
556,151;16954,965;    1,191;   -0,227
556,733;17155,622;   -0,264;   -0,864
557,315;17652,648;    0,100;    0,500
557,897;17448,614;    0,554;   -0,500
558,479;17537,919;   -1,991;    1,318
559,061;17701,579;   -0,719;   -0,864
559,643;18006,446;   -0,264;    0,045
560,225;18346,148;    1,645;    2,864
560,807;18364,265;    0,918;    0,318
561,389;17859,057;    0,554;    2,318
561,971;18583,360;    0,463;    2,136
562,553;18416,701;   -1,628;    1,591
563,135;18534,548;   -0,537;    1,136
563,717;18189,062;    3,372;    1,136
564,298;18856,918;    3,645;   -0,045
564,880;18569,558;    0,645;   -1,409
565,462;18752,013;    0,645;    1,318
566,043;19837,108;   -0,446;    2,318
566,625;19370,471;    1,918;    1,227
567,207;19260,485;    1,099;    1,682
567,788;20311,035;   -1,264;    1,500
568,370;21077,751;    1,917;   -0,500
568,951;20940,737;    0,190;    0,227
569,533;21738,126;   -0,628;   -0,500
570,114;22219,873;   -0,446;    0,682
570,695;22683,722;   -0,174;   -1,318
571,277;23165,004;   -0,265;   -1,682
571,858;23915,663;    2,008;   -1,136
572,439;24761,259;    1,554;   -1,045
573,021;24861,150;    2,099;   -2,773
573,602;25346,594;   -1,265;    0,318
574,183;26271,028;   -2,083;    2,227
574,764;26371,541;   -1,629;    0,409
575,345;26862,186;    0,917;   -0,136
575,926;27478,439;   -0,356;    0,136
576,507;27456,048;    1,099;   -0,227
577,088;28569,199;    3,099;    1,682
577,669;28529,547;    0,735;    1,955
578,250;29261,937;    0,644;   -1,045
578,831;29870,570;   -1,356;   -2,227
579,412;30120,791;   -0,810;    0,955
579,993;31026,126;    1,008;    0,227
580,573;31367,430;   -0,629;   -0,955
581,154;30351,124;    0,735;   -0,591
581,735;31178,697;    0,644;    0,773
582,315;30700,970;   -0,629;    2,136
582,896;31040,722;   -0,174;    1,227
583,477;30563,741;    0,189;    1,227
584,057;30719,732;    0,553;    0,955
584,638;30964,217;    2,553;    2,318
585,218;30941,639;   -0,538;    2,682
585,799;31103,027;    0,281;   -0,227
586,379;31103,017;    0,372;    1,591
586,959;29936,544;    0,735;    0,318
587,540;29350,930;   -0,629;    2,227
588,120;28874,801;    1,007;   -0,045
588,700;27893,723;    2,553;    2,136
589,281;28226,642;    0,462;   -0,955
589,861;28135,586;    0,099;   -1,682
590,441;27999,916;    2,371;   -2,682
591,021;26987,216;   -0,265;   -2,591
591,601;27204,588;   -0,537;    0,500
592,181;27198,160;   -0,719;   -0,773
592,761;26560,637;    0,007;    1,409
593,341;26524,331;   -0,901;    0,045
593,921;26423,896;   -0,265;    1,591
594,501;26331,393;   -0,538;    1,318
595,081;26198,288;    0,917;   -0,318
595,661;26520,721;   -1,447;    0,955
596,240;27052,891;   -0,537;    0,136
596,820;26681,270;    0,372;    1,955
597,400;26849,749;    2,008;    0,773
597,980;27102,551;    2,008;    1,045
598,559;27177,747;    2,735;   -0,227
599,139;26832,024;   -0,174;   -1,227
599,718;26740,842;   -0,174;   -0,409
600,298;26969,323;    0,735;    0,682
600,877;27222,645;    2,917;    1,409
601,457;27515,751;    2,281;    1,136
602,036;27420,041;    0,190;    2,045
602,616;27640,460;    0,644;    1,682
603,195;27900,205;   -0,355;    3,500
603,774;27440,179;   -0,901;    2,045
604,354;27305,241;    0,826;   -0,500
604,933;26833,767;    0,463;    1,864
605,512;26975,395;    3,554;    0,591
606,091;27080,532;   -0,537;    3,773
606,671;27837,812;    0,281;    0,773
607,250;26966,632;    1,644;    3,136
607,829;27160,887;    2,372;    3,227
608,408;27024,409;    1,190;    2,591
608,987;26113,930;    1,281;    3,409
609,566;26374,903;   -1,265;   -2,500
610,145;26497,357;   -1,082;    0,682
610,723;26965,482;    4,372;    6,864
611,302;26219,923;   -0,446;    1,682
611,881;25718,020;    5,008;   11,227
612,460;26495,992;    1,645;    3,955
613,039;26938,825;   -0,082;    2,045
613,617;25697,920;    1,736;    4,773
614,196;25918,205;    1,099;    1,227
614,775;26260,884;    1,009;    2,409
615,353;26135,117;    0,736;    0,864
615,932;25904,635;    0,100;    2,409
616,510;26471,156;    0,554;    0,591
617,089;26061,697;    7,100;   17,591
617,667;25846,545;    2,372;    6,136
618,246;25640,202;   -1,537;    1,318
618,824;25824,538;   -3,355;   -0,955
619,402;25403,903;   -2,900;   -1,773
619,981;25924,620;   -0,173;   -1,045
620,559;25772,764;    0,009;    1,682
621,137;25342,374;   -0,718;    1,864
621,715;25360,044;   -1,173;   -0,682
622,293;25234,525;   -0,537;   -0,773
622,871;25740,739;   -0,718;    0,500
623,450;25350,357;    0,373;   -0,864
624,028;25168,157;    0,191;   -0,955
624,606;24800,815;   -1,718;    1,682
625,183;25219,683;   -1,536;   -1,136
625,761;24839,500;    1,009;    1,136
626,339;25103,971;    1,373;    2,591
626,917;25462,211;   -0,172;   -0,045
627,495;25533,153;   -0,354;    1,318
628,073;24999,444;   -0,263;    2,864
628,650;24685,978;    0,100;    2,136
629,228;25112,293;    0,373;    4,409
629,806;24570,889;    2,282;    1,136
630,383;24820,845;    1,464;   -0,318
630,961;24609,101;    2,555;   -0,955
631,539;24356,176;    2,464;    0,227
632,116;23683,829;   11,373;   15,409
632,694;24241,028;    2,555;    6,500
633,271;24574,397;    0,828;    2,682
633,848;24457,590;    1,828;    2,045
634,426;24503,995;   -1,081;    1,773
635,003;23654,209;    1,101;   -0,409
635,580;23914,933;    1,192;    3,682
636,158;24496,106;    3,737;    1,227
636,735;24492,610;    0,555;   -0,500
637,312;24636,200;   -0,809;   -0,682
637,889;24726,870;   -4,354;   -0,682
638,466;24213,928;   -3,990;   -0,409
639,043;24209,572;    2,101;   -1,136
639,620;24584,904;   -2,262;   -0,955
640,197;24876,955;    1,100;    1,682
640,774;24972,820;   -0,172;    1,136
641,351;25406,231;    0,737;    1,136
641,928;24818,551;   -0,627;    1,409
642,505;24432,780;    0,828;   -0,500
643,082;24568,827;   -1,718;    1,227
643,658;23642,420;   -0,718;    1,500
644,235;24370,467;    1,191;    2,500
644,812;24627,605;    1,918;    0,773
645,388;24391,016;   -0,991;    1,409
645,965;24539,336;   -0,809;    1,682
646,542;24597,565;   -1,445;   -0,227
647,118;24509,521;    1,009;   -0,955
647,695;24843,114;   -0,263;    1,136
648,271;24810,434;   -0,536;    0,500
648,848;25061,299;    0,736;    2,227
649,424;24931,983;    0,827;    1,318
650,000;24684,212;   -0,354;   -1,045
650,577;24518,713;   -0,627;   -0,955
651,153;24934,579;   -1,809;    0,955
651,729;25893,717;    1,191;    0,864
652,305;26034,946;    0,645;    2,773
652,881;30009,629;   -0,082;    1,136
653,458;36487,404;    1,100;    0,227
654,034;40343,815;    0,282;    1,591
654,610;41853,498;    0,554;    0,773
655,186;43188,727;    0,645;    3,045
655,762;42900,229;   -0,991;    0,409
656,338;42954,094;    0,100;    0,136
656,913;43853,869;   -0,082;    0,409
657,489;43173,643;    0,827;   -0,318
658,065;43187,509;   -0,173;   -1,591
658,641;43881,920;   -0,900;   -0,864
659,217;43200,694;   -0,991;    0,409
659,792;42524,014;    0,645;   -0,409
660,368;42804,698;   -2,173;   -0,682
660,944;42630,563;   -2,082;    1,227
661,519;38501,246;   -0,628;    0,409
662,095;32800,748;   -1,719;    0,591
662,670;28201,795;    1,281;   -0,136
663,246;26962,570;    1,009;   -0,409
663,821;26179,981;    0,281;    1,682
664,396;25666,210;    0,009;    1,864
664,972;25950,348;    0,009;   -0,500
665,547;26255,031;    1,372;    0,136
666,122;26261,442;   -1,082;    0,318
666,698;26557,580;   -0,173;    0,318
667,273;25909,446;   -0,173;    0,136
667,848;26701,402;    2,372;    1,500
668,423;26519,813;    2,190;    2,318
668,998;27067,406;    2,827;   -0,682
669,573;27597,998;   -3,264;   -1,500
670,148;27453,318;   -1,446;   -0,682
670,723;27251,820;   -1,810;    0,318
671,298;27639,231;    2,372;    1,045
671,873;27704,187;   -0,082;   -0,136
672,448;27678,052;    0,645;    0,136
673,023;28020,009;   -1,992;   -0,227
673,597;28371,329;    0,827;    2,318
674,172;28143,376;   -0,355;    0,318
674,747;27562,696;    0,372;   -1,045
675,321;27456,107;   -0,628;    3,318
675,896;27071,154;    0,645;    1,045
676,471;28056,565;    2,645;    1,591
677,045;27804,703;   -1,264;    0,682
677,620;27862,750;    0,190;    1,136
678,194;28161,434;   -2,628;    1,136
678,769;27720,117;   -1,083;   -0,318
679,343;27953,437;   -0,628;    1,773
679,917;27876,757;   -1,446;    1,955
680,492;27990,622;    0,826;    3,227
681,066;28061,397;    3,372;    0,409
681,640;28081,353;    1,463;   -0,318
682,214;28853,855;    0,735;    0,500
682,788;28431,993;   -1,356;   -0,773
683,363;28403,676;   -1,810;    1,682
683,937;28100,269;   -1,719;   -0,318
684,511;28867,953;    0,463;   -0,591
685,085;28505,545;   -1,356;    0,318
685,659;28306,502;   -2,538;    0,864
686,232;28525,458;   -0,356;   -0,318
686,806;28276,142;   -0,901;    0,409
687,380;28948,643;   -0,174;    0,591
687,954;29187,236;   -1,174;    1,136
688,528;28820,919;   -0,719;    1,955
689,101;29594,967;   -3,992;    1,045
689,675;29228,287;   -0,356;   -0,136
690,249;28584,425;   -0,719;    0,409
690,822;28970,745;    0,280;    0,318
691,396;28988,156;   -0,265;    1,227
691,969;28440,475;    1,280;    0,136
692,543;28912,068;   -0,447;   -1,955
693,116;28528,024;   -0,265;   -1,409
693,690;28423,799;    0,099;    0,500
694,263;28986,573;   -1,083;    2,955
694,836;29043,257;    1,371;    3,591
695,410;27630,031;   -0,265;    1,773
695,983;28110,533;    0,189;    0,591
696,556;28121,853;   -0,447;   -1,045
697,129;28476,173;   -0,356;    1,409
697,703;28133,038;   -1,629;    1,955
698,276;28105,722;    1,462;   -0,773
698,849;27887,860;    1,280;    1,409
699,422;28324,725;   -1,083;    0,591
699,995;28013,227;    0,007;    0,136
700,568;28486,456;   -0,629;    3,045
701,140;28538,049;   -2,811;    1,682
701,713;28266,914;   -0,174;    2,409
702,286;28023,234;   -0,538;    0,864
702,859;27876,100;   -0,902;   -0,591
703,432;27108,783;    0,825;    0,682
704,004;27594,739;    0,462;    0,318
704,577;27423,878;   -0,629;    0,136
705,150;28034,652;    0,189;    2,500
705,722;27802,154;   -0,356;   -3,227
706,295;27541,019;   -0,175;   -0,591
706,867;27402,248;   -0,175;    1,955
707,440;27611,932;   -1,720;   -0,409
708,012;27823,888;    0,462;    0,591
708,584;27774,390;    2,462;    0,227
709,157;28117,619;    1,825;   -0,591
709,729;27746,757;    2,280;    2,045
710,301;28598,622;    0,734;    0,045
710,874;28571,124;   -1,447;   -0,227
711,446;27496,989;    0,371;    0,864
712,018;27344,855;    0,098;    0,500
712,590;27107,811;   -1,993;    1,682
713,162;27592,586;    0,825;    1,318
713,734;27863,542;    1,825;   -2,045
714,306;27789,498;   -1,902;   -0,409
714,878;26538,727;    0,825;    0,864
715,450;27344,411;    0,643;    0,864
716,022;27596,458;    1,552;    1,318
716,593;27710,051;    0,189;    0,591
717,165;27642,189;   -3,175;   -1,227
717,737;27367,418;    0,280;    0,409
718,309;27013,283;    0,280;   -0,045
718,880;27014,421;   -0,539;   -1,409
719,452;27262,832;   -0,175;   -1,591
720,024;26829,425;    0,734;   -0,591
720,595;27427,017;   -2,902;    0,955
721,167;26959,974;    0,370;   -2,045
721,738;26433,203;   -0,812;   -1,045
722,309;26434,704;   -0,993;   -1,227
722,881;26185,570;   -1,357;    0,773
723,452;26848,435;   -2,630;    2,864
724,023;27034,573;   -0,721;    2,682
724,595;26812,348;    0,007;    0,682
725,166;26584,031;    0,007;   -0,409
725,737;26174,169;    1,734;    0,227
726,308;26234,308;   -0,266;    0,318
726,879;26726,627;   -1,630;    1,227
727,450;26541,766;    0,552;   -0,045
728,021;26558,449;    3,097;    0,682
728,592;26373,496;    0,734;    0,500
729,163;26684,089;    0,643;   -0,136
729,734;26675,954;    0,188;   -0,227
730,305;26965,547;    1,734;    0,136
730,876;27368,412;    0,188;    2,955
731,447;27025,914;    2,188;    2,682
732,017;27151,780;    1,097;    1,864
732,588;26664,554;    0,734;    1,227
733,159;26815,874;    0,643;   -1,045
733,729;26673,558;    0,006;    0,409
734,300;25965,059;    0,915;    0,864
734,870;26359,652;    3,461;    0,591
735,441;26911,154;    0,370;   -0,591
736,011;26738,564;    0,643;   -1,591
736,582;26667,703;   -0,812;    0,045
737,152;26176,113;   -1,721;   -2,045
737,722;26577,433;   -0,267;   -0,682
738,293;26274,753;   -1,358;    1,318
738,863;26175,437;    2,461;    2,318
739,433;26008,120;    5,279;    0,318
740,003;26581,077;   -0,994;   -0,682
740,573;25950,488;    2,097;   -1,591
741,143;25952,807;   -1,085;    0,318
741,713;26742,037;    1,188;   -0,500
742,283;26491,993;    0,915;    1,591
742,853;26280,404;    1,915;    1,591
743,423;25759,996;    1,733;    0,045
743,993;25851,134;   -0,358;    1,500
744,563;25188,182;    0,097;   -0,864
745,133;25197,956;   -0,812;   -0,864
745,702;25931,185;   -0,267;    1,773
746,272;25088,141;   -0,176;    0,591
746,842;24822,007;   -1,358;   -0,591
747,411;25268,509;   -0,267;   -0,318
747,981;25476,465;    0,097;    0,500
748,551;25528,785;    2,278;   -1,045
749,120;25350,468;    0,642;   -0,227
749,690;25732,061;   -0,631;    2,409
750,259;26106,654;    1,369;    2,955
750,828;25993,155;    1,551;   -1,955
751,398;26318,384;    1,278;   -0,045
751,967;25774,522;    2,187;    0,409
752,536;25967,842;   -0,813;   -0,227
753,105;26393,981;    0,096;    0,227
753,675;26193,937;    0,096;    1,773
754,244;26095,075;   -0,904;    3,591
754,813;26144,940;    0,551;    1,227
755,382;25754,260;    0,460;    0,955
755,951;26312,762;    1,551;    3,682
756,520;25778,082;   -0,085;    1,864
757,089;26304,038;    0,278;    0,500
757,658;26517,540;    1,733;    1,227
758,227;26531,860;    1,096;    0,318
758,795;26854,725;    1,187;    1,136
759,364;27071,772;   -0,086;   -0,591
759,933;26078,365;   -1,176;   -0,045
760,501;25606,140;    0,733;   -1,318
761,070;26118,096;   -2,813;   -1,409
761,639;26742,598;   -1,904;    1,318
762,207;26095,645;    1,551;   -0,955
762,776;26039,419;    0,369;    0,864
763,344;25958,012;   -0,995;    0,591
763,913;25101,968;   -0,722;    1,409
764,481;25760,834;    1,005;   -0,136
765,049;25629,335;   -1,358;    1,409
765,618;25558,746;   -0,086;    0,318
766,186;25643,157;    0,278;    0,136
766,754;25831,841;    0,005;    1,864
767,322;24851,070;   -1,995;    0,409
767,890;24882,026;   -0,722;   -1,773
768,459;25293,891;   -2,177;   -0,318
769,027;25457,939;    1,641;    3,409
769,595;24451,168;    3,278;    2,591
770,163;24905,578;    3,823;    2,955
770,730;24636,626;    0,732;   -0,136
771,298;24485,309;    0,187;   -1,409
771,866;24560,175;   -1,541;    4,955
772,434;24898,313;   -0,631;   -1,864
773,002;25071,996;    0,005;    0,682
773,569;24712,316;    0,914;    1,682
774,137;24529,636;   -0,268;   -0,045
774,705;25327,865;    0,278;   -0,136
775,272;24803,367;    0,641;    0,682
775,840;24609,687;   -0,177;    2,682
776,407;24149,461;    0,277;    1,955
776,975;23743,508;   -0,632;    0,318
777,542;24726,374;   -1,086;   -0,045
778,110;24559,967;   -1,268;   -0,045
778,677;24273,468;   -2,359;   -0,864
779,244;24053,970;    2,186;    1,045
779,812;24121,017;    1,823;    0,864
780,379;23989,064;    0,005;    1,136
780,946;24263,293;    1,005;   -0,773
781,513;24596,613;   -1,450;    0,318
782,080;23936,024;   -0,086;    2,864
782,647;24661,162;   -0,268;    3,045
783,214;24265,755;   -0,177;    3,864
783,781;23891,257;   -0,723;   -0,682
784,348;23769,031;   -0,632;    1,500
784,915;24250,442;   -3,177;    0,318
785,482;23986,126;    1,368;    2,591
786,049;24448,264;    0,186;   -0,591
786,615;24540,856;    0,277;   -0,955
787,182;24305,722;    0,186;   -0,682
787,749;24003,223;   -2,814;    1,409
788,315;23298,998;   -1,632;   -0,409
788,882;23597,682;    1,550;   -1,227
789,448;24261,092;    1,732;   -0,955
790,015;24315,503;    1,095;    3,227
790,581;23869,914;    1,459;    0,227
791,148;23774,325;    0,641;    1,045
791,714;24017,190;   -0,541;    3,136
792,280;23709,601;    0,186;    1,591
792,847;23244,194;    0,550;    2,500
793,413;23809,786;   -0,269;   -0,318
793,979;23339,561;    3,459;   -1,318
794,545;23378,881;    4,459;    2,682
795,111;22829,019;    2,186;    1,318
795,678;23022,430;    0,731;   -1,682
796,244;22657,113;    3,368;    0,136
796,810;23223,251;    1,731;    0,773
797,375;22962,571;    0,549;   -2,136
797,941;22976,073;   -0,541;    0,591
798,507;23137,848;   -0,451;   -0,955
799,073;22695,440;   -0,360;    0,591
799,639;22720,760;   -2,632;    3,136
800,205;22786,171;    0,095;    2,682
800,770;22351,673;    0,640;    1,773
801,336;22401,629;    1,368;   -0,955
801,901;22107,404;    4,549;    3,136
802,467;22695,905;   -0,542;    2,045
803,033;22052,771;   -0,087;    0,864
803,598;22246,363;    1,913;   -1,045
804,163;22278,410;    1,095;   -0,318
804,729;22238,185;   -0,178;    1,136
805,294;22611,414;    0,822;    2,227
805,859;22381,007;    0,731;   -0,409
806,425;21878,054;    1,186;    2,682
806,990;21541,737;    2,186;    4,318
807,555;22034,512;   -1,451;    2,591
808,120;21884,832;    0,822;   -0,409
808,685;21978,152;    0,185;   -2,500
809,250;21518,108;    0,004;   -0,500
809,815;21829,792;    1,913;    0,682
810,380;22331,293;   -0,269;    1,591
810,945;22843,522;   -1,087;    2,045
811,510;22057,660;    2,094;    1,591
812,075;21757,071;   -0,633;   -1,409
812,640;21769,028;    2,003;    1,409
813,204;21827,075;    0,822;   -0,227
813,769;22344,667;    2,094;   -0,045
814,334;21788,715;    0,458;    0,864
814,898;21851,398;    0,367;    0,591
815,463;21697,355;    1,276;   -0,773
816,027;21655,311;   -0,724;   -2,318
816,592;21742,631;    0,640;   -2,045
817,156;21265,951;    2,094;    1,136
817,721;21096,089;    4,276;    2,318
818,285;21078,045;    2,912;    1,500
818,849;21734,547;   -1,451;    1,682
819,414;21628,139;   -0,269;    2,955
819,978;21203,278;   -1,269;    1,773
820,542;21783,598;    2,003;    0,500
821,106;21529,736;   -0,815;    0,682
821,670;21582,601;   -0,815;    2,591
822,234;21322,830;   -0,270;    1,409
822,798;20702,150;    0,003;    0,500
823,362;20629,470;   -0,633;    4,227
823,926;19982,426;    0,094;    1,136
824,490;20203,837;   -0,997;   -0,682
825,054;20684,157;   -0,088;   -1,136
825,618;20286,841;   -1,542;   -1,500
826,181;20239,342;    0,458;   -1,318
826,745;20132,753;    1,367;   -1,045
827,309;20539,528;    1,185;    1,318
827,872;19922,484;    1,367;    0,955
828,436;20887,077;    1,185;   -0,773
828,999;20954,306;   -0,997;    1,227
829,563;19779,080;   -0,179;    1,136
830,126;19555,127;   -0,179;   -0,591
830,690;19551,629;   -1,997;    2,864
831,253;19095,222;   -0,543;    2,227
831,816;19213,632;   -1,906;    0,500
832,380;19128,316;    0,185;    0,864
832,943;19336,454;   -1,361;   -0,500
833,506;18841,774;    2,639;   -1,227
834,069;19616,458;    3,912;   -0,955
834,632;19715,687;    1,730;    1,318
835,195;19633,916;    1,003;    0,955
835,758;18849,054;   -0,997;    1,955
836,321;18688,101;    0,730;   -1,045
836,884;18804,239;   -0,725;   -0,955
837,447;18848,014;   -2,816;    1,773
838,010;19070,424;    0,366;    3,227
838,573;19343,563;   -1,179;    0,773
839,135;19308,064;   -1,361;   -0,955
839,698;18777,111;    1,275;    0,409
840,261;18336,159;    1,003;   -0,227
840,823;18194,479;   -0,543;    0,864
841,386;18482,071;   -0,452;   -2,409
841,948;18353,300;   -1,361;    1,773
842,511;18081,620;    0,912;    1,682
843,073;18212,395;    1,912;    0,227
843,636;17993,896;   -0,361;   -0,227
844,198;17929,671;    0,911;    0,591
844,760;18031,718;    1,093;    1,955
845,322;17698,311;    0,548;    1,136
845,885;18157,813;    0,730;    0,591
846,447;18574,860;   -1,998;    0,227
847,009;18151,816;    1,911;   -0,682
847,571;18518,409;    0,820;   -2,045
848,133;18562,729;   -1,089;   -1,864
848,695;18432,958;   -0,543;    1,409
849,257;17985,641;   -1,089;   -1,682
849,819;18122,688;   -0,998;   -0,409
850,381;18175,645;   -0,725;   -0,864
850,942;18552,146;    1,093;   -0,591
851,504;18480,557;    1,184;    0,227
852,066;18511,695;    1,275;   -1,591
852,628;18069,924;   -0,180;    1,955
853,189;17636,881;    1,638;    2,682
853,751;17770,655;   -0,907;    1,409
854,312;17574,157;   -0,453;   -1,682
854,874;18059,477;   -2,089;   -0,773
855,435;18591,615;   -0,907;   -1,682
855,997;18768,480;   -1,816;   -0,136
856,558;18039,709;    0,366;    1,773
857,119;18153,847;    0,820;    2,864
857,681;17830,895;    0,002;    0,318
858,242;17858,942;    1,911;   -2,136
858,803;18314,080;    0,456;   -0,773
859,364;18898,036;    0,184;   -4,773
859,925;18208,356;   -2,453;   -0,955
860,486;18141,585;   -0,453;   -0,955
861,047;17835,269;   -0,544;   -1,227
861,608;17651,316;   -1,089;   -0,773
862,169;17792,363;    0,638;   -0,045
862,730;17557,956;    0,456;    1,409
863,291;17766,367;   -0,635;   -0,500
863,852;18126,050;   -0,635;    1,955
864,412;17667,097;   -0,271;   -0,864
864,973;16252,781;   -0,089;    0,500
865,534;16108,465;   -1,726;    0,227
866,094;17617,330;    1,820;    0,227
866,655;17220,559;    1,274;    3,318
867,215;17511,697;    0,274;    0,136
867,776;17352,835;    0,547;   -0,136
868,336;17462,155;   -1,453;    0,136
868,897;16920,657;    2,638;    1,682
869,457;16655,977;    1,365;    0,318
870,017;16916,842;    0,547;   -1,227
870,578;17436,889;   -0,817;    0,773
871,138;17103,664;   -2,089;   -0,955
871,698;16674,347;   -0,817;   -1,318
872,258;16553,304;   -0,453;   -2,864
872,818;16878,533;    2,729;    0,045
873,378;16884,034;    0,638;    1,045
873,938;16428,263;    0,547;    0,500
874,498;16767,583;    0,274;   -1,955
875,058;16681,449;    2,183;    1,773
875,618;16560,132;    1,910;   -2,682
876,177;16473,998;    1,274;    0,136
876,737;16064,499;   -0,090;    1,955
877,297;16072,274;    0,183;    1,955
877,856;16103,958;   -0,362;    0,318
878,416;16034,187;    1,183;   -0,136
878,976;16233,688;   -1,817;    0,409
879,535;16411,736;    0,092;    3,136
880,095;16158,055;   -0,544;    0,045
880,654;16289,284;   -1,090;    1,318
881,213;16355,059;    2,456;    1,500
881,773;16016,470;    2,637;    2,682
882,332;16307,699;    3,365;    5,136
882,891;16175,928;    3,092;    2,136
883,451;16651,793;   -1,272;    1,682
884,010;16153,022;   -2,908;   -0,409
884,569;16250,342;   -0,999;   -0,045
885,128;16393,026;    2,819;   -1,864
885,687;16408,527;    4,455;    0,682
886,246;16095,211;    1,455;    2,136
886,805;15910,258;    2,455;    2,045
887,364;16206,396;   -0,999;   -0,500
887,922;16550,353;   -1,181;    0,045
888,481;16070,854;   -1,545;    0,591
889,040;16408,902;    1,183;    2,136
889,599;17064,949;    2,455;    1,409
890,157;17104,541;    1,455;    2,409
890,716;16759,316;   -0,090;    0,227
891,274;16584,363;    0,092;   -1,136
891,833;16990,774;    1,546;    0,864
892,391;16888,003;   -0,454;    0,500
892,950;16940,959;    1,819;   -0,773
893,508;17306,643;    0,455;   -0,409
894,067;16683,326;    0,637;    0,136
894,625;16558,555;   -0,636;   -1,500
895,183;16812,784;   -0,363;   -0,682
895,741;16658,741;    1,728;   -1,773
896,299;16489,788;   -0,545;   -2,409
896,858;16735,108;    0,819;   -1,591
897,416;16813,064;    2,728;   -1,318
897,974;16573,566;    1,819;    0,318
898,532;16716,068;    6,091;    2,682
899,089;16617,933;    2,091;   -0,682
899,647;16659,344;   -1,454;    1,318
900,205;16383,209;    1,182;    1,045
900,763;16602,620;   -0,454;    0,227
901,321;16624,031;    2,364;   -1,409
901,878;16040,896;   -1,000;   -0,773
902,436;15945,398;   -1,363;    1,318
902,994;16328,082;    4,728;    3,682
903,551;15786,311;    0,728;    0,409
904,109;16175,540;    0,182;   -1,409
904,666;15755,405;    2,455;    1,045
905,224;15628,361;    0,182;   -0,409
905,781;15368,318;    0,727;   -0,318
906,338;15437,456;   -1,363;    1,045
906,895;15385,594;    0,637;    2,045
907,453;15286,368;    1,727;    1,136
908,010;15333,234;   -0,909;    0,409
908,567;14972,099;    1,273;    0,591
909,124;14481,146;    0,364;   -1,500
909,681;14572,921;   -2,909;    0,682
910,238;14713,604;    0,636;   -1,318
910,795;15030,833;   -0,273;   -1,136
911,352;14679,106;   -2,909;   -2,682
911,909;14109,924;   -1,364;   -0,864
912,466;14584,379;   -3,182;    1,500
913,022;14109,833;   -1,636;    0,500
913,579;14468,015;   -0,909;    2,045
914,136;14181,470;    1,636;    0,955
914,692;14536,742;    0,091;   -1,227
915,249;14171,379;    1,455;    0,409
915,806;14393,288;    0,182;    1,955
916,362;14132,015;    1,909;    1,864
916,918;13670,924;    2,000;    1,045
917,475;13644,015;   -1,182;    0,955
918,031;13735,379;    3,364;   -0,045
918,587;13201,833;   -0,909;   -0,318
919,144;13397,652;   -2,273;    0,227
919,700;13735,288;    1,727;    0,773
920,256;13304,652;    0,727;    0,045
920,812;12928,288;   -0,727;   -1,045
921,368;12962,561;   -1,727;   -1,045
921,924;12599,833;    0,182;   -0,136
922,480;12190,833;   -0,545;    1,227
923,036;12762,106;    1,273;    1,955
923,592;12705,106;    0,455;    0,318
924,148;12611,470;    0,455;   -0,955
924,704;11945,561;   -1,364;   -0,409
925,259;12225,197;   -0,273;    0,591
925,815;11975,470;    1,455;    0,500
926,371;11530,924;    2,909;    1,409
926,926;11416,833;    2,091;    0,591
927,482;11076,288;   -1,364;    0,773
928,037;10958,197;    0,909;    2,045
928,593;11193,379;    1,636;    1,045
929,148;11052,924;   -1,818;   -1,500
929,704;10570,015;   -1,455;   -0,500
930,259;10756,833;    0,091;   -0,136
930,814; 9833,106;   -0,818;    1,955
931,369; 9529,652;    1,091;   -0,773
931,925; 9428,833;   -0,091;    0,136
932,480; 9338,197;   -2,818;   -2,591
933,035; 9217,833;    0,545;   -0,318
933,590; 8999,833;    0,364;   -1,773
934,145; 8686,015;   -1,364;   -0,318
934,700; 9011,742;    0,455;   -0,591
935,255; 8817,197;   -0,091;    0,045
935,809; 8095,561;    3,182;    0,864
936,364; 7233,833;   -0,455;   -0,136
936,919; 7214,924;    0,455;   -1,773
937,474; 7107,833;    1,455;    0,136
938,028; 6877,288;   -1,636;    1,136
938,583; 6350,742;    1,818;    4,682
939,138; 6641,197;    2,091;    2,136
939,692; 6122,106;    1,636;   -1,136
940,247; 5817,288;   -0,727;   -1,045
940,801; 5389,652;   -0,636;    0,227
941,355; 5280,106;   -0,364;    2,591
941,910; 4929,742;   -0,273;   -2,136
942,464; 5032,561;   -0,818;   -0,318
943,018; 4833,561;    1,000;   -0,227
943,572; 4790,288;    2,545;   -0,682
944,126; 4223,924;    0,091;   -0,409
944,681; 4112,561;    3,091;    0,227
945,235; 4089,924;    1,000;   -0,591
945,789; 4047,924;    0,364;   -1,864
946,342; 4122,106;    0,455;   -0,591
946,896; 3936,470;   -2,273;    0,955
947,450; 3707,288;    1,545;   -0,227
948,004; 3893,015;    1,727;   -0,045
948,558; 3909,924;    0,273;   -0,864
949,111; 3824,106;   -0,273;   -0,318
949,665; 3850,652;    1,636;   -0,682
950,219; 3716,106;   -0,091;   -1,045
950,772; 3804,288;   -1,909;    1,864
951,326; 3703,833;    0,545;   -0,955
951,879; 3831,015;    0,727;   -2,318
952,433; 3822,924;    0,000;    2,227
952,986; 3674,924;    2,909;    0,682
953,539; 3630,742;   -0,273;    0,591
954,093; 3581,379;    0,545;   -1,318
954,646; 3721,470;    0,909;    1,318
955,199; 3517,379;    0,000;   -0,500
955,752; 3406,742;   -0,455;    1,773
956,305; 3359,652;   -0,091;    2,955
956,858; 3525,015;    0,818;   -0,318
957,411; 3691,652;   -0,545;    2,136
957,964; 3529,924;    1,364;    2,136
958,517; 3520,652;   -1,545;    3,136
959,070; 3348,470;   -0,455;    1,955
959,623; 3410,833;    1,091;    1,500
960,176; 3200,742;    1,727;    2,045
960,728; 3176,742;   -2,727;    0,773
961,281; 3250,197;    0,545;    0,500
961,834; 3267,288;   -0,909;    0,864
962,386; 3197,379;    1,727;    1,045
962,939; 3135,015;    0,364;   -0,318
963,491; 3253,924;    0,455;    1,136
964,043; 3144,106;    1,182;    2,409
964,596; 3269,379;   -1,000;    2,227
965,148; 3113,924;   -1,000;    1,773
965,700; 3054,015;    1,091;   -0,227
966,253; 3190,106;   -0,636;    0,318
966,805; 3008,288;   -2,273;    0,773
967,357; 3063,288;    1,091;   -1,500
967,909; 3026,379;    0,455;   -1,227
968,461; 3122,833;    0,545;    3,136
969,013; 3062,379;   -0,182;   -0,864
969,565; 3150,561;   -0,455;   -1,136
970,117; 3204,197;   -0,364;    1,045
970,669; 3037,924;    0,182;   -0,136
971,220; 2914,833;   -0,455;   -1,500
971,772; 2830,924;   -0,636;   -0,318
972,324; 2943,924;    0,091;   -0,500
972,876; 2893,652;    0,818;   -0,045
973,427; 3041,106;    1,909;   -1,045
973,979; 3008,561;   -0,727;   -2,500
974,530; 3044,288;    1,818;    1,318
975,082; 3031,470;   -0,545;    1,682
975,633; 2929,924;    1,091;    1,682
976,184; 3093,106;    0,909;    0,773
976,736; 2878,833;    0,091;    0,227
977,287; 2693,288;   -0,909;   -0,500
977,838; 2870,742;    0,909;   -0,318
978,389; 2912,106;   -1,000;   -0,500
978,940; 2796,015;    0,545;   -0,409
979,491; 2834,924;    0,091;   -0,500
980,042; 2802,561;    0,182;    3,045
980,593; 2828,470;   -2,545;    0,227
981,144; 2885,742;    2,545;   -0,500
981,695; 2863,106;    1,455;    1,500
982,246; 2823,197;   -0,273;    1,045
982,797; 2974,288;   -1,727;    0,682
983,347; 3097,833;    0,364;    0,591
983,898; 3258,288;    3,091;    0,409
984,449; 3077,652;    2,182;    0,773
984,999; 2978,197;    1,455;   -1,136
985,550; 2775,288;    0,182;   -0,318
986,100; 2826,470;   -0,455;   -0,318
986,651; 2856,561;   -0,818;    0,045
987,201; 2813,561;   -1,000;   -0,591
987,751; 2893,652;    0,818;    2,864
988,302; 2877,106;    2,636;    1,500
988,852; 2898,652;    0,455;   -1,136
989,402; 2948,015;    0,091;    0,682
989,952; 2876,106;   -2,182;    0,864
990,502; 2951,561;   -0,091;    0,682
991,052; 2936,470;   -0,727;    0,045
991,602; 2804,197;   -2,909;    1,318
992,152; 2778,288;    0,455;    0,682
992,702; 2782,924;    1,364;   -0,045
993,252; 2707,106;   -3,000;   -0,500
993,802; 2787,833;   -0,273;    1,318
994,352; 3027,197;   -1,545;    1,136
994,901; 3101,379;   -0,182;    3,227
995,451; 3018,379;   -0,182;    0,318
996,000; 3122,742;    1,636;    0,318
996,550; 2830,652;    2,273;    0,227
997,100; 2824,924;    1,273;   -0,045
997,649; 3097,470;    2,182;    0,955
998,198; 2770,288;    1,727;   -1,500
998,748; 2938,924;    1,091;   -2,318
999,297; 2843,924;   -0,818;   -0,409
999,846; 2930,197;    1,000;   -0,773
1000,395; 2959,833;   -0,818;    0,500
1000,945; 2904,106;    1,818;   -0,773
1001,494; 3003,015;    2,364;    0,682
1002,043; 2996,015;    4,636;    0,864
1002,592; 2835,015;   -1,091;    1,955
1003,141; 2984,561;   -0,455;   -0,682
1003,690; 2846,197;    1,727;    0,500
1004,238; 2898,197;    1,455;   -0,045
1004,787; 2580,742;    1,364;    1,227
1005,336; 2802,015;    0,364;    0,682
1005,885; 2942,652;    1,364;   -2,773
1006,433; 3065,833;    0,545;    0,955
1006,982; 3130,742;    0,455;    1,682
1007,531; 3038,652;   -1,818;   -0,227
1008,079; 2978,833;   -2,273;    0,500
1008,627; 3119,288;   -1,455;    0,409
1009,176; 2890,924;    0,000;   -1,955
1009,724; 2938,470;    1,091;    0,864
1010,273; 2985,652;    1,273;    0,500
1010,821; 3100,833;    0,091;    1,409
1011,369; 2830,742;   -1,364;    1,318
1011,917; 2824,197;   -1,364;   -0,591
1012,465; 3086,470;    1,273;   -1,591
1013,013; 3194,652;    2,091;   -1,682
1013,561; 3075,470;    0,455;   -0,773
1014,109; 3131,561;   -1,909;    1,682
1014,657; 3003,106;    0,364;    0,591
1015,205; 3129,015;    1,636;   -0,955
1015,753; 3160,833;   -0,545;   -1,409
1016,301; 3196,197;   -2,636;    3,045
1016,848; 3207,742;   -1,273;    0,409
1017,396; 3233,561;    2,545;    0,045
1017,944; 3359,561;    1,182;    1,864
1018,491; 3137,015;    0,273;    1,409
1019,039; 3279,106;    0,455;    0,591
1019,586; 3200,106;   -1,364;    1,682
1020,134; 3292,924;    0,455;    1,500
1020,681; 3323,470;    0,182;   -1,136
1021,228; 3322,470;    2,909;   -2,227
1021,776; 3162,106;    1,182;   -1,136
1022,323; 3381,924;    0,455;    0,773
1022,870; 3301,379;   -1,000;   -0,045
1023,417; 3203,742;    2,636;    1,864
1023,964; 3346,924;    2,636;    1,227
1024,511; 3189,015;    1,000;    0,773
1025,058; 2998,561;    3,182;   -0,045
1025,605; 3052,379;   -2,273;    3,136
1026,152; 3256,288;    1,727;   -0,591
1026,699; 3007,379;    1,818;    1,318
1027,245; 3155,379;   -0,091;    0,318
1027,792; 3379,379;   -1,000;    1,409
1028,339; 3268,015;    2,364;   -0,045
1028,885; 3095,561;    1,000;   -0,227
1029,432; 3042,742;   -0,091;    0,227
1029,978; 3097,561;   -1,000;   -1,591
1030,525; 3013,652;    1,000;    0,409
1031,071; 3259,197;   -1,364;    1,136
1031,618; 3373,561;    0,364;    1,682
1032,164; 3160,924;   -0,091;    3,045
1032,710; 3186,742;    1,636;   -1,500
1033,256; 3108,924;   -0,636;   -0,136
1033,803; 3110,015;   -0,545;    1,500
1034,349; 2840,197;   -1,364;    0,136
1034,895; 2990,106;    0,000;   -0,318
1035,441; 2980,470;   -0,818;    0,318
1035,987; 2977,015;   -2,364;   -0,682
1036,533; 2983,652;   -1,455;   -0,955
1037,078; 3167,470;    1,455;    1,682
1037,624; 3006,015;    2,455;   -0,955
1038,170; 3024,833;    0,455;   -0,318
1038,716; 2940,379;    1,636;   -0,409
1039,261; 2841,833;   -2,273;   -0,773
1039,807; 2770,470;   -0,091;    3,409
1040,352; 2830,288;   -1,909;   -0,318
1040,898; 2890,561;   -1,545;   -0,682
1041,443; 2794,833;   -1,455;   -2,591
1041,989; 2806,652;    1,091;    1,591
1042,534; 2716,742;   -0,364;    2,591
1043,079; 2815,470;    2,909;    0,955
1043,625; 2601,652;    1,818;    0,500
1044,170; 2664,742;   -1,364;    1,045
1044,715; 2903,106;    2,455;    0,955
1045,260; 2719,197;    2,182;   -0,955
1045,805; 2783,197;    1,182;   -0,591
1046,350; 2704,742;    1,364;   -0,409
1046,895; 2674,379;    2,909;    1,591
1047,440; 2626,742;    5,364;    0,409
1047,985; 2537,379;    2,818;   -0,955
1048,530; 2442,742;    1,545;    1,227
1049,074; 2509,470;    0,000;    0,318
1049,619; 2473,470;   -1,364;    1,955
1050,164; 2286,197;    0,455;    0,227
1050,708; 2327,197;   -0,455;    0,045
1051,253; 2693,470;    1,273;   -2,227
1051,797; 2410,470;    0,818;   -1,318
1052,342; 2440,652;   -1,182;    1,045
1052,886; 2420,561;    0,364;   -1,409
1053,430; 2312,015;   -1,364;    0,136
1053,975; 2333,288;   -0,818;   -0,318
1054,519; 2301,742;   -0,727;    3,227
1055,063; 2312,742;    0,909;    1,318
1055,607; 2203,652;   -0,182;    0,227
1056,151; 2227,015;    2,909;    1,682
1056,695; 2134,561;    2,273;   -1,136
1057,239; 2206,652;   -1,727;   -0,682
1057,783; 2226,833;    0,818;   -1,500
1058,327; 2153,379;    0,000;    1,409
1058,871; 2379,924;   -0,545;    1,318
1059,415; 2098,288;   -0,818;   -0,045
1059,958; 2351,015;    1,455;    2,591
1060,502; 2081,561;   -1,000;   -0,773
1061,046; 1988,470;    0,364;   -0,955
1061,589; 1957,197;   -3,000;   -1,136
1062,133; 1847,470;   -1,273;    1,864
1062,676; 1793,470;    1,182;    0,864
1063,220; 1798,561;    1,091;    0,500
1063,763; 1818,742;    0,909;    1,136
1064,306; 1899,197;   -0,909;    1,864
1064,849; 1781,924;   -0,909;    0,591
1065,393; 1781,379;    2,000;   -1,500
1065,936; 1897,106;    0,182;   -0,409
1066,479; 1787,652;   -1,455;    1,318
1067,022; 1813,470;   -0,273;   -0,227
1067,565; 1698,379;   -0,091;   -1,318
1068,108; 1728,742;    0,727;   -0,591
1068,651; 1706,288;   -0,636;    1,409
1069,194; 1648,833;   -0,455;   -1,682
1069,736; 1647,742;   -1,273;    0,955
1070,279; 1627,015;   -1,364;   -0,500
1070,822; 1662,561;   -2,000;   -0,318
1071,364; 1749,470;   -0,364;    1,318
1071,907; 1570,924;   -0,727;    3,227
1072,450; 1482,470;    0,000;   -0,045
1072,992; 1467,924;   -0,273;    3,136
1073,535; 1615,833;    2,091;    2,136
1074,077; 1408,561;   -0,727;    2,045
1074,619; 1372,015;   -1,364;    0,591
1075,161; 1402,288;   -1,091;    1,500
1075,704; 1581,379;    1,545;    1,227
1076,246; 1389,470;   -0,182;    0,682
1076,788; 1319,924;   -0,364;    1,773
1077,330; 1393,742;    1,273;    2,136
1077,872; 1360,015;    0,909;    0,955
1078,414; 1567,561;    2,727;    0,773
1078,956; 1312,561;    1,273;   -0,227
1079,498; 1563,197;    1,636;    0,318
1080,040; 1279,379;    1,909;   -1,318
1080,581; 1229,379;    1,636;   -0,318
1081,123; 1149,924;    0,091;   -0,773
1081,665; 1197,288;   -1,182;   -0,955
1082,206; 1484,561;    1,364;   -0,500
1082,748; 1337,561;    0,727;    2,045
1083,289; 1225,379;   -2,000;    1,318
1083,831; 1142,742;   -0,545;    0,227
1084,372; 1181,288;    0,000;    0,591
1084,913; 1177,742;    1,091;    0,864
1085,455; 1147,288;   -1,909;   -2,045
1085,996; 1105,470;   -2,273;    0,136
1086,537; 1133,015;   -0,091;    0,864
1087,078; 1167,015;   -0,909;   -2,136
1087,619; 1205,470;   -1,273;    0,227
1088,160; 1115,379;    0,000;    1,318
1088,701; 1106,833;   -1,091;    0,682
1089,242; 1042,833;    1,364;   -2,227
1089,783; 1156,470;   -0,273;    1,409
1090,324; 1117,197;    0,455;    0,682
1090,865;  998,379;    2,727;   -0,409
1091,405;  966,833;    0,727;    2,227
1091,946;  984,106;    0,182;   -0,955
1092,487;  916,652;    0,818;   -1,409
1093,027; 1080,379;   -1,364;   -1,500
1093,568;  936,106;   -0,364;    1,227
1094,108; 1029,106;    0,273;    1,773
1094,649;  970,106;   -1,182;    0,136
1095,189;  907,742;   -0,636;   -0,682
1095,729;  859,924;   -0,091;    0,955
1096,269;  864,106;    0,727;   -0,955
1096,810; 1179,106;   -1,364;    0,500
1097,350; 1011,379;    1,364;   -0,773
1097,890;  910,106;    0,364;    1,227
1098,430; 1152,833;    2,364;    2,864
1098,970; 1023,742;    2,182;    1,682
1099,510;  892,197;    0,545;   -2,318
1100,050;  819,379;    1,000;   -1,591
1100,589;  790,561;   -0,727;   -0,318
1101,129;  914,561;    0,818;   -0,955
1101,669; 1064,379;    1,727;    2,136
1102,209;  887,015;   -0,091;    2,227
1102,748;  838,288;    0,000;    0,955
1103,288;  821,561;    1,273;   -1,227
1103,827;  847,833;    3,091;   -2,227
1104,367;  723,652;   -0,091;   -2,409
1104,906;  694,561;    1,364;   -1,136
1105,445;  763,470;    0,636;   -1,136
1105,985;  711,833;   -0,727;    1,500
1106,524;  759,470;   -1,727;   -0,682
1107,063;  728,015;   -2,727;    1,409
1107,602;  719,379;   -1,909;   -1,500
1108,141;  634,015;   -1,909;    1,500
1108,680;  735,652;   -3,455;   -0,591
1109,219;  670,470;   -0,909;   -0,500
1109,758;  667,197;    0,455;    0,682
1110,297;  641,470;    1,000;   -0,682
1110,836;  587,652;   -0,727;    0,955
1111,375;  752,288;   -2,545;    0,409
1111,913;  763,197;   -1,000;    0,773
1112,452;  692,652;   -0,273;    0,136
1112,991;  587,379;    1,091;    1,955
1113,529;  546,833;   -0,818;   -0,045
1114,068;  615,742;   -0,273;    2,955
1114,606;  516,833;   -0,364;   -0,955
1115,144;  676,379;   -1,273;    1,045
1115,683;  605,652;   -0,727;    0,318
1116,221;  665,015;   -0,455;   -0,864
1116,759;  571,561;    0,636;   -0,864
1117,297;  756,197;    0,000;    1,864
1117,836;  568,470;   -2,182;   -1,227
1118,374;  583,106;    0,182;   -0,682
1118,912;  521,379;    0,909;    2,682
1119,450;  517,470;    1,000;    0,864
1119,988;  562,470;    1,545;    2,136
1120,525; 1006,197;    5,091;    3,318
1121,063;  711,470;    1,182;    1,864
1121,601;  525,379;   -0,909;   -1,227
1122,139;  474,015;   -0,727;   -2,045
1122,676;  678,470;   -0,727;    2,773
1123,214;  618,015;   -1,182;    4,409
1123,751;  425,015;    1,727;    2,227
1124,289;  556,833;   -0,091;   -0,409
1124,826;  426,561;    1,727;    0,227
1125,364;  357,561;    1,727;   -0,955
1125,901;  532,379;    1,182;    1,227
1126,438;  642,561;    0,818;    0,955
1126,975;  374,379;   -0,727;   -0,773
1127,513;  431,379;    0,273;    2,136
1128,050;  346,197;    1,636;   -0,682
1128,587;  446,652;    2,000;   -0,227
1129,124;  481,197;    0,091;    1,318
1129,661;  360,561;    0,273;    0,227
1130,198;  529,288;    1,636;    0,773
1130,734;  457,924;    0,182;    1,409
1131,271;  322,561;   -0,909;    0,864
1131,808;  494,833;    2,909;    3,045
1132,345;  367,288;    1,545;    0,318
1132,881;  247,652;   -1,545;   -1,864
1133,418;  388,652;    0,727;   -1,136
1133,954;  324,015;    2,455;   -2,682
1134,491;  400,015;    1,364;   -0,773
1135,027;  301,379;    2,364;    0,864
1135,564;  385,197;    0,273;    2,955
1136,100;  357,379;    0,364;    2,136
1136,636;  253,470;   -1,273;   -1,045
1137,172;  353,652;    0,000;   -1,045
1137,708;  274,470;   -1,364;   -1,045
1138,245;  292,197;    1,273;   -1,227
1138,781;  234,197;    1,091;   -3,318
1139,317;  302,197;    1,273;   -1,409
1139,852;  286,924;    3,091;    0,136
1140,388;  401,015;   -1,182;   -0,409
1140,924;  285,652;   -1,091;   -2,227
1141,460;  226,924;   -1,636;    0,136
1141,996;  164,197;   -1,364;    2,682
1142,531;  209,197;    1,364;    3,318
1143,067;  419,742;    1,182;    1,045
1143,602;  472,379;   -0,091;   -0,318
1144,138;  317,652;   -2,636;    1,045
1144,673;  193,833;   -1,455;    1,409
1145,209;  260,742;   -1,909;   -0,318
1145,744;  176,924;   -0,727;    0,864
1146,279;  305,833;    1,818;   -0,136
1146,815;  231,833;    1,545;   -2,682
1147,350;  270,742;   -1,364;    0,045
1147,885;  183,470;   -0,818;   -1,318
1148,420;  182,379;   -2,273;    0,773
1148,955;  159,197;   -1,727;    1,864
1149,490;  188,652;   -0,909;   -1,591
1150,025;  177,197;    0,455;   -1,773
1150,560;  286,106;    1,091;   -0,955
1151,094;  256,652;    1,455;   -0,591
1151,629;  254,106;    1,636;    0,864
1152,164;  184,561;    1,364;    1,318
1152,698;  143,379;   -0,182;   -0,136
1153,233;  101,561;    0,091;   -0,682
1153,767;  148,652;   -3,000;   -2,318
1154,302;  195,015;   -1,455;    1,773
1154,836;  189,924;   -0,455;   -2,136
1155,371;  244,561;   -1,364;    3,682
1155,905;  207,106;   -0,636;    1,682
1156,439;  175,288;   -0,636;   -0,500
1156,973;  200,561;    0,364;    0,318
1157,507;  142,833;   -0,364;    0,682
1158,042;  169,924;   -0,727;    1,045
1158,576;  210,106;    0,182;    1,773
1159,110;  202,197;   -0,818;    2,409
1159,643;  173,833;    0,636;   -0,045
1160,177;  113,106;   -1,545;    1,500

