
Integration time [ms]:   0,040
Averaging Nr. [scans]: 11
Smoothing Nr. [pixels]: 0
Data measured with spectrometer [name]: 7318044SP
Wave   ;Sample   ;Dark     ;Reference
[nm]   ;[counts] ;[counts] ;[counts] 

186,757;    8,244;   31,551;    1,318
187,357;   30,968;   22,551;    0,955
187,958;    7,215;   15,460;   -1,591
188,558;   39,787;    8,915;   -1,227
189,159;    6,245;    6,733;   -4,500
189,759;  -19,969;    7,278;   -3,591
190,360;  -18,053;    2,824;   -2,136
190,960;    7,982;    2,915;   -4,136
191,560;   18,346;    3,189;   -6,591
192,161;  208,397;    4,372;   -3,500
192,761;   83,887;    4,010;   -3,227
193,361;   36,439;    1,556;   -3,773
193,962;   74,970;    2,010;   -2,682
194,562;    7,409;    1,189;   -3,955
195,162;   17,475;   -2,448;   -2,227
195,762;  122,124;   -3,176;   -0,045
196,362;   77,503;    1,370;   -2,500
196,963;   -1,264;    2,006;   -0,864
197,563;   35,788;    1,551;   -0,955
198,163;    0,408;    0,096;   -0,682
198,763;    6,326;    1,733;   -0,500
199,363;   54,845;    3,096;   -0,500
199,963;   23,339;    0,369;    0,409
200,563;   16,386;    2,823;   -1,409
201,163;    5,891;    3,277;   -0,227
201,763;   30,794;    3,732;    0,318
202,363;    2,138;    1,459;    1,500
202,963;   28,583;    1,459;    1,045
203,563;   80,600;    0,277;    0,500
204,162;   13,423;    2,096;   -1,864
204,762;    4,294;    0,550;    0,591
205,362;  -11,939;    3,004;    1,955
205,962;   20,708;    3,096;    1,955
206,562;   15,808;    1,823;    2,318
207,161;   -1,541;   -0,087;    0,318
207,761;   72,202;    1,277;    2,409
208,361;    9,335;   -0,268;    1,409
208,960;   18,317;    0,459;    1,500
209,560;   17,934;    1,277;    1,591
210,160;   37,372;    0,550;    1,864
210,759;    8,572;    4,186;    1,227
211,359;   -0,683;    1,459;    1,045
211,958;   87,739;    1,277;    2,045
212,558;   99,368;    1,732;    1,864
213,157;   34,384;    1,822;    1,500
213,757;  161,597;    3,822;   -0,227
214,356;   58,062;    1,277;   -0,409
214,956;  133,905;    3,095;    0,409
215,555;   32,512;    2,095;    2,136
216,154;    5,361;   -2,723;   -0,591
216,754;    6,722;    0,277;    0,773
217,353;   18,938;   -0,268;   -1,045
217,952;  -22,765;   -0,178;    0,318
218,552;   33,327;    1,368;   -0,773
219,151;   10,463;    0,277;    0,955
219,750;    4,639;    0,004;   -0,227
220,349;  -13,607;   -0,451;    1,045
220,948;   43,956;   -1,360;    1,136
221,548;    3,228;    0,913;    1,227
222,147;   15,253;   -0,087;   -0,409
222,746;   81,407;   -0,451;   -0,955
223,345;   28,868;    0,731;    0,500
223,944;   38,813;   -0,451;    0,773
224,543;   36,706;    1,004;   -1,409
225,142;   18,316;    0,094;    0,136
225,741;   24,882;   -0,814;    1,045
226,340;   15,374;   -0,451;   -0,955
226,939;   59,341;   -0,996;   -0,136
227,538;   12,273;   -0,360;   -0,773
228,137;   69,392;   -0,814;    0,864
228,735;   39,936;   -0,541;    1,227
229,334;  -12,430;   -0,905;   -0,227
229,933;   66,452;    0,459;    0,591
230,532;   55,437;    1,186;   -0,409
231,131;   98,458;    1,732;    0,318
231,729;   37,264;   -2,450;   -2,318
232,328;    8,957;   -0,723;   -1,500
232,927;   19,056;    1,004;   -0,500
233,525;   10,593;    3,640;    0,045
234,124;   31,225;    2,368;   -1,591
234,723;    3,053;    0,913;   -1,045
235,321;  -11,231;    2,277;    0,136
235,920;    8,356;    1,186;   -1,227
236,518;   71,072;    3,459;    0,318
237,117;    5,290;    0,004;   -0,227
237,715;    9,359;    0,640;   -0,500
238,314;   19,077;   -0,087;   -2,318
238,912;   66,562;   -0,723;   -1,409
239,510;   37,103;    0,459;   -1,227
240,109;   81,622;    0,004;    3,773
240,707;   63,507;   -0,996;    1,227
241,305;    3,092;    0,550;    0,136
241,904;   29,546;   -0,178;   -2,045
242,502;   87,823;   -0,632;   -0,227
243,100;   39,629;   -0,087;   -0,955
243,698;   -0,212;    0,732;    1,682
244,297;   22,662;   -0,632;    0,682
244,895;   13,676;   -0,269;   -2,318
245,493;   80,294;    2,186;   -0,591
246,091;   90,894;    1,368;   -1,318
246,689;   52,348;    1,004;    0,591
247,287;   43,225;    0,822;   -1,136
247,885;   19,159;   -1,451;    1,227
248,483;    0,556;    1,822;   -0,500
249,081;   37,515;    0,185;    1,591
249,679;   40,814;   -0,178;    1,682
250,277;   -3,759;   -1,723;    0,864
250,875;   35,175;   -1,087;   -1,045
251,473;   12,413;   -1,178;    0,500
252,071;   54,284;    1,459;    1,045
252,669;   14,813;   -1,814;    0,318
253,267;    4,128;   -0,087;    0,773
253,864;   17,043;   -0,360;    0,682
254,462;   63,700;    1,640;    1,591
255,060;   -2,397;   -0,269;    1,318
255,658;   -3,641;    0,822;   -0,136
256,255;   13,042;    0,186;   -2,045
256,853;   40,159;   -0,269;    1,409
257,451;   16,291;    0,822;    1,864
258,048;  169,740;    1,822;    1,864
258,646;   67,063;    1,731;   -1,045
259,243;  101,159;   -0,087;    2,227
259,841;   47,966;   -0,814;    0,318
260,438;    6,947;   -0,087;    0,864
261,036;   37,967;   -1,905;    1,409
261,633;    4,179;   -0,087;    2,227
262,231;  -15,978;    2,731;   -0,045
262,828;  -13,315;   -0,905;    1,136
263,425;   -1,354;    0,913;   -0,591
264,023;    1,331;    0,186;    0,045
264,620;   48,242;   -0,360;   -0,318
265,217;   90,360;   -2,087;    3,136
265,815;   11,513;   -1,905;    2,136
266,412;   40,999;    0,731;    0,136
267,009;   34,017;   -1,451;    0,773
267,606;   63,517;    0,822;   -0,955
268,203;   13,366;   -0,269;   -0,591
268,801;   16,388;    1,731;    0,591
269,398;   -1,716;   -0,360;    2,500
269,995;   34,231;    0,277;    1,591
270,592;   19,782;   -0,632;   -0,500
271,189;   -7,231;    0,186;    0,409
271,786;  -10,867;   -0,632;    1,227
272,383;   43,878;   -1,087;    0,227
272,980;   15,080;    0,277;    0,318
273,577;    8,131;    0,004;    1,227
274,174;   -4,015;    0,822;    2,591
274,771;   33,541;   -0,814;   -0,773
275,367;  179,675;    2,277;    1,409
275,964;   86,024;    0,731;   -0,500
276,561;   23,908;    1,549;   -1,045
277,158;   -7,186;    0,095;   -1,773
277,755;   62,333;    2,185;    0,409
278,351;   35,880;   -0,451;   -1,500
278,948;   52,119;   -0,815;    0,045
279,545;   31,226;   -1,360;    2,318
280,141;   70,104;   -1,723;   -2,045
280,738;   72,902;   -0,451;   -0,136
281,334;   18,466;   -1,633;    0,591
281,931;    5,476;   -0,087;   -1,318
282,528;   55,955;    0,822;   -0,500
283,124;   67,973;   -1,087;   -0,500
283,721;   63,289;   -0,451;    1,409
284,317;   23,993;    0,185;    2,500
284,913;   64,534;   -1,360;    0,591
285,510;  130,079;    0,640;   -0,318
286,106;   83,123;   -2,269;   -0,955
286,703;   37,540;   -0,360;    1,955
287,299;   11,057;   -1,451;   -0,591
287,895;    5,546;    0,822;   -1,045
288,491;    4,557;    0,186;    2,136
289,088;   40,083;   -2,360;    2,409
289,684;   41,086;   -1,723;    1,500
290,280;   91,373;    0,368;    0,682
290,876;   75,665;    1,822;    5,500
291,472;   55,753;    1,276;    2,227
292,068;   53,853;    1,367;    0,227
292,665;   16,329;    2,095;    0,773
293,261;   -7,046;    0,276;    2,136
293,857;   47,553;    2,913;    2,136
294,453;   32,814;    3,550;    0,955
295,049;  103,080;   -0,268;    1,955
295,644;   47,175;    0,095;    0,136
296,240;    6,214;   -0,905;   -0,136
296,836;   25,642;   -0,995;    0,318
297,432;   64,286;    1,096;   -0,500
298,028;   56,893;    0,732;    0,773
298,624;   27,918;    1,459;    1,864
299,220;   32,058;    2,368;    0,591
299,815;   27,498;    1,005;   -0,409
300,411;   57,080;    0,914;    1,773
301,007;   74,981;    1,368;    0,227
301,602;   23,704;   -0,541;   -2,318
302,198;   78,514;    0,732;   -0,773
302,794;   28,296;    1,187;   -0,500
303,389;   -2,427;   -1,177;    1,045
303,985;    6,637;    0,550;    1,409
304,580;   69,204;    1,459;    1,591
305,176;   25,595;   -3,086;    0,136
305,771;  -22,454;   -1,268;   -1,227
306,367;  134,160;    4,095;    0,136
306,962;   53,068;    0,641;    1,500
307,558;   81,461;   -0,450;    0,136
308,153;   59,596;    1,095;   -1,136
308,748;    9,195;   -0,814;    1,682
309,344;  130,827;   -0,632;   -1,318
309,939;  114,302;   -1,905;   -1,318
310,534;   30,701;   -0,086;   -1,682
311,130;   23,075;    0,459;   -2,500
311,725;    4,722;    1,004;   -0,500
312,320;   17,494;    2,459;    0,045
312,915;   52,066;    1,459;   -1,045
313,510;  129,117;    1,550;   -0,500
314,105;   26,986;    1,096;    1,409
314,700;   -4,005;   -3,086;   -1,045
315,295;   20,568;   -0,904;    0,045
315,890;    5,611;    1,277;    0,864
316,485;   43,724;   -0,359;   -0,318
317,080;    5,525;   -3,086;    1,591
317,675;  117,405;    2,005;   -0,682
318,270;  231,520;    5,550;    3,318
318,865;  147,064;    3,278;    3,045
319,460;   72,674;   -0,904;    0,591
320,055;   16,659;   -0,541;   -1,227
320,650;   22,531;   -1,995;   -0,591
321,244;   23,119;   -0,177;   -1,409
321,839;   11,454;   -1,541;   -0,227
322,434;   27,676;   -1,086;   -1,591
323,029;   12,011;    1,732;    1,591
323,623;    8,922;    1,550;    0,773
324,218;   90,366;    2,368;    1,409
324,812;   48,570;    1,096;    1,591
325,407;   40,855;   -0,814;    2,045
326,002;  110,464;    0,277;   -0,409
326,596;   74,083;    0,914;    1,318
327,191;   17,366;    0,823;   -1,045
327,785;   26,901;   -0,813;   -0,227
328,379;    3,943;    1,368;    0,136
328,974;   22,882;    0,914;   -3,955
329,568;   40,966;    0,186;   -2,409
330,163;   74,772;    2,096;    1,045
330,757;   19,515;    2,459;    1,591
331,351;   -3,468;    0,459;    0,682
331,945;   -8,614;    0,914;    1,409
332,540;   38,079;   -1,723;   -0,591
333,134;   39,942;   -1,086;    0,773
333,728;   45,139;    0,005;    0,318
334,322;    2,516;   -1,177;   -0,864
334,916;    6,743;    0,277;    0,955
335,510;   70,652;   -0,450;   -0,136
336,105;   59,912;   -1,086;    1,591
336,699;   19,174;   -1,086;    0,591
337,293;   43,255;   -1,723;    0,318
337,887;   15,525;   -2,723;    1,955
338,481;   69,290;    0,459;    0,591
339,074;  125,742;   -0,359;    2,682
339,668;  115,341;   -1,632;    1,227
340,262;  424,610;    1,732;    3,227
340,856;  207,543;    1,822;   -0,682
341,450;   66,887;    1,004;    1,864
342,044;  100,982;    1,459;    0,136
342,637;  166,622;    0,913;   -2,136
343,231;  139,080;   -2,360;    0,682
343,825;  112,082;   -1,086;   -0,591
344,419;  114,757;   -1,995;    0,500
345,012;  476,777;    2,459;    4,045
345,606;  348,648;    4,641;    1,591
346,199;  148,390;   -1,813;   -0,227
346,793;  242,989;    1,914;    2,045
347,386;  122,448;   -0,813;   -1,136
347,980;   75,005;   -0,268;   -0,045
348,573;  160,318;    2,278;    0,409
349,167;  405,720;    5,278;    4,773
349,760;  293,025;    2,914;    2,682
350,354;  280,089;   -0,813;    1,136
350,947;  324,691;    1,096;    1,682
351,540;  230,628;   -0,358;   -1,409
352,134;  141,329;    1,096;    1,136
352,727;  160,180;   -0,086;    1,136
353,320;  178,639;    0,005;    0,591
353,913;  129,586;   -1,995;    1,864
354,507;  305,137;    0,823;   -1,227
355,100;  197,585;    0,460;    0,864
355,693;  567,175;    2,005;    2,409
356,286;  359,691;    0,823;    2,773
356,879;  234,937;   -0,722;    1,227
357,472;  229,426;   -0,904;    1,500
358,065;  263,466;   -0,722;    2,500
358,658;  147,390;   -0,540;    2,318
359,251;  128,029;   -1,631;   -0,591
359,844;  285,735;   -1,904;   -1,136
360,437;  333,556;   -2,995;    0,045
361,030;  192,089;    1,369;   -0,682
361,623;  193,814;    2,824;    0,318
362,215;  381,675;   -0,086;    2,045
362,808;  241,955;   -2,358;   -1,682
363,401;  180,591;   -2,449;    0,136
363,994;  369,822;   -0,631;   -1,500
364,586;  192,635;    0,824;   -1,500
365,179;  150,826;   -0,449;   -1,136
365,772;   44,970;   -1,995;    2,045
366,364;  152,050;    1,915;   -3,227
366,957;  182,630;    2,279;   -0,045
367,549;  149,555;    2,188;   -0,864
368,142;  153,433;    1,825;   -1,500
368,734;  125,947;    0,734;   -2,136
369,327;   68,378;    1,643;   -0,500
369,919;   97,034;   -1,538;    0,409
370,512;  113,460;   -1,083;   -0,500
371,104;  328,777;   -0,901;    1,591
371,696;  341,500;    1,191;   -0,955
372,289;  218,209;    0,373;    1,136
372,881;  169,130;   -2,080;    1,318
373,473;   78,469;   -2,170;    1,136
374,066;  156,526;   -0,169;    0,500
374,658;  133,699;    0,378;    1,136
375,250;   67,066;    0,653;   -1,409
375,842;  106,398;    0,473;   -0,045
376,434;   64,218;   -0,435;   -0,409
377,026;   38,252;    0,204;   -2,500
377,618;   76,967;   -0,158;   -0,682
378,210;    7,991;   -0,338;   -1,955
378,802;   -3,782;    0,754;   -0,591
379,394;  372,268;    1,846;    0,682
379,986;  128,662;    1,393;   -0,955
380,578;   31,869;   -0,153;    0,773
381,170;  293,202;   -0,972;    0,045
381,762;  199,271;    0,755;    1,409
382,354;  159,587;   -0,065;   -1,318
382,945;   75,574;   -2,976;    0,318
383,537;   29,919;   -2,705;   -1,955
384,129;   32,846;   -2,160;   -1,136
384,721;  151,159;   -0,252;    0,955
385,312;   86,056;   -0,161;   -0,955
385,904;  169,534;   -2,706;    1,591
386,496;   90,037;   -0,979;    1,045
387,087;  215,325;    1,022;    2,500
387,679;  158,198;   -1,160;    0,045
388,270;  125,534;    2,840;    2,045
388,862;   95,584;    1,295;   -0,318
389,453;   84,117;   -0,887;    1,045
390,045;   97,450;   -0,705;   -2,682
390,636;  -16,614;    0,204;   -0,591
391,227;   46,155;   -0,523;   -0,045
391,819;   23,449;    0,204;    0,773
392,410;  276,357;    1,022;    0,045
393,001;   89,748;   -0,979;   -1,591
393,593;  149,252;    1,930;   -0,045
394,184;  194,024;    1,385;   -0,409
394,775;   87,237;    1,839;    2,136
395,366;    3,526;    1,385;    0,773
395,957;  179,754;    0,113;    0,136
396,548;   73,059;   -0,342;    2,682
397,139;  177,373;   -2,433;    0,591
397,730;  101,584;   -1,888;    0,955
398,321;  110,795;   -1,252;    0,955
398,912;   44,654;   -0,615;    0,136
399,503;   42,500;   -3,524;   -1,409
400,094;   92,824;    0,294;    1,682
400,685;   81,912;   -0,433;    0,045
401,276;   29,356;    0,930;   -0,955
401,867;    5,562;   -0,888;    0,773
402,458;  -28,677;   -2,251;   -2,318
403,048;   98,207;    1,112;    0,591
403,639;   56,441;    0,840;    0,864
404,230;  162,785;    2,476;    0,318
404,821;  211,864;   -0,615;    0,045
405,411;  122,462;    1,203;   -2,591
406,002;   44,694;   -1,252;   -1,136
406,592;  250,635;    2,294;    0,045
407,183;  117,342;    0,566;   -1,500
407,774;   99,477;    3,475;   -0,136
408,364;   52,617;    0,930;    0,409
408,954;  166,237;    0,384;    1,227
409,545;  158,597;    1,021;    1,045
410,135;  106,813;    1,293;    0,500
410,726;   66,178;    1,838;    0,318
411,316;  249,376;    0,111;    0,773
411,906;   84,161;   -0,253;   -0,409
412,497;   86,964;   -1,070;   -0,045
413,087;   39,210;   -1,980;   -0,227
413,677;  -26,154;   -0,707;    3,864
414,267;  -37,372;    0,656;    1,409
414,857;  -54,910;   -2,980;    4,227
415,448;  -58,208;    0,839;    0,500
416,038;  -19,353;    0,020;   -0,591
416,628;   20,842;   -0,889;    0,409
417,218;   65,374;    0,565;    3,318
417,808;  200,381;    0,202;   -0,409
418,398;   85,141;    0,020;    2,682
418,988;  -28,884;    2,020;    0,591
419,578;   64,822;   -0,707;    1,409
420,168;   -3,382;   -1,343;   -0,955
420,757;  122,732;   -1,343;   -1,500
421,347;   22,234;    0,111;   -0,227
421,937;    0,898;    2,292;    1,409
422,527;  126,823;    0,838;   -0,773
423,116;  250,897;   -0,253;   -0,045
423,706;    0,883;   -1,889;    0,318
424,296;  -36,847;    1,384;    0,682
424,885;   75,789;   -0,071;   -3,045
425,475;   43,717;    1,474;   -2,864
426,065;  -41,891;   -0,980;   -0,318
426,654;  -62,324;   -0,435;   -0,318
427,244;  174,844;    0,020;    1,409
427,833;  145,289;    1,383;   -0,500
428,423;   15,540;   -0,526;    1,136
429,012;   20,483;   -0,344;   -1,136
429,601;  138,895;   -1,344;    0,136
430,191;   49,893;    1,292;    4,318
430,780;  -52,124;   -0,344;   -0,409
431,369;  118,623;    0,746;   -0,045
431,959;   29,660;   -1,254;    0,500
432,548;  -36,851;   -1,163;   -0,045
433,137;  -78,654;   -1,254;   -1,318
433,726;  -17,393;    0,292;    0,500
434,315;   -1,049;   -0,526;    2,409
434,905;   99,486;   -1,254;    1,409
435,494;   90,947;    0,746;    0,955
436,083;  -17,417;   -0,981;   -0,955
436,672;   72,870;    0,110;    0,500
437,261;   18,503;    0,292;   -1,955
437,850;  217,369;    1,383;    0,682
438,439;  266,475;    3,291;    1,955
439,027;  360,849;    3,655;    1,773
439,616;  288,995;    2,927;    1,227
440,205;   84,850;    0,200;   -2,136
440,794;   44,001;    2,109;   -0,045
441,383;   -8,817;   -1,346;   -0,591
441,971;  -37,094;   -2,436;    0,591
442,560;  -25,398;    0,563;   -1,773
443,149; -104,745;    0,379;   -1,318
443,737;  -77,818;   -0,074;   -2,318
444,326;  -41,667;    0,018;    0,318
444,915;    6,540;   -1,982;    0,864
445,503;    6,708;   -2,891;   -0,318
446,092;  248,627;    0,382;    2,136
446,680;  178,373;    0,382;    0,318
447,269;   87,717;   -0,346;   -0,318
447,857;   73,742;    0,018;   -1,773
448,445;   32,054;    0,563;    1,318
449,034;  -19,832;   -1,528;   -1,136
449,622;   -8,467;   -1,073;    3,500
450,210;  252,041;    2,017;    2,227
450,799;  154,140;    0,290;   -0,591
451,387;  124,090;    1,381;   -0,591
451,975;  115,622;    2,654;    0,864
452,563;  187,114;    3,472;    2,318
453,151;   29,423;   -0,528;   -1,227
453,739;   63,806;   -1,347;    0,136
454,328;  157,487;    2,381;   -2,136
454,916;  102,901;    2,562;   -0,136
455,504;  115,277;    1,017;    1,227
456,092;   18,928;    0,017;   -1,591
456,679;  -20,372;    1,472;    0,682
457,267;  359,744;    4,017;    1,045
457,855;   71,819;    1,017;    1,409
458,443;  -56,788;   -0,165;    1,682
459,031;   79,830;    0,108;    2,409
459,619;   54,056;   -1,801;    2,864
460,206;  -34,993;    0,835;    2,045
460,794;  -44,036;   -2,983;   -0,227
461,382;    3,305;   -0,529;   -0,864
461,970;    2,789;    1,198;    1,864
462,557;  -58,456;   -0,711;   -0,682
463,145;   47,045;   -3,165;   -1,682
463,732;  282,448;    2,016;   -1,045
464,320;   63,782;   -0,075;   -3,045
464,907;  201,922;    2,743;   -0,773
465,495;  107,678;    0,743;   -1,227
466,082;   35,809;   -1,984;   -0,045
466,670;   64,632;   -2,529;    1,227
467,257;  -27,810;   -1,711;    2,045
467,844;   70,050;   -0,075;    0,045
468,432;   28,813;    0,834;    3,500
469,019;   -0,456;    0,925;   -1,773
469,606;   74,402;    0,470;    3,682
470,193;  100,780;   -1,439;    0,227
470,780;   66,168;   -2,075;    0,864
471,368;    0,948;   -1,257;   -0,773
471,955;   93,482;    1,379;   -0,682
472,542;   62,636;    0,652;   -1,136
473,129;  -37,814;   -0,166;    0,136
473,716;  -35,217;    1,470;    0,591
474,303;    4,695;    0,652;   -0,864
474,890;    7,693;   -1,439;   -0,500
475,477;   94,315;   -1,621;    0,409
476,064;   10,714;    1,106;   -1,591
476,650;  128,137;    0,288;    0,318
477,237;   34,137;   -0,258;    0,955
477,824;   16,993;   -1,076;    0,864
478,411;  -52,648;   -1,894;   -0,318
478,997;  -65,711;    0,560;   -0,773
479,584; -111,977;    1,196;   -0,409
480,171;   45,553;   -0,440;   -0,773
480,757;  101,981;    2,651;    0,773
481,344;    0,980;    0,469;    0,409
481,931;  -76,951;    1,105;    1,045
482,517;   38,371;   -1,258;    0,318
483,104;  116,719;    1,106;    2,864
483,690;   -7,368;   -1,804;    0,045
484,276;  -26,492;   -0,895;    0,227
484,863;  169,129;    2,469;    1,136
485,449;   26,258;   -0,077;    0,318
486,035;  -15,797;   -1,986;   -0,136
486,622;   62,177;   -0,895;    0,045
487,208;   -1,473;    1,378;    1,500
487,794;  -79,510;    0,741;    0,318
488,380;  -69,318;    0,105;   -1,409
488,967;  -64,724;   -1,168;   -0,409
489,553;  -59,077;   -1,895;   -1,409
490,139;   13,349;    1,559;    0,773
490,725;  -47,554;    0,741;   -0,227
491,311;    1,319;    3,287;    3,045
491,897;  -24,132;   -0,986;    1,500
492,483;  -13,910;    0,105;    1,227
493,069;  384,478;    3,923;    0,864
493,655;  120,169;    1,650;    0,682
494,241;   -2,686;    1,377;   -0,955
494,826;   10,376;    0,287;   -1,045
495,412;   65,498;    2,559;   -0,682
495,998;   -6,348;   -0,805;   -0,318
496,584;   35,848;    0,377;    1,045
497,169;   57,104;    1,014;   -0,682
497,755;   -7,155;    0,650;    1,227
498,341;  110,466;    0,559;    0,318
498,926;  232,546;    1,832;    1,955
499,512;   -6,416;    1,286;    2,955
500,097;   -7,549;    0,195;   -0,318
500,683;   15,254;   -0,350;    2,136
501,268;  -25,076;   -0,169;   -0,955
501,854;   -1,728;   -0,169;    1,227
502,439;  -10,785;   -0,624;   -1,773
503,024;    0,160;    0,195;    0,500
503,610;   19,641;   -0,078;   -0,682
504,195;  -15,314;    0,558;    1,955
504,780;   59,292;    2,922;    1,227
505,366;  134,740;    3,013;    2,864
505,951;   73,125;    0,740;    1,045
506,536;    7,693;   -3,260;   -3,682
507,121;   56,073;    0,285;   -0,318
507,706;   11,168;    2,376;    1,045
508,291;  -37,874;    2,649;    1,136
508,876;  -37,412;   -0,988;    2,591
509,461;    3,744;   -0,169;   -0,773
510,046;   43,406;    0,194;    0,318
510,631;   54,567;   -0,351;   -0,773
511,216;  -14,901;    2,467;   -0,500
511,801;   29,848;   -0,442;    2,591
512,386;   45,910;    0,740;    0,500
512,971;   55,126;   -2,988;    0,955
513,555;   91,072;   -0,897;   -1,500
514,140;   51,021;   -0,442;   -3,136
514,725;  156,120;   -0,715;   -1,136
515,309;   84,840;   -0,533;    0,318
515,894;    7,627;   -0,624;   -2,227
516,479;   42,184;   -0,624;   -0,955
517,063;   48,537;    0,376;    1,227
517,648;   26,905;    1,012;   -1,136
518,232;   10,815;   -0,261;   -1,409
518,817;  128,060;   -0,079;    1,682
519,401;  286,658;    2,194;    0,591
519,985;  287,193;    1,103;    1,136
520,570;  179,701;    0,830;   -1,955
521,154;  360,051;    2,102;    0,591
521,738;  653,540;   -2,352;    2,409
522,323;  530,407;   -0,170;    1,682
522,907;  614,960;    0,466;   -0,136
523,491;  610,782;    0,557;    0,955
524,075;  686,845;    2,284;    0,591
524,659; 1071,764;    1,466;    0,591
525,243; 1118,708;    1,739;    0,409
525,827; 1252,816;    0,648;   -0,045
526,411; 1590,855;   -1,989;   -0,136
526,995; 2057,564;   -0,352;    1,409
527,579; 2286,700;   -0,443;   -1,045
528,163; 2608,478;    0,375;   -1,500
528,747; 3095,108;    2,466;   -0,773
529,331; 3545,587;   -0,080;   -1,409
529,915; 3871,784;    1,738;    0,955
530,499; 4311,208;   -0,807;    1,227
531,082; 4584,971;   -0,534;    1,591
531,666; 4768,177;    1,374;    0,773
532,250; 5508,353;    1,284;    2,682
532,833; 6137,322;    0,920;    2,773
533,417; 6484,083;   -1,807;    0,864
534,001; 6807,046;    1,647;   -0,318
534,584; 7714,648;    0,374;    0,500
535,168; 7989,282;    0,465;    1,409
535,751; 8404,209;    0,647;    0,045
536,334; 8331,948;   -0,898;   -0,409
536,918; 9184,429;    0,011;    1,591
537,501; 9511,447;   -0,899;    1,318
538,085; 9839,001;   -0,444;    1,045
538,668;10225,245;    0,829;    2,409
539,251;10783,308;    1,829;    3,773
539,834;11135,030;    0,101;    0,773
540,418;11315,550;   -1,990;    4,318
541,001;11608,964;   -0,990;    1,773
541,584;11791,810;    2,101;    2,227
542,167;11746,404;    1,374;    2,955
542,750;12038,355;    1,919;   -0,773
543,333;11820,001;    0,555;    2,136
543,916;12707,187;    0,192;    2,500
544,499;13409,896;   -1,354;    0,227
545,082;13540,778;    1,374;    3,591
545,665;13779,617;    1,919;    1,500
546,248;14218,274;    1,010;   -0,318
546,830;14041,783;   -0,445;    1,955
547,413;14521,417;    1,010;   -0,773
547,996;15143,948;    0,555;    0,500
548,579;15006,393;    0,919;    0,955
549,161;14913,820;    1,828;    2,682
549,744;14798,174;   -0,809;    0,409
550,326;15376,267;   -0,809;   -1,136
550,909;15208,800;    2,737;    0,591
551,492;15671,896;   -0,263;    0,227
552,074;15559,295;   -0,173;   -1,318
552,657;16127,265;    2,373;    0,045
553,239;15955,180;   -0,173;   -0,773
553,821;15936,610;   -1,082;    1,045
554,404;15518,779;    1,282;    1,136
554,986;15887,066;    0,464;    1,045
555,568;16511,982;    1,191;   -0,955
556,151;15808,590;    1,191;   -0,227
556,733;16074,424;   -0,264;   -0,864
557,315;16588,554;    0,100;    0,500
557,897;16394,882;    0,554;   -0,500
558,479;16564,370;   -1,991;    1,318
559,061;16702,407;   -0,719;   -0,864
559,643;17042,086;   -0,264;    0,045
560,225;17391,773;    1,645;    2,864
560,807;17438,086;    0,918;    0,318
561,389;17011,154;    0,554;    2,318
561,971;17680,656;    0,463;    2,136
562,553;17561,712;   -1,628;    1,591
563,135;17751,102;   -0,537;    1,136
563,717;17375,980;    3,372;    1,136
564,298;18074,023;    3,645;   -0,045
564,880;17814,136;    0,645;   -1,409
565,462;17973,318;    0,645;    1,318
566,043;19114,762;   -0,446;    2,318
566,625;18662,216;    1,918;    1,227
567,207;18524,238;    1,099;    1,682
567,788;19589,153;   -1,264;    1,500
568,370;20381,153;    1,917;   -0,500
568,951;20200,222;    0,190;    0,227
569,533;21074,625;   -0,628;   -0,500
570,114;21487,804;   -0,446;    0,682
570,695;22006,034;   -0,174;   -1,318
571,277;22446,140;   -0,265;   -1,682
571,858;23170,067;    2,008;   -1,136
572,439;24061,930;    1,554;   -1,045
573,021;24201,208;    2,099;   -2,773
573,602;24672,828;   -1,265;    0,318
574,183;25577,086;   -2,083;    2,227
574,764;25699,325;   -1,629;    0,409
575,345;26195,975;    0,917;   -0,136
575,926;26827,307;   -0,356;    0,136
576,507;26807,736;    1,099;   -0,227
577,088;27951,887;    3,099;    1,682
577,669;27913,607;    0,735;    1,955
578,250;28638,177;    0,644;   -1,045
578,831;29244,916;   -1,356;   -2,227
579,412;29510,397;   -0,810;    0,955
579,993;30437,916;    1,008;    0,227
580,573;30803,948;   -0,629;   -0,955
581,154;29838,639;    0,735;   -0,591
581,735;30679,939;    0,644;    0,773
582,315;30162,393;   -0,629;    2,136
582,896;30490,325;   -0,174;    1,227
583,477;30023,900;    0,189;    1,227
584,057;30200,067;    0,553;    0,955
584,638;30482,007;    2,553;    2,318
585,218;30485,337;   -0,538;    2,682
585,799;30685,994;    0,281;   -0,227
586,379;30679,342;    0,372;    1,591
586,959;29481,330;    0,735;    0,318
587,540;28892,002;   -0,629;    2,227
588,120;28510,613;    1,007;   -0,045
588,700;27468,160;    2,553;    2,136
589,281;27761,432;    0,462;   -0,955
589,861;27765,379;    0,099;   -1,682
590,441;27560,707;    2,371;   -2,682
591,021;26577,733;   -0,265;   -2,591
591,601;26831,182;   -0,537;    0,500
592,181;26853,117;   -0,719;   -0,773
592,761;26200,714;    0,007;    1,409
593,341;26132,570;   -0,901;    0,045
593,921;26144,766;   -0,265;    1,591
594,501;26006,088;   -0,538;    1,318
595,081;25878,521;    0,917;   -0,318
595,661;26276,322;   -1,447;    0,955
596,240;26766,304;   -0,537;    0,136
596,820;26358,402;    0,372;    1,955
597,400;26582,804;    2,008;    0,773
597,980;26797,415;    2,008;    1,045
598,559;26854,527;    2,735;   -0,227
599,139;26600,353;   -0,174;   -1,227
599,718;26494,807;   -0,174;   -0,409
600,298;26748,649;    0,735;    0,682
600,877;26914,964;    2,917;    1,409
601,457;27209,335;    2,281;    1,136
602,036;27142,272;    0,190;    2,045
602,616;27366,323;    0,644;    1,682
603,195;27655,879;   -0,355;    3,500
603,774;27206,583;   -0,901;    2,045
604,354;27133,373;    0,826;   -0,500
604,933;26671,815;    0,463;    1,864
605,512;26772,255;    3,554;    0,591
606,091;26804,295;   -0,537;    3,773
606,671;27645,760;    0,281;    0,773
607,250;26759,763;    1,644;    3,136
607,829;26997,098;    2,372;    3,227
608,408;26918,352;    1,190;    2,591
608,987;25941,496;    1,281;    3,409
609,566;26248,414;   -1,265;   -2,500
610,145;26301,925;   -1,082;    0,682
610,723;26709,869;    4,372;    6,864
611,302;25954,576;   -0,446;    1,682
611,881;25533,313;    5,008;   11,227
612,460;26372,649;    1,645;    3,955
613,039;26777,019;   -0,082;    2,045
613,617;25576,406;    1,736;    4,773
614,196;25746,226;    1,099;    1,227
614,775;26105,713;    1,009;    2,409
615,353;26016,578;    0,736;    0,864
615,932;25803,096;    0,100;    2,409
616,510;26348,257;    0,554;    0,591
617,089;25849,342;    7,100;   17,591
617,667;25656,188;    2,372;    6,136
618,246;25550,113;   -1,537;    1,318
618,824;25737,724;   -3,355;   -0,955
619,402;25326,180;   -2,900;   -1,773
619,981;25779,800;   -0,173;   -1,045
620,559;25608,304;    0,009;    1,682
621,137;25197,553;   -0,718;    1,864
621,715;25216,134;   -1,173;   -0,682
622,293;25146,703;   -0,537;   -0,773
622,871;25583,554;   -0,718;    0,500
623,450;25167,344;    0,373;   -0,864
624,028;25071,333;    0,191;   -0,955
624,606;24712,350;   -1,718;    1,682
625,183;25127,211;   -1,536;   -1,136
625,761;24752,665;    1,009;    1,136
626,339;25061,417;    1,373;    2,591
626,917;25474,729;   -0,172;   -0,045
627,495;25473,218;   -0,354;    1,318
628,073;24878,867;   -0,263;    2,864
628,650;24629,048;    0,100;    2,136
629,228;25055,733;    0,373;    4,409
629,806;24449,505;    2,282;    1,136
630,383;24724,544;    1,464;   -0,318
630,961;24516,172;    2,555;   -0,955
631,539;24264,602;    2,464;    0,227
632,116;23618,717;   11,373;   15,409
632,694;24226,637;    2,555;    6,500
633,271;24511,810;    0,828;    2,682
633,848;24464,646;    1,828;    2,045
634,426;24487,403;   -1,081;    1,773
635,003;23611,419;    1,101;   -0,409
635,580;23900,596;    1,192;    3,682
636,158;24490,236;    3,737;    1,227
636,735;24438,750;    0,555;   -0,500
637,312;24577,530;   -0,809;   -0,682
637,889;24728,639;   -4,354;   -0,682
638,466;24212,861;   -3,990;   -0,409
639,043;24166,856;    2,101;   -1,136
639,620;24513,733;   -2,262;   -0,955
640,197;24839,281;    1,100;    1,682
640,774;24990,784;   -0,172;    1,136
641,351;25393,105;    0,737;    1,136
641,928;24816,971;   -0,627;    1,409
642,505;24475,474;    0,828;   -0,500
643,082;24608,704;   -1,718;    1,227
643,658;23678,298;   -0,718;    1,500
644,235;24365,983;    1,191;    2,500
644,812;24693,122;    1,918;    0,773
645,388;24373,716;   -0,991;    1,409
645,965;24489,491;   -0,809;    1,682
646,542;24587,903;   -1,445;   -0,227
647,118;24557,042;    1,009;   -0,955
647,695;24866,182;   -0,263;    1,136
648,271;24758,048;   -0,536;    0,500
648,848;25056,187;    0,736;    2,227
649,424;24867,963;    0,827;    1,318
650,000;24616,011;   -0,354;   -1,045
650,577;24497,787;   -0,627;   -0,955
651,153;24954,290;   -1,809;    0,955
651,729;25928,247;    1,191;    0,864
652,305;26028,386;    0,645;    2,773
652,881;30085,526;   -0,082;    1,136
653,458;36626,028;    1,100;    0,227
654,034;40497,168;    0,282;    1,591
654,610;42065,125;    0,554;    0,773
655,186;43344,628;    0,645;    3,045
655,762;43058,858;   -0,991;    0,409
656,338;43078,725;    0,100;    0,136
656,913;44065,591;   -0,082;    0,409
657,489;43356,458;    0,827;   -0,318
658,065;43332,415;   -0,173;   -1,591
658,641;44016,554;   -0,900;   -0,864
659,217;43319,148;   -0,991;    0,409
659,792;42716,196;    0,645;   -0,409
660,368;43041,972;   -2,173;   -0,682
660,944;42764,020;   -2,082;    1,227
661,519;38551,432;   -0,628;    0,409
662,095;32833,026;   -1,719;    0,591
662,670;28259,256;    1,281;   -0,136
663,246;26995,668;    1,009;   -0,409
663,821;26262,353;    0,281;    1,682
664,396;25765,946;    0,009;    1,864
664,972;26056,813;    0,009;   -0,500
665,547;26324,134;    1,372;    0,136
666,122;26316,546;   -1,082;    0,318
666,698;26602,049;   -0,173;    0,318
667,273;25992,188;   -0,173;    0,136
667,848;26763,964;    2,372;    1,500
668,423;26529,830;    2,190;    2,318
668,998;27117,788;    2,827;   -0,682
669,573;27594,927;   -3,264;   -1,500
670,148;27464,339;   -1,446;   -0,682
670,723;27285,114;   -1,810;    0,318
671,298;27687,890;    2,372;    1,045
671,873;27775,666;   -0,082;   -0,136
672,448;27770,532;    0,645;    0,136
673,023;28102,399;   -1,992;   -0,227
673,597;28380,901;    0,827;    2,318
674,172;28186,404;   -0,355;    0,318
674,747;27704,816;    0,372;   -1,045
675,321;27582,774;   -0,628;    3,318
675,896;27112,822;    0,645;    1,045
676,471;28133,870;    2,645;    1,591
677,045;27901,282;   -1,264;    0,682
677,620;27953,603;    0,190;    1,136
678,194;28250,924;   -2,628;    1,136
678,769;27767,700;   -1,083;   -0,318
679,343;28019,203;   -0,628;    1,773
679,917;27920,524;   -1,446;    1,955
680,492;28062,754;    0,826;    3,227
681,066;28138,620;    3,372;    0,409
681,640;28177,214;    1,463;   -0,318
682,214;28954,717;    0,735;    0,500
682,788;28505,311;   -1,356;   -0,773
683,363;28458,632;   -1,810;    1,682
683,937;28135,498;   -1,719;   -0,318
684,511;28919,274;    0,463;   -0,591
685,085;28661,868;   -1,356;    0,318
685,659;28388,280;   -2,538;    0,864
686,232;28686,237;   -0,356;   -0,318
686,806;28385,831;   -0,901;    0,409
687,380;29058,879;   -0,174;    0,591
687,954;29287,382;   -1,174;    1,136
688,528;28908,339;   -0,719;    1,955
689,101;29685,206;   -3,992;    1,045
689,675;29320,709;   -0,356;   -0,136
690,249;28707,030;   -0,719;    0,409
690,822;28980,442;    0,280;    0,318
691,396;29071,217;   -0,265;    1,227
691,969;28507,084;    1,280;    0,136
692,543;28988,678;   -0,447;   -1,955
693,116;28691,181;   -0,265;   -1,409
693,690;28578,502;    0,099;    0,500
694,263;29060,914;   -1,083;    2,955
694,836;29045,598;    1,371;    3,591
695,410;27744,010;   -0,265;    1,773
695,983;28218,331;    0,189;    0,591
696,556;28242,470;   -0,447;   -1,045
697,129;28613,701;   -0,356;    1,409
697,703;28205,022;   -1,629;    1,955
698,276;28262,524;    1,462;   -0,773
698,849;28083,846;    1,280;    1,409
699,422;28429,803;   -1,083;    0,591
699,995;28175,488;    0,007;    0,136
700,568;28653,354;   -0,629;    3,045
701,140;28671,221;   -2,811;    1,682
701,713;28390,905;   -0,174;    2,409
702,286;28101,681;   -0,538;    0,864
702,859;28046,820;   -0,902;   -0,591
703,432;27204,505;    0,825;    0,682
704,004;27653,280;    0,462;    0,318
704,577;27515,329;   -0,629;    0,136
705,150;28112,195;    0,189;    2,500
705,722;27926,607;   -0,356;   -3,227
706,295;27695,474;   -0,175;   -0,591
706,867;27557,886;   -0,175;    1,955
707,440;27745,934;   -1,720;   -0,409
708,012;27977,619;    0,462;    0,591
708,584;27943,303;    2,462;    0,227
709,157;28204,624;    1,825;   -0,591
709,729;27847,945;    2,280;    2,045
710,301;28727,448;    0,734;    0,045
710,874;28735,406;   -1,447;   -0,227
711,446;27634,727;    0,371;    0,864
712,018;27518,320;    0,098;    0,500
712,590;27246,005;   -1,993;    1,682
713,162;27730,599;    0,825;    1,318
713,734;27987,920;    1,825;   -2,045
714,306;27919,150;   -1,902;   -0,409
714,878;26690,562;    0,825;    0,864
715,450;27462,701;    0,643;    0,864
716,022;27718,022;    1,552;    1,318
716,593;27892,343;    0,189;    0,591
717,165;27814,301;   -3,175;   -1,227
717,737;27472,531;    0,280;    0,409
718,309;27145,216;    0,280;   -0,045
718,880;27118,264;   -0,539;   -1,409
719,452;27391,494;   -0,175;   -1,591
720,024;26969,724;    0,734;   -0,591
720,595;27523,773;   -2,902;    0,955
721,167;27064,639;    0,370;   -2,045
721,738;26580,506;   -0,812;   -1,045
722,309;26524,008;   -0,993;   -1,227
722,881;26368,239;   -1,357;    0,773
723,452;26992,378;   -2,630;    2,864
724,023;27147,335;   -0,721;    2,682
724,595;26929,293;    0,007;    0,682
725,166;26716,159;    0,007;   -0,409
725,737;26299,026;    1,734;    0,227
726,308;26397,074;   -0,266;    0,318
726,879;26866,759;   -1,630;    1,227
727,450;26692,716;    0,552;   -0,045
728,021;26660,037;    3,097;    0,682
728,592;26462,176;    0,734;    0,500
729,163;26788,588;    0,643;   -0,136
729,734;26799,455;    0,188;   -0,227
730,305;27130,048;    1,734;    0,136
730,876;27491,460;    0,188;    2,955
731,447;27176,418;    2,188;    2,682
732,017;27339,284;    1,097;    1,864
732,588;26810,242;    0,734;    1,227
733,159;26945,654;    0,643;   -1,045
733,729;26770,066;    0,006;    0,409
734,300;26077,750;    0,915;    0,864
734,870;26516,526;    3,461;    0,591
735,441;27083,120;    0,370;   -0,591
736,011;26837,986;    0,643;   -1,591
736,582;26807,580;   -0,812;    0,045
737,152;26274,356;   -1,721;   -2,045
737,722;26686,495;   -0,267;   -0,682
738,293;26463,543;   -1,358;    1,318
738,863;26366,046;    2,461;    2,318
739,433;26115,367;    5,279;    0,318
740,003;26722,688;   -0,994;   -0,682
740,573;26104,100;    2,097;   -1,591
741,143;26126,966;   -1,085;    0,318
741,713;26848,651;    1,188;   -0,500
742,283;26548,972;    0,915;    1,591
742,853;26299,930;    1,915;    1,591
743,423;25849,614;    1,733;    0,045
743,993;25976,026;   -0,358;    1,500
744,563;25308,256;    0,097;   -0,864
745,133;25311,668;   -0,812;   -0,864
745,702;25997,989;   -0,267;    1,773
746,272;25170,492;   -0,176;    0,591
746,842;24968,177;   -1,358;   -0,591
747,411;25396,043;   -0,267;   -0,318
747,981;25594,819;    0,097;    0,500
748,551;25635,322;    2,278;   -1,045
749,120;25455,734;    0,642;   -0,227
749,690;25861,964;   -0,631;    2,409
750,259;26181,558;    1,369;    2,955
750,828;26084,606;    1,551;   -1,955
751,398;26373,018;    1,278;   -0,045
751,967;25878,248;    2,187;    0,409
752,536;26089,569;   -0,813;   -0,227
753,105;26475,799;    0,096;    0,227
753,675;26322,575;    0,096;    1,773
754,244;26236,260;   -0,904;    3,591
754,813;26321,126;    0,551;    1,227
755,382;25922,811;    0,460;    0,955
755,951;26448,223;    1,551;    3,682
756,520;25966,907;   -0,085;    1,864
757,089;26553,865;    0,278;    0,500
757,658;26663,550;    1,733;    1,227
758,227;26659,325;    1,096;    0,318
758,795;26951,646;    1,187;    1,136
759,364;27197,513;   -0,086;   -0,591
759,933;26189,470;   -1,176;   -0,045
760,501;25720,246;    0,733;   -1,318
761,070;26231,021;   -2,813;   -1,409
761,639;26916,888;   -1,904;    1,318
762,207;26194,300;    1,551;   -0,955
762,776;26112,712;    0,369;    0,864
763,344;26115,942;   -0,995;    0,591
763,913;25275,081;   -0,722;    1,409
764,481;25985,402;    1,005;   -0,136
765,049;25782,632;   -1,358;    1,409
765,618;25709,226;   -0,086;    0,318
766,186;25821,547;    0,278;    0,136
766,754;26003,777;    0,005;    1,864
767,322;24991,098;   -1,995;    0,409
767,890;24983,056;   -0,722;   -1,773
768,459;25335,013;   -2,177;   -0,318
769,027;25546,789;    1,641;    3,409
769,595;24547,655;    3,278;    2,591
770,163;24980,158;    3,823;    2,955
770,730;24785,297;    0,732;   -0,136
771,298;24647,527;    0,187;   -1,409
771,866;24674,121;   -1,541;    4,955
772,434;25038,715;   -0,631;   -1,864
773,002;25177,945;    0,005;    0,682
773,569;24818,630;    0,914;    1,682
774,137;24624,133;   -0,268;   -0,045
774,705;25426,635;    0,278;   -0,136
775,272;24952,138;    0,641;    0,682
775,840;24711,368;   -0,177;    2,682
776,407;24263,235;    0,277;    1,955
776,975;23917,920;   -0,632;    0,318
777,542;24896,604;   -1,086;   -0,045
778,110;24731,289;   -1,268;   -0,045
778,677;24445,065;   -2,359;   -0,864
779,244;24135,749;    2,186;    1,045
779,812;24254,798;    1,823;    0,864
780,379;24158,755;    0,005;    1,136
780,946;24395,076;    1,005;   -0,773
781,513;24695,761;   -1,450;    0,318
782,080;24034,354;   -0,086;    2,864
782,647;24777,857;   -0,268;    3,045
783,214;24402,269;   -0,177;    3,864
783,781;24000,408;   -0,723;   -0,682
784,348;23878,730;   -0,632;    1,500
784,915;24331,778;   -3,177;    0,318
785,482;24075,372;    1,368;    2,591
786,049;24521,784;    0,186;   -0,591
786,615;24673,559;    0,277;   -0,955
787,182;24421,971;    0,186;   -0,682
787,749;24094,747;   -2,814;    1,409
788,315;23434,977;   -1,632;   -0,409
788,882;23713,389;    1,550;   -1,227
789,448;24384,619;    1,732;   -0,955
790,015;24427,304;    1,095;    3,227
790,581;23959,897;    1,459;    0,227
791,148;23883,764;    0,641;    1,045
791,714;24163,721;   -0,541;    3,136
792,280;23846,133;    0,186;    1,591
792,847;23336,545;    0,550;    2,500
793,413;23949,775;   -0,269;   -0,318
793,979;23438,278;    3,459;   -1,318
794,545;23521,236;    4,459;    2,682
795,111;22936,648;    2,186;    1,318
795,678;23130,423;    0,731;   -1,682
796,244;22776,926;    3,368;    0,136
796,810;23360,883;    1,731;    0,773
797,375;23105,204;    0,549;   -2,136
797,941;23079,526;   -0,541;    0,591
798,507;23237,847;   -0,451;   -0,955
799,073;22809,986;   -0,360;    0,591
799,639;22856,852;   -2,632;    3,136
800,205;22901,082;    0,095;    2,682
800,770;22432,403;    0,640;    1,773
801,336;22538,725;    1,368;   -0,955
801,901;22231,682;    4,549;    3,136
802,467;22826,912;   -0,542;    2,045
803,033;22171,597;   -0,087;    0,864
803,598;22373,645;    1,913;   -1,045
804,163;22417,693;    1,095;   -0,318
804,729;22324,742;   -0,178;    1,136
805,294;22740,790;    0,822;    2,227
805,859;22545,384;    0,731;   -0,409
806,425;22008,068;    1,186;    2,682
806,990;21707,026;    2,186;    4,318
807,555;22153,983;   -1,451;    2,591
808,120;21999,941;    0,822;   -0,409
808,685;22103,989;    0,185;   -2,500
809,250;21646,674;    0,004;   -0,500
809,815;21913,358;    1,913;    0,682
810,380;22476,679;   -0,269;    1,591
810,945;22988,091;   -1,087;    2,045
811,510;22153,594;    2,094;    1,591
812,075;21872,915;   -0,633;   -1,409
812,640;21937,873;    2,003;    1,409
813,204;21990,285;    0,822;   -0,227
813,769;22400,969;    2,094;   -0,045
814,334;21823,199;    0,458;    0,864
814,898;21953,611;    0,367;    0,591
815,463;21789,023;    1,276;   -0,773
816,027;21761,254;   -0,724;   -2,318
816,592;21866,484;    0,640;   -2,045
817,156;21358,987;    2,094;    1,136
817,721;21232,580;    4,276;    2,318
818,285;21164,992;    2,912;    1,500
818,849;21795,950;   -1,451;    1,682
819,414;21760,089;   -0,269;    2,955
819,978;21363,683;   -1,269;    1,773
820,542;21904,367;    2,003;    0,500
821,106;21633,507;   -0,815;    0,682
821,670;21673,555;   -0,815;    2,591
822,234;21425,149;   -0,270;    1,409
822,798;20826,652;    0,003;    0,500
823,362;20780,791;   -0,633;    4,227
823,926;20084,112;    0,094;    1,136
824,490;20302,978;   -0,997;   -0,682
825,054;20755,754;   -0,088;   -1,136
825,618;20369,348;   -1,542;   -1,500
826,181;20284,214;    0,458;   -1,318
826,745;20225,081;    1,367;   -1,045
827,309;20593,947;    1,185;    1,318
827,872;19978,086;    1,367;    0,955
828,436;21015,680;    1,185;   -0,773
828,999;21020,092;   -0,997;    1,227
829,563;19874,595;   -0,179;    1,136
830,126;19693,189;   -0,179;   -0,591
830,690;19643,146;   -1,997;    2,864
831,253;19196,831;   -0,543;    2,227
831,816;19339,606;   -1,906;    0,500
832,380;19281,382;    0,185;    0,864
832,943;19441,158;   -1,361;   -0,500
833,506;18913,479;    2,639;   -1,227
834,069;19716,800;    3,912;   -0,955
834,632;19798,303;    1,730;    1,318
835,195;19740,351;    1,003;    0,955
835,758;18980,126;   -0,997;    1,955
836,321;18776,629;    0,730;   -1,045
836,884;18859,587;   -0,725;   -0,955
837,447;18939,999;   -2,816;    1,773
838,010;19183,774;    0,366;    3,227
838,573;19467,277;   -1,179;    0,773
839,135;19406,235;   -1,361;   -0,955
839,698;18905,737;    1,275;    0,409
840,261;18413,877;    1,003;   -0,227
840,823;18280,470;   -0,543;    0,864
841,386;18582,791;   -0,452;   -2,409
841,948;18451,112;   -1,361;    1,773
842,511;18209,615;    0,912;    1,682
843,073;18282,755;    1,912;    0,227
843,636;18143,257;   -0,361;   -0,227
844,198;18029,942;    0,911;    0,591
844,760;18149,354;    1,093;    1,955
845,322;17825,039;    0,548;    1,136
845,885;18237,542;    0,730;    0,591
846,447;18735,772;   -1,998;    0,227
847,009;18274,547;    1,911;   -0,682
847,571;18578,141;    0,820;   -2,045
848,133;18702,008;   -1,089;   -1,864
848,695;18548,510;   -0,543;    1,409
849,257;18085,468;   -1,089;   -1,682
849,819;18238,607;   -0,998;   -0,409
850,381;18294,383;   -0,725;   -0,864
850,942;18650,795;    1,093;   -0,591
851,504;18605,934;    1,184;    0,227
852,066;18574,891;    1,275;   -1,591
852,628;18136,485;   -0,180;    1,955
853,189;17730,352;    1,638;    2,682
853,751;17866,945;   -0,907;    1,409
854,312;17652,994;   -0,453;   -1,682
854,874;18176,951;   -2,089;   -0,773
855,435;18681,908;   -0,907;   -1,682
855,997;18837,320;   -1,816;   -0,136
856,558;18124,005;    0,366;    1,773
857,119;18251,599;    0,820;    2,864
857,681;17935,647;    0,002;    0,318
858,242;17950,514;    1,911;   -2,136
858,803;18413,107;    0,456;   -0,773
859,364;18970,792;    0,184;   -4,773
859,925;18293,204;   -2,453;   -0,955
860,486;18187,343;   -0,453;   -0,955
861,047;17932,483;   -0,544;   -1,227
861,608;17748,804;   -1,089;   -0,773
862,169;17883,216;    0,638;   -0,045
862,730;17649,173;    0,456;    1,409
863,291;17896,767;   -0,635;   -0,500
863,852;18243,906;   -0,635;    1,955
864,412;17717,591;   -0,271;   -0,864
864,973;16357,639;   -0,089;    0,500
865,534;16199,596;   -1,726;    0,227
866,094;17650,372;    1,820;    0,227
866,655;17363,966;    1,274;    3,318
867,215;17611,378;    0,274;    0,136
867,776;17471,881;    0,547;   -0,136
868,336;17567,656;   -1,453;    0,136
868,897;17044,068;    2,638;    1,682
869,457;16772,026;    1,365;    0,318
870,017;16997,619;    0,547;   -1,227
870,578;17524,395;   -0,817;    0,773
871,138;17198,989;   -2,089;   -0,955
871,698;16802,219;   -0,817;   -1,318
872,258;16648,540;   -0,453;   -2,864
872,818;16994,588;    2,729;    0,045
873,378;16960,364;    0,638;    1,045
873,938;16538,321;    0,547;    0,500
874,498;16852,551;    0,274;   -1,955
875,058;16779,509;    2,183;    1,773
875,618;16608,557;    1,910;   -2,682
876,177;16536,787;    1,274;    0,136
876,737;16156,290;   -0,090;    1,955
877,297;16133,975;    0,183;    1,955
877,856;16143,750;   -0,362;    0,318
878,416;16106,071;    1,183;   -0,136
878,976;16354,392;   -1,817;    0,409
879,535;16520,532;    0,092;    3,136
880,095;16231,216;   -0,544;    0,045
880,654;16334,810;   -1,090;    1,318
881,213;16403,586;    2,456;    1,500
881,773;16117,634;    2,637;    2,682
882,332;16455,228;    3,365;    5,136
882,891;16303,640;    3,092;    2,136
883,451;16760,870;   -1,272;    1,682
884,010;16220,282;   -2,908;   -0,409
884,569;16297,057;   -0,999;   -0,045
885,128;16401,378;    2,819;   -1,864
885,687;16471,154;    4,455;    0,682
886,246;16180,111;    1,455;    2,136
886,805;15983,432;    2,455;    2,045
887,364;16271,572;   -0,999;   -0,500
887,922;16616,620;   -1,181;    0,045
888,481;16135,668;   -1,545;    0,591
889,040;16455,808;    1,183;    2,136
889,599;17089,038;    2,455;    1,409
890,157;17154,177;    1,455;    2,409
890,716;16813,862;   -0,090;    0,227
891,274;16618,546;    0,092;   -1,136
891,833;17079,049;    1,546;    0,864
892,391;16951,007;   -0,454;    0,500
892,950;17027,237;    1,819;   -0,773
893,508;17421,921;    0,455;   -0,409
894,067;16790,788;    0,637;    0,136
894,625;16691,382;   -0,636;   -1,500
895,183;16905,975;   -0,363;   -0,682
895,741;16782,296;    1,728;   -1,773
896,299;16611,799;   -0,545;   -2,409
896,858;16795,939;    0,819;   -1,591
897,416;16931,169;    2,728;   -1,318
897,974;16718,399;    1,819;    0,318
898,532;16832,720;    6,091;    2,682
899,089;16721,495;    2,091;   -0,682
899,647;16762,362;   -1,454;    1,318
900,205;16505,501;    1,182;    1,045
900,763;16734,822;   -0,454;    0,227
901,321;16720,143;    2,364;   -1,409
901,878;16149,828;   -1,000;   -0,773
902,436;16041,149;   -1,363;    1,318
902,994;16398,834;    4,728;    3,682
903,551;15869,882;    0,728;    0,409
904,109;16250,021;    0,182;   -1,409
904,666;15815,070;    2,455;    1,045
905,224;15671,572;    0,182;   -0,409
905,781;15414,530;    0,727;   -0,318
906,338;15505,578;   -1,363;    1,045
906,895;15459,081;    0,637;    2,045
907,453;15361,129;    1,727;    1,136
908,010;15382,087;   -0,909;    0,409
908,567;15065,135;    1,273;    0,591
909,124;14599,638;    0,364;   -1,500
909,681;14664,777;   -2,909;    0,682
910,238;14783,553;    0,636;   -1,318
910,795;15118,692;   -0,273;   -1,136
911,352;14735,419;   -2,909;   -2,682
911,909;14156,601;   -1,364;   -0,864
912,466;14647,237;   -3,182;    1,500
913,022;14238,419;   -1,636;    0,500
913,579;14576,692;   -0,909;    2,045
914,136;14250,510;    1,636;    0,955
914,692;14613,056;    0,091;   -1,227
915,249;14196,874;    1,455;    0,409
915,806;14414,510;    0,182;    1,955
916,362;14129,328;    1,909;    1,864
916,918;13722,692;    2,000;    1,045
917,475;13715,601;   -1,182;    0,955
918,031;13773,419;    3,364;   -0,045
918,587;13237,874;   -0,909;   -0,318
919,144;13494,692;   -2,273;    0,227
919,700;13780,783;    1,727;    0,773
920,256;13374,419;    0,727;    0,045
920,812;13014,328;   -0,727;   -1,045
921,368;12998,146;   -1,727;   -1,045
921,924;12614,510;    0,182;   -0,136
922,480;12227,965;   -0,545;    1,227
923,036;12853,056;    1,273;    1,955
923,592;12785,601;    0,455;    0,318
924,148;12659,237;    0,455;   -0,955
924,704;11973,692;   -1,364;   -0,409
925,259;12294,692;   -0,273;    0,591
925,815;12041,965;    1,455;    0,500
926,371;11586,237;    2,909;    1,409
926,926;11487,965;    2,091;    0,591
927,482;11098,510;   -1,364;    0,773
928,037;10995,419;    0,909;    2,045
928,593;11255,601;    1,636;    1,045
929,148;11082,601;   -1,818;   -1,500
929,704;10560,874;   -1,455;   -0,500
930,259;10805,692;    0,091;   -0,136
930,814; 9896,146;   -0,818;    1,955
931,369; 9582,237;    1,091;   -0,773
931,925; 9459,056;   -0,091;    0,136
932,480; 9382,874;   -2,818;   -2,591
933,035; 9254,874;    0,545;   -0,318
933,590; 9033,692;    0,364;   -1,773
934,145; 8690,510;   -1,364;   -0,318
934,700; 9014,783;    0,455;   -0,591
935,255; 8840,783;   -0,091;    0,045
935,809; 8127,874;    3,182;    0,864
936,364; 7263,419;   -0,455;   -0,136
936,919; 7246,874;    0,455;   -1,773
937,474; 7155,419;    1,455;    0,136
938,028; 6919,692;   -1,636;    1,136
938,583; 6414,692;    1,818;    4,682
939,138; 6690,783;    2,091;    2,136
939,692; 6148,692;    1,636;   -1,136
940,247; 5865,146;   -0,727;   -1,045
940,801; 5391,783;   -0,636;    0,227
941,355; 5287,510;   -0,364;    2,591
941,910; 4950,874;   -0,273;   -2,136
942,464; 5064,965;   -0,818;   -0,318
943,018; 4846,692;    1,000;   -0,227
943,572; 4798,510;    2,545;   -0,682
944,126; 4240,146;    0,091;   -0,409
944,681; 4131,419;    3,091;    0,227
945,235; 4100,965;    1,000;   -0,591
945,789; 4050,056;    0,364;   -1,864
946,342; 4144,328;    0,455;   -0,591
946,896; 3961,419;   -2,273;    0,955
947,450; 3705,328;    1,545;   -0,227
948,004; 3889,237;    1,727;   -0,045
948,558; 3916,510;    0,273;   -0,864
949,111; 3848,965;   -0,273;   -0,318
949,665; 3857,146;    1,636;   -0,682
950,219; 3736,056;   -0,091;   -1,045
950,772; 3834,874;   -1,909;    1,864
951,326; 3734,237;    0,545;   -0,955
951,879; 3840,874;    0,727;   -2,318
952,433; 3838,146;    0,000;    2,227
952,986; 3681,783;    2,909;    0,682
953,539; 3645,783;   -0,273;    0,591
954,093; 3585,328;    0,545;   -1,318
954,646; 3700,874;    0,909;    1,318
955,199; 3522,510;    0,000;   -0,500
955,752; 3406,601;   -0,455;    1,773
956,305; 3387,237;   -0,091;    2,955
956,858; 3543,237;    0,818;   -0,318
957,411; 3707,419;   -0,545;    2,136
957,964; 3532,965;    1,364;    2,136
958,517; 3523,692;   -1,545;    3,136
959,070; 3359,510;   -0,455;    1,955
959,623; 3436,601;    1,091;    1,500
960,176; 3209,419;    1,727;    2,045
960,728; 3192,601;   -2,727;    0,773
961,281; 3236,510;    0,545;    0,500
961,834; 3269,510;   -0,909;    0,864
962,386; 3217,419;    1,727;    1,045
962,939; 3132,328;    0,364;   -0,318
963,491; 3273,783;    0,455;    1,136
964,043; 3150,874;    1,182;    2,409
964,596; 3268,237;   -1,000;    2,227
965,148; 3114,965;   -1,000;    1,773
965,700; 3052,510;    1,091;   -0,227
966,253; 3174,783;   -0,636;    0,318
966,805; 3031,874;   -2,273;    0,773
967,357; 3073,056;    1,091;   -1,500
967,909; 3034,419;    0,455;   -1,227
968,461; 3148,328;    0,545;    3,136
969,013; 3092,146;   -0,182;   -0,864
969,565; 3148,328;   -0,455;   -1,136
970,117; 3215,146;   -0,364;    1,045
970,669; 3051,783;    0,182;   -0,136
971,220; 2922,692;   -0,455;   -1,500
971,772; 2859,783;   -0,636;   -0,318
972,324; 2967,237;    0,091;   -0,500
972,876; 2922,328;    0,818;   -0,045
973,427; 3057,783;    1,909;   -1,045
973,979; 3003,874;   -0,727;   -2,500
974,530; 3044,419;    1,818;    1,318
975,082; 3046,510;   -0,545;    1,682
975,633; 2942,328;    1,091;    1,682
976,184; 3101,874;    0,909;    0,773
976,736; 2903,146;    0,091;    0,227
977,287; 2686,874;   -0,909;   -0,500
977,838; 2882,328;    0,909;   -0,318
978,389; 2932,874;   -1,000;   -0,500
978,940; 2806,783;    0,545;   -0,409
979,491; 2842,510;    0,091;   -0,500
980,042; 2824,146;    0,182;    3,045
980,593; 2861,056;   -2,545;    0,227
981,144; 2897,510;    2,545;   -0,500
981,695; 2880,056;    1,455;    1,500
982,246; 2842,783;   -0,273;    1,045
982,797; 2991,510;   -1,727;    0,682
983,347; 3085,783;    0,364;    0,591
983,898; 3246,419;    3,091;    0,409
984,449; 3074,965;    2,182;    0,773
984,999; 3000,328;    1,455;   -1,136
985,550; 2786,874;    0,182;   -0,318
986,100; 2806,146;   -0,455;   -0,318
986,651; 2847,601;   -0,818;    0,045
987,201; 2822,965;   -1,000;   -0,591
987,751; 2903,237;    0,818;    2,864
988,302; 2894,965;    2,636;    1,500
988,852; 2918,056;    0,455;   -1,136
989,402; 2948,510;    0,091;    0,682
989,952; 2865,328;   -2,182;    0,864
990,502; 2978,510;   -0,091;    0,682
991,052; 2931,237;   -0,727;    0,045
991,602; 2827,965;   -2,909;    1,318
992,152; 2812,783;    0,455;    0,682
992,702; 2805,237;    1,364;   -0,045
993,252; 2710,328;   -3,000;   -0,500
993,802; 2799,965;   -0,273;    1,318
994,352; 3027,146;   -1,545;    1,136
994,901; 3117,146;   -0,182;    3,227
995,451; 3024,056;   -0,182;    0,318
996,000; 3119,510;    1,636;    0,318
996,550; 2841,328;    2,273;    0,227
997,100; 2841,419;    1,273;   -0,045
997,649; 3128,237;    2,182;    0,955
998,198; 2788,510;    1,727;   -1,500
998,748; 2954,692;    1,091;   -2,318
999,297; 2871,601;   -0,818;   -0,409
999,846; 2931,419;    1,000;   -0,773
1000,395; 2987,510;   -0,818;    0,500
1000,945; 2930,601;    1,818;   -0,773
1001,494; 3004,146;    2,364;    0,682
1002,043; 2994,328;    4,636;    0,864
1002,592; 2853,237;   -1,091;    1,955
1003,141; 2989,965;   -0,455;   -0,682
1003,690; 2840,146;    1,727;    0,500
1004,238; 2918,510;    1,455;   -0,045
1004,787; 2588,601;    1,364;    1,227
1005,336; 2822,783;    0,364;    0,682
1005,885; 2943,237;    1,364;   -2,773
1006,433; 3091,237;    0,545;    0,955
1006,982; 3137,692;    0,455;    1,682
1007,531; 3060,146;   -1,818;   -0,227
1008,079; 3019,783;   -2,273;    0,500
1008,627; 3149,056;   -1,455;    0,409
1009,176; 2895,601;    0,000;   -1,955
1009,724; 2937,874;    1,091;    0,864
1010,273; 2976,874;    1,273;    0,500
1010,821; 3082,328;    0,091;    1,409
1011,369; 2856,692;   -1,364;    1,318
1011,917; 2819,874;   -1,364;   -0,591
1012,465; 3109,146;    1,273;   -1,591
1013,013; 3209,965;    2,091;   -1,682
1013,561; 3089,056;    0,455;   -0,773
1014,109; 3134,874;   -1,909;    1,682
1014,657; 3028,692;    0,364;    0,591
1015,205; 3158,146;    1,636;   -0,955
1015,753; 3178,965;   -0,545;   -1,409
1016,301; 3198,783;   -2,636;    3,045
1016,848; 3216,692;   -1,273;    0,409
1017,396; 3236,601;    2,545;    0,045
1017,944; 3378,328;    1,182;    1,864
1018,491; 3141,419;    0,273;    1,409
1019,039; 3287,328;    0,455;    0,591
1019,586; 3210,237;   -1,364;    1,682
1020,134; 3313,146;    0,455;    1,500
1020,681; 3324,056;    0,182;   -1,136
1021,228; 3337,510;    2,909;   -2,227
1021,776; 3176,146;    1,182;   -1,136
1022,323; 3389,965;    0,455;    0,773
1022,870; 3328,510;   -1,000;   -0,045
1023,417; 3217,965;    2,636;    1,864
1023,964; 3353,965;    2,636;    1,227
1024,511; 3200,965;    1,000;    0,773
1025,058; 2997,874;    3,182;   -0,045
1025,605; 3048,601;   -2,273;    3,136
1026,152; 3271,783;    1,727;   -0,591
1026,699; 2998,692;    1,818;    1,318
1027,245; 3158,783;   -0,091;    0,318
1027,792; 3390,601;   -1,000;    1,409
1028,339; 3272,146;    2,364;   -0,045
1028,885; 3119,874;    1,000;   -0,227
1029,432; 3067,965;   -0,091;    0,227
1029,978; 3121,783;   -1,000;   -1,591
1030,525; 3044,146;    1,000;    0,409
1031,071; 3276,692;   -1,364;    1,136
1031,618; 3370,510;    0,364;    1,682
1032,164; 3160,874;   -0,091;    3,045
1032,710; 3201,783;    1,636;   -1,500
1033,256; 3140,692;   -0,636;   -0,136
1033,803; 3138,146;   -0,545;    1,500
1034,349; 2861,510;   -1,364;    0,136
1034,895; 2990,328;    0,000;   -0,318
1035,441; 2975,874;   -0,818;    0,318
1035,987; 2968,510;   -2,364;   -0,682
1036,533; 2969,328;   -1,455;   -0,955
1037,078; 3170,692;    1,455;    1,682
1037,624; 3005,510;    2,455;   -0,955
1038,170; 3015,601;    0,455;   -0,318
1038,716; 2918,965;    1,636;   -0,409
1039,261; 2835,328;   -2,273;   -0,773
1039,807; 2787,056;   -0,091;    3,409
1040,352; 2847,783;   -1,909;   -0,318
1040,898; 2906,783;   -1,545;   -0,682
1041,443; 2819,601;   -1,455;   -2,591
1041,989; 2844,328;    1,091;    1,591
1042,534; 2730,601;   -0,364;    2,591
1043,079; 2824,965;    2,909;    0,955
1043,625; 2616,328;    1,818;    0,500
1044,170; 2665,965;   -1,364;    1,045
1044,715; 2915,874;    2,455;    0,955
1045,260; 2732,237;    2,182;   -0,955
1045,805; 2803,146;    1,182;   -0,591
1046,350; 2715,419;    1,364;   -0,409
1046,895; 2662,419;    2,909;    1,591
1047,440; 2624,601;    5,364;    0,409
1047,985; 2535,783;    2,818;   -0,955
1048,530; 2457,510;    1,545;    1,227
1049,074; 2529,510;    0,000;    0,318
1049,619; 2494,510;   -1,364;    1,955
1050,164; 2309,783;    0,455;    0,227
1050,708; 2353,874;   -0,455;    0,045
1051,253; 2708,056;    1,273;   -2,227
1051,797; 2419,237;    0,818;   -1,318
1052,342; 2445,328;   -1,182;    1,045
1052,886; 2429,237;    0,364;   -1,409
1053,430; 2313,510;   -1,364;    0,136
1053,975; 2319,965;   -0,818;   -0,318
1054,519; 2291,056;   -0,727;    3,227
1055,063; 2317,146;    0,909;    1,318
1055,607; 2212,783;   -0,182;    0,227
1056,151; 2222,146;    2,909;    1,682
1056,695; 2133,601;    2,273;   -1,136
1057,239; 2211,419;   -1,727;   -0,682
1057,783; 2228,601;    0,818;   -1,500
1058,327; 2150,692;    0,000;    1,409
1058,871; 2382,965;   -0,545;    1,318
1059,415; 2104,419;   -0,818;   -0,045
1059,958; 2355,601;    1,455;    2,591
1060,502; 2083,056;   -1,000;   -0,773
1061,046; 1997,965;    0,364;   -0,955
1061,589; 1989,874;   -3,000;   -1,136
1062,133; 1864,965;   -1,273;    1,864
1062,676; 1806,510;    1,182;    0,864
1063,220; 1800,601;    1,091;    0,500
1063,763; 1821,237;    0,909;    1,136
1064,306; 1896,056;   -0,909;    1,864
1064,849; 1785,237;   -0,909;    0,591
1065,393; 1795,146;    2,000;   -1,500
1065,936; 1899,237;    0,182;   -0,409
1066,479; 1799,237;   -1,455;    1,318
1067,022; 1817,510;   -0,273;   -0,227
1067,565; 1711,510;   -0,091;   -1,318
1068,108; 1727,510;    0,727;   -0,591
1068,651; 1715,510;   -0,636;    1,409
1069,194; 1651,419;   -0,455;   -1,682
1069,736; 1649,692;   -1,273;    0,955
1070,279; 1626,328;   -1,364;   -0,500
1070,822; 1663,783;   -2,000;   -0,318
1071,364; 1749,601;   -0,364;    1,318
1071,907; 1582,146;   -0,727;    3,227
1072,450; 1491,328;    0,000;   -0,045
1072,992; 1476,874;   -0,273;    3,136
1073,535; 1610,874;    2,091;    2,136
1074,077; 1411,419;   -0,727;    2,045
1074,619; 1381,601;   -1,364;    0,591
1075,161; 1424,328;   -1,091;    1,500
1075,704; 1596,510;    1,545;    1,227
1076,246; 1394,692;   -0,182;    0,682
1076,788; 1319,237;   -0,364;    1,773
1077,330; 1400,601;    1,273;    2,136
1077,872; 1351,783;    0,909;    0,955
1078,414; 1570,783;    2,727;    0,773
1078,956; 1318,965;    1,273;   -0,227
1079,498; 1573,510;    1,636;    0,318
1080,040; 1278,419;    1,909;   -1,318
1080,581; 1220,056;    1,636;   -0,318
1081,123; 1161,783;    0,091;   -0,773
1081,665; 1209,510;   -1,182;   -0,955
1082,206; 1491,056;    1,364;   -0,500
1082,748; 1352,692;    0,727;    2,045
1083,289; 1229,419;   -2,000;    1,318
1083,831; 1142,965;   -0,545;    0,227
1084,372; 1172,965;    0,000;    0,591
1084,913; 1178,783;    1,091;    0,864
1085,455; 1153,237;   -1,909;   -2,045
1085,996; 1124,237;   -2,273;    0,136
1086,537; 1136,146;   -0,091;    0,864
1087,078; 1166,510;   -0,909;   -2,136
1087,619; 1204,601;   -1,273;    0,227
1088,160; 1133,056;    0,000;    1,318
1088,701; 1114,874;   -1,091;    0,682
1089,242; 1052,328;    1,364;   -2,227
1089,783; 1156,510;   -0,273;    1,409
1090,324; 1123,510;    0,455;    0,682
1090,865;  993,510;    2,727;   -0,409
1091,405;  974,692;    0,727;    2,227
1091,946;  988,692;    0,182;   -0,955
1092,487;  914,146;    0,818;   -1,409
1093,027; 1089,692;   -1,364;   -1,500
1093,568;  941,965;   -0,364;    1,227
1094,108; 1033,237;    0,273;    1,773
1094,649;  979,783;   -1,182;    0,136
1095,189;  923,510;   -0,636;   -0,682
1095,729;  860,419;   -0,091;    0,955
1096,269;  868,328;    0,727;   -0,955
1096,810; 1167,510;   -1,364;    0,500
1097,350;  999,328;    1,364;   -0,773
1097,890;  914,419;    0,364;    1,227
1098,430; 1156,146;    2,364;    2,864
1098,970; 1023,056;    2,182;    1,682
1099,510;  888,510;    0,545;   -2,318
1100,050;  827,056;    1,000;   -1,591
1100,589;  803,510;   -0,727;   -0,318
1101,129;  912,328;    0,818;   -0,955
1101,669; 1050,874;    1,727;    2,136
1102,209;  880,146;   -0,091;    2,227
1102,748;  839,874;    0,000;    0,955
1103,288;  829,056;    1,273;   -1,227
1103,827;  857,692;    3,091;   -2,227
1104,367;  729,874;   -0,091;   -2,409
1104,906;  698,237;    1,364;   -1,136
1105,445;  763,328;    0,636;   -1,136
1105,985;  709,783;   -0,727;    1,500
1106,524;  761,237;   -1,727;   -0,682
1107,063;  737,419;   -2,727;    1,409
1107,602;  707,874;   -1,909;   -1,500
1108,141;  628,237;   -1,909;    1,500
1108,680;  728,328;   -3,455;   -0,591
1109,219;  674,692;   -0,909;   -0,500
1109,758;  667,419;    0,455;    0,682
1110,297;  647,783;    1,000;   -0,682
1110,836;  590,237;   -0,727;    0,955
1111,375;  758,146;   -2,545;    0,409
1111,913;  766,783;   -1,000;    0,773
1112,452;  699,419;   -0,273;    0,136
1112,991;  589,146;    1,091;    1,955
1113,529;  553,146;   -0,818;   -0,045
1114,068;  610,692;   -0,273;    2,955
1114,606;  517,419;   -0,364;   -0,955
1115,144;  671,056;   -1,273;    1,045
1115,683;  614,146;   -0,727;    0,318
1116,221;  666,783;   -0,455;   -0,864
1116,759;  572,056;    0,636;   -0,864
1117,297;  768,237;    0,000;    1,864
1117,836;  580,783;   -2,182;   -1,227
1118,374;  579,783;    0,182;   -0,682
1118,912;  535,328;    0,909;    2,682
1119,450;  509,056;    1,000;    0,864
1119,988;  556,783;    1,545;    2,136
1120,525; 1010,146;    5,091;    3,318
1121,063;  706,874;    1,182;    1,864
1121,601;  523,692;   -0,909;   -1,227
1122,139;  484,601;   -0,727;   -2,045
1122,676;  675,237;   -0,727;    2,773
1123,214;  608,419;   -1,182;    4,409
1123,751;  415,146;    1,727;    2,227
1124,289;  552,056;   -0,091;   -0,409
1124,826;  425,783;    1,727;    0,227
1125,364;  350,874;    1,727;   -0,955
1125,901;  535,237;    1,182;    1,227
1126,438;  651,965;    0,818;    0,955
1126,975;  383,783;   -0,727;   -0,773
1127,513;  449,056;    0,273;    2,136
1128,050;  350,692;    1,636;   -0,682
1128,587;  451,419;    2,000;   -0,227
1129,124;  496,056;    0,091;    1,318
1129,661;  350,237;    0,273;    0,227
1130,198;  517,510;    1,636;    0,773
1130,734;  460,419;    0,182;    1,409
1131,271;  331,328;   -0,909;    0,864
1131,808;  499,328;    2,909;    3,045
1132,345;  374,965;    1,545;    0,318
1132,881;  249,601;   -1,545;   -1,864
1133,418;  378,601;    0,727;   -1,136
1133,954;  316,601;    2,455;   -2,682
1134,491;  390,692;    1,364;   -0,773
1135,027;  295,601;    2,364;    0,864
1135,564;  379,965;    0,273;    2,955
1136,100;  364,056;    0,364;    2,136
1136,636;  262,328;   -1,273;   -1,045
1137,172;  353,965;    0,000;   -1,045
1137,708;  280,965;   -1,364;   -1,045
1138,245;  285,692;    1,273;   -1,227
1138,781;  226,419;    1,091;   -3,318
1139,317;  296,601;    1,273;   -1,409
1139,852;  278,419;    3,091;    0,136
1140,388;  402,056;   -1,182;   -0,409
1140,924;  289,328;   -1,091;   -2,227
1141,460;  220,328;   -1,636;    0,136
1141,996;  158,874;   -1,364;    2,682
1142,531;  203,237;    1,364;    3,318
1143,067;  421,692;    1,182;    1,045
1143,602;  478,965;   -0,091;   -0,318
1144,138;  318,965;   -2,636;    1,045
1144,673;  187,237;   -1,455;    1,409
1145,209;  264,510;   -1,909;   -0,318
1145,744;  182,874;   -0,727;    0,864
1146,279;  308,146;    1,818;   -0,136
1146,815;  230,783;    1,545;   -2,682
1147,350;  276,419;   -1,364;    0,045
1147,885;  182,692;   -0,818;   -1,318
1148,420;  183,056;   -2,273;    0,773
1148,955;  164,146;   -1,727;    1,864
1149,490;  196,328;   -0,909;   -1,591
1150,025;  180,146;    0,455;   -1,773
1150,560;  293,056;    1,091;   -0,955
1151,094;  257,510;    1,455;   -0,591
1151,629;  251,419;    1,636;    0,864
1152,164;  173,328;    1,364;    1,318
1152,698;  139,146;   -0,182;   -0,136
1153,233;   92,965;    0,091;   -0,682
1153,767;  148,965;   -3,000;   -2,318
1154,302;  192,783;   -1,455;    1,773
1154,836;  199,328;   -0,455;   -2,136
1155,371;  249,692;   -1,364;    3,682
1155,905;  192,328;   -0,636;    1,682
1156,439;  167,965;   -0,636;   -0,500
1156,973;  204,965;    0,364;    0,318
1157,507;  138,328;   -0,364;    0,682
1158,042;  166,419;   -0,727;    1,045
1158,576;  204,237;    0,182;    1,773
1159,110;  198,146;   -0,818;    2,409
1159,643;  173,601;    0,636;   -0,045
1160,177;  103,056;   -1,545;    1,500

