
Integration time [ms]:   0,040
Averaging Nr. [scans]: 11
Smoothing Nr. [pixels]: 0
Data measured with spectrometer [name]: 7318044SP
Wave   ;Sample   ;Dark     ;Reference
[nm]   ;[counts] ;[counts] ;[counts] 

186,757;    9,651;   31,551;    1,318
187,357;   27,753;   22,551;    0,955
187,958;    7,725;   15,460;   -1,591
188,558;   44,741;    8,915;   -1,227
189,159;   20,119;    6,733;   -4,500
189,759;    3,360;    7,278;   -3,591
190,360;   -8,702;    2,824;   -2,136
190,960;   21,629;    2,915;   -4,136
191,560;   20,861;    3,189;   -6,591
192,161;  214,834;    4,372;   -3,500
192,761;   90,058;    4,010;   -3,227
193,361;   39,530;    1,556;   -3,773
193,962;   83,549;    2,010;   -2,682
194,562;   11,766;    1,189;   -3,955
195,162;   24,040;   -2,448;   -2,227
195,762;  130,750;   -3,176;   -0,045
196,362;   88,850;    1,370;   -2,500
196,963;    0,438;    2,006;   -0,864
197,563;   42,923;    1,551;   -0,955
198,163;    7,797;    0,096;   -0,682
198,763;    7,361;    1,733;   -0,500
199,363;   53,514;    3,096;   -0,500
199,963;   33,538;    0,369;    0,409
200,563;   19,669;    2,823;   -1,409
201,163;    8,893;    3,277;   -0,227
201,763;   37,071;    3,732;    0,318
202,363;   12,956;    1,459;    1,500
202,963;   35,483;    1,459;    1,045
203,563;   88,233;    0,277;    0,500
204,162;   26,054;    2,096;   -1,864
204,762;   16,722;    0,550;    0,591
205,362;   -1,048;    3,004;    1,955
205,962;   24,074;    3,096;    1,955
206,562;   19,703;    1,823;    2,318
207,161;    8,063;   -0,087;    0,318
207,761;   78,097;    1,277;    2,409
208,361;    9,328;   -0,268;    1,409
208,960;   29,851;    0,459;    1,500
209,560;   35,088;    1,277;    1,591
210,160;   44,350;    0,550;    1,864
210,759;   24,101;    4,186;    1,227
211,359;   13,371;    1,459;    1,045
211,958;  116,443;    1,277;    2,045
212,558;  115,166;    1,732;    1,864
213,157;   47,994;    1,822;    1,500
213,757;  192,921;    3,822;   -0,227
214,356;   78,758;    1,277;   -0,409
214,956;  172,434;    3,095;    0,409
215,555;   49,834;    2,095;    2,136
216,154;   19,592;   -2,723;   -0,591
216,754;   25,681;    0,277;    0,773
217,353;   35,635;   -0,268;   -1,045
217,952;  -10,454;   -0,178;    0,318
218,552;   63,092;    1,368;   -0,773
219,151;   28,495;    0,277;    0,955
219,750;   11,570;    0,004;   -0,227
220,349;   -3,299;   -0,451;    1,045
220,948;   70,802;   -1,360;    1,136
221,548;   11,906;    0,913;    1,227
222,147;   33,478;   -0,087;   -0,409
222,746;  111,437;   -0,451;   -0,955
223,345;   51,895;    0,731;    0,500
223,944;   64,032;   -0,451;    0,773
224,543;   62,386;    1,004;   -1,409
225,142;   53,515;    0,094;    0,136
225,741;   49,098;   -0,814;    1,045
226,340;   46,586;   -0,451;   -0,955
226,939;   99,477;   -0,996;   -0,136
227,538;   27,762;   -0,360;   -0,773
228,137;  107,804;   -0,814;    0,864
228,735;   73,349;   -0,541;    1,227
229,334;   -2,471;   -0,905;   -0,227
229,933;  105,046;    0,459;    0,591
230,532;  100,128;    1,186;   -0,409
231,131;  144,971;    1,732;    0,318
231,729;   76,497;   -2,450;   -2,318
232,328;   24,646;   -0,723;   -1,500
232,927;   36,754;    1,004;   -0,500
233,525;   24,725;    3,640;    0,045
234,124;   50,916;    2,368;   -1,591
234,723;   16,104;    0,913;   -1,045
235,321;    7,721;    2,277;    0,136
235,920;   21,498;    1,186;   -1,227
236,518;   94,297;    3,459;    0,318
237,117;   28,967;    0,004;   -0,227
237,715;   43,317;    0,640;   -0,500
238,314;   44,585;   -0,087;   -2,318
238,912;  111,616;   -0,723;   -1,409
239,510;   67,613;    0,459;   -1,227
240,109;  122,779;    0,004;    3,773
240,707;  104,389;   -0,996;    1,227
241,305;   27,061;    0,550;    0,136
241,904;   69,515;   -0,178;   -2,045
242,502;  151,972;   -0,632;   -0,227
243,100;   96,589;   -0,087;   -0,955
243,698;   46,303;    0,732;    1,682
244,297;   73,075;   -0,632;    0,682
244,895;   81,265;   -0,269;   -2,318
245,493;  183,060;    2,186;   -0,591
246,091;  204,026;    1,368;   -1,318
246,689;  160,480;    1,004;    0,591
247,287;  151,358;    0,822;   -1,136
247,885;  130,009;   -1,451;    1,227
248,483;  106,327;    1,822;   -0,500
249,081;  187,083;    0,185;    1,591
249,679;  232,565;   -0,178;    1,682
250,277;  136,549;   -1,723;    0,864
250,875;  244,953;   -1,087;   -1,045
251,473;  172,816;   -1,178;    0,500
252,071;  278,781;    1,459;    1,045
252,669;  214,214;   -1,814;    0,318
253,267;  179,057;   -0,087;    0,773
253,864;  231,813;   -0,360;    0,682
254,462;  376,189;    1,640;    1,591
255,060;  203,821;   -0,269;    1,318
255,658;  206,941;    0,822;   -0,136
256,255;  280,085;    0,186;   -2,045
256,853;  335,191;   -0,269;    1,409
257,451;  318,968;    0,822;    1,864
258,048;  734,055;    1,822;    1,864
258,646;  459,006;    1,731;   -1,045
259,243;  563,554;   -0,087;    2,227
259,841;  461,457;   -0,814;    0,318
260,438;  324,797;   -0,087;    0,864
261,036;  455,925;   -1,905;    1,409
261,633;  358,488;   -0,087;    2,227
262,231;  330,333;    2,731;   -0,045
262,828;  351,738;   -0,905;    1,136
263,425;  419,326;    0,913;   -0,591
264,023;  436,549;    0,186;    0,045
264,620;  603,186;   -0,360;   -0,318
265,217;  744,851;   -2,087;    3,136
265,815;  472,627;   -1,905;    2,136
266,412;  620,034;    0,731;    0,136
267,009;  665,149;   -1,451;    0,773
267,606;  774,915;    0,822;   -0,955
268,203;  540,685;   -0,269;   -0,591
268,801;  610,698;    1,731;    0,591
269,398;  535,769;   -0,360;    2,500
269,995;  709,738;    0,277;    1,591
270,592;  615,741;   -0,632;   -0,500
271,189;  533,890;    0,186;    0,409
271,786;  523,357;   -0,632;    1,227
272,383;  800,017;   -1,087;    0,227
272,980;  626,756;    0,277;    0,318
273,577;  578,005;    0,004;    1,227
274,174;  518,039;    0,822;    2,591
274,771;  673,123;   -0,814;   -0,773
275,367; 1113,732;    2,277;    1,409
275,964;  912,893;    0,731;   -0,500
276,561;  675,762;    1,549;   -1,045
277,158;  593,384;    0,095;   -1,773
277,755;  873,901;    2,185;    0,409
278,351;  711,460;   -0,451;   -1,500
278,948;  803,416;   -0,815;    0,045
279,545;  722,346;   -1,360;    2,318
280,141; 1001,328;   -1,723;   -2,045
280,738;  905,213;   -0,451;   -0,136
281,334;  700,496;   -1,633;    0,591
281,931;  736,853;   -0,087;   -1,318
282,528;  847,517;    0,822;   -0,500
283,124;  980,825;   -1,087;   -0,500
283,721;  979,305;   -0,451;    1,409
284,317;  818,552;    0,185;    2,500
284,913; 1074,276;   -1,360;    0,591
285,510; 1422,730;    0,640;   -0,318
286,106; 1211,418;   -2,269;   -0,955
286,703;  904,656;   -0,360;    1,955
287,299;  884,639;   -1,451;   -0,591
287,895;  920,399;    0,822;   -1,045
288,491; 1008,314;    0,186;    2,136
289,088; 1152,381;   -2,360;    2,409
289,684; 1203,850;   -1,723;    1,500
290,280; 1403,599;    0,368;    0,682
290,876; 1429,792;    1,822;    5,500
291,472; 1349,596;    1,276;    2,227
292,068; 1431,146;    1,367;    0,227
292,665; 1295,912;    2,095;    0,773
293,261; 1228,892;    0,276;    2,136
293,857; 1469,506;    2,913;    2,136
294,453; 1465,864;    3,550;    0,955
295,049; 1720,976;   -0,268;    1,955
295,644; 1615,693;    0,095;    0,136
296,240; 1559,922;   -0,905;   -0,136
296,836; 1801,543;   -0,995;    0,318
297,432; 2012,924;    1,096;   -0,500
298,028; 2166,621;    0,732;    0,773
298,624; 2153,727;    1,459;    1,864
299,220; 2234,599;    2,368;    0,591
299,815; 2170,578;    1,005;   -0,409
300,411; 2298,157;    0,914;    1,773
301,007; 2452,983;    1,368;    0,227
301,602; 2340,696;   -0,541;   -2,318
302,198; 2534,521;    0,732;   -0,773
302,794; 2603,202;    1,187;   -0,500
303,389; 2681,932;   -1,177;    1,045
303,985; 2777,176;    0,550;    1,409
304,580; 2840,111;    1,459;    1,591
305,176; 2764,127;   -3,086;    0,136
305,771; 2683,800;   -1,268;   -1,227
306,367; 3007,866;    4,095;    0,136
306,962; 2958,059;    0,641;    1,500
307,558; 2778,453;   -0,450;    0,136
308,153; 2817,491;    1,095;   -1,136
308,748; 2785,729;   -0,814;    1,682
309,344; 2987,714;   -0,632;   -1,318
309,939; 3086,829;   -1,905;   -1,318
310,534; 2957,681;   -0,086;   -1,682
311,130; 2787,609;    0,459;   -2,500
311,725; 2624,069;    1,004;   -0,500
312,320; 2769,212;    2,459;    0,045
312,915; 2832,682;    1,459;   -1,045
313,510; 2921,010;    1,550;   -0,500
314,105; 2892,531;    1,096;    1,409
314,700; 2499,810;   -3,086;   -1,045
315,295; 2435,020;   -0,904;    0,045
315,890; 2216,603;    1,277;    0,864
316,485; 2310,980;   -0,359;   -0,318
317,080; 2307,152;   -3,086;    1,591
317,675; 2605,940;    2,005;   -0,682
318,270; 2587,797;    5,550;    3,318
318,865; 2498,797;    3,278;    3,045
319,460; 2257,301;   -0,904;    0,591
320,055; 2212,941;   -0,541;   -1,227
320,650; 2078,271;   -1,995;   -0,591
321,244; 2080,036;   -0,177;   -1,409
321,839; 2376,085;   -1,541;   -0,227
322,434; 2339,666;   -1,086;   -1,591
323,029; 2171,832;    1,732;    1,591
323,623; 2071,820;    1,550;    0,773
324,218; 2131,372;    2,368;    1,409
324,812; 2078,112;    1,096;    1,591
325,407; 2058,392;   -0,814;    2,045
326,002; 2125,818;    0,277;   -0,409
326,596; 2198,262;    0,914;    1,318
327,191; 2173,360;    0,823;   -1,045
327,785; 2046,444;   -0,813;   -0,227
328,379; 2244,936;    1,368;    0,136
328,974; 2163,875;    0,914;   -3,955
329,568; 2368,598;    0,186;   -2,409
330,163; 2429,591;    2,096;    1,045
330,757; 2504,406;    2,459;    1,591
331,351; 2364,883;    0,459;    0,682
331,945; 2548,202;    0,914;    1,409
332,540; 2601,793;   -1,723;   -0,591
333,134; 2678,832;   -1,086;    0,773
333,728; 2760,308;    0,005;    0,318
334,322; 2961,237;   -1,177;   -0,864
334,916; 2725,627;    0,277;    0,955
335,510; 3053,912;   -0,450;   -0,136
336,105; 3283,996;   -1,086;    1,591
336,699; 3135,250;   -1,086;    0,591
337,293; 3241,050;   -1,723;    0,318
337,887; 3346,879;   -2,723;    1,955
338,481; 3602,550;    0,459;    0,591
339,074; 3881,990;   -0,359;    2,682
339,668; 3881,047;   -1,632;    1,227
340,262; 4439,954;    1,732;    3,227
340,856; 4050,422;    1,822;   -0,682
341,450; 3721,307;    1,004;    1,864
342,044; 4273,686;    1,459;    0,136
342,637; 4331,234;    0,913;   -2,136
343,231; 4348,938;   -2,360;    0,682
343,825; 4336,885;   -1,086;   -0,591
344,419; 4480,752;   -1,995;    0,500
345,012; 4713,139;    2,459;    4,045
345,606; 4707,286;    4,641;    1,591
346,199; 4595,944;   -1,813;   -0,227
346,793; 4482,273;    1,914;    2,045
347,386; 4641,808;   -0,813;   -1,136
347,980; 4648,022;   -0,268;   -0,045
348,573; 4658,707;    2,278;    0,409
349,167; 4617,391;    5,278;    4,773
349,760; 4905,423;    2,914;    2,682
350,354; 4878,419;   -0,813;    1,136
350,947; 4767,192;    1,096;    1,682
351,540; 4580,312;   -0,358;   -1,409
352,134; 4529,726;    1,096;    1,136
352,727; 4628,018;   -0,086;    1,136
353,320; 4553,578;    0,005;    0,591
353,913; 4403,250;   -1,995;    1,864
354,507; 4580,617;    0,823;   -1,227
355,100; 4650,431;    0,460;    0,864
355,693; 4312,495;    2,005;    2,409
356,286; 4239,180;    0,823;    2,773
356,879; 4427,061;   -0,722;    1,227
357,472; 4148,002;   -0,904;    1,500
358,065; 4305,688;   -0,722;    2,500
358,658; 4234,787;   -0,540;    2,318
359,251; 3984,061;   -1,631;   -0,591
359,844; 3729,231;   -1,904;   -1,136
360,437; 3878,765;   -2,995;    0,045
361,030; 4003,213;    1,369;   -0,682
361,623; 3726,224;    2,824;    0,318
362,215; 3780,534;   -0,086;    2,045
362,808; 3633,175;   -2,358;   -1,682
363,401; 3720,187;   -2,449;    0,136
363,994; 3674,059;   -0,631;   -1,500
364,586; 3516,069;    0,824;   -1,500
365,179; 3588,086;   -0,449;   -1,136
365,772; 3221,014;   -1,995;    2,045
366,364; 3362,942;    1,915;   -3,227
366,957; 3554,636;    2,279;   -0,045
367,549; 3452,203;    2,188;   -0,864
368,142; 3272,549;    1,825;   -1,500
368,734; 3350,543;    0,734;   -2,136
369,327; 3313,347;    1,643;   -0,500
369,919; 3242,111;   -1,538;    0,409
370,512; 3192,379;   -1,083;   -0,500
371,104; 3074,013;   -0,901;    1,591
371,696; 3191,424;    1,191;   -0,955
372,289; 3162,711;    0,373;    1,136
372,881; 3190,417;   -2,080;    1,318
373,473; 3066,986;   -2,170;    1,136
374,066; 3021,768;   -0,169;    0,500
374,658; 2939,421;    0,378;    1,136
375,250; 3072,535;    0,653;   -1,409
375,842; 2982,266;    0,473;   -0,045
376,434; 2901,185;   -0,435;   -0,409
377,026; 3189,991;    0,204;   -2,500
377,618; 3104,564;   -0,158;   -0,682
378,210; 2978,521;   -0,338;   -1,955
378,802; 2848,829;    0,754;   -0,591
379,394; 3059,674;    1,846;    0,682
379,986; 3212,390;    1,393;   -0,955
380,578; 3202,612;   -0,153;    0,773
381,170; 2971,167;   -0,972;    0,045
381,762; 2877,625;    0,755;    1,409
382,354; 2928,212;   -0,065;   -1,318
382,945; 2951,013;   -2,976;    0,318
383,537; 3032,344;   -2,705;   -1,955
384,129; 3077,735;   -2,160;   -1,136
384,721; 3150,473;   -0,252;    0,955
385,312; 3035,441;   -0,161;   -0,955
385,904; 3177,752;   -2,706;    1,591
386,496; 2783,000;   -0,979;    1,045
387,087; 2913,410;    1,022;    2,500
387,679; 2863,571;   -1,160;    0,045
388,270; 2986,736;    2,840;    2,045
388,862; 3004,869;    1,295;   -0,318
389,453; 2830,589;   -0,887;    1,045
390,045; 3045,922;   -0,705;   -2,682
390,636; 3009,054;    0,204;   -0,591
391,227; 2887,170;   -0,523;   -0,045
391,819; 3000,091;    0,204;    0,773
392,410; 3096,623;    1,022;    0,045
393,001; 3011,978;   -0,979;   -1,591
393,593; 3148,111;    1,930;   -0,045
394,184; 3090,707;    1,385;   -0,409
394,775; 2892,920;    1,839;    2,136
395,366; 3077,591;    1,385;    0,773
395,957; 3061,201;    0,113;    0,136
396,548; 3204,674;   -0,342;    2,682
397,139; 3421,463;   -2,433;    0,591
397,730; 3193,104;   -1,888;    0,955
398,321; 3231,849;   -1,252;    0,955
398,912; 3193,976;   -0,615;    0,136
399,503; 3320,914;   -3,524;   -1,409
400,094; 3010,411;    0,294;    1,682
400,685; 2962,513;   -0,433;    0,045
401,276; 2913,234;    0,930;   -0,955
401,867; 3068,794;   -0,888;    0,773
402,458; 3090,202;   -2,251;   -2,318
403,048; 3127,617;    1,112;    0,591
403,639; 2858,322;    0,840;    0,864
404,230; 3138,649;    2,476;    0,318
404,821; 3089,733;   -0,615;    0,045
405,411; 3069,503;    1,203;   -2,591
406,002; 2790,285;   -1,252;   -1,136
406,592; 2884,849;    2,294;    0,045
407,183; 2891,085;    0,566;   -1,500
407,774; 2765,954;    3,475;   -0,136
408,364; 2836,917;    0,930;    0,409
408,954; 2735,531;    0,384;    1,227
409,545; 2719,074;    1,021;    1,045
410,135; 2384,367;    1,293;    0,500
410,726; 2414,798;    1,838;    0,318
411,316; 2656,105;    0,111;    0,773
411,906; 2376,515;   -0,253;   -0,409
412,497; 2142,155;   -1,070;   -0,045
413,087; 2277,490;   -1,980;   -0,227
413,677; 2384,919;   -0,707;    3,864
414,267; 2246,522;    0,656;    1,409
414,857; 2137,254;   -2,980;    4,227
415,448; 2200,252;    0,839;    0,500
416,038; 2069,831;    0,020;   -0,591
416,628; 1983,826;   -0,889;    0,409
417,218; 1913,533;    0,565;    3,318
417,808; 2041,447;    0,202;   -0,409
418,398; 1931,660;    0,020;    2,682
418,988; 1786,724;    2,020;    0,591
419,578; 1801,984;   -0,707;    1,409
420,168; 1883,335;   -1,343;   -0,955
420,757; 1835,737;   -1,343;   -1,500
421,347; 1543,376;    0,111;   -0,227
421,937; 1504,950;    2,292;    1,409
422,527; 1598,687;    0,838;   -0,773
423,116; 1662,508;   -0,253;   -0,045
423,706; 1419,669;   -1,889;    0,318
424,296; 1236,394;    1,384;    0,682
424,885; 1467,758;   -0,071;   -3,045
425,475; 1386,133;    1,474;   -2,864
426,065; 1211,162;   -0,980;   -0,318
426,654; 1131,253;   -0,435;   -0,318
427,244; 1450,893;    0,020;    1,409
427,833; 1311,797;    1,383;   -0,500
428,423; 1132,032;   -0,526;    1,136
429,012; 1193,415;   -0,344;   -1,136
429,601; 1233,547;   -1,344;    0,136
430,191; 1056,741;    1,292;    4,318
430,780;  830,458;   -0,344;   -0,409
431,369; 1129,821;    0,746;   -0,045
431,959; 1043,764;   -1,254;    0,500
432,548;  858,251;   -1,163;   -0,045
433,137;  733,351;   -1,254;   -1,318
433,726;  862,617;    0,292;    0,500
434,315;  798,411;   -0,526;    2,409
434,905;  925,289;   -1,254;    1,409
435,494;  946,578;    0,746;    0,955
436,083;  712,045;   -0,981;   -0,955
436,672;  758,599;    0,110;    0,500
437,261;  668,857;    0,292;   -1,955
437,850; 1013,455;    1,383;    0,682
438,439; 1021,452;    3,291;    1,955
439,027; 1133,730;    3,655;    1,773
439,616; 1029,230;    2,927;    1,227
440,205;  698,095;    0,200;   -2,136
440,794;  575,052;    2,109;   -0,045
441,383;  445,403;   -1,346;   -0,591
441,971;  344,309;   -2,436;    0,591
442,560;  346,630;    0,563;   -1,773
443,149;  207,411;    0,379;   -1,318
443,737;  279,352;   -0,074;   -2,318
444,326;  278,450;    0,018;    0,318
444,915;  331,205;   -1,982;    0,864
445,503;  325,287;   -2,891;   -0,318
446,092;  633,384;    0,382;    2,136
446,680;  541,486;    0,382;    0,318
447,269;  416,917;   -0,346;   -0,318
447,857;  368,386;    0,018;   -1,773
448,445;  289,058;    0,563;    1,318
449,034;  199,993;   -1,528;   -1,136
449,622;  184,630;   -1,073;    3,500
450,210;  544,752;    2,017;    2,227
450,799;  422,666;    0,290;   -0,591
451,387;  347,339;    1,381;   -0,591
451,975;  326,331;    2,654;    0,864
452,563;  415,287;    3,472;    2,318
453,151;  176,490;   -0,528;   -1,227
453,739;  239,035;   -1,347;    0,136
454,328;  364,086;    2,381;   -2,136
454,916;  255,946;    2,562;   -0,136
455,504;  270,239;    1,017;    1,227
456,092;  134,623;    0,017;   -1,591
456,679;   75,504;    1,472;    0,682
457,267;  556,610;    4,017;    1,045
457,855;  183,497;    1,017;    1,409
458,443;   15,696;   -0,165;    1,682
459,031;  193,685;    0,108;    2,409
459,619;  145,282;   -1,801;    2,864
460,206;   36,410;    0,835;    2,045
460,794;   32,087;   -2,983;   -0,227
461,382;   86,775;   -0,529;   -0,864
461,970;   86,442;    1,198;    1,864
462,557;   -4,984;   -0,711;   -0,682
463,145;  137,341;   -3,165;   -1,682
463,732;  389,910;    2,016;   -1,045
464,320;  146,049;   -0,075;   -3,045
464,907;  293,194;    2,743;   -0,773
465,495;  202,380;    0,743;   -1,227
466,082;  103,986;   -1,984;   -0,045
466,670;  130,717;   -2,529;    1,227
467,257;   19,724;   -1,711;    2,045
467,844;  125,488;   -0,075;    0,045
468,432;   91,340;    0,834;    3,500
469,019;   48,693;    0,925;   -1,773
469,606;  129,833;    0,470;    3,682
470,193;  163,283;   -1,439;    0,227
470,780;  110,595;   -2,075;    0,864
471,368;   34,639;   -1,257;   -0,773
471,955;  144,269;    1,379;   -0,682
472,542;  100,136;    0,652;   -1,136
473,129;  -11,212;   -0,166;    0,136
473,716;    7,661;    1,470;    0,591
474,303;   36,572;    0,652;   -0,864
474,890;   33,546;   -1,439;   -0,500
475,477;  138,615;   -1,621;    0,409
476,064;   37,000;    1,106;   -1,591
476,650;  154,618;    0,288;    0,318
477,237;   62,618;   -0,258;    0,955
477,824;   38,834;   -1,076;    0,864
478,411;  -40,441;   -1,894;   -0,318
478,997;  -38,425;    0,560;   -0,773
479,584;  -91,706;    1,196;   -0,409
480,171;   69,013;   -0,440;   -0,773
480,757;  133,881;    2,651;    0,773
481,344;   21,529;    0,469;    0,409
481,931;  -60,079;    1,105;    1,045
482,517;   58,896;   -1,258;    0,318
483,104;  145,082;    1,106;    2,864
483,690;   18,266;   -1,804;    0,045
484,276;   -9,233;   -0,895;    0,227
484,863;  199,303;    2,469;    1,136
485,449;   57,325;   -0,077;    0,318
486,035;    1,722;   -1,986;   -0,136
486,622;   91,525;   -0,895;    0,045
487,208;   18,141;    1,378;    1,500
487,794;  -63,360;    0,741;    0,318
488,380;  -61,172;    0,105;   -1,409
488,967;  -53,326;   -1,168;   -0,409
489,553;  -31,307;   -1,895;   -1,409
490,139;   35,755;    1,559;    0,773
490,725;  -38,423;    0,741;   -0,227
491,311;   14,179;    3,287;    3,045
491,897;   -3,364;   -0,986;    1,500
492,483;   -0,328;    0,105;    1,227
493,069;  436,881;    3,923;    0,864
493,655;  152,016;    1,650;    0,682
494,241;   23,346;    1,377;   -0,955
494,826;   40,965;    0,287;   -1,045
495,412;  100,814;    2,559;   -0,682
495,998;   17,033;   -0,805;   -0,318
496,584;   76,690;    0,377;    1,045
497,169;   95,122;    1,014;   -0,682
497,755;   23,118;    0,650;    1,227
498,341;  158,213;    0,559;    0,318
498,926;  289,285;    1,832;    1,955
499,512;   26,554;    1,286;    2,955
500,097;   40,166;    0,195;   -0,318
500,683;   69,975;   -0,350;    2,136
501,268;   16,644;   -0,169;   -0,955
501,854;   48,167;   -0,169;    1,227
502,439;   41,551;   -0,624;   -1,773
503,024;   93,961;    0,195;    0,500
503,610;  138,444;   -0,078;   -0,682
504,195;   79,119;    0,558;    1,955
504,780;  219,192;    2,922;    1,227
505,366;  362,461;    3,013;    2,864
505,951;  296,812;    0,740;    1,045
506,536;  233,565;   -3,260;   -3,682
507,121;  362,405;    0,285;   -0,318
507,706;  339,317;    2,376;    1,045
508,291;  312,722;    2,649;    1,136
508,876;  394,610;   -0,988;    2,591
509,461;  576,959;   -0,169;   -0,773
510,046;  742,805;    0,194;    0,318
510,631;  839,883;   -0,351;   -0,773
511,216;  854,863;    2,467;   -0,500
511,801; 1150,810;   -0,442;    2,591
512,386; 1343,131;    0,740;    0,500
512,971; 1577,061;   -2,988;    0,955
513,555; 1819,380;   -0,897;   -1,500
514,140; 2207,415;   -0,442;   -3,136
514,725; 2498,499;   -0,715;   -1,136
515,309; 2818,131;   -0,533;    0,318
515,894; 3005,282;   -0,624;   -2,227
516,479; 3522,289;   -0,624;   -0,955
517,063; 3774,282;    0,376;    1,227
517,648; 4297,467;    1,012;   -1,136
518,232; 4394,170;   -0,261;   -1,409
518,817; 5091,595;   -0,079;    1,682
519,401; 5716,287;    2,194;    0,591
519,985; 5695,827;    1,103;    1,136
520,570; 6015,871;    0,830;   -1,955
521,154; 6667,941;    2,102;    0,591
521,738; 7196,416;   -2,352;    2,409
522,323; 8061,391;   -0,170;    1,682
522,907; 8184,838;    0,466;   -0,136
523,491; 8316,386;    0,557;    0,955
524,075; 8674,629;    2,284;    0,591
524,659; 9076,466;    1,466;    0,591
525,243; 8933,226;    1,739;    0,409
525,827; 9395,236;    0,648;   -0,045
526,411;10375,193;   -1,989;   -0,136
526,995;10823,351;   -0,352;    1,409
527,579;10677,924;   -0,443;   -1,045
528,163;11171,784;    0,375;   -1,500
528,747;11317,235;    2,466;   -0,773
529,331;11771,171;   -0,080;   -1,409
529,915;12132,634;    1,738;    0,955
530,499;12279,422;   -0,807;    1,227
531,082;12094,468;   -0,534;    1,591
531,666;11728,106;    1,374;    0,773
532,250;12494,024;    1,284;    2,682
532,833;12879,345;    0,920;    2,773
533,417;12871,831;   -1,807;    0,864
534,001;12953,603;    1,647;   -0,318
534,584;13718,649;    0,374;    0,500
535,168;13611,466;    0,465;    1,409
535,751;13713,774;    0,647;    0,045
536,334;13241,235;   -0,898;   -0,409
536,918;13917,627;    0,011;    1,591
537,501;14053,546;   -0,899;    1,318
538,085;14096,733;   -0,444;    1,045
538,668;14329,431;    0,829;    2,409
539,251;14654,584;    1,829;    3,773
539,834;14719,763;    0,101;    0,773
540,418;14658,814;   -1,990;    4,318
541,001;14774,414;   -0,990;    1,773
541,584;14828,963;    2,101;    2,227
542,167;14532,757;    1,374;    2,955
542,750;14730,703;    1,919;   -0,773
543,333;14349,151;    0,555;    2,136
543,916;15099,802;    0,192;    2,500
544,499;15746,142;   -1,354;    0,227
545,082;15779,386;    1,374;    3,591
545,665;15926,320;    1,919;    1,500
546,248;16276,060;    1,010;   -0,318
546,830;15953,844;   -0,445;    1,955
547,413;16313,739;    1,010;   -0,773
547,996;16883,809;    0,555;    0,500
548,579;16688,245;    0,919;    0,955
549,161;16507,035;    1,828;    2,682
549,744;16335,653;   -0,809;    0,409
550,326;16823,018;   -0,809;   -1,136
550,909;16594,816;    2,737;    0,591
551,492;17032,378;   -0,263;    0,227
552,074;16827,762;   -0,173;   -1,318
552,657;17344,368;    2,373;    0,045
553,239;17136,099;   -0,173;   -0,773
553,821;17046,539;   -1,082;    1,045
554,404;16567,246;    1,282;    1,136
554,986;16938,528;    0,464;    1,045
555,568;17537,986;    1,191;   -0,955
556,151;16787,138;    1,191;   -0,227
556,733;17021,433;   -0,264;   -0,864
557,315;17485,093;    0,100;    0,500
557,897;17275,786;    0,554;   -0,500
558,479;17366,182;   -1,991;    1,318
559,061;17514,568;   -0,719;   -0,864
559,643;17868,981;   -0,264;    0,045
560,225;18181,048;    1,645;    2,864
560,807;18232,618;    0,918;    0,318
561,389;17778,864;    0,554;    2,318
561,971;18514,710;    0,463;    2,136
562,553;18294,781;   -1,628;    1,591
563,135;18397,809;   -0,537;    1,136
563,717;17974,778;    3,372;    1,136
564,298;18694,361;    3,645;   -0,045
564,880;18459,271;    0,645;   -1,409
565,462;18613,271;    0,645;    1,318
566,043;19745,459;   -0,446;    2,318
566,625;19292,458;    1,918;    1,227
567,207;19087,653;    1,099;    1,682
567,788;20183,475;   -1,264;    1,500
568,370;21016,463;    1,917;   -0,500
568,951;20812,359;    0,190;    0,227
569,533;21633,837;   -0,628;   -0,500
570,114;22111,860;   -0,446;    0,682
570,695;22567,525;   -0,174;   -1,318
571,277;23054,715;   -0,265;   -1,682
571,858;23748,557;    2,008;   -1,136
572,439;24610,880;    1,554;   -1,045
573,021;24774,131;    2,099;   -2,773
573,602;25247,031;   -1,265;    0,318
574,183;26126,373;   -2,083;    2,227
574,764;26279,886;   -1,629;    0,409
575,345;26805,712;    0,917;   -0,136
575,926;27403,330;   -0,356;    0,136
576,507;27378,757;    1,099;   -0,227
577,088;28503,181;    3,099;    1,682
577,669;28477,437;    0,735;    1,955
578,250;29149,192;    0,644;   -1,045
578,831;29764,277;   -1,356;   -2,227
579,412;30023,499;   -0,810;    0,955
579,993;30952,744;    1,008;    0,227
580,573;31353,411;   -0,629;   -0,955
581,154;30335,923;    0,735;   -0,591
581,735;31188,588;    0,644;    0,773
582,315;30624,952;   -0,629;    2,136
582,896;30941,250;   -0,174;    1,227
583,477;30468,176;    0,189;    1,227
584,057;30616,168;    0,553;    0,955
584,638;30895,380;    2,553;    2,318
585,218;30871,712;   -0,538;    2,682
585,799;31112,009;    0,281;   -0,227
586,379;31097,272;    0,372;    1,591
586,959;29942,071;    0,735;    0,318
587,540;29274,910;   -0,629;    2,227
588,120;28796,416;    1,007;   -0,045
588,700;27799,157;    2,553;    2,136
589,281;28136,168;    0,462;   -0,955
589,861;28042,476;    0,099;   -1,682
590,441;27846,715;    2,371;   -2,682
591,021;26937,197;   -0,265;   -2,591
591,601;27161,752;   -0,537;    0,500
592,181;27164,234;   -0,719;   -0,773
592,761;26537,344;    0,007;    1,409
593,341;26359,585;   -0,901;    0,045
593,921;26339,424;   -0,265;    1,591
594,501;26268,283;   -0,538;    1,318
595,081;26161,634;    0,917;   -0,318
595,661;26510,157;   -1,447;    0,955
596,240;27000,056;   -0,537;    0,136
596,820;26594,345;    0,372;    1,955
597,400;26780,004;    2,008;    0,773
597,980;27009,080;    2,008;    1,045
598,559;27076,547;    2,735;   -0,227
599,139;26796,370;   -0,174;   -1,227
599,718;26661,097;   -0,174;   -0,409
600,298;26966,305;    0,735;    0,682
600,877;27215,992;    2,917;    1,409
601,457;27439,826;    2,281;    1,136
602,036;27324,570;    0,190;    2,045
602,616;27586,443;    0,644;    1,682
603,195;27892,189;   -0,355;    3,500
603,774;27331,163;   -0,901;    2,045
604,354;27245,407;    0,826;   -0,500
604,933;26806,659;    0,463;    1,864
605,512;26918,560;    3,554;    0,591
606,091;27003,335;   -0,537;    3,773
606,671;27816,160;    0,281;    0,773
607,250;26846,253;    1,644;    3,136
607,829;27106,509;    2,372;    3,227
608,408;27015,304;    1,190;    2,591
608,987;26034,008;    1,281;    3,409
609,566;26341,431;   -1,265;   -2,500
610,145;26419,708;   -1,082;    0,682
610,723;26844,469;    4,372;    6,864
611,302;26113,002;   -0,446;    1,682
611,881;25694,917;    5,008;   11,227
612,460;26483,161;    1,645;    3,955
613,039;26912,359;   -0,082;    2,045
613,617;25705,269;    1,736;    4,773
614,196;25895,828;    1,099;    1,227
614,775;26197,509;    1,009;    2,409
615,353;26165,652;    0,736;    0,864
615,932;25877,169;    0,100;    2,409
616,510;26470,326;    0,554;    0,591
617,089;25985,959;    7,100;   17,591
617,667;25732,897;    2,372;    6,136
618,246;25589,555;   -1,537;    1,318
618,824;25761,891;   -3,355;   -0,955
619,402;25357,165;   -2,900;   -1,773
619,981;25874,064;   -0,173;   -1,045
620,559;25688,936;    0,009;    1,682
621,137;25228,274;   -0,718;    1,864
621,715;25220,671;   -1,173;   -0,682
622,293;25160,515;   -0,537;   -0,773
622,871;25673,274;   -0,718;    0,500
623,450;25209,258;    0,373;   -0,864
624,028;25147,602;    0,191;   -0,955
624,606;24754,079;   -1,718;    1,682
625,183;25151,221;   -1,536;   -1,136
625,761;24787,129;    1,009;    1,136
626,339;25047,871;    1,373;    2,591
626,917;25461,205;   -0,172;   -0,045
627,495;25513,783;   -0,354;    1,318
628,073;24963,530;   -0,263;    2,864
628,650;24654,517;    0,100;    2,136
629,228;25038,467;    0,373;    4,409
629,806;24505,336;    2,282;    1,136
630,383;24760,566;    1,464;   -0,318
630,961;24563,003;    2,555;   -0,955
631,539;24313,989;    2,464;    0,227
632,116;23627,549;   11,373;   15,409
632,694;24225,022;    2,555;    6,500
633,271;24502,029;    0,828;    2,682
633,848;24407,403;    1,828;    2,045
634,426;24476,628;   -1,081;    1,773
635,003;23633,298;    1,101;   -0,409
635,580;23922,386;    1,192;    3,682
636,158;24465,194;    3,737;    1,227
636,735;24435,514;    0,555;   -0,500
637,312;24614,558;   -0,809;   -0,682
637,889;24707,503;   -4,354;   -0,682
638,466;24166,200;   -3,990;   -0,409
639,043;24176,664;    2,101;   -1,136
639,620;24519,997;   -2,262;   -0,955
640,197;24833,223;    1,100;    1,682
640,774;24948,633;   -0,172;    1,136
641,351;25420,953;    0,737;    1,136
641,928;24812,909;   -0,627;    1,409
642,505;24409,502;    0,828;   -0,500
643,082;24560,821;   -1,718;    1,227
643,658;23624,778;   -0,718;    1,500
644,235;24361,915;    1,191;    2,500
644,812;24669,690;    1,918;    0,773
645,388;24381,828;   -0,991;    1,409
645,965;24502,693;   -0,809;    1,682
646,542;24580,831;   -1,445;   -0,227
647,118;24540,696;    1,009;   -0,955
647,695;24818,470;   -0,263;    1,136
648,271;24773,517;   -0,536;    0,500
648,848;25020,928;    0,736;    2,227
649,424;24829,339;    0,827;    1,318
650,000;24631,477;   -0,354;   -1,045
650,577;24425,978;   -0,627;   -0,955
651,153;24904,207;   -1,809;    0,955
651,729;25888,618;    1,191;    0,864
652,305;26006,847;    0,645;    2,773
652,881;29983,530;   -0,082;    1,136
653,458;36527,032;    1,100;    0,227
654,034;40416,624;    0,282;    1,591
654,610;41919,126;    0,554;    0,773
655,186;43190,718;    0,645;    3,045
655,762;42919,038;   -0,991;    0,409
656,338;42935,449;    0,100;    0,136
656,913;43887,769;   -0,082;    0,409
657,489;43199,179;    0,827;   -0,318
658,065;43192,590;   -0,173;   -1,591
658,641;43844,001;   -0,900;   -0,864
659,217;43203,957;   -0,991;    0,409
659,792;42555,186;    0,645;   -0,409
660,368;42808,869;   -2,173;   -0,682
660,944;42565,552;   -2,082;    1,227
661,519;38427,236;   -0,628;    0,409
662,095;32724,192;   -1,719;    0,591
662,670;28105,512;    1,281;   -0,136
663,246;26893,559;    1,009;   -0,409
663,821;26199,424;    0,281;    1,682
664,396;25660,653;    0,009;    1,864
664,972;25911,518;    0,009;   -0,500
665,547;26220,838;    1,372;    0,136
666,122;26256,249;   -1,082;    0,318
666,698;26528,114;   -0,173;    0,318
667,273;25854,524;   -0,173;    0,136
667,848;26706,935;    2,372;    1,500
668,423;26447,982;    2,190;    2,318
668,998;27039,575;    2,827;   -0,682
669,573;27544,440;   -3,264;   -1,500
670,148;27387,760;   -1,446;   -0,682
670,723;27204,261;   -1,810;    0,318
671,298;27631,945;    2,372;    1,045
671,873;27757,992;   -0,082;   -0,136
672,448;27684,221;    0,645;    0,136
673,023;28028,540;   -1,992;   -0,227
673,597;28285,406;    0,827;    2,318
674,172;28083,907;   -0,355;    0,318
674,747;27579,136;    0,372;   -1,045
675,321;27409,638;   -0,628;    3,318
675,896;27010,866;    0,645;    1,045
676,471;28015,186;    2,645;    1,591
677,045;27800,597;   -1,264;    0,682
677,620;27831,371;    0,190;    1,136
678,194;28157,055;   -2,628;    1,136
678,769;27687,374;   -1,083;   -0,318
679,343;27916,149;   -0,628;    1,773
679,917;27790,741;   -1,446;    1,955
680,492;27902,606;    0,826;    3,227
681,066;28040,381;    3,372;    0,409
681,640;28076,973;    1,463;   -0,318
682,214;28906,566;    0,735;    0,500
682,788;28413,340;   -1,356;   -0,773
683,363;28266,478;   -1,810;    1,682
683,937;28061,889;   -1,719;   -0,318
684,511;28798,299;    0,463;   -0,591
685,085;28506,710;   -1,356;    0,318
685,659;28310,030;   -2,538;    0,864
686,232;28523,713;   -0,356;   -0,318
686,806;28235,760;   -0,901;    0,409
687,380;28891,535;   -0,174;    0,591
687,954;29113,672;   -1,174;    1,136
688,528;28801,356;   -0,719;    1,955
689,101;29605,767;   -3,992;    1,045
689,675;29170,995;   -0,356;   -0,136
690,249;28530,406;   -0,719;    0,409
690,822;28847,999;    0,280;    0,318
691,396;28996,046;   -0,265;    1,227
691,969;28425,547;    1,280;    0,136
692,543;28829,412;   -0,447;   -1,955
693,116;28521,914;   -0,265;   -1,409
693,690;28396,688;    0,099;    0,500
694,263;28993,554;   -1,083;    2,955
694,836;28939,964;    1,371;    3,591
695,410;27655,011;   -0,265;    1,773
695,983;28158,149;    0,189;    0,591
696,556;28091,378;   -0,447;   -1,045
697,129;28465,607;   -0,356;    1,409
697,703;28124,018;   -1,629;    1,955
698,276;28120,247;    1,462;   -0,773
698,849;27928,657;    1,280;    1,409
699,422;28305,522;   -1,083;    0,591
699,995;28007,024;    0,007;    0,136
700,568;28455,344;   -0,629;    3,045
701,140;28547,845;   -2,811;    1,682
701,713;28297,347;   -0,174;    2,409
702,286;28081,758;   -0,538;    0,864
702,859;27916,896;   -0,902;   -0,591
703,432;27067,397;    0,825;    0,682
704,004;27578,081;    0,462;    0,318
704,577;27475,491;   -0,629;    0,136
705,150;27962,811;    0,189;    2,500
705,722;27756,767;   -0,356;   -3,227
706,295;27527,723;   -0,175;   -0,591
706,867;27402,134;   -0,175;    1,955
707,440;27602,363;   -1,720;   -0,409
708,012;27860,501;    0,462;    0,591
708,584;27741,730;    2,462;    0,227
709,157;28114,413;    1,825;   -0,591
709,729;27770,187;    2,280;    2,045
710,301;28591,507;    0,734;    0,045
710,874;28557,554;   -1,447;   -0,227
711,446;27462,147;    0,371;    0,864
712,018;27394,739;    0,098;    0,500
712,590;27081,423;   -1,993;    1,682
713,162;27585,742;    0,825;    1,318
713,734;27872,880;    1,825;   -2,045
714,306;27742,655;   -1,902;   -0,409
714,878;26477,520;    0,825;    0,864
715,450;27309,021;    0,643;    0,864
716,022;27624,068;    1,552;    1,318
716,593;27776,843;    0,189;    0,591
717,165;27674,708;   -3,175;   -1,227
717,737;27378,937;    0,280;    0,409
718,309;27080,620;    0,280;   -0,045
718,880;27019,304;   -0,539;   -1,409
719,452;27216,260;   -0,175;   -1,591
720,024;26825,489;    0,734;   -0,591
720,595;27393,536;   -2,902;    0,955
721,167;26927,946;    0,370;   -2,045
721,738;26436,539;   -0,812;   -1,045
722,309;26392,404;   -0,993;   -1,227
722,881;26168,724;   -1,357;    0,773
723,452;26832,862;   -2,630;    2,864
724,023;26956,363;   -0,721;    2,682
724,595;26760,592;    0,007;    0,682
725,166;26541,457;    0,007;   -0,409
725,737;26206,959;    1,734;    0,227
726,308;26288,552;   -0,266;    0,318
726,879;26706,508;   -1,630;    1,227
727,450;26551,282;    0,552;   -0,045
728,021;26511,965;    3,097;    0,682
728,592;26351,740;    0,734;    0,500
729,163;26643,878;    0,643;   -0,136
729,734;26632,743;    0,188;   -0,227
730,305;27006,881;    1,734;    0,136
730,876;27328,837;    0,188;    2,955
731,447;27073,611;    2,188;    2,682
732,017;27137,567;    1,097;    1,864
732,588;26642,069;    0,734;    1,227
733,159;26808,298;    0,643;   -1,045
733,729;26647,163;    0,006;    0,409
734,300;25951,119;    0,915;    0,864
734,870;26350,166;    3,461;    0,591
735,441;26939,213;    0,370;   -0,591
736,011;26717,988;    0,643;   -1,591
736,582;26613,489;   -0,812;    0,045
737,152;26124,173;   -1,721;   -2,045
737,722;26567,038;   -0,267;   -0,682
738,293;26289,539;   -1,358;    1,318
738,863;26137,041;    2,461;    2,318
739,433;25943,088;    5,279;    0,318
740,003;26584,953;   -0,994;   -0,682
740,573;25979,182;    2,097;   -1,591
741,143;25942,866;   -1,085;    0,318
741,713;26751,640;    1,188;   -0,500
742,283;26436,323;    0,915;    1,591
742,853;26231,461;    1,915;    1,591
743,423;25671,963;    1,733;    0,045
743,993;25820,101;   -0,358;    1,500
744,563;25202,421;    0,097;   -0,864
745,133;25160,922;   -0,812;   -0,864
745,702;25844,424;   -0,267;    1,773
746,272;25014,562;   -0,176;    0,591
746,842;24812,154;   -1,358;   -0,591
747,411;25233,019;   -0,267;   -0,318
747,981;25459,976;    0,097;    0,500
748,551;25549,386;    2,278;   -1,045
749,120;25373,342;    0,642;   -0,227
749,690;25719,389;   -0,631;    2,409
750,259;26042,346;    1,369;    2,955
750,828;25990,574;    1,551;   -1,955
751,398;26249,985;    1,278;   -0,045
751,967;25711,850;    2,187;    0,409
752,536;25972,261;   -0,813;   -0,227
753,105;26369,308;    0,096;    0,227
753,675;26192,991;    0,096;    1,773
754,244;26083,311;   -0,904;    3,591
754,813;26179,086;    0,551;    1,227
755,382;25761,223;    0,460;    0,955
755,951;26260,180;    1,551;    3,682
756,520;25789,590;   -0,085;    1,864
757,089;26337,183;    0,278;    0,500
757,658;26457,412;    1,733;    1,227
758,227;26498,822;    1,096;    0,318
758,795;26838,506;    1,187;    1,136
759,364;27051,825;   -0,086;   -0,591
759,933;26088,600;   -1,176;   -0,045
760,501;25580,192;    0,733;   -1,318
761,070;26079,421;   -2,813;   -1,409
761,639;26757,195;   -1,904;    1,318
762,207;26064,152;    1,551;   -0,955
762,776;26005,017;    0,369;    0,864
763,344;25986,337;   -0,995;    0,591
763,913;25174,293;   -0,722;    1,409
764,481;25814,885;    1,005;   -0,136
765,049;25597,478;   -1,358;    1,409
765,618;25504,070;   -0,086;    0,318
766,186;25648,572;    0,278;    0,136
766,754;25841,892;    0,005;    1,864
767,322;24819,302;   -1,995;    0,409
767,890;24838,895;   -0,722;   -1,773
768,459;25274,669;   -2,177;   -0,318
769,027;25448,534;    1,641;    3,409
769,595;24444,400;    3,278;    2,591
770,163;24895,174;    3,823;    2,955
770,730;24619,948;    0,732;   -0,136
771,298;24476,904;    0,187;   -1,409
771,866;24573,315;   -1,541;    4,955
772,434;24887,271;   -0,631;   -1,864
773,002;24989,864;    0,005;    0,682
773,569;24650,547;    0,914;    1,682
774,137;24504,958;   -0,268;   -0,045
774,705;25295,550;    0,278;   -0,136
775,272;24834,506;    0,641;    0,682
775,840;24571,462;   -0,177;    2,682
776,407;24121,964;    0,277;    1,955
776,975;23729,829;   -0,632;    0,318
777,542;24736,785;   -1,086;   -0,045
778,110;24560,287;   -1,268;   -0,045
778,677;24227,061;   -2,359;   -0,864
779,244;24001,199;    2,186;    1,045
779,812;24081,792;    1,823;    0,864
780,379;23964,839;    0,005;    1,136
780,946;24221,522;    1,005;   -0,773
781,513;24528,206;   -1,450;    0,318
782,080;23911,889;   -0,086;    2,864
782,647;24606,936;   -0,268;    3,045
783,214;24217,165;   -0,177;    3,864
783,781;23857,666;   -0,723;   -0,682
784,348;23720,895;   -0,632;    1,500
784,915;24202,488;   -3,177;    0,318
785,482;23970,080;    1,368;    2,591
786,049;24403,855;    0,186;   -0,591
786,615;24523,993;    0,277;   -0,955
787,182;24282,221;    0,186;   -0,682
787,749;23981,087;   -2,814;    1,409
788,315;23307,952;   -1,632;   -0,409
788,882;23616,817;    1,550;   -1,227
789,448;24262,773;    1,732;   -0,955
790,015;24273,911;    1,095;    3,227
790,581;23858,595;    1,459;    0,227
791,148;23729,914;    0,641;    1,045
791,714;23986,507;   -0,541;    3,136
792,280;23640,008;    0,186;    1,591
792,847;23276,601;    0,550;    2,500
793,413;23834,375;   -0,269;   -0,318
793,979;23313,331;    3,459;   -1,318
794,545;23391,560;    4,459;    2,682
795,111;22805,244;    2,186;    1,318
795,678;23019,927;    0,731;   -1,682
796,244;22656,156;    3,368;    0,136
796,810;23187,658;    1,731;    0,773
797,375;22885,977;    0,549;   -2,136
797,941;22919,388;   -0,541;    0,591
798,507;23098,162;   -0,451;   -0,955
799,073;22659,028;   -0,360;    0,591
799,639;22704,347;   -2,632;    3,136
800,205;22746,213;    0,095;    2,682
800,770;22304,714;    0,640;    1,773
801,336;22417,125;    1,368;   -0,955
801,901;22090,354;    4,549;    3,136
802,467;22618,310;   -0,542;    2,045
803,033;21997,448;   -0,087;    0,864
803,598;22233,767;    1,913;   -1,045
804,163;22234,905;    1,095;   -0,318
804,729;22218,407;   -0,178;    1,136
805,294;22610,636;    0,822;    2,227
805,859;22371,228;    0,731;   -0,409
806,425;21838,094;    1,186;    2,682
806,990;21518,413;    2,186;    4,318
807,555;22026,279;   -1,451;    2,591
808,120;21907,780;    0,822;   -0,409
808,685;22014,464;    0,185;   -2,500
809,250;21514,783;    0,004;   -0,500
809,815;21801,558;    1,913;    0,682
810,380;22336,241;   -0,269;    1,591
810,945;22834,924;   -1,087;    2,045
811,510;22012,517;    2,094;    1,591
812,075;21740,291;   -0,633;   -1,409
812,640;21755,429;    2,003;    1,409
813,204;21855,385;    0,822;   -0,227
813,769;22331,978;    2,094;   -0,045
814,334;21741,207;    0,458;    0,864
814,898;21752,890;    0,367;    0,591
815,463;21638,210;    1,276;   -0,773
816,027;21615,984;   -0,724;   -2,318
816,592;21697,486;    0,640;   -2,045
817,156;21209,260;    2,094;    1,136
817,721;21069,307;    4,276;    2,318
818,285;21051,718;    2,912;    1,500
818,849;21706,310;   -1,451;    1,682
819,414;21585,812;   -0,269;    2,955
819,978;21196,677;   -1,269;    1,773
820,542;21756,451;    2,003;    0,500
821,106;21487,408;   -0,815;    0,682
821,670;21549,455;   -0,815;    2,591
822,234;21315,956;   -0,270;    1,409
822,798;20705,912;    0,003;    0,500
823,362;20627,141;   -0,633;    4,227
823,926;19980,097;    0,094;    1,136
824,490;20154,690;   -0,997;   -0,682
825,054;20606,828;   -0,088;   -1,136
825,618;20239,875;   -1,542;   -1,500
826,181;20227,467;    0,458;   -1,318
826,745;20124,514;    1,367;   -1,045
827,309;20453,289;    1,185;    1,318
827,872;19873,154;    1,367;    0,955
828,436;20880,837;    1,185;   -0,773
828,999;20891,612;   -0,997;    1,227
829,563;19743,568;   -0,179;    1,136
830,126;19575,797;   -0,179;   -0,591
830,690;19525,662;   -1,997;    2,864
831,253;19095,254;   -0,543;    2,227
831,816;19213,938;   -1,906;    0,500
832,380;19142,803;    0,185;    0,864
832,943;19335,941;   -1,361;   -0,500
833,506;18842,897;    2,639;   -1,227
834,069;19635,580;    3,912;   -0,955
834,632;19683,355;    1,730;    1,318
835,195;19609,402;    1,003;    0,955
835,758;18826,722;   -0,997;    1,955
836,321;18680,314;    0,730;   -1,045
836,884;18768,725;   -0,725;   -0,955
837,447;18778,772;   -2,816;    1,773
838,010;19035,183;    0,366;    3,227
838,573;19320,866;   -1,179;    0,773
839,135;19298,731;   -1,361;   -0,955
839,698;18783,505;    1,275;    0,409
840,261;18297,462;    1,003;   -0,227
840,823;18115,963;   -0,543;    0,864
841,386;18462,919;   -0,452;   -2,409
841,948;18306,148;   -1,361;    1,773
842,511;18063,741;    0,912;    1,682
843,073;18167,060;    1,912;    0,227
843,636;18014,198;   -0,361;   -0,227
844,198;17921,973;    0,911;    0,591
844,760;18038,565;    1,093;    1,955
845,322;17694,249;    0,548;    1,136
845,885;18117,205;    0,730;    0,591
846,447;18559,706;   -1,998;    0,227
847,009;18157,572;    1,911;   -0,682
847,571;18477,800;    0,820;   -2,045
848,133;18575,938;   -1,089;   -1,864
848,695;18415,713;   -0,543;    1,409
849,257;17983,942;   -1,089;   -1,682
849,819;18166,443;   -0,998;   -0,409
850,381;18208,763;   -0,725;   -0,864
850,942;18560,355;    1,093;   -0,591
851,504;18526,221;    1,184;    0,227
852,066;18572,177;    1,275;   -1,591
852,628;18072,587;   -0,180;    1,955
853,189;17640,816;    1,638;    2,682
853,751;17767,227;   -0,907;    1,409
854,312;17567,274;   -0,453;   -1,682
854,874;18039,685;   -2,089;   -0,773
855,435;18592,095;   -0,907;   -1,682
855,997;18773,506;   -1,816;   -0,136
856,558;18022,099;    0,366;    1,773
857,119;18145,327;    0,820;    2,864
857,681;17833,193;    0,002;    0,318
858,242;17878,967;    1,911;   -2,136
858,803;18305,832;    0,456;   -0,773
859,364;18881,788;    0,184;   -4,773
859,925;18213,017;   -2,453;   -0,955
860,486;18082,428;   -0,453;   -0,955
861,047;17803,111;   -0,544;   -1,227
861,608;17620,976;   -1,089;   -0,773
862,169;17785,660;    0,638;   -0,045
862,730;17563,707;    0,456;    1,409
863,291;17801,481;   -0,635;   -0,500
863,852;18143,619;   -0,635;    1,955
864,412;17620,484;   -0,271;   -0,864
864,973;16220,986;   -0,089;    0,500
865,534;16139,669;   -1,726;    0,227
866,094;17612,626;    1,820;    0,227
866,655;17232,945;    1,274;    3,318
867,215;17487,901;    0,274;    0,136
867,776;17353,494;    0,547;   -0,136
868,336;17473,086;   -1,453;    0,136
868,897;16912,952;    2,638;    1,682
869,457;16688,726;    1,365;    0,318
870,017;16918,500;    0,547;   -1,227
870,578;17438,365;   -0,817;    0,773
871,138;17151,503;   -2,089;   -0,955
871,698;16666,732;   -0,817;   -1,318
872,258;16499,870;   -0,453;   -2,864
872,818;16894,281;    2,729;    0,045
873,378;16850,783;    0,638;    1,045
873,938;16398,648;    0,547;    0,500
874,498;16766,058;    0,274;   -1,955
875,058;16678,742;    2,183;    1,773
875,618;16507,062;    1,910;   -2,682
876,177;16458,563;    1,274;    0,136
876,737;16037,974;   -0,090;    1,955
877,297;16096,930;    0,183;    1,955
877,856;16079,432;   -0,362;    0,318
878,416;16031,751;    1,183;   -0,136
878,976;16233,617;   -1,817;    0,409
879,535;16427,573;    0,092;    3,136
880,095;16157,711;   -0,544;    0,045
880,654;16263,303;   -1,090;    1,318
881,213;16348,441;    2,456;    1,500
881,773;16032,215;    2,637;    2,682
882,332;16336,262;    3,365;    5,136
882,891;16169,855;    3,092;    2,136
883,451;16647,902;   -1,272;    1,682
884,010;16141,858;   -2,908;   -0,409
884,569;16214,360;   -0,999;   -0,045
885,128;16322,407;    2,819;   -1,864
885,687;16391,363;    4,455;    0,682
886,246;16079,864;    1,455;    2,136
886,805;15864,730;    2,455;    2,045
887,364;16169,140;   -0,999;   -0,500
887,922;16540,369;   -1,181;    0,045
888,481;16041,144;   -1,545;    0,591
889,040;16331,463;    1,183;    2,136
889,599;17016,692;    2,455;    1,409
890,157;17085,194;    1,455;    2,409
890,716;16710,877;   -0,090;    0,227
891,274;16547,652;    0,092;   -1,136
891,833;16992,062;    1,546;    0,864
892,391;16869,927;   -0,454;    0,500
892,950;16921,520;    1,819;   -0,773
893,508;17253,021;    0,455;   -0,409
894,067;16647,705;    0,637;    0,136
894,625;16607,661;   -0,636;   -1,500
895,183;16820,708;   -0,363;   -0,682
895,741;16689,846;    1,728;   -1,773
896,299;16505,348;   -0,545;   -2,409
896,858;16699,213;    0,819;   -1,591
897,416;16859,351;    2,728;   -1,318
897,974;16573,398;    1,819;    0,318
898,532;16714,536;    6,091;    2,682
899,089;16648,128;    2,091;   -0,682
899,647;16698,266;   -1,454;    1,318
900,205;16429,586;    1,182;    1,045
900,763;16619,269;   -0,454;    0,227
901,321;16604,135;    2,364;   -1,409
901,878;16078,454;   -1,000;   -0,773
902,436;15942,774;   -1,363;    1,318
902,994;16314,276;    4,728;    3,682
903,551;15784,868;    0,728;    0,409
904,109;16185,733;    0,182;   -1,409
904,666;15753,053;    2,455;    1,045
905,224;15583,191;    0,182;   -0,409
905,781;15325,784;    0,727;   -0,318
906,338;15419,285;   -1,363;    1,045
906,895;15381,787;    0,637;    2,045
907,453;15275,652;    1,727;    1,136
908,010;15265,608;   -0,909;    0,409
908,567;14962,837;    1,273;    0,591
909,124;14463,520;    0,364;   -1,500
909,681;14535,295;   -2,909;    0,682
910,238;14659,251;    0,636;   -1,318
910,795;15027,753;   -0,273;   -1,136
911,352;14670,843;   -2,909;   -2,682
911,909;14123,298;   -1,364;   -0,864
912,466;14582,025;   -3,182;    1,500
913,022;14128,025;   -1,636;    0,500
913,579;14470,571;   -0,909;    2,045
914,136;14179,934;    1,636;    0,955
914,692;14522,389;    0,091;   -1,227
915,249;14123,298;    1,455;    0,409
915,806;14365,480;    0,182;    1,955
916,362;14105,207;    1,909;    1,864
916,918;13664,298;    2,000;    1,045
917,475;13638,025;   -1,182;    0,955
918,031;13734,480;    3,364;   -0,045
918,587;13163,298;   -0,909;   -0,318
919,144;13428,662;   -2,273;    0,227
919,700;13719,571;    1,727;    0,773
920,256;13298,480;    0,727;    0,045
920,812;12965,480;   -0,727;   -1,045
921,368;12950,207;   -1,727;   -1,045
921,924;12562,934;    0,182;   -0,136
922,480;12154,116;   -0,545;    1,227
923,036;12771,298;    1,273;    1,955
923,592;12696,843;    0,455;    0,318
924,148;12628,753;    0,455;   -0,955
924,704;11941,025;   -1,364;   -0,409
925,259;12226,480;   -0,273;    0,591
925,815;11988,571;    1,455;    0,500
926,371;11514,934;    2,909;    1,409
926,926;11413,298;    2,091;    0,591
927,482;11036,934;   -1,364;    0,773
928,037;10934,753;    0,909;    2,045
928,593;11199,298;    1,636;    1,045
929,148;11053,389;   -1,818;   -1,500
929,704;10522,934;   -1,455;   -0,500
930,259;10749,934;    0,091;   -0,136
930,814; 9824,753;   -0,818;    1,955
931,369; 9517,389;    1,091;   -0,773
931,925; 9428,662;   -0,091;    0,136
932,480; 9328,662;   -2,818;   -2,591
933,035; 9217,571;    0,545;   -0,318
933,590; 8993,843;    0,364;   -1,773
934,145; 8657,116;   -1,364;   -0,318
934,700; 8985,753;    0,455;   -0,591
935,255; 8789,662;   -0,091;    0,045
935,809; 8074,843;    3,182;    0,864
936,364; 7237,025;   -0,455;   -0,136
936,919; 7206,116;    0,455;   -1,773
937,474; 7099,389;    1,455;    0,136
938,028; 6888,843;   -1,636;    1,136
938,583; 6348,298;    1,818;    4,682
939,138; 6628,207;    2,091;    2,136
939,692; 6101,843;    1,636;   -1,136
940,247; 5805,207;   -0,727;   -1,045
940,801; 5347,207;   -0,636;    0,227
941,355; 5267,843;   -0,364;    2,591
941,910; 4941,753;   -0,273;   -2,136
942,464; 5035,843;   -0,818;   -0,318
943,018; 4821,480;    1,000;   -0,227
943,572; 4764,389;    2,545;   -0,682
944,126; 4212,389;    0,091;   -0,409
944,681; 4111,116;    3,091;    0,227
945,235; 4097,480;    1,000;   -0,591
945,789; 4022,116;    0,364;   -1,864
946,342; 4119,662;    0,455;   -0,591
946,896; 3932,934;   -2,273;    0,955
947,450; 3705,389;    1,545;   -0,227
948,004; 3889,389;    1,727;   -0,045
948,558; 3892,025;    0,273;   -0,864
949,111; 3819,753;   -0,273;   -0,318
949,665; 3849,753;    1,636;   -0,682
950,219; 3733,207;   -0,091;   -1,045
950,772; 3816,207;   -1,909;    1,864
951,326; 3723,480;    0,545;   -0,955
951,879; 3800,116;    0,727;   -2,318
952,433; 3838,116;    0,000;    2,227
952,986; 3684,207;    2,909;    0,682
953,539; 3619,116;   -0,273;    0,591
954,093; 3573,207;    0,545;   -1,318
954,646; 3700,571;    0,909;    1,318
955,199; 3507,571;    0,000;   -0,500
955,752; 3417,025;   -0,455;    1,773
956,305; 3372,480;   -0,091;    2,955
956,858; 3524,389;    0,818;   -0,318
957,411; 3672,571;   -0,545;    2,136
957,964; 3512,843;    1,364;    2,136
958,517; 3501,571;   -1,545;    3,136
959,070; 3331,662;   -0,455;    1,955
959,623; 3417,389;    1,091;    1,500
960,176; 3206,934;    1,727;    2,045
960,728; 3186,298;   -2,727;    0,773
961,281; 3235,571;    0,545;    0,500
961,834; 3278,116;   -0,909;    0,864
962,386; 3181,116;    1,727;    1,045
962,939; 3117,662;    0,364;   -0,318
963,491; 3272,571;    0,455;    1,136
964,043; 3147,934;    1,182;    2,409
964,596; 3249,207;   -1,000;    2,227
965,148; 3094,389;   -1,000;    1,773
965,700; 3029,025;    1,091;   -0,227
966,253; 3160,662;   -0,636;    0,318
966,805; 3015,480;   -2,273;    0,773
967,357; 3080,662;    1,091;   -1,500
967,909; 3035,934;    0,455;   -1,227
968,461; 3122,843;    0,545;    3,136
969,013; 3073,662;   -0,182;   -0,864
969,565; 3140,480;   -0,455;   -1,136
970,117; 3219,480;   -0,364;    1,045
970,669; 3054,753;    0,182;   -0,136
971,220; 2921,843;   -0,455;   -1,500
971,772; 2837,389;   -0,636;   -0,318
972,324; 2946,753;    0,091;   -0,500
972,876; 2903,207;    0,818;   -0,045
973,427; 3035,116;    1,909;   -1,045
973,979; 3007,662;   -0,727;   -2,500
974,530; 3037,207;    1,818;    1,318
975,082; 3036,025;   -0,545;    1,682
975,633; 2953,207;    1,091;    1,682
976,184; 3088,207;    0,909;    0,773
976,736; 2893,025;    0,091;    0,227
977,287; 2705,571;   -0,909;   -0,500
977,838; 2860,389;    0,909;   -0,318
978,389; 2906,480;   -1,000;   -0,500
978,940; 2787,662;    0,545;   -0,409
979,491; 2825,662;    0,091;   -0,500
980,042; 2791,843;    0,182;    3,045
980,593; 2853,207;   -2,545;    0,227
981,144; 2887,207;    2,545;   -0,500
981,695; 2851,843;    1,455;    1,500
982,246; 2816,934;   -0,273;    1,045
982,797; 2972,843;   -1,727;    0,682
983,347; 3084,662;    0,364;    0,591
983,898; 3230,480;    3,091;    0,409
984,449; 3052,480;    2,182;    0,773
984,999; 2979,843;    1,455;   -1,136
985,550; 2759,389;    0,182;   -0,318
986,100; 2803,480;   -0,455;   -0,318
986,651; 2830,480;   -0,818;    0,045
987,201; 2804,116;   -1,000;   -0,591
987,751; 2876,025;    0,818;    2,864
988,302; 2866,207;    2,636;    1,500
988,852; 2895,207;    0,455;   -1,136
989,402; 2946,207;    0,091;    0,682
989,952; 2883,207;   -2,182;    0,864
990,502; 2974,116;   -0,091;    0,682
991,052; 2923,753;   -0,727;    0,045
991,602; 2796,298;   -2,909;    1,318
992,152; 2800,843;    0,455;    0,682
992,702; 2772,298;    1,364;   -0,045
993,252; 2702,298;   -3,000;   -0,500
993,802; 2804,389;   -0,273;    1,318
994,352; 3035,843;   -1,545;    1,136
994,901; 3106,298;   -0,182;    3,227
995,451; 3015,934;   -0,182;    0,318
996,000; 3120,207;    1,636;    0,318
996,550; 2827,298;    2,273;    0,227
997,100; 2830,480;    1,273;   -0,045
997,649; 3089,389;    2,182;    0,955
998,198; 2741,116;    1,727;   -1,500
998,748; 2931,025;    1,091;   -2,318
999,297; 2859,298;   -0,818;   -0,409
999,846; 2915,934;    1,000;   -0,773
1000,395; 2952,934;   -0,818;    0,500
1000,945; 2912,571;    1,818;   -0,773
1001,494; 3004,480;    2,364;    0,682
1002,043; 2990,025;    4,636;    0,864
1002,592; 2821,389;   -1,091;    1,955
1003,141; 2973,116;   -0,455;   -0,682
1003,690; 2833,207;    1,727;    0,500
1004,238; 2931,298;    1,455;   -0,045
1004,787; 2582,480;    1,364;    1,227
1005,336; 2806,753;    0,364;    0,682
1005,885; 2932,207;    1,364;   -2,773
1006,433; 3077,480;    0,545;    0,955
1006,982; 3137,571;    0,455;    1,682
1007,531; 3047,116;   -1,818;   -0,227
1008,079; 2994,116;   -2,273;    0,500
1008,627; 3119,843;   -1,455;    0,409
1009,176; 2879,025;    0,000;   -1,955
1009,724; 2921,753;    1,091;    0,864
1010,273; 2967,207;    1,273;    0,500
1010,821; 3082,662;    0,091;    1,409
1011,369; 2825,662;   -1,364;    1,318
1011,917; 2798,843;   -1,364;   -0,591
1012,465; 3074,298;    1,273;   -1,591
1013,013; 3195,025;    2,091;   -1,682
1013,561; 3083,571;    0,455;   -0,773
1014,109; 3120,753;   -1,909;    1,682
1014,657; 3001,480;    0,364;    0,591
1015,205; 3137,298;    1,636;   -0,955
1015,753; 3168,389;   -0,545;   -1,409
1016,301; 3191,389;   -2,636;    3,045
1016,848; 3204,389;   -1,273;    0,409
1017,396; 3246,116;    2,545;    0,045
1017,944; 3350,843;    1,182;    1,864
1018,491; 3126,298;    0,273;    1,409
1019,039; 3253,480;    0,455;    0,591
1019,586; 3197,389;   -1,364;    1,682
1020,134; 3281,207;    0,455;    1,500
1020,681; 3306,298;    0,182;   -1,136
1021,228; 3318,662;    2,909;   -2,227
1021,776; 3168,934;    1,182;   -1,136
1022,323; 3375,389;    0,455;    0,773
1022,870; 3303,571;   -1,000;   -0,045
1023,417; 3194,934;    2,636;    1,864
1023,964; 3353,753;    2,636;    1,227
1024,511; 3186,298;    1,000;    0,773
1025,058; 3010,389;    3,182;   -0,045
1025,605; 3057,843;   -2,273;    3,136
1026,152; 3271,025;    1,727;   -0,591
1026,699; 2983,480;    1,818;    1,318
1027,245; 3165,934;   -0,091;    0,318
1027,792; 3381,480;   -1,000;    1,409
1028,339; 3260,298;    2,364;   -0,045
1028,885; 3098,934;    1,000;   -0,227
1029,432; 3060,662;   -0,091;    0,227
1029,978; 3109,480;   -1,000;   -1,591
1030,525; 3005,116;    1,000;    0,409
1031,071; 3272,116;   -1,364;    1,136
1031,618; 3363,571;    0,364;    1,682
1032,164; 3144,207;   -0,091;    3,045
1032,710; 3190,753;    1,636;   -1,500
1033,256; 3119,934;   -0,636;   -0,136
1033,803; 3119,843;   -0,545;    1,500
1034,349; 2826,662;   -1,364;    0,136
1034,895; 2979,116;    0,000;   -0,318
1035,441; 2956,753;   -0,818;    0,318
1035,987; 2971,207;   -2,364;   -0,682
1036,533; 2981,662;   -1,455;   -0,955
1037,078; 3158,843;    1,455;    1,682
1037,624; 2980,753;    2,455;   -0,955
1038,170; 3016,480;    0,455;   -0,318
1038,716; 2920,480;    1,636;   -0,409
1039,261; 2820,662;   -2,273;   -0,773
1039,807; 2773,934;   -0,091;    3,409
1040,352; 2839,298;   -1,909;   -0,318
1040,898; 2885,207;   -1,545;   -0,682
1041,443; 2778,934;   -1,455;   -2,591
1041,989; 2812,662;    1,091;    1,591
1042,534; 2695,571;   -0,364;    2,591
1043,079; 2827,025;    2,909;    0,955
1043,625; 2598,571;    1,818;    0,500
1044,170; 2666,116;   -1,364;    1,045
1044,715; 2900,207;    2,455;    0,955
1045,260; 2713,571;    2,182;   -0,955
1045,805; 2793,025;    1,182;   -0,591
1046,350; 2726,025;    1,364;   -0,409
1046,895; 2670,934;    2,909;    1,591
1047,440; 2611,025;    5,364;    0,409
1047,985; 2523,389;    2,818;   -0,955
1048,530; 2447,662;    1,545;    1,227
1049,074; 2509,934;    0,000;    0,318
1049,619; 2475,662;   -1,364;    1,955
1050,164; 2294,207;    0,455;    0,227
1050,708; 2320,207;   -0,455;    0,045
1051,253; 2697,662;    1,273;   -2,227
1051,797; 2413,025;    0,818;   -1,318
1052,342; 2421,207;   -1,182;    1,045
1052,886; 2402,843;    0,364;   -1,409
1053,430; 2291,662;   -1,364;    0,136
1053,975; 2323,571;   -0,818;   -0,318
1054,519; 2304,843;   -0,727;    3,227
1055,063; 2303,843;    0,909;    1,318
1055,607; 2188,389;   -0,182;    0,227
1056,151; 2220,207;    2,909;    1,682
1056,695; 2145,571;    2,273;   -1,136
1057,239; 2211,025;   -1,727;   -0,682
1057,783; 2207,843;    0,818;   -1,500
1058,327; 2151,571;    0,000;    1,409
1058,871; 2376,389;   -0,545;    1,318
1059,415; 2095,389;   -0,818;   -0,045
1059,958; 2349,025;    1,455;    2,591
1060,502; 2073,753;   -1,000;   -0,773
1061,046; 1989,025;    0,364;   -0,955
1061,589; 1967,116;   -3,000;   -1,136
1062,133; 1853,662;   -1,273;    1,864
1062,676; 1794,298;    1,182;    0,864
1063,220; 1790,025;    1,091;    0,500
1063,763; 1812,843;    0,909;    1,136
1064,306; 1886,025;   -0,909;    1,864
1064,849; 1783,389;   -0,909;    0,591
1065,393; 1778,389;    2,000;   -1,500
1065,936; 1896,571;    0,182;   -0,409
1066,479; 1772,116;   -1,455;    1,318
1067,022; 1806,480;   -0,273;   -0,227
1067,565; 1708,480;   -0,091;   -1,318
1068,108; 1749,207;    0,727;   -0,591
1068,651; 1708,934;   -0,636;    1,409
1069,194; 1640,389;   -0,455;   -1,682
1069,736; 1645,298;   -1,273;    0,955
1070,279; 1615,389;   -1,364;   -0,500
1070,822; 1665,298;   -2,000;   -0,318
1071,364; 1748,753;   -0,364;    1,318
1071,907; 1567,753;   -0,727;    3,227
1072,450; 1485,934;    0,000;   -0,045
1072,992; 1473,116;   -0,273;    3,136
1073,535; 1623,934;    2,091;    2,136
1074,077; 1411,025;   -0,727;    2,045
1074,619; 1370,571;   -1,364;    0,591
1075,161; 1403,207;   -1,091;    1,500
1075,704; 1581,298;    1,545;    1,227
1076,246; 1385,207;   -0,182;    0,682
1076,788; 1324,207;   -0,364;    1,773
1077,330; 1391,298;    1,273;    2,136
1077,872; 1350,207;    0,909;    0,955
1078,414; 1576,753;    2,727;    0,773
1078,956; 1307,843;    1,273;   -0,227
1079,498; 1562,571;    1,636;    0,318
1080,040; 1279,389;    1,909;   -1,318
1080,581; 1220,753;    1,636;   -0,318
1081,123; 1147,934;    0,091;   -0,773
1081,665; 1195,389;   -1,182;   -0,955
1082,206; 1485,025;    1,364;   -0,500
1082,748; 1340,207;    0,727;    2,045
1083,289; 1231,207;   -2,000;    1,318
1083,831; 1136,298;   -0,545;    0,227
1084,372; 1165,662;    0,000;    0,591
1084,913; 1168,025;    1,091;    0,864
1085,455; 1146,843;   -1,909;   -2,045
1085,996; 1114,662;   -2,273;    0,136
1086,537; 1131,298;   -0,091;    0,864
1087,078; 1166,843;   -0,909;   -2,136
1087,619; 1213,480;   -1,273;    0,227
1088,160; 1125,843;    0,000;    1,318
1088,701; 1111,843;   -1,091;    0,682
1089,242; 1048,389;    1,364;   -2,227
1089,783; 1148,480;   -0,273;    1,409
1090,324; 1115,207;    0,455;    0,682
1090,865;  991,571;    2,727;   -0,409
1091,405;  961,753;    0,727;    2,227
1091,946;  986,843;    0,182;   -0,955
1092,487;  909,389;    0,818;   -1,409
1093,027; 1075,389;   -1,364;   -1,500
1093,568;  934,207;   -0,364;    1,227
1094,108; 1030,753;    0,273;    1,773
1094,649;  972,662;   -1,182;    0,136
1095,189;  901,934;   -0,636;   -0,682
1095,729;  854,843;   -0,091;    0,955
1096,269;  873,116;    0,727;   -0,955
1096,810; 1175,480;   -1,364;    0,500
1097,350;  995,934;    1,364;   -0,773
1097,890;  900,116;    0,364;    1,227
1098,430; 1146,480;    2,364;    2,864
1098,970; 1021,025;    2,182;    1,682
1099,510;  895,934;    0,545;   -2,318
1100,050;  823,843;    1,000;   -1,591
1100,589;  801,389;   -0,727;   -0,318
1101,129;  927,389;    0,818;   -0,955
1101,669; 1062,753;    1,727;    2,136
1102,209;  891,389;   -0,091;    2,227
1102,748;  831,843;    0,000;    0,955
1103,288;  826,753;    1,273;   -1,227
1103,827;  861,753;    3,091;   -2,227
1104,367;  734,843;   -0,091;   -2,409
1104,906;  696,480;    1,364;   -1,136
1105,445;  780,389;    0,636;   -1,136
1105,985;  721,207;   -0,727;    1,500
1106,524;  753,116;   -1,727;   -0,682
1107,063;  731,571;   -2,727;    1,409
1107,602;  710,662;   -1,909;   -1,500
1108,141;  629,298;   -1,909;    1,500
1108,680;  727,389;   -3,455;   -0,591
1109,219;  669,389;   -0,909;   -0,500
1109,758;  678,662;    0,455;    0,682
1110,297;  643,843;    1,000;   -0,682
1110,836;  590,843;   -0,727;    0,955
1111,375;  759,025;   -2,545;    0,409
1111,913;  773,025;   -1,000;    0,773
1112,452;  707,480;   -0,273;    0,136
1112,991;  595,480;    1,091;    1,955
1113,529;  548,389;   -0,818;   -0,045
1114,068;  614,025;   -0,273;    2,955
1114,606;  511,480;   -0,364;   -0,955
1115,144;  670,298;   -1,273;    1,045
1115,683;  612,207;   -0,727;    0,318
1116,221;  667,753;   -0,455;   -0,864
1116,759;  563,207;    0,636;   -0,864
1117,297;  751,025;    0,000;    1,864
1117,836;  567,934;   -2,182;   -1,227
1118,374;  580,662;    0,182;   -0,682
1118,912;  524,389;    0,909;    2,682
1119,450;  512,753;    1,000;    0,864
1119,988;  556,298;    1,545;    2,136
1120,525; 1011,389;    5,091;    3,318
1121,063;  712,934;    1,182;    1,864
1121,601;  525,025;   -0,909;   -1,227
1122,139;  482,480;   -0,727;   -2,045
1122,676;  678,480;   -0,727;    2,773
1123,214;  613,116;   -1,182;    4,409
1123,751;  427,116;    1,727;    2,227
1124,289;  550,207;   -0,091;   -0,409
1124,826;  413,025;    1,727;    0,227
1125,364;  348,753;    1,727;   -0,955
1125,901;  531,662;    1,182;    1,227
1126,438;  646,298;    0,818;    0,955
1126,975;  382,571;   -0,727;   -0,773
1127,513;  443,843;    0,273;    2,136
1128,050;  349,843;    1,636;   -0,682
1128,587;  438,389;    2,000;   -0,227
1129,124;  477,480;    0,091;    1,318
1129,661;  355,207;    0,273;    0,227
1130,198;  529,025;    1,636;    0,773
1130,734;  469,662;    0,182;    1,409
1131,271;  317,662;   -0,909;    0,864
1131,808;  496,662;    2,909;    3,045
1132,345;  370,843;    1,545;    0,318
1132,881;  246,753;   -1,545;   -1,864
1133,418;  380,843;    0,727;   -1,136
1133,954;  324,116;    2,455;   -2,682
1134,491;  400,662;    1,364;   -0,773
1135,027;  297,207;    2,364;    0,864
1135,564;  387,662;    0,273;    2,955
1136,100;  362,843;    0,364;    2,136
1136,636;  251,662;   -1,273;   -1,045
1137,172;  350,571;    0,000;   -1,045
1137,708;  272,025;   -1,364;   -1,045
1138,245;  279,843;    1,273;   -1,227
1138,781;  230,843;    1,091;   -3,318
1139,317;  301,934;    1,273;   -1,409
1139,852;  282,480;    3,091;    0,136
1140,388;  398,934;   -1,182;   -0,409
1140,924;  285,025;   -1,091;   -2,227
1141,460;  228,207;   -1,636;    0,136
1141,996;  157,116;   -1,364;    2,682
1142,531;  198,298;    1,364;    3,318
1143,067;  414,116;    1,182;    1,045
1143,602;  468,753;   -0,091;   -0,318
1144,138;  325,298;   -2,636;    1,045
1144,673;  192,662;   -1,455;    1,409
1145,209;  255,389;   -1,909;   -0,318
1145,744;  179,934;   -0,727;    0,864
1146,279;  307,571;    1,818;   -0,136
1146,815;  229,389;    1,545;   -2,682
1147,350;  271,571;   -1,364;    0,045
1147,885;  181,298;   -0,818;   -1,318
1148,420;  176,843;   -2,273;    0,773
1148,955;  164,298;   -1,727;    1,864
1149,490;  190,843;   -0,909;   -1,591
1150,025;  178,298;    0,455;   -1,773
1150,560;  280,662;    1,091;   -0,955
1151,094;  252,662;    1,455;   -0,591
1151,629;  252,843;    1,636;    0,864
1152,164;  173,843;    1,364;    1,318
1152,698;  141,207;   -0,182;   -0,136
1153,233;  108,298;    0,091;   -0,682
1153,767;  154,025;   -3,000;   -2,318
1154,302;  190,753;   -1,455;    1,773
1154,836;  189,753;   -0,455;   -2,136
1155,371;  245,116;   -1,364;    3,682
1155,905;  195,934;   -0,636;    1,682
1156,439;  163,298;   -0,636;   -0,500
1156,973;  201,571;    0,364;    0,318
1157,507;  139,207;   -0,364;    0,682
1158,042;  160,207;   -0,727;    1,045
1158,576;  213,389;    0,182;    1,773
1159,110;  197,025;   -0,818;    2,409
1159,643;  170,116;    0,636;   -0,045
1160,177;  114,298;   -1,545;    1,500

