
Integration time [ms]:   0,040
Averaging Nr. [scans]: 11
Smoothing Nr. [pixels]: 0
Data measured with spectrometer [name]: 7318044SP
Wave   ;Sample   ;Dark     ;Reference
[nm]   ;[counts] ;[counts] ;[counts] 

186,757;   21,237;   31,551;    1,318
187,357;   60,884;   22,551;    0,955
187,958;   31,402;   15,460;   -1,591
188,558;   71,417;    8,915;   -1,227
189,159;   43,886;    6,733;   -4,500
189,759;   13,764;    7,278;   -3,591
190,360;   16,612;    2,824;   -2,136
190,960;   47,761;    2,915;   -4,136
191,560;   64,356;    3,189;   -6,591
192,161;  292,148;    4,372;   -3,500
192,761;  135,372;    4,010;   -3,227
193,361;   87,388;    1,556;   -3,773
193,962;  147,499;    2,010;   -2,682
194,562;   71,625;    1,189;   -3,955
195,162;  103,353;   -2,448;   -2,227
195,762;  258,063;   -3,176;   -0,045
196,362;  205,436;    1,370;   -2,500
196,963;   71,388;    2,006;   -0,864
197,563;  144,600;    1,551;   -0,955
198,163;   96,110;    0,096;   -0,682
198,763;  106,583;    1,733;   -0,500
199,363;  215,009;    3,096;   -0,500
199,963;  174,033;    0,369;    0,409
200,563;  147,345;    2,823;   -1,409
201,163;  135,660;    3,277;   -0,227
201,763;  214,748;    3,732;    0,318
202,363;  155,905;    1,459;    1,500
202,963;  249,160;    1,459;    1,045
203,563;  366,364;    0,277;    0,500
204,162;  224,458;    2,096;   -1,864
204,762;  213,580;    0,550;    0,591
205,362;  182,265;    3,004;    1,955
205,962;  284,478;    3,096;    1,955
206,562;  289,652;    1,823;    2,318
207,161;  251,649;   -0,087;    0,318
207,761;  406,592;    1,277;    2,409
208,361;  283,369;   -0,268;    1,409
208,960;  372,801;    0,459;    1,500
209,560;  449,946;    1,277;    1,591
210,160;  423,845;    0,550;    1,864
210,759;  388,323;    4,186;    1,227
211,359;  406,957;    1,459;    1,045
211,958;  657,029;    1,277;    2,045
212,558;  741,752;    1,732;    1,864
213,157;  584,125;    1,822;    1,500
213,757; 1028,052;    3,822;   -0,227
214,356;  719,708;    1,277;   -0,409
214,956; 1049,565;    3,095;    0,409
215,555;  678,147;    2,095;    2,136
216,154;  626,905;   -2,723;   -0,591
216,754;  635,630;    0,277;    0,773
217,353;  765,857;   -0,268;   -1,045
217,952;  632,041;   -0,178;    0,318
218,552;  863,405;    1,368;   -0,773
219,151;  743,899;    0,277;    0,955
219,750;  751,792;    0,004;   -0,227
220,349;  871,287;   -0,451;    1,045
220,948;  942,206;   -1,360;    1,136
221,548;  953,582;    0,913;    1,227
222,147; 1049,337;   -0,087;   -0,409
222,746; 1328,386;   -0,451;   -0,955
223,345; 1211,390;    0,731;    0,500
223,944; 1218,982;   -0,451;    0,773
224,543; 1386,700;    1,004;   -1,409
225,142; 1489,556;    0,094;    0,136
225,741; 1396,956;   -0,814;    1,045
226,340; 1407,536;   -0,451;   -0,955
226,939; 1845,426;   -0,996;   -0,136
227,538; 1786,712;   -0,360;   -0,773
228,137; 1934,572;   -0,814;    0,864
228,735; 2044,116;   -0,541;    1,227
229,334; 1811,569;   -0,905;   -0,227
229,933; 2184,905;    0,459;    0,591
230,532; 2285,805;    1,186;   -0,409
231,131; 2334,102;    1,732;    0,318
231,729; 2441,537;   -2,450;   -2,318
232,328; 2548,141;   -0,723;   -1,500
232,927; 2609,886;    1,004;   -0,500
233,525; 2712,310;    3,640;    0,045
234,124; 2912,684;    2,368;   -1,591
234,723; 2932,689;    0,913;   -1,045
235,321; 3055,034;    2,277;    0,136
235,920; 3274,265;    1,186;   -1,227
236,518; 3531,974;    3,459;    0,318
237,117; 3669,825;    0,004;   -0,227
237,715; 3799,085;    0,640;   -0,500
238,314; 3853,898;   -0,087;   -2,318
238,912; 3951,929;   -0,723;   -1,409
239,510; 3994,744;    0,459;   -1,227
240,109; 4177,183;    0,004;    3,773
240,707; 4211,884;   -0,996;    1,227
241,305; 4566,737;    0,550;    0,136
241,904; 4778,828;   -0,178;   -2,045
242,502; 4763,921;   -0,632;   -0,227
243,100; 4693,265;   -0,087;   -0,955
243,698; 4938,798;    0,732;    1,682
244,297; 5102,934;   -0,632;    0,682
244,895; 4978,851;   -0,269;   -2,318
245,493; 5290,737;    2,186;   -0,591
246,091; 5332,340;    1,368;   -1,318
246,689; 5296,884;    1,004;    0,591
247,287; 5477,944;    0,822;   -1,136
247,885; 5769,868;   -1,451;    1,227
248,483; 5879,004;    1,822;   -0,500
249,081; 6004,124;    0,185;    1,591
249,679; 6136,969;   -0,178;    1,682
250,277; 6385,681;   -1,723;    0,864
250,875; 6378,630;   -1,087;   -1,045
251,473; 6450,857;   -1,178;    0,500
252,071; 6618,640;    1,459;    1,045
252,669; 6735,254;   -1,814;    0,318
253,267; 7028,279;   -0,087;    0,773
253,864; 6986,762;   -0,360;    0,682
254,462; 6823,320;    1,640;    1,591
255,060; 6807,498;   -0,269;    1,318
255,658; 7145,982;    0,822;   -0,136
256,255; 7553,580;    0,186;   -2,045
256,853; 7425,595;   -0,269;    1,409
257,451; 7430,372;    0,822;    1,864
258,048; 7693,095;    1,822;    1,864
258,646; 7447,865;    1,731;   -1,045
259,243; 7635,140;   -0,087;    2,227
259,841; 7701,134;   -0,814;    0,318
260,438; 7592,656;   -0,087;    0,864
261,036; 8315,965;   -1,905;    1,409
261,633; 8233,983;   -0,087;    2,227
262,231; 7956,192;    2,731;   -0,045
262,828; 8018,869;   -0,905;    1,136
263,425; 8067,276;    0,913;   -0,591
264,023; 8349,771;    0,186;    0,045
264,620; 7920,409;   -0,360;   -0,318
265,217; 8257,619;   -2,087;    3,136
265,815; 8376,577;   -1,905;    2,136
266,412; 8157,529;    0,731;    0,136
267,009; 8213,007;   -1,451;    0,773
267,606; 8082,865;    0,822;   -0,955
268,203; 8064,089;   -0,269;   -0,591
268,801; 8375,648;    1,731;    0,591
269,398; 8659,355;   -0,360;    2,500
269,995; 8598,869;    0,277;    1,591
270,592; 8425,691;   -0,632;   -0,500
271,189; 8618,931;    0,186;    0,409
271,786; 8701,580;   -0,632;    1,227
272,383; 8516,694;   -1,087;    0,227
272,980; 8719,614;    0,277;    0,318
273,577; 9203,228;    0,004;    1,227
274,174; 8769,352;    0,822;    2,591
274,771; 8756,800;   -0,814;   -0,773
275,367; 8889,772;    2,277;    1,409
275,964; 8856,024;    0,731;   -0,500
276,561; 8921,166;    1,549;   -1,045
277,158; 9144,424;    0,095;   -1,773
277,755; 9274,305;    2,185;    0,409
278,351; 8692,318;   -0,451;   -1,500
278,948; 8974,910;   -0,815;    0,045
279,545; 8997,660;   -1,360;    2,318
280,141; 9598,914;   -1,723;   -2,045
280,738; 9475,253;   -0,451;   -0,136
281,334; 9708,628;   -1,633;    0,591
281,931; 9098,439;   -0,087;   -1,318
282,528; 9240,921;    0,822;   -0,500
283,124; 9960,956;   -1,087;   -0,500
283,721; 9836,345;   -0,451;    1,409
284,317; 9671,865;    0,185;    2,500
284,913;10223,771;   -1,360;    0,591
285,510;10396,680;    0,640;   -0,318
286,106;10389,822;   -2,269;   -0,955
286,703;10030,878;   -0,360;    1,955
287,299;10236,225;   -1,451;   -0,591
287,895;10438,530;    0,822;   -1,045
288,491;11006,082;    0,186;    2,136
289,088;10750,149;   -2,360;    2,409
289,684;10833,891;   -1,723;    1,500
290,280;10810,185;    0,368;    0,682
290,876;10885,741;    1,822;    5,500
291,472;10785,636;    1,276;    2,227
292,068;10893,369;    1,367;    0,227
292,665;10632,134;    2,095;    0,773
293,261;10248,478;    0,276;    2,136
293,857;10653,183;    2,913;    2,136
294,453;10591,268;    3,550;    0,955
295,049;10505,198;   -0,268;    1,955
295,644;10498,551;    0,095;    0,136
296,240;10449,508;   -0,905;   -0,136
296,836;10485,765;   -0,995;    0,318
297,432;10730,419;    1,096;   -0,500
298,028;10786,480;    0,732;    0,773
298,624;11182,767;    1,459;    1,864
299,220;11421,730;    2,368;    0,591
299,815;11092,618;    1,005;   -0,409
300,411;10906,107;    0,914;    1,773
301,007;10927,750;    1,368;    0,227
301,602;10970,009;   -0,541;   -2,318
302,198;11097,016;    0,732;   -0,773
302,794;11454,425;    1,187;   -0,500
303,389;11564,063;   -1,177;    1,045
303,985;11634,853;    0,550;    1,409
304,580;11598,969;    1,459;    1,591
305,176;11578,531;   -3,086;    0,136
305,771;11547,932;   -1,268;   -1,227
306,367;11309,542;    4,095;    0,136
306,962;11676,463;    0,641;    1,500
307,558;11430,220;   -0,450;    0,136
308,153;11344,986;    1,095;   -1,136
308,748;11574,315;   -0,814;    1,682
309,344;11553,028;   -0,632;   -1,318
309,939;11597,415;   -1,905;   -1,318
310,534;11876,994;   -0,086;   -1,682
311,130;11840,558;    0,459;   -2,500
311,725;11564,382;    1,004;   -0,500
312,320;11891,070;    2,459;    0,045
312,915;11727,358;    1,459;   -1,045
313,510;11813,232;    1,550;   -0,500
314,105;12295,481;    1,096;    1,409
314,700;11695,486;   -3,086;   -1,045
315,295;11334,060;   -0,904;    0,045
315,890;10917,916;    1,277;    0,864
316,485;11266,748;   -0,359;   -0,318
317,080;11374,646;   -3,086;    1,591
317,675;11938,798;    2,005;   -0,682
318,270;11370,020;    5,550;    3,318
318,865;11360,746;    3,278;    3,045
319,460;11198,614;   -0,904;    0,591
320,055;11472,073;   -0,541;   -1,227
320,650;11096,857;   -1,995;   -0,591
321,244;11175,985;   -0,177;   -1,409
321,839;12117,125;   -1,541;   -0,227
322,434;11970,980;   -1,086;   -1,591
323,029;11604,781;    1,732;    1,591
323,623;11432,224;    1,550;    0,773
324,218;11191,321;    2,368;    1,409
324,812;11063,516;    1,096;    1,591
325,407;10872,160;   -0,814;    2,045
326,002;10801,767;    0,277;   -0,409
326,596;11092,484;    0,914;    1,318
327,191;11285,309;    0,823;   -1,045
327,785;10894,575;   -0,813;   -0,227
328,379;11120,794;    1,368;    0,136
328,974;10910,643;    0,914;   -3,955
329,568;11151,820;    0,186;   -2,409
330,163;10956,904;    2,096;    1,045
330,757;11318,083;    2,459;    1,591
331,351;10661,560;    0,459;    0,682
331,945;10950,242;    0,914;    1,409
332,540;10574,197;   -1,723;   -0,591
333,134;10668,963;   -1,086;    0,773
333,728;10931,985;    0,005;    0,318
334,322;11287,460;   -1,177;   -0,864
334,916;10575,577;    0,277;    0,955
335,510;10894,953;   -0,450;   -0,136
336,105;11169,309;   -1,086;    1,591
336,699;10893,926;   -1,086;    0,591
337,293;10824,817;   -1,723;    0,318
337,887;10961,737;   -2,723;    1,955
338,481;11054,500;    0,459;    0,591
339,074;11217,758;   -0,359;    2,682
339,668;11046,269;   -1,632;    1,227
340,262;11281,812;    1,732;    3,227
340,856;10817,008;    1,822;   -0,682
341,450;10197,893;    1,004;    1,864
342,044;11097,454;    1,459;    0,136
342,637;10869,638;    0,913;   -2,136
343,231;10745,705;   -2,360;    0,682
343,825;10691,198;   -1,086;   -0,591
344,419;10685,883;   -1,995;    0,500
345,012;10458,543;    2,459;    4,045
345,606;10454,963;    4,641;    1,591
346,199;10323,075;   -1,813;   -0,227
346,793; 9860,404;    1,914;    2,045
347,386;10019,667;   -0,813;   -1,136
347,980;10043,335;   -0,268;   -0,045
348,573; 9846,111;    2,278;    0,409
349,167; 9544,613;    5,278;    4,773
349,760; 9867,463;    2,914;    2,682
350,354; 9844,187;   -0,813;    1,136
350,947; 9612,778;    1,096;    1,682
351,540; 9288,171;   -0,358;   -1,409
352,134; 9213,312;    1,096;    1,136
352,727; 9300,241;   -0,086;    1,136
353,320; 9104,346;    0,005;    0,591
353,913; 8987,836;   -1,995;    1,864
354,507; 9146,294;    0,823;   -1,227
355,100; 9163,835;    0,460;    0,864
355,693; 8438,262;    2,005;    2,409
356,286; 8460,766;    0,823;    2,773
356,879; 8826,283;   -0,722;    1,227
357,472; 8428,134;   -0,904;    1,500
358,065; 8627,546;   -0,722;    2,500
358,658; 8527,918;   -0,540;    2,318
359,251; 8186,102;   -1,631;   -0,591
359,844; 7697,817;   -1,904;   -1,136
360,437; 7865,715;   -2,995;    0,045
361,030; 8126,708;    1,369;   -0,682
361,623; 7718,537;    2,824;    0,318
362,215; 7756,120;   -0,086;    2,045
362,808; 7593,942;   -2,358;   -1,682
363,401; 7795,318;   -2,449;    0,136
363,994; 7541,827;   -0,631;   -1,500
364,586; 7480,382;    0,824;   -1,500
365,179; 7673,854;   -0,449;   -1,136
365,772; 7182,691;   -1,995;    2,045
366,364; 7477,346;    1,915;   -3,227
366,957; 7660,767;    2,279;   -0,045
367,549; 7663,153;    2,188;   -0,864
368,142; 7359,044;    1,825;   -1,500
368,734; 7531,856;    0,734;   -2,136
369,327; 7489,115;    1,643;   -0,500
369,919; 7421,151;   -1,538;    0,409
370,512; 7242,601;   -1,083;   -0,500
371,104; 6977,690;   -0,901;    1,591
371,696; 7114,010;    1,191;   -0,955
372,289; 7201,661;    0,373;    1,136
372,881; 7333,912;   -2,080;    1,318
373,473; 7263,662;   -2,170;    1,136
374,066; 7089,990;   -0,169;    0,500
374,658; 6962,825;    0,378;    1,136
375,250; 7297,485;    0,653;   -1,409
375,842; 7155,761;    0,473;   -0,045
376,434; 7016,862;   -0,435;   -0,409
377,026; 7581,668;    0,204;   -2,500
377,618; 7497,604;   -0,158;   -0,682
378,210; 7359,925;   -0,338;   -1,955
378,802; 7180,961;    0,754;   -0,591
379,394; 7131,987;    1,846;    0,682
379,986; 7700,885;    1,393;   -0,955
380,578; 7807,289;   -0,153;    0,773
381,170; 7156,662;   -0,972;    0,045
381,762; 7124,847;    0,755;    1,409
382,354; 7328,798;   -0,065;   -1,318
382,945; 7417,145;   -2,976;    0,318
383,537; 7561,385;   -2,705;   -1,955
384,129; 7584,411;   -2,160;   -1,136
384,721; 7767,513;   -0,252;    0,955
385,312; 7681,481;   -0,161;   -0,955
385,904; 7774,611;   -2,706;    1,591
386,496; 7153,495;   -0,979;    1,045
387,087; 7296,814;    1,022;    2,500
387,679; 7332,339;   -1,160;    0,045
388,270; 7485,504;    2,840;    2,045
388,862; 7594,001;    1,295;   -0,318
389,453; 7504,175;   -0,887;    1,045
390,045; 7742,417;   -0,705;   -2,682
390,636; 7662,003;    0,204;   -0,591
391,227; 7531,392;   -0,523;   -0,045
391,819; 7653,586;    0,204;    0,773
392,410; 7686,391;    1,022;    0,045
393,001; 7622,928;   -0,979;   -1,591
393,593; 7892,333;    1,930;   -0,045
394,184; 7754,566;    1,385;   -0,409
394,775; 7677,688;    1,839;    2,136
395,366; 7880,177;    1,385;    0,773
395,957; 7854,969;    0,113;    0,136
396,548; 8158,442;   -0,342;    2,682
397,139; 8487,777;   -2,433;    0,591
397,730; 8234,690;   -1,888;    0,955
398,321; 8242,889;   -1,252;    0,955
398,912; 8282,198;   -0,615;    0,136
399,503; 8376,682;   -3,524;   -1,409
400,094; 7852,451;    0,294;    1,682
400,685; 7695,371;   -0,433;    0,045
401,276; 7744,638;    0,930;   -0,955
401,867; 8071,379;   -0,888;    0,773
402,458; 8179,515;   -2,251;   -2,318
403,048; 8178,294;    1,112;    0,591
403,639; 7778,271;    0,840;    0,864
404,230; 8018,507;    2,476;    0,318
404,821; 7921,409;   -0,615;    0,045
405,411; 8072,362;    1,203;   -2,591
406,002; 7669,507;   -1,252;   -1,136
406,592; 7528,707;    2,294;    0,045
407,183; 7815,126;    0,566;   -1,500
407,774; 7763,631;    3,475;   -0,136
408,364; 8079,139;    0,930;    0,409
408,954; 7674,662;    0,384;    1,227
409,545; 7729,569;    1,021;    1,045
410,135; 7296,135;    1,293;    0,500
410,726; 7427,747;    1,838;    0,318
411,316; 7807,873;    0,111;    0,773
411,906; 7473,555;   -0,253;   -0,409
412,497; 6986,559;   -1,070;   -0,045
413,087; 7588,803;   -1,980;   -0,227
413,677; 7966,233;   -0,707;    3,864
414,267; 7789,926;    0,656;    1,409
414,857; 7776,658;   -2,980;    4,227
415,448; 8066,838;    0,839;    0,500
416,038; 7770,145;    0,020;   -0,591
416,628; 7732,958;   -0,889;    0,409
417,218; 7201,755;    0,565;    3,318
417,808; 7458,033;    0,202;   -0,409
418,398; 7926,973;    0,020;    2,682
418,988; 7935,401;    2,020;    0,591
419,578; 8149,388;   -0,707;    1,409
420,168; 8470,102;   -1,343;   -0,955
420,757; 8054,777;   -1,343;   -1,500
421,347; 7742,507;    0,111;   -0,227
421,937; 7899,445;    2,292;    1,409
422,527; 7834,545;    0,838;   -0,773
423,116; 7690,548;   -0,253;   -0,045
423,706; 8011,436;   -1,889;    0,318
424,296; 7989,162;    1,384;    0,682
424,885; 8375,980;   -0,071;   -3,045
425,475; 8633,537;    1,474;   -2,864
426,065; 8541,929;   -0,980;   -0,318
426,654; 8205,475;   -0,435;   -0,318
427,244; 8288,570;    0,020;    1,409
427,833; 7775,747;    1,383;   -0,500
428,423; 8244,073;   -0,526;    1,136
429,012; 8964,274;   -0,344;   -1,136
429,601; 8445,678;   -1,344;    0,136
430,191; 8673,781;    1,292;    4,318
430,780; 8317,680;   -0,344;   -0,409
431,369; 8265,315;    0,746;   -0,045
431,959; 8901,531;   -1,254;    0,500
432,548; 8642,382;   -1,163;   -0,045
433,137; 8753,027;   -1,254;   -1,318
433,726; 9264,930;    0,292;    0,500
434,315; 8639,997;   -0,526;    2,409
434,905; 8724,238;   -1,254;    1,409
435,494; 8666,891;    0,746;    0,955
436,083; 9086,630;   -0,981;   -0,955
436,672; 8947,003;    0,110;    0,500
437,261; 8562,988;    0,292;   -1,955
437,850; 8614,587;    1,383;    0,682
438,439; 8598,129;    3,291;    1,955
439,027; 8431,316;    3,655;    1,773
439,616; 8755,998;    2,927;    1,227
440,205; 8645,953;    0,200;   -2,136
440,794; 8675,456;    2,109;   -0,045
441,383; 8928,353;   -1,346;   -0,591
441,971; 8795,441;   -2,436;    0,591
442,560; 8594,852;    0,563;   -1,773
443,149; 8357,179;    0,379;   -1,318
443,737; 8519,665;   -0,074;   -2,318
444,326; 8777,309;    0,018;    0,318
444,915; 8822,245;   -1,982;    0,864
445,503; 9194,510;   -2,891;   -0,318
446,092; 8483,243;    0,382;    2,136
446,680; 8979,072;    0,382;    0,318
447,269; 9144,502;   -0,346;   -0,318
447,857; 8913,971;    0,018;   -1,773
448,445; 8999,916;    0,563;    1,318
449,034; 9230,851;   -1,528;   -1,136
449,622; 9359,943;   -1,073;    3,500
450,210; 8606,793;    2,017;    2,227
450,799; 9065,889;    0,290;   -0,591
451,387; 9058,470;    1,381;   -0,591
451,975; 8716,099;    2,654;    0,864
452,563; 8778,691;    3,472;    2,318
453,151; 8833,076;   -0,528;   -1,227
453,739; 8757,439;   -1,347;    0,136
454,328; 8574,763;    2,381;   -2,136
454,916; 8306,987;    2,562;   -0,136
455,504; 8487,097;    1,017;    1,227
456,092; 8667,664;    0,017;   -1,591
456,679; 8637,545;    1,472;    0,682
457,267; 8570,286;    4,017;    1,045
457,855; 8743,174;    1,017;    1,409
458,443; 8465,646;   -0,165;    1,682
459,031; 8593,453;    0,108;    2,409
459,619; 9047,322;   -1,801;    2,864
460,206; 9190,268;    0,835;    2,045
460,794; 9256,763;   -2,983;   -0,227
461,382; 9429,907;   -0,529;   -0,864
461,970; 9038,027;    1,198;    1,864
462,557; 9089,329;   -0,711;   -0,682
463,145; 9220,654;   -3,165;   -1,682
463,732; 9346,950;    2,016;   -1,045
464,320; 9299,907;   -0,075;   -3,045
464,907; 8978,870;    2,743;   -0,773
465,495; 8862,238;    0,743;   -1,227
466,082; 8997,118;   -1,984;   -0,045
466,670; 8923,757;   -2,529;    1,227
467,257; 9338,673;   -1,711;    2,045
467,844; 9454,347;   -0,075;    0,045
468,432; 9459,107;    0,834;    3,500
469,019; 9011,188;    0,925;   -1,773
469,606; 9444,601;    0,470;    3,682
470,193; 9270,960;   -1,439;    0,227
470,780; 8892,545;   -2,075;    0,864
471,368; 9212,316;   -1,257;   -0,773
471,955; 8994,400;    1,379;   -0,682
472,542; 8626,540;    0,652;   -1,136
473,129; 8840,919;   -0,166;    0,136
473,716; 8581,884;    1,470;    0,591
474,303; 8774,612;    0,652;   -0,864
474,890; 9027,041;   -1,439;   -0,500
475,477; 9039,565;   -1,621;    0,409
476,064; 8915,586;    1,106;   -1,591
476,650; 8839,204;    0,288;    0,318
477,237; 8689,476;   -0,258;    0,955
477,824; 8814,784;   -1,076;    0,864
478,411; 8836,417;   -1,894;   -0,318
478,997; 9025,798;    0,560;   -0,773
479,584; 9066,334;    1,196;   -0,409
480,171; 9690,326;   -0,440;   -0,773
480,757; 9334,739;    2,651;    0,773
481,344; 9599,751;    0,469;    0,409
481,931; 9098,961;    1,105;    1,045
482,517; 9987,846;   -1,258;    0,318
483,104;10467,577;    1,106;    2,864
483,690;10720,215;   -1,804;    0,045
484,276;11053,989;   -0,895;    0,227
484,863;10811,434;    2,469;    1,136
485,449;11352,002;   -0,077;    0,318
486,035;11343,217;   -1,986;   -0,136
486,622;11712,838;   -0,895;    0,045
487,208;11698,182;    1,378;    1,500
487,794;11578,953;    0,741;    0,318
488,380;11651,686;    0,105;   -1,409
488,967;11684,442;   -1,168;   -0,409
489,553;11749,279;   -1,895;   -1,409
490,139;11923,886;    1,559;    0,773
490,725;11433,617;    0,741;   -0,227
491,311;11085,129;    3,287;    3,045
491,897;10476,313;   -0,986;    1,500
492,483;10359,713;    0,105;    1,227
493,069;10195,467;    3,923;    0,864
493,655;10190,329;    1,650;    0,682
494,241;10127,750;    1,377;   -0,955
494,826;10506,188;    0,287;   -1,045
495,412;10011,400;    2,559;   -0,682
495,998;10180,437;   -0,805;   -0,318
496,584;10343,276;    0,377;    1,045
497,169;10367,799;    1,014;   -0,682
497,755;10379,431;    0,650;    1,227
498,341;10966,798;    0,559;    0,318
498,926;10541,507;    1,832;    1,955
499,512;10762,504;    1,286;    2,955
500,097;10895,661;    0,195;   -0,318
500,683;10896,470;   -0,350;    2,136
501,268;11313,684;   -0,169;   -0,955
501,854;11054,844;   -0,169;    1,227
502,439;11017,228;   -0,624;   -1,773
503,024;11239,638;    0,195;    0,500
503,610;11363,939;   -0,078;   -0,682
504,195;11420,886;    0,558;    1,955
504,780;11596,778;    2,922;    1,227
505,366;11429,410;    3,013;    2,864
505,951;11202,489;    0,740;    1,045
506,536;11285,333;   -3,260;   -3,682
507,121;11295,082;    0,285;   -0,318
507,706;11836,993;    2,376;    1,045
508,291;12240,308;    2,649;    1,136
508,876;11732,378;   -0,988;    2,591
509,461;11222,545;   -0,169;   -0,773
510,046;11687,209;    0,194;    0,318
510,631;11919,014;   -0,351;   -0,773
511,216;11646,903;    2,467;   -0,500
511,801;12011,396;   -0,442;    2,591
512,386;12327,444;    0,740;    0,500
512,971;12309,465;   -2,988;    0,955
513,555;11902,966;   -0,897;   -1,500
514,140;12673,456;   -0,442;   -3,136
514,725;12671,267;   -0,715;   -1,136
515,309;12853,717;   -0,533;    0,318
515,894;12371,413;   -0,624;   -2,227
516,479;12807,511;   -0,624;   -0,955
517,063;12672,686;    0,376;    1,227
517,648;12797,689;    1,012;   -1,136
518,232;12451,756;   -0,261;   -1,409
518,817;12816,181;   -0,079;    1,682
519,401;13041,510;    2,194;    0,591
519,985;12562,049;    1,103;    1,136
520,570;12462,002;    0,830;   -1,955
521,154;12718,527;    2,102;    0,591
521,738;12875,002;   -2,352;    2,409
522,323;13471,432;   -0,170;    1,682
522,907;13212,333;    0,466;   -0,136
523,491;12977,244;    0,557;    0,955
524,075;12941,215;    2,284;    0,591
524,659;12992,415;    1,466;    0,591
525,243;12479,449;    1,739;    0,409
525,827;12734,094;    0,648;   -0,045
526,411;13552,870;   -1,989;   -0,136
526,995;13764,483;   -0,352;    1,409
527,579;13357,873;   -0,443;   -1,045
528,163;13672,643;    0,375;   -1,500
528,747;13603,912;    2,466;   -0,773
529,331;13915,757;   -0,080;   -1,409
529,915;14120,311;    1,738;    0,955
530,499;14076,281;   -0,807;    1,227
531,082;13755,145;   -0,534;    1,591
531,666;13224,692;    1,374;    0,773
532,250;13900,428;    1,284;    2,682
532,833;14226,658;    0,920;    2,773
533,417;14114,326;   -1,807;    0,864
534,001;14069,462;    1,647;   -0,318
534,584;14756,689;    0,374;    0,500
535,168;14609,142;    0,465;    1,409
535,751;14624,360;    0,647;    0,045
536,334;14068,003;   -0,898;   -0,409
536,918;14675,031;    0,011;    1,591
537,501;14779,496;   -0,899;    1,318
538,085;14770,046;   -0,444;    1,045
538,668;14945,472;    0,829;    2,409
539,251;15238,352;    1,829;    3,773
539,834;15266,076;    0,101;    0,773
540,418;15185,945;   -1,990;    4,318
541,001;15276,636;   -0,990;    1,773
541,584;15271,913;    2,101;    2,227
542,167;14963,524;    1,374;    2,955
542,750;15165,561;    1,919;   -0,773
543,333;14741,828;    0,555;    2,136
543,916;15522,660;    0,192;    2,500
544,499;16124,001;   -1,354;    0,227
545,082;16116,700;    1,374;    3,591
545,665;16231,633;    1,919;    1,500
546,248;16546,100;    1,010;   -0,318
546,830;16258,066;   -0,445;    1,955
547,413;16625,416;    1,010;   -0,773
547,996;17186,122;    0,555;    0,500
548,579;16954,649;    0,919;    0,955
549,161;16734,166;    1,828;    2,682
549,744;16563,603;   -0,809;    0,409
550,326;17061,332;   -0,809;   -1,136
550,909;16818,675;    2,737;    0,591
551,492;17204,964;   -0,263;    0,227
552,074;17008,711;   -0,173;   -1,318
552,657;17618,954;    2,373;    0,045
553,239;17364,594;   -0,173;   -0,773
553,821;17241,034;   -1,082;    1,045
554,404;16743,014;    1,282;    1,136
554,986;17122,022;    0,464;    1,045
555,568;17742,026;    1,191;   -0,955
556,151;16937,815;    1,191;   -0,227
556,733;17157,382;   -0,264;   -0,864
557,315;17561,951;    0,100;    0,500
557,897;17396,463;    0,554;   -0,500
558,479;17557,768;   -1,991;    1,318
559,061;17697,517;   -0,719;   -0,864
559,643;18025,567;   -0,264;    0,045
560,225;18338,270;    1,645;    2,864
560,807;18387,294;    0,918;    0,318
561,389;17882,541;    0,554;    2,318
561,971;18596,660;    0,463;    2,136
562,553;18397,457;   -1,628;    1,591
563,135;18502,486;   -0,537;    1,136
563,717;18092,636;    3,372;    1,136
564,298;18817,492;    3,645;   -0,045
564,880;18533,675;    0,645;   -1,409
565,462;18718,311;    0,645;    1,318
566,043;19809,590;   -0,446;    2,318
566,625;19367,317;    1,918;    1,227
567,207;19215,603;    1,099;    1,682
567,788;20293,788;   -1,264;    1,500
568,370;21081,867;    1,917;   -0,500
568,951;20904,581;    0,190;    0,227
569,533;21748,877;   -0,628;   -0,500
570,114;22194,628;   -0,446;    0,682
570,695;22690,201;   -0,174;   -1,318
571,277;23160,846;   -0,265;   -1,682
571,858;23856,142;    2,008;   -1,136
572,439;24727,921;    1,554;   -1,045
573,021;24869,535;    2,099;   -2,773
573,602;25377,435;   -1,265;    0,318
574,183;26247,686;   -2,083;    2,227
574,764;26344,926;   -1,629;    0,409
575,345;26827,753;    0,917;   -0,136
575,926;27451,280;   -0,356;    0,136
576,507;27413,343;    1,099;   -0,227
577,088;28578,494;    3,099;    1,682
577,669;28536,569;    0,735;    1,955
578,250;29201,141;    0,644;   -1,045
578,831;29854,408;   -1,356;   -2,227
579,412;30076,540;   -0,810;    0,955
579,993;31033,693;    1,008;    0,227
580,573;31434,270;   -0,629;   -0,955
581,154;30373,054;    0,735;   -0,591
581,735;31162,719;    0,644;    0,773
582,315;30680,446;   -0,629;    2,136
582,896;31005,199;   -0,174;    1,227
583,477;30481,580;    0,189;    1,227
584,057;30708,390;    0,553;    0,955
584,638;30981,511;    2,553;    2,318
585,218;30913,479;   -0,538;    2,682
585,799;31082,049;    0,281;   -0,227
586,379;31125,585;    0,372;    1,591
586,959;29912,293;    0,735;    0,318
587,540;29301,587;   -0,629;    2,227
588,120;28944,910;    1,007;   -0,045
588,700;27935,106;    2,553;    2,136
589,281;28217,300;    0,462;   -0,955
589,861;28147,880;    0,099;   -1,682
590,441;27980,665;    2,371;   -2,682
591,021;26972,965;   -0,265;   -2,591
591,601;27158,065;   -0,537;    0,500
592,181;27191,638;   -0,719;   -0,773
592,761;26542,020;    0,007;    1,409
593,341;26482,171;   -0,901;    0,045
593,921;26450,555;   -0,265;    1,591
594,501;26313,414;   -0,538;    1,318
595,081;26134,857;    0,917;   -0,318
595,661;26474,652;   -1,447;    0,955
596,240;27042,187;   -0,537;    0,136
596,820;26656,476;    0,372;    1,955
597,400;26850,862;    2,008;    0,773
597,980;27059,393;    2,008;    1,045
598,559;27064,769;    2,735;   -0,227
599,139;26799,774;   -0,174;   -1,227
599,718;26709,683;   -0,174;   -0,409
600,298;26944,254;    0,735;    0,682
600,877;27191,941;    2,917;    1,409
601,457;27450,685;    2,281;    1,136
602,036;27340,065;    0,190;    2,045
602,616;27587,847;    0,644;    1,682
603,195;27890,866;   -0,355;    3,500
603,774;27429,840;   -0,901;    2,045
604,354;27283,265;    0,826;   -0,500
604,933;26797,245;    0,463;    1,864
605,512;26957,419;    3,554;    0,591
606,091;27012,376;   -0,537;    3,773
606,671;27796,928;    0,281;    0,773
607,250;26911,384;    1,644;    3,136
607,829;27154,276;    2,372;    3,227
608,408;27018,889;    1,190;    2,591
608,987;26070,049;    1,281;    3,409
609,566;26377,108;   -1,265;   -2,500
610,145;26487,839;   -1,082;    0,682
610,723;26903,054;    4,372;    6,864
611,302;26200,588;   -0,446;    1,682
611,881;25645,775;    5,008;   11,227
612,460;26504,383;    1,645;    3,955
613,039;26931,581;   -0,082;    2,045
613,617;25669,401;    1,736;    4,773
614,196;25867,323;    1,099;    1,227
614,775;26225,094;    1,009;    2,409
615,353;26154,965;    0,736;    0,864
615,932;25909,482;    0,100;    2,409
616,510;26503,639;    0,554;    0,591
617,089;25986,999;    7,100;   17,591
617,667;25752,665;    2,372;    6,136
618,246;25639,414;   -1,537;    1,318
618,824;25800,750;   -3,355;   -0,955
619,402;25377,387;   -2,900;   -1,773
619,981;25858,559;   -0,173;   -1,045
620,559;25733,340;    0,009;    1,682
621,137;25254,314;   -0,718;    1,864
621,715;25284,711;   -1,173;   -0,682
622,293;25242,010;   -0,537;   -0,773
622,871;25740,224;   -0,718;    0,500
623,450;25277,844;    0,373;   -0,864
624,028;25140,006;    0,191;   -0,955
624,606;24771,756;   -1,718;    1,682
625,183;25176,261;   -1,536;   -1,136
625,761;24767,988;    1,009;    1,136
626,339;25084,820;    1,373;    2,591
626,917;25501,881;   -0,172;   -0,045
627,495;25543,278;   -0,354;    1,318
628,073;24955,388;   -0,263;    2,864
628,650;24651,739;    0,100;    2,136
629,228;25079,689;    0,373;    4,409
629,806;24545,468;    2,282;    1,136
630,383;24825,516;    1,464;   -0,318
630,961;24567,498;    2,555;   -0,955
631,539;24343,484;    2,464;    0,227
632,116;23705,862;   11,373;   15,409
632,694;24271,244;    2,555;    6,500
633,271;24521,252;    0,828;    2,682
633,848;24436,353;    1,828;    2,045
634,426;24544,305;   -1,081;    1,773
635,003;23668,157;    1,101;   -0,409
635,580;23924,700;    1,192;    3,682
636,158;24531,326;    3,737;    1,227
636,735;24479,555;    0,555;   -0,500
637,312;24627,417;   -0,809;   -0,682
637,889;24763,361;   -4,354;   -0,682
638,466;24208,786;   -3,990;   -0,409
639,043;24208,341;    2,101;   -1,136
639,620;24533,764;   -2,262;   -0,955
640,197;24883,899;    1,100;    1,682
640,774;25004,037;   -0,172;    1,136
641,351;25321,357;    0,737;    1,136
641,928;24769,495;   -0,627;    1,409
642,505;24435,997;    0,828;   -0,500
643,082;24609,407;   -1,718;    1,227
643,658;23675,727;   -0,718;    1,500
644,235;24343,320;    1,191;    2,500
644,812;24619,003;    1,918;    0,773
645,388;24394,959;   -0,991;    1,409
645,965;24530,461;   -0,809;    1,682
646,542;24566,689;   -1,445;   -0,227
647,118;24507,191;    1,009;   -0,955
647,695;24845,602;   -0,263;    1,136
648,271;24739,103;   -0,536;    0,500
648,848;25066,423;    0,736;    2,227
649,424;24837,379;    0,827;    1,318
650,000;24666,790;   -0,354;   -1,045
650,577;24457,110;   -0,627;   -0,955
651,153;24874,248;   -1,809;    0,955
651,729;25911,567;    1,191;    0,864
652,305;26006,342;    0,645;    2,773
652,881;29982,661;   -0,082;    1,136
653,458;36494,163;    1,100;    0,227
654,034;40251,119;    0,282;    1,591
654,610;41772,894;    0,554;    0,773
655,186;43145,668;    0,645;    3,045
655,762;42920,897;   -0,991;    0,409
656,338;42912,216;    0,100;    0,136
656,913;43863,264;   -0,082;    0,409
657,489;43140,311;    0,827;   -0,318
658,065;43164,176;   -0,173;   -1,591
658,641;43822,041;   -0,900;   -0,864
659,217;43134,088;   -0,991;    0,409
659,792;42537,862;    0,645;   -0,409
660,368;42740,909;   -2,173;   -0,682
660,944;42538,866;   -2,082;    1,227
661,519;38355,185;   -0,628;    0,409
662,095;32751,687;   -1,719;    0,591
662,670;28165,370;    1,281;   -0,136
663,246;26894,145;    1,009;   -0,409
663,821;26193,101;    0,281;    1,682
664,396;25729,875;    0,009;    1,864
664,972;25919,649;    0,009;   -0,500
665,547;26224,151;    1,372;    0,136
666,122;26293,653;   -1,082;    0,318
666,698;26537,154;   -0,173;    0,318
667,273;25905,747;   -0,173;    0,136
667,848;26679,521;    2,372;    1,500
668,423;26464,386;    2,190;    2,318
668,998;26974,433;    2,827;   -0,682
669,573;27576,389;   -3,264;   -1,500
670,148;27398,800;   -1,446;   -0,682
670,723;27178,029;   -1,810;    0,318
671,298;27561,621;    2,372;    1,045
671,873;27707,941;   -0,082;   -0,136
672,448;27683,988;    0,645;    0,136
673,023;27972,399;   -1,992;   -0,227
673,597;28233,264;    0,827;    2,318
674,172;28061,857;   -0,355;    0,318
674,747;27612,449;    0,372;   -1,045
675,321;27446,587;   -0,628;    3,318
675,896;27042,543;    0,645;    1,045
676,471;28055,045;    2,645;    1,591
677,045;27795,819;   -1,264;    0,682
677,620;27836,957;    0,190;    1,136
678,194;28176,913;   -2,628;    1,136
678,769;27747,687;   -1,083;   -0,318
679,343;27942,280;   -0,628;    1,773
679,917;27802,236;   -1,446;    1,955
680,492;27918,738;    0,826;    3,227
681,066;28061,785;    3,372;    0,409
681,640;28077,923;    1,463;   -0,318
682,214;28831,515;    0,735;    0,500
682,788;28381,835;   -1,356;   -0,773
683,363;28355,155;   -1,810;    1,682
683,937;28106,111;   -1,719;   -0,318
684,511;28831,522;    0,463;   -0,591
685,085;28511,478;   -1,356;    0,318
685,659;28290,888;   -2,538;    0,864
686,232;28526,844;   -0,356;   -0,318
686,806;28247,437;   -0,901;    0,409
687,380;28930,848;   -0,174;    0,591
687,954;29098,349;   -1,174;    1,136
688,528;28811,487;   -0,719;    1,955
689,101;29590,080;   -3,992;    1,045
689,675;29191,399;   -0,356;   -0,136
690,249;28557,174;   -0,719;    0,409
690,822;28886,584;    0,280;    0,318
691,396;28979,813;   -0,265;    1,227
691,969;28392,679;    1,280;    0,136
692,543;28852,817;   -0,447;   -1,955
693,116;28532,045;   -0,265;   -1,409
693,690;28416,274;    0,099;    0,500
694,263;29011,139;   -1,083;    2,955
694,836;28964,823;    1,371;    3,591
695,410;27651,234;   -0,265;    1,773
695,983;28099,190;    0,189;    0,591
696,556;28108,419;   -0,447;   -1,045
697,129;28506,920;   -0,356;    1,409
697,703;28092,058;   -1,629;    1,955
698,276;28118,469;    1,462;   -0,773
698,849;27930,607;    1,280;    1,409
699,422;28276,654;   -1,083;    0,591
699,995;27955,064;    0,007;    0,136
700,568;28471,202;   -0,629;    3,045
701,140;28511,249;   -2,811;    1,682
701,713;28251,569;   -0,174;    2,409
702,286;27999,707;   -0,538;    0,864
702,859;27868,754;   -0,902;   -0,591
703,432;27067,256;    0,825;    0,682
704,004;27584,394;    0,462;    0,318
704,577;27419,895;   -0,629;    0,136
705,150;28002,215;    0,189;    2,500
705,722;27751,444;   -0,356;   -3,227
706,295;27540,855;   -0,175;   -0,591
706,867;27409,993;   -0,175;    1,955
707,440;27567,585;   -1,720;   -0,409
708,012;27858,268;    0,462;    0,591
708,584;27762,134;    2,462;    0,227
709,157;28052,817;    1,825;   -0,591
709,729;27711,591;    2,280;    2,045
710,301;28577,093;    0,734;    0,045
710,874;28577,231;   -1,447;   -0,227
711,446;27454,278;    0,371;    0,864
712,018;27348,234;    0,098;    0,500
712,590;27104,372;   -1,993;    1,682
713,162;27623,146;    0,825;    1,318
713,734;27914,103;    1,825;   -2,045
714,306;27834,059;   -1,902;   -0,409
714,878;26473,833;    0,825;    0,864
715,450;27314,335;    0,643;    0,864
716,022;27549,382;    1,552;    1,318
716,593;27716,610;    0,189;    0,591
717,165;27645,294;   -3,175;   -1,227
717,737;27304,886;    0,280;    0,409
718,309;27024,206;    0,280;   -0,045
718,880;26980,435;   -0,539;   -1,409
719,452;27262,300;   -0,175;   -1,591
720,024;26829,347;    0,734;   -0,591
720,595;27364,212;   -2,902;    0,955
721,167;26898,441;    0,370;   -2,045
721,738;26421,125;   -0,812;   -1,045
722,309;26397,808;   -0,993;   -1,227
722,881;26177,946;   -1,357;    0,773
723,452;26839,266;   -2,630;    2,864
724,023;27011,040;   -0,721;    2,682
724,595;26756,178;    0,007;    0,682
725,166;26516,589;    0,007;   -0,409
725,737;26185,636;    1,734;    0,227
726,308;26287,410;   -0,266;    0,318
726,879;26713,639;   -1,630;    1,227
727,450;26508,232;    0,552;   -0,045
728,021;26497,006;    3,097;    0,682
728,592;26339,326;    0,734;    0,500
729,163;26682,191;    0,643;   -0,136
729,734;26646,874;    0,188;   -0,227
730,305;26925,921;    1,734;    0,136
730,876;27288,877;    0,188;    2,955
731,447;26972,924;    2,188;    2,682
732,017;27109,153;    1,097;    1,864
732,588;26609,291;    0,734;    1,227
733,159;26778,247;    0,643;   -1,045
733,729;26641,840;    0,006;    0,409
734,300;25927,705;    0,915;    0,864
734,870;26320,389;    3,461;    0,591
735,441;26908,526;    0,370;   -0,591
736,011;26674,937;    0,643;   -1,591
736,582;26655,257;   -0,812;    0,045
737,152;26146,304;   -1,721;   -2,045
737,722;26560,351;   -0,267;   -0,682
738,293;26282,307;   -1,358;    1,318
738,863;26145,445;    2,461;    2,318
739,433;25974,583;    5,279;    0,318
740,003;26613,903;   -0,994;   -0,682
740,573;25996,950;    2,097;   -1,591
741,143;25963,270;   -1,085;    0,318
741,713;26736,135;    1,188;   -0,500
742,283;26443,364;    0,915;    1,591
742,853;26217,138;    1,915;    1,591
743,423;25693,912;    1,733;    0,045
743,993;25872,323;   -0,358;    1,500
744,563;25191,552;    0,097;   -0,864
745,133;25220,599;   -0,812;   -0,864
745,702;25872,373;   -0,267;    1,773
746,272;25106,966;   -0,176;    0,591
746,842;24860,740;   -1,358;   -0,591
747,411;25316,060;   -0,267;   -0,318
747,981;25497,743;    0,097;    0,500
748,551;25482,063;    2,278;   -1,045
749,120;25368,019;    0,642;   -0,227
749,690;25729,612;   -0,631;    2,409
750,259;26049,113;    1,369;    2,955
750,828;25938,433;    1,551;   -1,955
751,398;26227,662;    1,278;   -0,045
751,967;25707,891;    2,187;    0,409
752,536;25982,301;   -0,813;   -0,227
753,105;26326,258;    0,096;    0,227
753,675;26183,032;    0,096;    1,773
754,244;26138,352;   -0,904;    3,591
754,813;26172,490;    0,551;    1,227
755,382;25766,446;    0,460;    0,955
755,951;26268,311;    1,551;    3,682
756,520;25801,631;   -0,085;    1,864
757,089;26346,860;    0,278;    0,500
757,658;26473,634;    1,733;    1,227
758,227;26447,317;    1,096;    0,318
758,795;26787,728;    1,187;    1,136
759,364;27051,139;   -0,086;   -0,591
759,933;26049,549;   -1,176;   -0,045
760,501;25596,324;    0,733;   -1,318
761,070;26059,462;   -2,813;   -1,409
761,639;26738,600;   -1,904;    1,318
762,207;26050,010;    1,551;   -0,955
762,776;26031,330;    0,369;    0,864
763,344;26045,832;   -0,995;    0,591
763,913;25175,151;   -0,722;    1,409
764,481;25828,289;    1,005;   -0,136
765,049;25605,154;   -1,358;    1,409
765,618;25536,565;   -0,086;    0,318
766,186;25602,430;    0,278;    0,136
766,754;25799,296;    0,005;    1,864
767,322;24828,434;   -1,995;    0,409
767,890;24871,208;   -0,722;   -1,773
768,459;25268,800;   -2,177;   -0,318
769,027;25400,484;    1,641;    3,409
769,595;24409,804;    3,278;    2,591
770,163;24878,851;    3,823;    2,955
770,730;24582,807;    0,732;   -0,136
771,298;24493,672;    0,187;   -1,409
771,866;24580,901;   -1,541;    4,955
772,434;24908,493;   -0,631;   -1,864
773,002;25087,631;    0,005;    0,682
773,569;24694,496;    0,914;    1,682
774,137;24485,816;   -0,268;   -0,045
774,705;25348,772;    0,278;   -0,136
775,272;24820,819;    0,641;    0,682
775,840;24607,230;   -0,177;    2,682
776,407;24144,277;    0,277;    1,955
776,975;23787,779;   -0,632;    0,318
777,542;24766,644;   -1,086;   -0,045
778,110;24564,146;   -1,268;   -0,045
778,677;24322,193;   -2,359;   -0,864
779,244;24015,694;    2,186;    1,045
779,812;24138,378;    1,823;    0,864
780,379;23992,152;    0,005;    1,136
780,946;24253,653;    1,005;   -0,773
781,513;24588,791;   -1,450;    0,318
782,080;23935,748;   -0,086;    2,864
782,647;24654,431;   -0,268;    3,045
783,214;24250,387;   -0,177;    3,864
783,781;23841,889;   -0,723;   -0,682
784,348;23754,663;   -0,632;    1,500
784,915;24218,346;   -3,177;    0,318
785,482;23983,212;    1,368;    2,591
786,049;24428,986;    0,186;   -0,591
786,615;24587,397;    0,277;   -0,955
787,182;24249,535;    0,186;   -0,682
787,749;23946,309;   -2,814;    1,409
788,315;23288,174;   -1,632;   -0,409
788,882;23561,948;    1,550;   -1,227
789,448;24192,268;    1,732;   -0,955
790,015;24272,952;    1,095;    3,227
790,581;23878,999;    1,459;    0,227
791,148;23795,409;    0,641;    1,045
791,714;23958,093;   -0,541;    3,136
792,280;23690,958;    0,186;    1,591
792,847;23272,550;    0,550;    2,500
793,413;23793,597;   -0,269;   -0,318
793,979;23297,463;    3,459;   -1,318
794,545;23394,146;    4,459;    2,682
795,111;22785,284;    2,186;    1,318
795,678;22975,058;    0,731;   -1,682
796,244;22625,015;    3,368;    0,136
796,810;23200,243;    1,731;    0,773
797,375;22955,200;    0,549;   -2,136
797,941;22960,610;   -0,541;    0,591
798,507;23090,748;   -0,451;   -0,955
799,073;22638,613;   -0,360;    0,591
799,639;22643,479;   -2,632;    3,136
800,205;22728,889;    0,095;    2,682
800,770;22282,300;    0,640;    1,773
801,336;22400,620;    1,368;   -0,955
801,901;22092,394;    4,549;    3,136
802,467;22639,259;   -0,542;    2,045
803,033;21991,488;   -0,087;    0,864
803,598;22208,717;    1,913;   -1,045
804,163;22282,764;    1,095;   -0,318
804,729;22207,538;   -0,178;    1,136
805,294;22595,313;    0,822;    2,227
805,859;22413,451;    0,731;   -0,409
806,425;21830,407;    1,186;    2,682
806,990;21495,181;    2,186;    4,318
807,555;22015,410;   -1,451;    2,591
808,120;21894,275;    0,822;   -0,409
808,685;21965,868;    0,185;   -2,500
809,250;21444,187;    0,004;   -0,500
809,815;21778,598;    1,913;    0,682
810,380;22296,463;   -0,269;    1,591
810,945;22802,874;   -1,087;    2,045
811,510;22008,466;    2,094;    1,591
812,075;21730,059;   -0,633;   -1,409
812,640;21801,651;    2,003;    1,409
813,204;21850,244;    0,822;   -0,227
813,769;22303,200;    2,094;   -0,045
814,334;21739,065;    0,458;    0,864
814,898;21816,294;    0,367;    0,591
815,463;21637,069;    1,276;   -0,773
816,027;21618,570;   -0,724;   -2,318
816,592;21740,617;    0,640;   -2,045
817,156;21244,119;    2,094;    1,136
817,721;21096,620;    4,276;    2,318
818,285;21071,940;    2,912;    1,500
818,849;21728,987;   -1,451;    1,682
819,414;21584,761;   -0,269;    2,955
819,978;21139,263;   -1,269;    1,773
820,542;21713,765;    2,003;    0,500
821,106;21461,721;   -0,815;    0,682
821,670;21565,495;   -0,815;    2,591
822,234;21280,542;   -0,270;    1,409
822,798;20693,316;    0,003;    0,500
823,362;20633,000;   -0,633;    4,227
823,926;19961,229;    0,094;    1,136
824,490;20188,003;   -0,997;   -0,682
825,054;20620,323;   -0,088;   -1,136
825,618;20256,006;   -1,542;   -1,500
826,181;20213,962;    0,458;   -1,318
826,745;20079,737;    1,367;   -1,045
827,309;20452,056;    1,185;    1,318
827,872;19868,285;    1,367;    0,955
828,436;20827,241;    1,185;   -0,773
828,999;20915,470;   -0,997;    1,227
829,563;19751,972;   -0,179;    1,136
830,126;19549,201;   -0,179;   -0,591
830,690;19550,066;   -1,997;    2,864
831,253;19064,567;   -0,543;    2,227
831,816;19194,887;   -1,906;    0,500
832,380;19137,662;    0,185;    0,864
832,943;19346,890;   -1,361;   -0,500
833,506;18871,301;    2,639;   -1,227
834,069;19668,803;    3,912;   -0,955
834,632;19712,668;    1,730;    1,318
835,195;19635,170;    1,003;    0,955
835,758;18842,217;   -0,997;    1,955
836,321;18671,900;    0,730;   -1,045
836,884;18780,765;   -0,725;   -0,955
837,447;18790,176;   -2,816;    1,773
838,010;19066,041;    0,366;    3,227
838,573;19344,179;   -1,179;    0,773
839,135;19304,135;   -1,361;   -0,955
839,698;18770,364;    1,275;    0,409
840,261;18319,866;    1,003;   -0,227
840,823;18177,094;   -0,543;    0,864
841,386;18434,869;   -0,452;   -2,409
841,948;18294,461;   -1,361;    1,773
842,511;18101,599;    0,912;    1,682
843,073;18191,283;    1,912;    0,227
843,636;17998,512;   -0,361;   -0,227
844,198;17945,377;    0,911;    0,591
844,760;18037,060;    1,093;    1,955
845,322;17701,016;    0,548;    1,136
845,885;18113,518;    0,730;    0,591
846,447;18532,201;   -1,998;    0,227
847,009;18149,703;    1,911;   -0,682
847,571;18503,204;    0,820;   -2,045
848,133;18615,706;   -1,089;   -1,864
848,695;18392,026;   -0,543;    1,409
849,257;17970,527;   -1,089;   -1,682
849,819;18125,120;   -0,998;   -0,409
850,381;18175,803;   -0,725;   -0,864
850,942;18571,396;    1,093;   -0,591
851,504;18485,534;    1,184;    0,227
852,066;18539,581;    1,275;   -1,591
852,628;18073,173;   -0,180;    1,955
853,189;17614,584;    1,638;    2,682
853,751;17720,631;   -0,907;    1,409
854,312;17598,223;   -0,453;   -1,682
854,874;18044,998;   -2,089;   -0,773
855,435;18573,772;   -0,907;   -1,682
855,997;18736,365;   -1,816;   -0,136
856,558;18005,321;    0,366;    1,773
857,119;18127,095;    0,820;    2,864
857,681;17842,960;    0,002;    0,318
858,242;17841,280;    1,911;   -2,136
858,803;18260,873;    0,456;   -0,773
859,364;18871,101;    0,184;   -4,773
859,925;18202,785;   -2,453;   -0,955
860,486;18104,650;   -0,453;   -0,955
861,047;17874,515;   -0,544;   -1,227
861,608;17640,017;   -1,089;   -0,773
862,169;17767,791;    0,638;   -0,045
862,730;17541,565;    0,456;    1,409
863,291;17784,249;   -0,635;   -0,500
863,852;18131,932;   -0,635;    1,955
864,412;17609,979;   -0,271;   -0,864
864,973;16228,663;   -0,089;    0,500
865,534;16107,346;   -1,726;    0,227
866,094;17588,120;    1,820;    0,227
866,655;17229,168;    1,274;    3,318
867,215;17524,760;    0,274;    0,136
867,776;17382,171;    0,547;   -0,136
868,336;17483,763;   -1,453;    0,136
868,897;16947,174;    2,638;    1,682
869,457;16703,039;    1,365;    0,318
870,017;16905,086;    0,547;   -1,227
870,578;17447,770;   -0,817;    0,773
871,138;17109,453;   -2,089;   -0,955
871,698;16682,773;   -0,817;   -1,318
872,258;16590,729;   -0,453;   -2,864
872,818;16888,685;    2,729;    0,045
873,378;16852,005;    0,638;    1,045
873,938;16427,597;    0,547;    0,500
874,498;16811,008;    0,274;   -1,955
875,058;16684,600;    2,183;    1,773
875,618;16519,375;    1,910;   -2,682
876,177;16420,967;    1,274;    0,136
876,737;16044,287;   -0,090;    1,955
877,297;16085,698;    0,183;    1,955
877,856;16079,381;   -0,362;    0,318
878,416;16003,883;    1,183;   -0,136
878,976;16228,384;   -1,817;    0,409
879,535;16447,795;    0,092;    3,136
880,095;16169,115;   -0,544;    0,045
880,654;16252,253;   -1,090;    1,318
881,213;16315,391;    2,456;    1,500
881,773;15952,892;    2,637;    2,682
882,332;16297,757;    3,365;    5,136
882,891;16189,259;    3,092;    2,136
883,451;16660,942;   -1,272;    1,682
884,010;16082,899;   -2,908;   -0,409
884,569;16156,764;   -0,999;   -0,045
885,128;16340,720;    2,819;   -1,864
885,687;16393,676;    4,455;    0,682
886,246;16086,723;    1,455;    2,136
886,805;15865,679;    2,455;    2,045
887,364;16180,999;   -0,999;   -0,500
887,922;16562,773;   -1,181;    0,045
888,481;16014,002;   -1,545;    0,591
889,040;16299,958;    1,183;    2,136
889,599;16990,187;    2,455;    1,409
890,157;17051,416;    1,455;    2,409
890,716;16762,099;   -0,090;    0,227
891,274;16549,419;    0,092;   -1,136
891,833;16939,193;    1,546;    0,864
892,391;16818,241;   -0,454;    0,500
892,950;16919,924;    1,819;   -0,773
893,508;17307,789;    0,455;   -0,409
894,067;16666,745;    0,637;    0,136
894,625;16558,338;   -0,636;   -1,500
895,183;16770,021;   -0,363;   -0,682
895,741;16689,159;    1,728;   -1,773
896,299;16525,206;   -0,545;   -2,409
896,858;16725,981;    0,819;   -1,591
897,416;16855,482;    2,728;   -1,318
897,974;16583,075;    1,819;    0,318
898,532;16713,394;    6,091;    2,682
899,089;16603,351;    2,091;   -0,682
899,647;16665,579;   -1,454;    1,318
900,205;16385,990;    1,182;    1,045
900,763;16576,583;   -0,454;    0,227
901,321;16603,084;    2,364;   -1,409
901,878;16059,586;   -1,000;   -0,773
902,436;15889,269;   -1,363;    1,318
902,994;16236,316;    4,728;    3,682
903,551;15798,636;    0,728;    0,409
904,109;16155,047;    0,182;   -1,409
904,666;15739,730;    2,455;    1,045
905,224;15576,595;    0,182;   -0,409
905,781;15313,006;    0,727;   -0,318
906,338;15417,235;   -1,363;    1,045
906,895;15343,373;    0,637;    2,045
907,453;15228,692;    1,727;    1,136
908,010;15311,740;   -0,909;    0,409
908,567;14949,605;    1,273;    0,591
909,124;14436,106;    0,364;   -1,500
909,681;14549,790;   -2,909;    0,682
910,238;14702,564;    0,636;   -1,318
910,795;15056,157;   -0,273;   -1,136
911,352;14665,429;   -2,909;   -2,682
911,909;14108,884;   -1,364;   -0,864
912,466;14600,611;   -3,182;    1,500
913,022;14144,884;   -1,636;    0,500
913,579;14505,157;   -0,909;    2,045
914,136;14189,429;    1,636;    0,955
914,692;14504,975;    0,091;   -1,227
915,249;14136,702;    1,455;    0,409
915,806;14345,520;    0,182;    1,955
916,362;14094,611;    1,909;    1,864
916,918;13672,247;    2,000;    1,045
917,475;13632,793;   -1,182;    0,955
918,031;13700,520;    3,364;   -0,045
918,587;13163,611;   -0,909;   -0,318
919,144;13390,157;   -2,273;    0,227
919,700;13712,793;    1,727;    0,773
920,256;13283,702;    0,727;    0,045
920,812;12902,247;   -0,727;   -1,045
921,368;12922,611;   -1,727;   -1,045
921,924;12536,247;    0,182;   -0,136
922,480;12134,429;   -0,545;    1,227
923,036;12742,157;    1,273;    1,955
923,592;12688,975;    0,455;    0,318
924,148;12595,793;    0,455;   -0,955
924,704;11944,793;   -1,364;   -0,409
925,259;12218,429;   -0,273;    0,591
925,815;11942,429;    1,455;    0,500
926,371;11504,520;    2,909;    1,409
926,926;11410,975;    2,091;    0,591
927,482;11042,429;   -1,364;    0,773
928,037;10919,975;    0,909;    2,045
928,593;11200,157;    1,636;    1,045
929,148;11079,702;   -1,818;   -1,500
929,704;10567,520;   -1,455;   -0,500
930,259;10751,066;    0,091;   -0,136
930,814; 9815,066;   -0,818;    1,955
931,369; 9515,793;    1,091;   -0,773
931,925; 9412,611;   -0,091;    0,136
932,480; 9322,975;   -2,818;   -2,591
933,035; 9208,975;    0,545;   -0,318
933,590; 8969,884;    0,364;   -1,773
934,145; 8685,247;   -1,364;   -0,318
934,700; 9017,338;    0,455;   -0,591
935,255; 8814,429;   -0,091;    0,045
935,809; 8084,975;    3,182;    0,864
936,364; 7243,975;   -0,455;   -0,136
936,919; 7217,066;    0,455;   -1,773
937,474; 7119,793;    1,455;    0,136
938,028; 6881,157;   -1,636;    1,136
938,583; 6359,338;    1,818;    4,682
939,138; 6648,975;    2,091;    2,136
939,692; 6119,975;    1,636;   -1,136
940,247; 5823,611;   -0,727;   -1,045
940,801; 5376,429;   -0,636;    0,227
941,355; 5278,066;   -0,364;    2,591
941,910; 4926,793;   -0,273;   -2,136
942,464; 5034,429;   -0,818;   -0,318
943,018; 4841,066;    1,000;   -0,227
943,572; 4790,611;    2,545;   -0,682
944,126; 4224,429;    0,091;   -0,409
944,681; 4105,611;    3,091;    0,227
945,235; 4085,066;    1,000;   -0,591
945,789; 4049,793;    0,364;   -1,864
946,342; 4136,157;    0,455;   -0,591
946,896; 3943,611;   -2,273;    0,955
947,450; 3714,884;    1,545;   -0,227
948,004; 3892,611;    1,727;   -0,045
948,558; 3914,157;    0,273;   -0,864
949,111; 3819,611;   -0,273;   -0,318
949,665; 3851,338;    1,636;   -0,682
950,219; 3726,793;   -0,091;   -1,045
950,772; 3785,247;   -1,909;    1,864
951,326; 3707,702;    0,545;   -0,955
951,879; 3813,793;    0,727;   -2,318
952,433; 3835,157;    0,000;    2,227
952,986; 3680,429;    2,909;    0,682
953,539; 3633,157;   -0,273;    0,591
954,093; 3565,247;    0,545;   -1,318
954,646; 3691,520;    0,909;    1,318
955,199; 3487,247;    0,000;   -0,500
955,752; 3404,975;   -0,455;    1,773
956,305; 3354,247;   -0,091;    2,955
956,858; 3527,429;    0,818;   -0,318
957,411; 3675,884;   -0,545;    2,136
957,964; 3516,793;    1,364;    2,136
958,517; 3511,338;   -1,545;    3,136
959,070; 3355,884;   -0,455;    1,955
959,623; 3435,975;    1,091;    1,500
960,176; 3199,884;    1,727;    2,045
960,728; 3182,520;   -2,727;    0,773
961,281; 3238,520;    0,545;    0,500
961,834; 3300,702;   -0,909;    0,864
962,386; 3199,884;    1,727;    1,045
962,939; 3126,702;    0,364;   -0,318
963,491; 3289,338;    0,455;    1,136
964,043; 3144,793;    1,182;    2,409
964,596; 3264,429;   -1,000;    2,227
965,148; 3100,429;   -1,000;    1,773
965,700; 3031,884;    1,091;   -0,227
966,253; 3182,066;   -0,636;    0,318
966,805; 3014,157;   -2,273;    0,773
967,357; 3053,338;    1,091;   -1,500
967,909; 3031,975;    0,455;   -1,227
968,461; 3147,338;    0,545;    3,136
969,013; 3085,429;   -0,182;   -0,864
969,565; 3153,611;   -0,455;   -1,136
970,117; 3200,884;   -0,364;    1,045
970,669; 3028,975;    0,182;   -0,136
971,220; 2910,520;   -0,455;   -1,500
971,772; 2832,975;   -0,636;   -0,318
972,324; 2962,247;    0,091;   -0,500
972,876; 2913,884;    0,818;   -0,045
973,427; 3032,429;    1,909;   -1,045
973,979; 2995,429;   -0,727;   -2,500
974,530; 3037,884;    1,818;    1,318
975,082; 3043,793;   -0,545;    1,682
975,633; 2961,157;    1,091;    1,682
976,184; 3092,157;    0,909;    0,773
976,736; 2889,520;    0,091;    0,227
977,287; 2699,611;   -0,909;   -0,500
977,838; 2866,066;    0,909;   -0,318
978,389; 2927,338;   -1,000;   -0,500
978,940; 2802,611;    0,545;   -0,409
979,491; 2845,066;    0,091;   -0,500
980,042; 2794,247;    0,182;    3,045
980,593; 2861,157;   -2,545;    0,227
981,144; 2902,520;    2,545;   -0,500
981,695; 2856,429;    1,455;    1,500
982,246; 2832,702;   -0,273;    1,045
982,797; 2972,338;   -1,727;    0,682
983,347; 3068,520;    0,364;    0,591
983,898; 3239,793;    3,091;    0,409
984,449; 3073,066;    2,182;    0,773
984,999; 2976,975;    1,455;   -1,136
985,550; 2768,884;    0,182;   -0,318
986,100; 2797,793;   -0,455;   -0,318
986,651; 2831,338;   -0,818;    0,045
987,201; 2816,520;   -1,000;   -0,591
987,751; 2887,884;    0,818;    2,864
988,302; 2877,520;    2,636;    1,500
988,852; 2895,066;    0,455;   -1,136
989,402; 2943,520;    0,091;    0,682
989,952; 2868,066;   -2,182;    0,864
990,502; 2969,157;   -0,091;    0,682
991,052; 2931,066;   -0,727;    0,045
991,602; 2809,338;   -2,909;    1,318
992,152; 2785,975;    0,455;    0,682
992,702; 2783,520;    1,364;   -0,045
993,252; 2711,793;   -3,000;   -0,500
993,802; 2794,884;   -0,273;    1,318
994,352; 3008,702;   -1,545;    1,136
994,901; 3103,884;   -0,182;    3,227
995,451; 3015,338;   -0,182;    0,318
996,000; 3098,338;    1,636;    0,318
996,550; 2838,157;    2,273;    0,227
997,100; 2837,702;    1,273;   -0,045
997,649; 3094,157;    2,182;    0,955
998,198; 2756,338;    1,727;   -1,500
998,748; 2939,884;    1,091;   -2,318
999,297; 2851,975;   -0,818;   -0,409
999,846; 2914,157;    1,000;   -0,773
1000,395; 2959,611;   -0,818;    0,500
1000,945; 2918,338;    1,818;   -0,773
1001,494; 2988,884;    2,364;    0,682
1002,043; 2992,157;    4,636;    0,864
1002,592; 2852,066;   -1,091;    1,955
1003,141; 2977,247;   -0,455;   -0,682
1003,690; 2830,247;    1,727;    0,500
1004,238; 2920,157;    1,455;   -0,045
1004,787; 2578,157;    1,364;    1,227
1005,336; 2792,157;    0,364;    0,682
1005,885; 2931,429;    1,364;   -2,773
1006,433; 3061,793;    0,545;    0,955
1006,982; 3134,338;    0,455;    1,682
1007,531; 3045,793;   -1,818;   -0,227
1008,079; 2982,975;   -2,273;    0,500
1008,627; 3140,429;   -1,455;    0,409
1009,176; 2899,247;    0,000;   -1,955
1009,724; 2920,520;    1,091;    0,864
1010,273; 2965,157;    1,273;    0,500
1010,821; 3071,975;    0,091;    1,409
1011,369; 2847,066;   -1,364;    1,318
1011,917; 2827,975;   -1,364;   -0,591
1012,465; 3093,702;    1,273;   -1,591
1013,013; 3190,247;    2,091;   -1,682
1013,561; 3067,338;    0,455;   -0,773
1014,109; 3116,338;   -1,909;    1,682
1014,657; 2997,247;    0,364;    0,591
1015,205; 3137,157;    1,636;   -0,955
1015,753; 3155,429;   -0,545;   -1,409
1016,301; 3205,157;   -2,636;    3,045
1016,848; 3197,520;   -1,273;    0,409
1017,396; 3251,247;    2,545;    0,045
1017,944; 3345,066;    1,182;    1,864
1018,491; 3110,247;    0,273;    1,409
1019,039; 3265,066;    0,455;    0,591
1019,586; 3204,247;   -1,364;    1,682
1020,134; 3298,520;    0,455;    1,500
1020,681; 3319,066;    0,182;   -1,136
1021,228; 3342,884;    2,909;   -2,227
1021,776; 3158,793;    1,182;   -1,136
1022,323; 3392,793;    0,455;    0,773
1022,870; 3311,611;   -1,000;   -0,045
1023,417; 3209,611;    2,636;    1,864
1023,964; 3347,338;    2,636;    1,227
1024,511; 3193,884;    1,000;    0,773
1025,058; 3010,247;    3,182;   -0,045
1025,605; 3050,338;   -2,273;    3,136
1026,152; 3253,066;    1,727;   -0,591
1026,699; 2981,157;    1,818;    1,318
1027,245; 3141,520;   -0,091;    0,318
1027,792; 3370,338;   -1,000;    1,409
1028,339; 3277,066;    2,364;   -0,045
1028,885; 3115,066;    1,000;   -0,227
1029,432; 3052,157;   -0,091;    0,227
1029,978; 3114,520;   -1,000;   -1,591
1030,525; 3035,247;    1,000;    0,409
1031,071; 3260,702;   -1,364;    1,136
1031,618; 3367,066;    0,364;    1,682
1032,164; 3168,066;   -0,091;    3,045
1032,710; 3206,429;    1,636;   -1,500
1033,256; 3126,793;   -0,636;   -0,136
1033,803; 3107,338;   -0,545;    1,500
1034,349; 2829,793;   -1,364;    0,136
1034,895; 2992,429;    0,000;   -0,318
1035,441; 2959,884;   -0,818;    0,318
1035,987; 2961,520;   -2,364;   -0,682
1036,533; 2963,793;   -1,455;   -0,955
1037,078; 3154,793;    1,455;    1,682
1037,624; 2997,066;    2,455;   -0,955
1038,170; 3018,520;    0,455;   -0,318
1038,716; 2906,611;    1,636;   -0,409
1039,261; 2828,338;   -2,273;   -0,773
1039,807; 2770,702;   -0,091;    3,409
1040,352; 2842,793;   -1,909;   -0,318
1040,898; 2887,157;   -1,545;   -0,682
1041,443; 2807,247;   -1,455;   -2,591
1041,989; 2806,066;    1,091;    1,591
1042,534; 2717,247;   -0,364;    2,591
1043,079; 2826,702;    2,909;    0,955
1043,625; 2627,429;    1,818;    0,500
1044,170; 2664,066;   -1,364;    1,045
1044,715; 2897,702;    2,455;    0,955
1045,260; 2737,793;    2,182;   -0,955
1045,805; 2783,702;    1,182;   -0,591
1046,350; 2710,157;    1,364;   -0,409
1046,895; 2666,429;    2,909;    1,591
1047,440; 2618,157;    5,364;    0,409
1047,985; 2531,338;    2,818;   -0,955
1048,530; 2451,702;    1,545;    1,227
1049,074; 2503,975;    0,000;    0,318
1049,619; 2477,247;   -1,364;    1,955
1050,164; 2292,884;    0,455;    0,227
1050,708; 2344,702;   -0,455;    0,045
1051,253; 2692,429;    1,273;   -2,227
1051,797; 2409,247;    0,818;   -1,318
1052,342; 2427,975;   -1,182;    1,045
1052,886; 2417,247;    0,364;   -1,409
1053,430; 2301,520;   -1,364;    0,136
1053,975; 2316,884;   -0,818;   -0,318
1054,519; 2287,429;   -0,727;    3,227
1055,063; 2311,611;    0,909;    1,318
1055,607; 2205,429;   -0,182;    0,227
1056,151; 2243,975;    2,909;    1,682
1056,695; 2134,975;    2,273;   -1,136
1057,239; 2203,611;   -1,727;   -0,682
1057,783; 2207,429;    0,818;   -1,500
1058,327; 2153,066;    0,000;    1,409
1058,871; 2386,247;   -0,545;    1,318
1059,415; 2097,429;   -0,818;   -0,045
1059,958; 2354,975;    1,455;    2,591
1060,502; 2082,338;   -1,000;   -0,773
1061,046; 1996,975;    0,364;   -0,955
1061,589; 1977,338;   -3,000;   -1,136
1062,133; 1863,702;   -1,273;    1,864
1062,676; 1788,066;    1,182;    0,864
1063,220; 1784,429;    1,091;    0,500
1063,763; 1815,520;    0,909;    1,136
1064,306; 1875,884;   -0,909;    1,864
1064,849; 1775,520;   -0,909;    0,591
1065,393; 1794,793;    2,000;   -1,500
1065,936; 1896,429;    0,182;   -0,409
1066,479; 1781,157;   -1,455;    1,318
1067,022; 1809,793;   -0,273;   -0,227
1067,565; 1715,247;   -0,091;   -1,318
1068,108; 1741,520;    0,727;   -0,591
1068,651; 1717,611;   -0,636;    1,409
1069,194; 1644,520;   -0,455;   -1,682
1069,736; 1638,520;   -1,273;    0,955
1070,279; 1612,520;   -1,364;   -0,500
1070,822; 1669,702;   -2,000;   -0,318
1071,364; 1749,611;   -0,364;    1,318
1071,907; 1577,338;   -0,727;    3,227
1072,450; 1481,338;    0,000;   -0,045
1072,992; 1469,975;   -0,273;    3,136
1073,535; 1605,520;    2,091;    2,136
1074,077; 1406,066;   -0,727;    2,045
1074,619; 1369,520;   -1,364;    0,591
1075,161; 1405,884;   -1,091;    1,500
1075,704; 1590,793;    1,545;    1,227
1076,246; 1386,884;   -0,182;    0,682
1076,788; 1321,157;   -0,364;    1,773
1077,330; 1402,884;    1,273;    2,136
1077,872; 1354,975;    0,909;    0,955
1078,414; 1566,429;    2,727;    0,773
1078,956; 1312,702;    1,273;   -0,227
1079,498; 1569,884;    1,636;    0,318
1080,040; 1281,611;    1,909;   -1,318
1080,581; 1210,884;    1,636;   -0,318
1081,123; 1150,975;    0,091;   -0,773
1081,665; 1199,429;   -1,182;   -0,955
1082,206; 1497,157;    1,364;   -0,500
1082,748; 1340,429;    0,727;    2,045
1083,289; 1223,793;   -2,000;    1,318
1083,831; 1127,793;   -0,545;    0,227
1084,372; 1165,702;    0,000;    0,591
1084,913; 1166,247;    1,091;    0,864
1085,455; 1147,066;   -1,909;   -2,045
1085,996; 1125,429;   -2,273;    0,136
1086,537; 1126,338;   -0,091;    0,864
1087,078; 1168,066;   -0,909;   -2,136
1087,619; 1201,066;   -1,273;    0,227
1088,160; 1123,611;    0,000;    1,318
1088,701; 1106,429;   -1,091;    0,682
1089,242; 1046,066;    1,364;   -2,227
1089,783; 1149,611;   -0,273;    1,409
1090,324; 1106,157;    0,455;    0,682
1090,865;  992,429;    2,727;   -0,409
1091,405;  961,520;    0,727;    2,227
1091,946;  985,157;    0,182;   -0,955
1092,487;  911,429;    0,818;   -1,409
1093,027; 1080,702;   -1,364;   -1,500
1093,568;  945,702;   -0,364;    1,227
1094,108; 1040,520;    0,273;    1,773
1094,649;  982,066;   -1,182;    0,136
1095,189;  910,429;   -0,636;   -0,682
1095,729;  852,247;   -0,091;    0,955
1096,269;  863,611;    0,727;   -0,955
1096,810; 1172,702;   -1,364;    0,500
1097,350;  998,611;    1,364;   -0,773
1097,890;  900,702;    0,364;    1,227
1098,430; 1150,975;    2,364;    2,864
1098,970; 1032,429;    2,182;    1,682
1099,510;  889,247;    0,545;   -2,318
1100,050;  817,702;    1,000;   -1,591
1100,589;  785,884;   -0,727;   -0,318
1101,129;  911,884;    0,818;   -0,955
1101,669; 1062,338;    1,727;    2,136
1102,209;  880,702;   -0,091;    2,227
1102,748;  843,338;    0,000;    0,955
1103,288;  834,429;    1,273;   -1,227
1103,827;  854,338;    3,091;   -2,227
1104,367;  738,157;   -0,091;   -2,409
1104,906;  703,429;    1,364;   -1,136
1105,445;  768,611;    0,636;   -1,136
1105,985;  715,247;   -0,727;    1,500
1106,524;  759,793;   -1,727;   -0,682
1107,063;  739,247;   -2,727;    1,409
1107,602;  712,157;   -1,909;   -1,500
1108,141;  638,793;   -1,909;    1,500
1108,680;  739,157;   -3,455;   -0,591
1109,219;  669,702;   -0,909;   -0,500
1109,758;  671,702;    0,455;    0,682
1110,297;  650,247;    1,000;   -0,682
1110,836;  593,066;   -0,727;    0,955
1111,375;  753,520;   -2,545;    0,409
1111,913;  779,884;   -1,000;    0,773
1112,452;  704,611;   -0,273;    0,136
1112,991;  584,066;    1,091;    1,955
1113,529;  551,611;   -0,818;   -0,045
1114,068;  621,520;   -0,273;    2,955
1114,606;  531,429;   -0,364;   -0,955
1115,144;  680,157;   -1,273;    1,045
1115,683;  618,066;   -0,727;    0,318
1116,221;  665,520;   -0,455;   -0,864
1116,759;  563,157;    0,636;   -0,864
1117,297;  769,975;    0,000;    1,864
1117,836;  576,975;   -2,182;   -1,227
1118,374;  583,066;    0,182;   -0,682
1118,912;  531,338;    0,909;    2,682
1119,450;  511,975;    1,000;    0,864
1119,988;  568,157;    1,545;    2,136
1120,525; 1015,884;    5,091;    3,318
1121,063;  716,429;    1,182;    1,864
1121,601;  525,247;   -0,909;   -1,227
1122,139;  467,338;   -0,727;   -2,045
1122,676;  679,338;   -0,727;    2,773
1123,214;  613,429;   -1,182;    4,409
1123,751;  426,884;    1,727;    2,227
1124,289;  553,338;   -0,091;   -0,409
1124,826;  428,429;    1,727;    0,227
1125,364;  349,157;    1,727;   -0,955
1125,901;  530,793;    1,182;    1,227
1126,438;  642,429;    0,818;    0,955
1126,975;  379,429;   -0,727;   -0,773
1127,513;  451,066;    0,273;    2,136
1128,050;  346,157;    1,636;   -0,682
1128,587;  451,611;    2,000;   -0,227
1129,124;  481,884;    0,091;    1,318
1129,661;  352,066;    0,273;    0,227
1130,198;  519,429;    1,636;    0,773
1130,734;  474,884;    0,182;    1,409
1131,271;  325,520;   -0,909;    0,864
1131,808;  498,975;    2,909;    3,045
1132,345;  377,247;    1,545;    0,318
1132,881;  247,429;   -1,545;   -1,864
1133,418;  386,520;    0,727;   -1,136
1133,954;  319,066;    2,455;   -2,682
1134,491;  396,520;    1,364;   -0,773
1135,027;  296,338;    2,364;    0,864
1135,564;  382,247;    0,273;    2,955
1136,100;  358,066;    0,364;    2,136
1136,636;  263,157;   -1,273;   -1,045
1137,172;  358,247;    0,000;   -1,045
1137,708;  285,066;   -1,364;   -1,045
1138,245;  284,429;    1,273;   -1,227
1138,781;  232,066;    1,091;   -3,318
1139,317;  303,429;    1,273;   -1,409
1139,852;  290,702;    3,091;    0,136
1140,388;  400,338;   -1,182;   -0,409
1140,924;  281,793;   -1,091;   -2,227
1141,460;  220,066;   -1,636;    0,136
1141,996;  160,338;   -1,364;    2,682
1142,531;  203,338;    1,364;    3,318
1143,067;  425,793;    1,182;    1,045
1143,602;  482,429;   -0,091;   -0,318
1144,138;  315,157;   -2,636;    1,045
1144,673;  190,884;   -1,455;    1,409
1145,209;  258,247;   -1,909;   -0,318
1145,744;  177,611;   -0,727;    0,864
1146,279;  312,429;    1,818;   -0,136
1146,815;  226,157;    1,545;   -2,682
1147,350;  261,520;   -1,364;    0,045
1147,885;  185,157;   -0,818;   -1,318
1148,420;  180,884;   -2,273;    0,773
1148,955;  165,884;   -1,727;    1,864
1149,490;  192,702;   -0,909;   -1,591
1150,025;  171,066;    0,455;   -1,773
1150,560;  282,520;    1,091;   -0,955
1151,094;  258,247;    1,455;   -0,591
1151,629;  256,247;    1,636;    0,864
1152,164;  181,793;    1,364;    1,318
1152,698;  136,793;   -0,182;   -0,136
1153,233;  101,247;    0,091;   -0,682
1153,767;  154,066;   -3,000;   -2,318
1154,302;  185,247;   -1,455;    1,773
1154,836;  192,611;   -0,455;   -2,136
1155,371;  250,611;   -1,364;    3,682
1155,905;  195,520;   -0,636;    1,682
1156,439;  171,520;   -0,636;   -0,500
1156,973;  195,520;    0,364;    0,318
1157,507;  138,884;   -0,364;    0,682
1158,042;  162,338;   -0,727;    1,045
1158,576;  217,429;    0,182;    1,773
1159,110;  205,702;   -0,818;    2,409
1159,643;  167,247;    0,636;   -0,045
1160,177;  110,611;   -1,545;    1,500

