
Integration time [ms]:   0,040
Averaging Nr. [scans]: 11
Smoothing Nr. [pixels]: 0
Data measured with spectrometer [name]: 7318044SP
Wave   ;Sample   ;Dark     ;Reference
[nm]   ;[counts] ;[counts] ;[counts] 

186,757;   26,616;   31,551;    1,318
187,357;   52,079;   22,551;    0,955
187,958;   25,052;   15,460;   -1,591
188,558;   64,615;    8,915;   -1,227
189,159;   39,173;    6,733;   -4,500
189,759;   13,505;    7,278;   -3,591
190,360;    6,803;    2,824;   -2,136
190,960;   44,675;    2,915;   -4,136
191,560;   56,988;    3,189;   -6,591
192,161;  273,851;    4,372;   -3,500
192,761;  131,602;    4,010;   -3,227
193,361;   86,799;    1,556;   -3,773
193,962;  138,102;    2,010;   -2,682
194,562;   57,434;    1,189;   -3,955
195,162;   79,538;   -2,448;   -2,227
195,762;  230,527;   -3,176;   -0,045
196,362;  179,264;    1,370;   -2,500
196,963;   52,399;    2,006;   -0,864
197,563;  119,707;    1,551;   -0,955
198,163;   67,493;    0,096;   -0,682
198,763;   83,328;    1,733;   -0,500
199,363;  174,391;    3,096;   -0,500
199,963;  142,417;    0,369;    0,409
200,563;  115,640;    2,823;   -1,409
201,163;  104,411;    3,277;   -0,227
201,763;  166,498;    3,732;    0,318
202,363;  112,111;    1,459;    1,500
202,963;  203,822;    1,459;    1,045
203,563;  309,116;    0,277;    0,500
204,162;  179,574;    2,096;   -1,864
204,762;  164,791;    0,550;    0,591
205,362;  131,928;    3,004;    1,955
205,962;  220,319;    3,096;    1,955
206,562;  211,861;    1,823;    2,318
207,161;  182,497;   -0,087;    0,318
207,761;  335,073;    1,277;    2,409
208,361;  216,394;   -0,268;    1,409
208,960;  301,827;    0,459;    1,500
209,560;  350,703;    1,277;    1,591
210,160;  347,964;    0,550;    1,864
210,759;  313,986;    4,186;    1,227
211,359;  315,533;    1,459;    1,045
211,958;  561,876;    1,277;    2,045
212,558;  639,689;    1,732;    1,864
213,157;  479,972;    1,822;    1,500
213,757;  883,902;    3,822;   -0,227
214,356;  598,374;    1,277;   -0,409
214,956;  902,501;    3,095;    0,409
215,555;  562,724;    2,095;    2,136
216,154;  498,937;   -2,723;   -0,591
216,754;  502,662;    0,277;    0,773
217,353;  610,069;   -0,268;   -1,045
217,952;  485,529;   -0,178;    0,318
218,552;  709,257;    1,368;   -0,773
219,151;  596,025;    0,277;    0,955
219,750;  588,102;    0,004;   -0,227
220,349;  653,594;   -0,451;    1,045
220,948;  759,333;   -1,360;    1,136
221,548;  719,070;    0,913;    1,227
222,147;  821,733;   -0,087;   -0,409
222,746; 1088,876;   -0,451;   -0,955
223,345;  955,789;    0,731;    0,500
223,944;  943,561;   -0,451;    0,773
224,543; 1067,460;    1,004;   -1,409
225,142; 1181,139;    0,094;    0,136
225,741; 1064,627;   -0,814;    1,045
226,340; 1056,480;   -0,451;   -0,955
226,939; 1438,459;   -0,996;   -0,136
227,538; 1279,655;   -0,360;   -0,773
228,137; 1469,058;   -0,814;    0,864
228,735; 1493,239;   -0,541;    1,227
229,334; 1280,601;   -0,905;   -0,227
229,933; 1629,391;    0,459;    0,591
230,532; 1717,745;    1,186;   -0,409
231,131; 1780,314;    1,732;    0,318
231,729; 1760,660;   -2,450;   -2,318
232,328; 1756,627;   -0,723;   -1,500
232,927; 1777,552;    1,004;   -0,500
233,525; 1815,980;    3,640;    0,045
234,124; 2005,351;    2,368;   -1,591
234,723; 1982,721;    0,913;   -1,045
235,321; 2059,067;    2,277;    0,136
235,920; 2206,933;    1,186;   -1,227
236,518; 2459,825;    3,459;    0,318
237,117; 2506,950;    0,004;   -0,227
237,715; 2614,753;    0,640;   -0,500
238,314; 2678,384;   -0,087;   -2,318
238,912; 2833,505;   -0,723;   -1,409
239,510; 2825,593;    0,459;   -1,227
240,109; 2998,394;    0,004;    3,773
240,707; 3029,640;   -0,996;    1,227
241,305; 3264,585;    0,550;    0,136
241,904; 3462,494;   -0,178;   -2,045
242,502; 3502,315;   -0,632;   -0,227
243,100; 3453,570;   -0,087;   -0,955
243,698; 3666,191;    0,732;    1,682
244,297; 3848,875;   -0,632;    0,682
244,895; 3768,156;   -0,269;   -2,318
245,493; 4065,679;    2,186;   -0,591
246,091; 4094,646;    1,368;   -1,318
246,689; 4073,372;    1,004;    0,591
247,287; 4233,432;    0,822;   -1,136
247,885; 4524,539;   -1,451;    1,227
248,483; 4593,764;    1,822;   -0,500
249,081; 4727,160;    0,185;    1,591
249,679; 4890,460;   -0,178;    1,682
250,277; 5137,897;   -1,723;    0,864
250,875; 5124,116;   -1,087;   -1,045
251,473; 5173,072;   -1,178;    0,500
252,071; 5368,764;    1,459;    1,045
252,669; 5500,107;   -1,814;    0,318
253,267; 5723,407;   -0,087;    0,773
253,864; 5655,522;   -0,360;    0,682
254,462; 5623,809;    1,640;    1,591
255,060; 5581,078;   -0,269;    1,318
255,658; 5858,379;    0,822;   -0,136
256,255; 6253,431;    0,186;   -2,045
256,853; 6139,812;   -0,269;    1,409
257,451; 6138,860;    0,822;    1,864
258,048; 6442,492;    1,822;    1,864
258,646; 6194,445;    1,731;   -1,045
259,243; 6352,903;   -0,087;    2,227
259,841; 6430,259;   -0,814;    0,318
260,438; 6341,327;   -0,087;    0,864
261,036; 6980,815;   -1,905;    1,409
261,633; 6912,836;   -0,087;    2,227
262,231; 6693,044;    2,731;   -0,045
262,828; 6774,628;   -0,905;    1,136
263,425; 6811,854;    0,913;   -0,591
264,023; 7087,260;    0,186;    0,045
264,620; 6646,989;   -0,360;   -0,318
265,217; 6964,380;   -2,087;    3,136
265,815; 7085,250;   -1,905;    2,136
266,412; 6904,655;    0,731;    0,136
267,009; 6923,768;   -1,451;    0,773
267,606; 6894,263;    0,822;   -0,955
268,203; 6847,849;   -0,269;   -0,591
268,801; 7096,864;    1,731;    0,591
269,398; 7371,027;   -0,360;    2,500
269,995; 7345,082;    0,277;    1,591
270,592; 7125,995;   -0,632;   -0,500
271,189; 7307,966;    0,186;    0,409
271,786; 7435,522;   -0,632;    1,227
272,383; 7313,271;   -1,087;    0,227
272,980; 7463,012;    0,277;    0,318
273,577; 7880,349;    0,004;    1,227
274,174; 7454,565;    0,822;    2,591
274,771; 7418,198;   -0,814;   -0,773
275,367; 7539,712;    2,277;    1,409
275,964; 7539,783;    0,731;   -0,500
276,561; 7639,836;    1,549;   -1,045
277,158; 7826,006;    0,095;   -1,773
277,755; 7990,979;    2,185;    0,409
278,351; 7432,171;   -0,451;   -1,500
278,948; 7714,947;   -0,815;    0,045
279,545; 7773,604;   -1,360;    2,318
280,141; 8381,129;   -1,723;   -2,045
280,738; 8244,923;   -0,451;   -0,136
281,334; 8436,845;   -1,633;    0,591
281,931; 7883,932;   -0,087;   -1,318
282,528; 8057,504;    0,822;   -0,500
283,124; 8739,264;   -1,087;   -0,500
283,721; 8666,656;   -0,451;    1,409
284,317; 8541,994;    0,185;    2,500
284,913; 9065,536;   -1,360;    0,591
285,510; 9273,536;    0,640;   -0,318
286,106; 9317,404;   -2,269;   -0,955
286,703; 8931,732;   -0,360;    1,955
287,299; 9172,986;   -1,451;   -0,591
287,895; 9394,383;    0,822;   -1,045
288,491; 9938,027;    0,186;    2,136
289,088; 9729,185;   -2,360;    2,409
289,684; 9797,198;   -1,723;    1,500
290,280; 9804,036;    0,368;    0,682
290,876; 9938,048;    1,822;    5,500
291,472; 9861,036;    1,276;    2,227
292,068; 9962,588;    1,367;    0,227
292,665; 9691,986;    2,095;    0,773
293,261; 9404,968;    0,276;    2,136
293,857; 9800,852;    2,913;    2,136
294,453; 9750,027;    3,550;    0,955
295,049; 9616,133;   -0,268;    1,955
295,644; 9664,490;    0,095;    0,136
296,240; 9597,445;   -0,905;   -0,136
296,836; 9674,336;   -0,995;    0,318
297,432; 9962,261;    1,096;   -0,500
298,028;10006,504;    0,732;    0,773
298,624;10373,520;    1,459;    1,864
299,220;10643,573;    2,368;    0,591
299,815;10332,281;    1,005;   -0,409
300,411;10149,770;    0,914;    1,773
301,007;10176,319;    1,368;    0,227
301,602;10213,034;   -0,541;   -2,318
302,198;10359,129;    0,732;   -0,773
302,794;10666,358;    1,187;   -0,500
303,389;10822,724;   -1,177;    1,045
303,985;10878,787;    0,550;    1,409
304,580;10850,085;    1,459;    1,591
305,176;10847,648;   -3,086;    0,136
305,771;10782,141;   -1,268;   -1,227
306,367;10604,752;    4,095;    0,136
306,962;10937,216;    0,641;    1,500
307,558;10668,428;   -0,450;    0,136
308,153;10581,104;    1,095;   -1,136
308,748;10795,341;   -0,814;    1,682
309,344;10750,419;   -0,632;   -1,318
309,939;10842,806;   -1,905;   -1,318
310,534;11114,113;   -0,086;   -1,682
311,130;11053,948;    0,459;   -2,500
311,725;10781,955;    1,004;   -0,500
312,320;11077,278;    2,459;    0,045
312,915;10927,023;    1,459;   -1,045
313,510;10999,077;    1,550;   -0,500
314,105;11474,596;    1,096;    1,409
314,700;10864,602;   -3,086;   -1,045
315,295;10569,085;   -0,904;    0,045
315,890;10169,033;    1,277;    0,864
316,485;10517,229;   -0,359;   -0,318
317,080;10597,218;   -3,086;    1,591
317,675;11108,097;    2,005;   -0,682
318,270;10551,588;    5,550;    3,318
318,865;10528,224;    3,278;    3,045
319,460;10387,004;   -0,904;    0,591
320,055;10618,640;   -0,541;   -1,227
320,650;10295,878;   -1,995;   -0,591
321,244;10340,372;   -0,177;   -1,409
321,839;11249,059;   -1,541;   -0,227
322,434;11144,824;   -1,086;   -1,591
323,029;10772,623;    1,732;    1,591
323,623;10642,705;    1,550;    0,773
324,218;10394,072;    2,368;    1,409
324,812;10317,814;    1,096;    1,591
325,407;10106,004;   -0,814;    2,045
326,002;10015,248;    0,277;   -0,409
326,596;10366,509;    0,914;    1,318
327,191;10557,698;    0,823;   -1,045
327,785;10195,327;   -0,813;   -0,227
328,379;10393,638;    1,368;    0,136
328,974;10205,395;    0,914;   -3,955
329,568;10435,572;    0,186;   -2,409
330,163;10268,110;    2,096;    1,045
330,757;10623,110;    2,459;    1,591
331,351;10014,495;    0,459;    0,682
331,945;10311,630;    0,914;    1,409
332,540; 9944,042;   -1,723;   -0,591
333,134;10078,900;   -1,086;    0,773
333,728;10330,829;    0,005;    0,318
334,322;10671,212;   -1,177;   -0,864
334,916; 9994,423;    0,277;    0,955
335,510;10328,888;   -0,450;   -0,136
336,105;10565,062;   -1,086;    1,591
336,699;10287,499;   -1,086;    0,591
337,293;10238,664;   -1,723;    0,318
337,887;10412,127;   -2,723;    1,955
338,481;10547,526;    0,459;    0,591
339,074;10688,150;   -0,359;    2,682
339,668;10504,479;   -1,632;    1,227
340,262;10774,931;    1,732;    3,227
340,856;10316,401;    1,822;   -0,682
341,450; 9741,832;    1,004;    1,864
342,044;10611,119;    1,459;    0,136
342,637;10401,121;    0,913;   -2,136
343,231;10239,466;   -2,360;    0,682
343,825;10196,862;   -1,086;   -0,591
344,419;10212,181;   -1,995;    0,500
345,012; 9994,658;    2,459;    4,045
345,606;10003,714;    4,641;    1,591
346,199; 9887,279;   -1,813;   -0,227
346,793; 9475,972;    1,914;    2,045
347,386; 9636,600;   -0,813;   -1,136
347,980; 9584,174;   -0,268;   -0,045
348,573; 9408,676;    2,278;    0,409
349,167; 9121,085;    5,278;    4,773
349,760; 9480,935;    2,914;    2,682
350,354; 9432,291;   -0,813;    1,136
350,947; 9182,157;    1,096;    1,682
351,540; 8882,731;   -0,358;   -1,409
352,134; 8835,875;    1,096;    1,136
352,727; 8924,715;   -0,086;    1,136
353,320; 8726,455;    0,005;    0,591
353,913; 8565,491;   -1,995;    1,864
354,507; 8754,313;    0,823;   -1,227
355,100; 8755,399;    0,460;    0,864
355,693; 8037,369;    2,005;    2,409
356,286; 8068,238;    0,823;    2,773
356,879; 8409,119;   -0,722;    1,227
357,472; 8029,061;   -0,904;    1,500
358,065; 8208,926;   -0,722;    2,500
358,658; 8133,482;   -0,540;    2,318
359,251; 7810,029;   -1,631;   -0,591
359,844; 7307,742;   -1,904;   -1,136
360,437; 7509,188;   -2,995;    0,045
361,030; 7737,180;    1,369;   -0,682
361,623; 7365,097;    2,824;    0,318
362,215; 7391,591;   -0,086;    2,045
362,808; 7238,414;   -2,358;   -1,682
363,401; 7411,242;   -2,449;    0,136
363,994; 7204,113;   -0,631;   -1,500
364,586; 7085,665;    0,824;   -1,500
365,179; 7262,136;   -0,449;   -1,136
365,772; 6754,797;   -1,995;    2,045
366,364; 7064,902;    1,915;   -3,227
366,957; 7258,864;    2,279;   -0,045
367,549; 7254,430;    2,188;   -0,864
368,142; 6922,591;    1,825;   -1,500
368,734; 7103,399;    0,734;   -2,136
369,327; 7089,111;    1,643;   -0,500
369,919; 6993,416;   -1,538;    0,409
370,512; 6782,953;   -1,083;   -0,500
371,104; 6531,670;   -0,901;    1,591
371,696; 6723,071;    1,191;   -0,955
372,289; 6797,170;    0,373;    1,136
372,881; 6932,865;   -2,080;    1,318
373,473; 6842,152;   -2,170;    1,136
374,066; 6664,645;   -0,169;    0,500
374,658; 6538,458;    0,378;    1,136
375,250; 6877,370;    0,653;   -1,409
375,842; 6716,440;    0,473;   -0,045
376,434; 6601,795;   -0,435;   -0,409
377,026; 7128,849;    0,204;   -2,500
377,618; 7018,488;   -0,158;   -0,682
378,210; 6898,787;   -0,338;   -1,955
378,802; 6730,080;    0,754;   -0,591
379,394; 6689,457;    1,846;    0,682
379,986; 7238,892;    1,393;   -0,955
380,578; 7328,474;   -0,153;    0,773
381,170; 6708,494;   -0,972;    0,045
381,762; 6658,509;    0,755;    1,409
382,354; 6859,841;   -0,065;   -1,318
382,945; 6941,751;   -2,976;    0,318
383,537; 7073,738;   -2,705;   -1,955
384,129; 7108,144;   -2,160;   -1,136
384,721; 7251,615;   -0,252;    0,955
385,312; 7192,950;   -0,161;   -0,955
385,904; 7282,713;   -2,706;    1,591
386,496; 6685,231;   -0,979;    1,045
387,087; 6820,635;    1,022;    2,500
387,679; 6852,429;   -1,160;    0,045
388,270; 6979,956;    2,840;    2,045
388,862; 7099,818;    1,295;   -0,318
389,453; 7005,537;   -0,887;    1,045
390,045; 7237,142;   -0,705;   -2,682
390,636; 7178,817;    0,204;   -0,591
391,227; 7018,118;   -0,523;   -0,045
391,819; 7125,313;    0,204;    0,773
392,410; 7185,848;    1,022;    0,045
393,001; 7112,301;   -0,979;   -1,591
393,593; 7378,798;    1,930;   -0,045
394,184; 7258,212;    1,385;   -0,409
394,775; 7192,152;    1,839;    2,136
395,366; 7364,910;    1,385;    0,773
395,957; 7321,880;    0,113;    0,136
396,548; 7662,356;   -0,342;    2,682
397,139; 7938,687;   -2,433;    0,591
397,730; 7679,605;   -1,888;    0,955
398,321; 7727,625;   -1,252;    0,955
398,912; 7765,298;   -0,615;    0,136
399,503; 7839,782;   -3,524;   -1,409
400,094; 7308,826;    0,294;    1,682
400,685; 7167,470;   -0,433;    0,045
401,276; 7255,555;    0,930;   -0,955
401,867; 7550,116;   -0,888;    0,773
402,458; 7609,341;   -2,251;   -2,318
403,048; 7606,758;    1,112;    0,591
403,639; 7243,369;    0,840;    0,864
404,230; 7466,972;    2,476;    0,318
404,821; 7400,055;   -0,615;    0,045
405,411; 7512,827;    1,203;   -2,591
406,002; 7121,517;   -1,252;   -1,136
406,592; 6983,538;    2,294;    0,045
407,183; 7273,687;    0,566;   -1,500
407,774; 7165,373;    3,475;   -0,136
408,364; 7476,516;    0,930;    0,409
408,954; 7104,404;    0,384;    1,227
409,545; 7143,947;    1,021;    1,045
410,135; 6707,334;    1,293;    0,500
410,726; 6830,951;    1,838;    0,318
411,316; 7199,436;    0,111;    0,773
411,906; 6835,303;   -0,253;   -0,409
412,497; 6382,939;   -1,070;   -0,045
413,087; 6941,820;   -1,980;   -0,227
413,677; 7251,072;   -0,707;    3,864
414,267; 7089,857;    0,656;    1,409
414,857; 7043,316;   -2,980;    4,227
415,448; 7309,400;    0,839;    0,500
416,038; 7016,435;    0,020;   -0,591
416,628; 6960,161;   -0,889;    0,409
417,218; 6498,687;    0,565;    3,318
417,808; 6686,692;    0,202;   -0,409
418,398; 7096,723;    0,020;    2,682
418,988; 7057,242;    2,020;    0,591
419,578; 7270,956;   -0,707;    1,409
420,168; 7554,486;   -1,343;   -0,955
420,757; 7130,704;   -1,343;   -1,500
421,347; 6837,170;    0,111;   -0,227
421,937; 6961,016;    2,292;    1,409
422,527; 6893,754;    0,838;   -0,773
423,116; 6706,662;   -0,253;   -0,045
423,706; 6976,370;   -1,889;    0,318
424,296; 6934,277;    1,384;    0,682
424,885; 7319,550;   -0,071;   -3,045
425,475; 7556,471;    1,474;   -2,864
426,065; 7471,318;   -0,980;   -0,318
426,654; 7101,141;   -0,435;   -0,318
427,244; 7156,869;    0,020;    1,409
427,833; 6654,499;    1,383;   -0,500
428,423; 7031,283;   -0,526;    1,136
429,012; 7679,123;   -0,344;   -1,136
429,601; 7192,802;   -1,344;    0,136
430,191; 7398,265;    1,292;    4,318
430,780; 7012,708;   -0,344;   -0,409
431,369; 6956,802;    0,746;   -0,045
431,959; 7515,655;   -1,254;    0,500
432,548; 7294,325;   -1,163;   -0,045
433,137; 7356,335;   -1,254;   -1,318
433,726; 7809,236;    0,292;    0,500
434,315; 7232,031;   -0,526;    2,409
434,905; 7274,368;   -1,254;    1,409
435,494; 7194,563;    0,746;    0,955
436,083; 7565,483;   -0,981;   -0,955
436,672; 7394,856;    0,110;    0,500
437,261; 7010,934;    0,292;   -1,955
437,850; 7117,350;    1,383;    0,682
438,439; 7031,077;    3,291;    1,955
439,027; 6874,720;    3,655;    1,773
439,616; 7150,495;    2,927;    1,227
440,205; 6949,994;    0,200;   -2,136
440,794; 6906,317;    2,109;   -0,045
441,383; 7102,943;   -1,346;   -0,591
441,971; 6943,940;   -2,436;    0,591
442,560; 6768,081;    0,563;   -1,773
443,149; 6498,798;    0,379;   -1,318
443,737; 6602,083;   -0,074;   -2,318
444,326; 6798,266;    0,018;    0,318
444,915; 6769,292;   -1,982;    0,864
445,503; 7043,283;   -2,891;   -0,318
446,092; 6439,471;    0,382;    2,136
446,680; 6867,938;    0,382;    0,318
447,269; 6969,188;   -0,346;   -0,318
447,857; 6739,568;    0,018;   -1,773
448,445; 6801,150;    0,563;    1,318
449,034; 6962,084;   -1,528;   -1,136
449,622; 7007,722;   -1,073;    3,500
450,210; 6432,030;    2,017;    2,227
450,799; 6833,308;    0,290;   -0,591
451,387; 6715,618;    1,381;   -0,591
451,975; 6418,064;    2,654;    0,864
452,563; 6487,200;    3,472;    2,318
453,151; 6476,042;   -0,528;   -1,227
453,739; 6362,409;   -1,347;    0,136
454,328; 6263,459;    2,381;   -2,136
454,916; 6027,502;    2,562;   -0,136
455,504; 6169,157;    1,017;    1,227
456,092; 6295,631;    0,017;   -1,591
456,679; 6186,330;    1,472;    0,682
457,267; 6254,529;    4,017;    1,045
457,855; 6292,690;    1,017;    1,409
458,443; 6002,619;   -0,165;    1,682
459,031; 6178,788;    0,108;    2,409
459,619; 6479,565;   -1,801;    2,864
460,206; 6505,421;    0,835;    2,045
460,794; 6599,918;   -2,983;   -0,227
461,382; 6754,337;   -0,529;   -0,864
461,970; 6392,185;    1,198;    1,864
462,557; 6429,759;   -0,711;   -0,682
463,145; 6562,538;   -3,165;   -1,682
463,732; 6665,746;    2,016;   -1,045
464,320; 6552,160;   -0,075;   -3,045
464,907; 6305,122;    2,743;   -0,773
465,495; 6178,585;    0,743;   -1,227
466,082; 6240,097;   -1,984;   -0,045
466,670; 6127,828;   -2,529;    1,227
467,257; 6497,836;   -1,711;    2,045
467,844; 6635,237;   -0,075;    0,045
468,432; 6618,726;    0,834;    3,500
469,019; 6249,991;    0,925;   -1,773
469,606; 6574,311;    0,470;    3,682
470,193; 6421,310;   -1,439;    0,227
470,780; 6076,892;   -2,075;    0,864
471,368; 6314,937;   -1,257;   -0,773
471,955; 6134,384;    1,379;   -0,682
472,542; 5798,982;    0,652;   -1,136
473,129; 5950,632;   -0,166;    0,136
473,716; 5737,868;    1,470;    0,591
474,303; 5827,688;    0,652;   -0,864
474,890; 5986,939;   -1,439;   -0,500
475,477; 6022,192;   -1,621;    0,409
476,064; 5909,125;    1,106;   -1,591
476,650; 5760,921;    0,288;    0,318
477,237; 5599,649;   -0,258;    0,955
477,824; 5706,593;   -1,076;    0,864
478,411; 5642,499;   -1,894;   -0,318
478,997; 5761,700;    0,560;   -0,773
479,584; 5756,330;    1,196;   -0,409
480,171; 6269,320;   -0,440;   -0,773
480,757; 6001,282;    2,651;    0,773
481,344; 6117,746;    0,469;    0,409
481,931; 5682,418;    1,105;    1,045
482,517; 6327,481;   -1,258;    0,318
483,104; 6600,754;    1,106;    2,864
483,690; 6729,757;   -1,804;    0,045
484,276; 6895,078;   -0,895;    0,227
484,863; 6699,249;    2,469;    1,136
485,449; 7044,366;   -0,077;    0,318
486,035; 7018,854;   -1,986;   -0,136
486,622; 7361,473;   -0,895;    0,045
487,208; 7243,363;    1,378;    1,500
487,794; 7136,046;    0,741;    0,318
488,380; 7267,143;    0,105;   -1,409
488,967; 7294,084;   -1,168;   -0,409
489,553; 7367,466;   -1,895;   -1,409
490,139; 7564,255;    1,559;    0,773
490,725; 7208,623;    0,741;   -0,227
491,311; 6998,861;    3,287;    3,045
491,897; 6583,408;   -0,986;    1,500
492,483; 6627,627;    0,105;    1,227
493,069; 6774,199;    3,923;    0,864
493,655; 6664,427;    1,650;    0,682
494,241; 6689,211;    1,377;   -0,955
494,826; 7033,556;    0,287;   -1,045
495,412; 6675,132;    2,559;   -0,682
495,998; 6891,537;   -0,805;   -0,318
496,584; 7027,193;    0,377;    1,045
497,169; 7070,354;    1,014;   -0,682
497,755; 7151,716;    0,650;    1,227
498,341; 7778,626;    0,559;    0,318
498,926; 7517,245;    1,832;    1,955
499,512; 7773,522;    1,286;    2,955
500,097; 7941,949;    0,195;   -0,318
500,683; 8061,575;   -0,350;    2,136
501,268; 8533,244;   -0,169;   -0,955
501,854; 8467,587;   -0,169;    1,227
502,439; 8555,973;   -0,624;   -1,773
503,024; 8823,472;    0,195;    0,500
503,610; 9032,682;   -0,078;   -0,682
504,195; 9185,176;    0,558;    1,955
504,780; 9460,338;    2,922;    1,227
505,366; 9453,606;    3,013;    2,864
505,951; 9355,600;    0,740;    1,045
506,536; 9528,080;   -3,260;   -3,682
507,121; 9637,555;    0,285;   -0,318
507,706;10276,012;    2,376;    1,045
508,291;10726,873;    2,649;    1,136
508,876;10338,676;   -0,988;    2,591
509,461; 9973,932;   -0,169;   -0,773
510,046;10493,959;    0,194;    0,318
510,631;10845,672;   -0,351;   -0,773
511,216;10609,562;    2,467;   -0,500
511,801;11100,506;   -0,442;    2,591
512,386;11427,739;    0,740;    0,500
512,971;11477,308;   -2,988;    0,955
513,555;11129,807;   -0,897;   -1,500
514,140;11949,025;   -0,442;   -3,136
514,725;12028,021;   -0,715;   -1,136
515,309;12243,107;   -0,533;    0,318
515,894;11798,076;   -0,624;   -2,227
516,479;12266,993;   -0,624;   -0,955
517,063;12170,167;    0,376;    1,227
517,648;12362,625;    1,012;   -1,136
518,232;12052,878;   -0,261;   -1,409
518,817;12450,394;   -0,079;    1,682
519,401;12715,268;    2,194;    0,591
519,985;12234,534;    1,103;    1,136
520,570;12164,852;    0,830;   -1,955
521,154;12475,379;    2,102;    0,591
521,738;12632,674;   -2,352;    2,409
522,323;13252,465;   -0,170;    1,682
522,907;13041,550;    0,466;   -0,136
523,491;12774,462;    0,557;    0,955
524,075;12752,251;    2,284;    0,591
524,659;12860,631;    1,466;    0,591
525,243;12355,120;    1,739;    0,409
525,827;12637,949;    0,648;   -0,045
526,411;13461,904;   -1,989;   -0,136
526,995;13687,973;   -0,352;    1,409
527,579;13299,367;   -0,443;   -1,045
528,163;13581,774;    0,375;   -1,500
528,747;13531,588;    2,466;   -0,773
529,331;13826,524;   -0,080;   -1,409
529,915;14054,806;    1,738;    0,955
530,499;14034,685;   -0,807;    1,227
531,082;13732,092;   -0,534;    1,591
531,666;13176,917;    1,374;    0,773
532,250;13865,196;    1,284;    2,682
532,833;14190,610;    0,920;    2,773
533,417;14068,187;   -1,807;    0,864
534,001;14051,052;    1,647;   -0,318
534,584;14729,463;    0,374;    0,500
535,168;14552,916;    0,465;    1,409
535,751;14564,676;    0,647;    0,045
536,334;14094,410;   -0,898;   -0,409
536,918;14676,711;    0,011;    1,591
537,501;14783,268;   -0,899;    1,318
538,085;14785,819;   -0,444;    1,045
538,668;14953,336;    0,829;    2,409
539,251;15267,216;    1,829;    3,773
539,834;15292,122;    0,101;    0,773
540,418;15182,266;   -1,990;    4,318
541,001;15281,229;   -0,990;    1,773
541,584;15319,328;    2,101;    2,227
542,167;14976,209;    1,374;    2,955
542,750;15132,429;    1,919;   -0,773
543,333;14754,062;    0,555;    2,136
543,916;15498,711;    0,192;    2,500
544,499;16077,143;   -1,354;    0,227
545,082;16109,751;    1,374;    3,591
545,665;16244,139;    1,919;    1,500
546,248;16572,426;    1,010;   -0,318
546,830;16234,937;   -0,445;    1,955
547,413;16641,834;    1,010;   -0,773
547,996;17166,450;    0,555;    0,500
548,579;16948,525;    0,919;    0,955
549,161;16764,588;    1,828;    2,682
549,744;16534,026;   -0,809;    0,409
550,326;17031,755;   -0,809;   -1,136
550,909;16822,190;    2,737;    0,591
551,492;17246,022;   -0,263;    0,227
552,074;17039,136;   -0,173;   -1,318
552,657;17537,379;    2,373;    0,045
553,239;17314,929;   -0,173;   -0,773
553,821;17252,821;   -1,082;    1,045
554,404;16762,621;    1,282;    1,136
554,986;17125,903;    0,464;    1,045
555,568;17742,725;    1,191;   -0,955
556,151;16965,697;    1,191;   -0,227
556,733;17174,535;   -0,264;   -0,864
557,315;17640,380;    0,100;    0,500
557,897;17447,255;    0,554;   -0,500
558,479;17582,378;   -1,991;    1,318
559,061;17692,948;   -0,719;   -0,864
559,643;18002,452;   -0,264;    0,045
560,225;18381,970;    1,645;    2,864
560,807;18386,270;    0,918;    0,318
561,389;17906,517;    0,554;    2,318
561,971;18596,457;    0,463;    2,136
562,553;18405,798;   -1,628;    1,591
563,135;18545,826;   -0,537;    1,136
563,717;18141,886;    3,372;    1,136
564,298;18826,924;    3,645;   -0,045
564,880;18557,111;    0,645;   -1,409
565,462;18764,838;    0,645;    1,318
566,043;19895,842;   -0,446;    2,318
566,625;19377,205;    1,918;    1,227
567,207;19242,038;    1,099;    1,682
567,788;20310,587;   -1,264;    1,500
568,370;21094,304;    1,917;   -0,500
568,951;20942,653;    0,190;    0,227
569,533;21811,589;   -0,628;   -0,500
570,114;22219,243;   -0,446;    0,682
570,695;22709,457;   -0,174;   -1,318
571,277;23191,558;   -0,265;   -1,682
571,858;23858,762;    2,008;   -1,136
572,439;24742,357;    1,554;   -1,045
573,021;24906,977;    2,099;   -2,773
573,602;25370,694;   -1,265;    0,318
574,183;26245,219;   -2,083;    2,227
574,764;26362,550;   -1,629;    0,409
575,345;26901,468;    0,917;   -0,136
575,926;27466,447;   -0,356;    0,136
576,507;27458,238;    1,099;   -0,227
577,088;28562,026;    3,099;    1,682
577,669;28533,284;    0,735;    1,955
578,250;29219,583;    0,644;   -1,045
578,831;29908,580;   -1,356;   -2,227
579,412;30104,891;   -0,810;    0,955
579,993;31039,954;    1,008;    0,227
580,573;31396,531;   -0,629;   -0,955
581,154;30387,133;    0,735;   -0,591
581,735;31226,161;    0,644;    0,773
582,315;30708,434;   -0,629;    2,136
582,896;30967,004;   -0,174;    1,227
583,477;30495,933;    0,189;    1,227
584,057;30691,196;    0,553;    0,955
584,638;31002,227;    2,553;    2,318
585,218;30991,922;   -0,538;    2,682
585,799;31140,309;    0,281;   -0,227
586,379;31151,480;    0,372;    1,591
586,959;29983,098;    0,735;    0,318
587,540;29379,850;   -0,629;    2,227
588,120;28919,812;    1,007;   -0,045
588,700;27905,188;    2,553;    2,136
589,281;28187,015;    0,462;   -0,955
589,861;28150,505;    0,099;   -1,682
590,441;27993,471;    2,371;   -2,682
591,021;27029,771;   -0,265;   -2,591
591,601;27168,051;   -0,537;    0,500
592,181;27220,078;   -0,719;   -0,773
592,761;26585,284;    0,007;    1,409
593,341;26489,794;   -0,901;    0,045
593,921;26423,086;   -0,265;    1,591
594,501;26383,947;   -0,538;    1,318
595,081;26240,388;    0,917;   -0,318
595,661;26591,639;   -1,447;    0,955
596,240;27026,808;   -0,537;    0,136
596,820;26643,187;    0,372;    1,955
597,400;26851,940;    2,008;    0,773
597,980;27080,560;    2,008;    1,045
598,559;27123,937;    2,735;   -0,227
599,139;26850,760;   -0,174;   -1,227
599,718;26756,488;   -0,174;   -0,409
600,298;27017,150;    0,735;    0,682
600,877;27194,744;    2,917;    1,409
601,457;27486,850;    2,281;    1,136
602,036;27352,050;    0,190;    2,045
602,616;27561,104;    0,644;    1,682
603,195;27879,394;   -0,355;    3,500
603,774;27465,642;   -0,901;    2,045
604,354;27375,431;    0,826;   -0,500
604,933;26859,412;    0,463;    1,864
605,512;27037,585;    3,554;    0,591
606,091;27083,085;   -0,537;    3,773
606,671;27887,456;    0,281;    0,773
607,250;26979,094;    1,644;    3,136
607,829;27184,803;    2,372;    3,227
608,408;27067,962;    1,190;    2,591
608,987;26079,391;    1,281;    3,409
609,566;26400,913;   -1,265;   -2,500
610,145;26522,819;   -1,082;    0,682
610,723;26875,489;    4,372;    6,864
611,302;26172,020;   -0,446;    1,682
611,881;25731,754;    5,008;   11,227
612,460;26568,544;    1,645;    3,955
613,039;26985,558;   -0,082;    2,045
613,617;25728,018;    1,736;    4,773
614,196;25882,393;    1,099;    1,227
614,775;26268,799;    1,009;    2,409
615,353;26179,577;    0,736;    0,864
615,932;25914,095;    0,100;    2,409
616,510;26494,343;    0,554;    0,591
617,089;26057,339;    7,100;   17,591
617,667;25810,914;    2,372;    6,136
618,246;25680,025;   -1,537;    1,318
618,824;25809,362;   -3,355;   -0,955
619,402;25387,908;   -2,900;   -1,773
619,981;25892,170;   -0,173;   -1,045
620,559;25770,405;    0,009;    1,682
621,137;25325,106;   -0,718;    1,864
621,715;25280,322;   -1,173;   -0,682
622,293;25249,530;   -0,537;   -0,773
622,871;25741,289;   -0,718;    0,500
623,450;25339,997;    0,373;   -0,864
624,028;25199,707;    0,191;   -0,955
624,606;24821,274;   -1,718;    1,682
625,183;25241,414;   -1,536;   -1,136
625,761;24849,595;    1,009;    1,136
626,339;25128,702;    1,373;    2,591
626,917;25516,214;   -0,172;   -0,045
627,495;25565,974;   -0,354;    1,318
628,073;24957,447;   -0,263;    2,864
628,650;24690,618;    0,100;    2,136
629,228;25136,570;    0,373;    4,409
629,806;24575,165;    2,282;    1,136
630,383;24847,939;    1,464;   -0,318
630,961;24588,287;    2,555;   -0,955
631,539;24356,907;    2,464;    0,227
632,116;23697,559;   11,373;   15,409
632,694;24289,850;    2,555;    6,500
633,271;24581,217;    0,828;    2,682
633,848;24503,593;    1,828;    2,045
634,426;24532,451;   -1,081;    1,773
635,003;23675,300;    1,101;   -0,409
635,580;23968,661;    1,192;    3,682
636,158;24512,471;    3,737;    1,227
636,735;24535,066;    0,555;   -0,500
637,312;24680,657;   -0,809;   -0,682
637,889;24788,417;   -4,354;   -0,682
638,466;24231,292;   -3,990;   -0,409
639,043;24192,117;    2,101;   -1,136
639,620;24542,176;   -2,262;   -0,955
640,197;24886,593;    1,100;    1,682
640,774;25059,368;   -0,172;    1,136
641,351;25423,688;    0,737;    1,136
641,928;24819,008;   -0,627;    1,409
642,505;24461,964;    0,828;   -0,500
643,082;24580,466;   -1,718;    1,227
643,658;23668,150;   -0,718;    1,500
644,235;24410,288;    1,191;    2,500
644,812;24669,881;    1,918;    0,773
645,388;24412,382;   -0,991;    1,409
645,965;24497,793;   -0,809;    1,682
646,542;24564,477;   -1,445;   -0,227
647,118;24538,524;    1,009;   -0,955
647,695;24844,572;   -0,263;    1,136
648,271;24783,164;   -0,536;    0,500
648,848;25084,666;    0,736;    2,227
649,424;24926,804;    0,827;    1,318
650,000;24681,670;   -0,354;   -1,045
650,577;24470,353;   -0,627;   -0,955
651,153;24927,764;   -1,809;    0,955
651,729;25945,812;    1,191;    0,864
652,305;26035,223;    0,645;    2,773
652,881;29989,724;   -0,082;    1,136
653,458;36557,954;    1,100;    0,227
654,034;40342,455;    0,282;    1,591
654,610;41847,503;    0,554;    0,773
655,186;43211,823;    0,645;    3,045
655,762;42921,052;   -0,991;    0,409
656,338;42940,008;    0,100;    0,136
656,913;43854,419;   -0,082;    0,409
657,489;43173,648;    0,827;   -0,318
658,065;43181,241;   -0,173;   -1,591
658,641;43867,834;   -0,900;   -0,864
659,217;43201,972;   -0,991;    0,409
659,792;42590,383;    0,645;   -0,409
660,368;42846,066;   -2,173;   -0,682
660,944;42639,932;   -2,082;    1,227
661,519;38494,434;   -0,628;    0,409
662,095;32845,481;   -1,719;    0,591
662,670;28158,165;    1,281;   -0,136
663,246;26919,848;    1,009;   -0,409
663,821;26190,895;    0,281;    1,682
664,396;25652,670;    0,009;    1,864
664,972;25963,535;    0,009;   -0,500
665,547;26244,037;    1,372;    0,136
666,122;26314,903;   -1,082;    0,318
666,698;26588,586;   -0,173;    0,318
667,273;25959,997;   -0,173;    0,136
667,848;26703,863;    2,372;    1,500
668,423;26508,456;    2,190;    2,318
668,998;27036,412;    2,827;   -0,682
669,573;27556,368;   -3,264;   -1,500
670,148;27394,779;   -1,446;   -0,682
670,723;27288,372;   -1,810;    0,318
671,298;27682,692;    2,372;    1,045
671,873;27766,012;   -0,082;   -0,136
672,448;27723,787;    0,645;    0,136
673,023;28074,925;   -1,992;   -0,227
673,597;28355,427;    0,827;    2,318
674,172;28135,565;   -0,355;    0,318
674,747;27633,248;    0,372;   -1,045
675,321;27466,296;   -0,628;    3,318
675,896;27091,252;    0,645;    1,045
676,471;28067,390;    2,645;    1,591
677,045;27817,256;   -1,264;    0,682
677,620;27910,939;    0,190;    1,136
678,194;28209,350;   -2,628;    1,136
678,769;27761,216;   -1,083;   -0,318
679,343;27970,081;   -0,628;    1,773
679,917;27817,310;   -1,446;    1,955
680,492;27963,176;    0,826;    3,227
681,066;28127,405;    3,372;    0,409
681,640;28141,361;    1,463;   -0,318
682,214;28920,227;    0,735;    0,500
682,788;28481,365;   -1,356;   -0,773
683,363;28407,230;   -1,810;    1,682
683,937;28116,550;   -1,719;   -0,318
684,511;28879,143;    0,463;   -0,591
685,085;28544,372;   -1,356;    0,318
685,659;28379,329;   -2,538;    0,864
686,232;28545,558;   -0,356;   -0,318
686,806;28334,514;   -0,901;    0,409
687,380;28978,925;   -0,174;    0,591
687,954;29179,063;   -1,174;    1,136
688,528;28864,383;   -0,719;    1,955
689,101;29655,067;   -3,992;    1,045
689,675;29237,478;   -0,356;   -0,136
690,249;28609,343;   -0,719;    0,409
690,822;28912,663;    0,280;    0,318
691,396;29037,710;   -0,265;    1,227
691,969;28410,849;    1,280;    0,136
692,543;28870,623;   -0,447;   -1,955
693,116;28584,307;   -0,265;   -1,409
693,690;28439,263;    0,099;    0,500
694,263;28988,856;   -1,083;    2,955
694,836;28990,358;    1,371;    3,591
695,410;27684,587;   -0,265;    1,773
695,983;28143,816;    0,189;    0,591
696,556;28131,591;   -0,447;   -1,045
697,129;28530,183;   -0,356;    1,409
697,703;28144,594;   -1,629;    1,955
698,276;28190,187;    1,462;   -0,773
698,849;27954,961;    1,280;    1,409
699,422;28297,645;   -1,083;    0,591
699,995;28005,238;    0,007;    0,136
700,568;28582,649;   -0,629;    3,045
701,140;28596,332;   -2,811;    1,682
701,713;28267,107;   -0,174;    2,409
702,286;28022,882;   -0,538;    0,864
702,859;27931,565;   -0,902;   -0,591
703,432;27085,976;    0,825;    0,682
704,004;27591,023;    0,462;    0,318
704,577;27427,343;   -0,629;    0,136
705,150;27954,300;    0,189;    2,500
705,722;27762,529;   -0,356;   -3,227
706,295;27559,758;   -0,175;   -0,591
706,867;27433,805;   -0,175;    1,955
707,440;27648,125;   -1,720;   -0,409
708,012;27901,809;    0,462;    0,591
708,584;27831,947;    2,462;    0,227
709,157;28107,540;    1,825;   -0,591
709,729;27763,405;    2,280;    2,045
710,301;28635,543;    0,734;    0,045
710,874;28619,954;   -1,447;   -0,227
711,446;27501,911;    0,371;    0,864
712,018;27408,958;    0,098;    0,500
712,590;27153,460;   -1,993;    1,682
713,162;27659,871;    0,825;    1,318
713,734;27946,645;    1,825;   -2,045
714,306;27839,329;   -1,902;   -0,409
714,878;26556,285;    0,825;    0,864
715,450;27357,787;    0,643;    0,864
716,022;27613,471;    1,552;    1,318
716,593;27738,245;    0,189;    0,591
717,165;27698,474;   -3,175;   -1,227
717,737;27396,249;    0,280;    0,409
718,309;27099,478;    0,280;   -0,045
718,880;26992,344;   -0,539;   -1,409
719,452;27244,209;   -0,175;   -1,591
720,024;26827,620;    0,734;   -0,591
720,595;27404,304;   -2,902;    0,955
721,167;26906,078;    0,370;   -2,045
721,738;26459,035;   -0,812;   -1,045
722,309;26484,264;   -0,993;   -1,227
722,881;26217,765;   -1,357;    0,773
723,452;26869,722;   -2,630;    2,864
724,023;27010,042;   -0,721;    2,682
724,595;26794,998;    0,007;    0,682
725,166;26591,955;    0,007;   -0,409
725,737;26221,456;    1,734;    0,227
726,308;26365,685;   -0,266;    0,318
726,879;26763,642;   -1,630;    1,227
727,450;26571,689;    0,552;   -0,045
728,021;26536,282;    3,097;    0,682
728,592;26352,966;    0,734;    0,500
729,163;26641,740;    0,643;   -0,136
729,734;26653,424;    0,188;   -0,227
730,305;27025,744;    1,734;    0,136
730,876;27353,064;    0,188;    2,955
731,447;27068,656;    2,188;    2,682
732,017;27103,340;    1,097;    1,864
732,588;26609,569;    0,734;    1,227
733,159;26813,071;    0,643;   -1,045
733,729;26662,755;    0,006;    0,409
734,300;25979,257;    0,915;    0,864
734,870;26394,667;    3,461;    0,591
735,441;26959,987;    0,370;   -0,591
736,011;26737,580;    0,643;   -1,591
736,582;26666,537;   -0,812;    0,045
737,152;26129,402;   -1,721;   -2,045
737,722;26597,904;   -0,267;   -0,682
738,293;26298,133;   -1,358;    1,318
738,863;26195,271;    2,461;    2,318
739,433;25983,591;    5,279;    0,318
740,003;26584,729;   -0,994;   -0,682
740,573;26013,231;    2,097;   -1,591
741,143;25986,824;   -1,085;    0,318
741,713;26783,962;    1,188;   -0,500
742,283;26462,191;    0,915;    1,591
742,853;26276,238;    1,915;    1,591
743,423;25736,922;    1,733;    0,045
743,993;25865,969;   -0,358;    1,500
744,563;25185,562;    0,097;   -0,864
745,133;25145,609;   -0,812;   -0,864
745,702;25886,657;   -0,267;    1,773
746,272;25078,795;   -0,176;    0,591
746,842;24848,842;   -1,358;   -0,591
747,411;25307,526;   -0,267;   -0,318
747,981;25473,391;    0,097;    0,500
748,551;25520,893;    2,278;   -1,045
749,120;25362,577;    0,642;   -0,227
749,690;25749,079;   -0,631;    2,409
750,259;26077,671;    1,369;    2,955
750,828;25965,446;    1,551;   -1,955
751,398;26247,130;    1,278;   -0,045
751,967;25764,722;    2,187;    0,409
752,536;25988,497;   -0,813;   -0,227
753,105;26386,817;    0,096;    0,227
753,675;26196,682;    0,096;    1,773
754,244;26133,002;   -0,904;    3,591
754,813;26132,504;    0,551;    1,227
755,382;25743,006;    0,460;    0,955
755,951;26270,508;    1,551;    3,682
756,520;25802,646;   -0,085;    1,864
757,089;26348,602;    0,278;    0,500
757,658;26522,468;    1,733;    1,227
758,227;26503,061;    1,096;    0,318
758,795;26815,562;    1,187;    1,136
759,364;27086,519;   -0,086;   -0,591
759,933;26098,657;   -1,176;   -0,045
760,501;25611,977;    0,733;   -1,318
761,070;26062,751;   -2,813;   -1,409
761,639;26752,071;   -1,904;    1,318
762,207;26094,301;    1,551;   -0,955
762,776;26051,257;    0,369;    0,864
763,344;26000,304;   -0,995;    0,591
763,913;25153,624;   -0,722;    1,409
764,481;25847,490;    1,005;   -0,136
765,049;25652,082;   -1,358;    1,409
765,618;25533,402;   -0,086;    0,318
766,186;25630,904;    0,278;    0,136
766,754;25815,770;    0,005;    1,864
767,322;24868,362;   -1,995;    0,409
767,890;24839,501;   -0,722;   -1,773
768,459;25293,730;   -2,177;   -0,318
769,027;25435,504;    1,641;    3,409
769,595;24457,097;    3,278;    2,591
770,163;24902,053;    3,823;    2,955
770,730;24626,283;    0,732;   -0,136
771,298;24467,784;    0,187;   -1,409
771,866;24568,377;   -1,541;    4,955
772,434;24913,970;   -0,631;   -1,864
773,002;25113,653;    0,005;    0,682
773,569;24731,519;    0,914;    1,682
774,137;24565,657;   -0,268;   -0,045
774,705;25332,159;    0,278;   -0,136
775,272;24842,843;    0,641;    0,682
775,840;24610,981;   -0,177;    2,682
776,407;24136,301;    0,277;    1,955
776,975;23716,257;   -0,632;    0,318
777,542;24780,759;   -1,086;   -0,045
778,110;24625,352;   -1,268;   -0,045
778,677;24262,763;   -2,359;   -0,864
779,244;24039,446;    2,186;    1,045
779,812;24100,403;    1,823;    0,864
780,379;23963,359;    0,005;    1,136
780,946;24235,315;    1,005;   -0,773
781,513;24567,999;   -1,450;    0,318
782,080;23977,592;   -0,086;    2,864
782,647;24669,366;   -0,268;    3,045
783,214;24218,777;   -0,177;    3,864
783,781;23827,370;   -0,723;   -0,682
784,348;23731,599;   -0,632;    1,500
784,915;24203,828;   -3,177;    0,318
785,482;24001,512;    1,368;    2,591
786,049;24442,559;    0,186;   -0,591
786,615;24568,152;    0,277;   -0,955
787,182;24339,835;    0,186;   -0,682
787,749;24011,156;   -2,814;    1,409
788,315;23316,385;   -1,632;   -0,409
788,882;23612,886;    1,550;   -1,227
789,448;24275,297;    1,732;   -0,955
790,015;24325,436;    1,095;    3,227
790,581;23848,756;    1,459;    0,227
791,148;23753,076;    0,641;    1,045
791,714;23980,123;   -0,541;    3,136
792,280;23708,625;    0,186;    1,591
792,847;23285,036;    0,550;    2,500
793,413;23821,265;   -0,269;   -0,318
793,979;23349,494;    3,459;   -1,318
794,545;23478,723;    4,459;    2,682
795,111;22850,043;    2,186;    1,318
795,678;23052,363;    0,731;   -1,682
796,244;22668,592;    3,368;    0,136
796,810;23254,185;    1,731;    0,773
797,375;22938,687;    0,549;   -2,136
797,941;22964,097;   -0,541;    0,591
798,507;23105,327;   -0,451;   -0,955
799,073;22646,828;   -0,360;    0,591
799,639;22725,694;   -2,632;    3,136
800,205;22801,559;    0,095;    2,682
800,770;22339,788;    0,640;    1,773
801,336;22397,836;    1,368;   -0,955
801,901;22050,792;    4,549;    3,136
802,467;22698,930;   -0,542;    2,045
803,033;22050,432;   -0,087;    0,864
803,598;22236,843;    1,913;   -1,045
804,163;22228,527;    1,095;   -0,318
804,729;22231,028;   -0,178;    1,136
805,294;22661,258;    0,822;    2,227
805,859;22457,396;    0,731;   -0,409
806,425;21829,716;    1,186;    2,682
806,990;21521,309;    2,186;    4,318
807,555;22068,719;   -1,451;    2,591
808,120;21936,039;    0,822;   -0,409
808,685;21994,359;    0,185;   -2,500
809,250;21497,589;    0,004;   -0,500
809,815;21820,545;    1,913;    0,682
810,380;22318,138;   -0,269;    1,591
810,945;22876,639;   -1,087;    2,045
811,510;22055,687;    2,094;    1,591
812,075;21717,916;   -0,633;   -1,409
812,640;21777,509;    2,003;    1,409
813,204;21837,647;    0,822;   -0,227
813,769;22337,330;    2,094;   -0,045
814,334;21762,196;    0,458;    0,864
814,898;21853,880;    0,367;    0,591
815,463;21698,018;    1,276;   -0,773
816,027;21658,429;   -0,724;   -2,318
816,592;21753,294;    0,640;   -2,045
817,156;21236,250;    2,094;    1,136
817,721;21097,025;    4,276;    2,318
818,285;21051,163;    2,912;    1,500
818,849;21698,392;   -1,451;    1,682
819,414;21621,258;   -0,269;    2,955
819,978;21221,032;   -1,269;    1,773
820,542;21770,807;    2,003;    0,500
821,106;21509,672;   -0,815;    0,682
821,670;21597,356;   -0,815;    2,591
822,234;21355,312;   -0,270;    1,409
822,798;20722,541;    0,003;    0,500
823,362;20668,316;   -0,633;    4,227
823,926;19969,909;    0,094;    1,136
824,490;20216,047;   -0,997;   -0,682
825,054;20617,822;   -0,088;   -1,136
825,618;20286,505;   -1,542;   -1,500
826,181;20241,552;    0,458;   -1,318
826,745;20158,509;    1,367;   -1,045
827,309;20484,647;    1,185;    1,318
827,872;19884,603;    1,367;    0,955
828,436;20826,560;    1,185;   -0,773
828,999;20912,425;   -0,997;    1,227
829,563;19749,018;   -0,179;    1,136
830,126;19550,156;   -0,179;   -0,591
830,690;19570,294;   -1,997;    2,864
831,253;19110,887;   -0,543;    2,227
831,816;19241,843;   -1,906;    0,500
832,380;19151,436;    0,185;    0,864
832,943;19348,847;   -1,361;   -0,500
833,506;18890,622;    2,639;   -1,227
834,069;19692,942;    3,912;   -0,955
834,632;19705,898;    1,730;    1,318
835,195;19660,491;    1,003;    0,955
835,758;18883,084;   -0,997;    1,955
836,321;18694,040;    0,730;   -1,045
836,884;18767,178;   -0,725;   -0,955
837,447;18832,498;   -2,816;    1,773
838,010;19085,364;    0,366;    3,227
838,573;19371,411;   -1,179;    0,773
839,135;19316,549;   -1,361;   -0,955
839,698;18783,687;    1,275;    0,409
840,261;18300,825;    1,003;   -0,227
840,823;18159,964;   -0,543;    0,864
841,386;18470,556;   -0,452;   -2,409
841,948;18323,058;   -1,361;    1,773
842,511;18089,651;    0,912;    1,682
843,073;18275,062;    1,912;    0,227
843,636;18095,655;   -0,361;   -0,227
844,198;17962,247;    0,911;    0,591
844,760;18109,749;    1,093;    1,955
845,322;17738,342;    0,548;    1,136
845,885;18137,025;    0,730;    0,591
846,447;18606,436;   -1,998;    0,227
847,009;18164,211;    1,911;   -0,682
847,571;18505,167;    0,820;   -2,045
848,133;18582,669;   -1,089;   -1,864
848,695;18408,444;   -0,543;    1,409
849,257;17998,673;   -1,089;   -1,682
849,819;18145,902;   -0,998;   -0,409
850,381;18186,313;   -0,725;   -0,864
850,942;18570,542;    1,093;   -0,591
851,504;18528,862;    1,184;    0,227
852,066;18551,364;    1,275;   -1,591
852,628;18078,684;   -0,180;    1,955
853,189;17663,549;    1,638;    2,682
853,751;17748,506;   -0,907;    1,409
854,312;17573,462;   -0,453;   -1,682
854,874;18077,691;   -2,089;   -0,773
855,435;18592,375;   -0,907;   -1,682
855,997;18772,240;   -1,816;   -0,136
856,558;18040,197;    0,366;    1,773
857,119;18164,880;    0,820;    2,864
857,681;17862,927;    0,002;    0,318
858,242;17891,247;    1,911;   -2,136
858,803;18284,840;    0,456;   -0,773
859,364;18880,069;    0,184;   -4,773
859,925;18179,753;   -2,453;   -0,955
860,486;18082,073;   -0,453;   -0,955
861,047;17836,757;   -0,544;   -1,227
861,608;17613,349;   -1,089;   -0,773
862,169;17761,033;    0,638;   -0,045
862,730;17581,535;    0,456;    1,409
863,291;17788,855;   -0,635;   -0,500
863,852;18167,811;   -0,635;    1,955
864,412;17650,858;   -0,271;   -0,864
864,973;16248,633;   -0,089;    0,500
865,534;16103,953;   -1,726;    0,227
866,094;17594,819;    1,820;    0,227
866,655;17256,684;    1,274;    3,318
867,215;17549,004;    0,274;    0,136
867,776;17388,869;    0,547;   -0,136
868,336;17482,553;   -1,453;    0,136
868,897;16930,873;    2,638;    1,682
869,457;16676,648;    1,365;    0,318
870,017;16888,786;    0,547;   -1,227
870,578;17434,742;   -0,817;    0,773
871,138;17122,426;   -2,089;   -0,955
871,698;16694,655;   -0,817;   -1,318
872,258;16542,975;   -0,453;   -2,864
872,818;16881,840;    2,729;    0,045
873,378;16864,888;    0,638;    1,045
873,938;16446,117;    0,547;    0,500
874,498;16813,073;    0,274;   -1,955
875,058;16687,393;    2,183;    1,773
875,618;16520,531;    1,910;   -2,682
876,177;16491,215;    1,274;    0,136
876,737;16085,535;   -0,090;    1,955
877,297;16113,219;    0,183;    1,955
877,856;16096,357;   -0,362;    0,318
878,416;16065,950;    1,183;   -0,136
878,976;16240,451;   -1,817;    0,409
879,535;16440,681;    0,092;    3,136
880,095;16161,273;   -0,544;    0,045
880,654;16274,684;   -1,090;    1,318
881,213;16382,004;    2,456;    1,500
881,773;15997,870;    2,637;    2,682
882,332;16327,008;    3,365;    5,136
882,891;16194,328;    3,092;    2,136
883,451;16646,012;   -1,272;    1,682
884,010;16111,332;   -2,908;   -0,409
884,569;16234,833;   -0,999;   -0,045
885,128;16372,244;    2,819;   -1,864
885,687;16441,837;    4,455;    0,682
886,246;16126,884;    1,455;    2,136
886,805;15895,932;    2,455;    2,045
887,364;16183,524;   -0,999;   -0,500
887,922;16541,208;   -1,181;    0,045
888,481;16029,346;   -1,545;    0,591
889,040;16356,757;    1,183;    2,136
889,599;17017,441;    2,455;    1,409
890,157;17054,306;    1,455;    2,409
890,716;16748,535;   -0,090;    0,227
891,274;16573,946;    0,092;   -1,136
891,833;16990,448;    1,546;    0,864
892,391;16886,495;   -0,454;    0,500
892,950;16932,452;    1,819;   -0,773
893,508;17314,317;    0,455;   -0,409
894,067;16688,455;    0,637;    0,136
894,625;16583,412;   -0,636;   -1,500
895,183;16829,641;   -0,363;   -0,682
895,741;16719,779;    1,728;   -1,773
896,299;16557,190;   -0,545;   -2,409
896,858;16677,601;    0,819;   -1,591
897,416;16790,648;    2,728;   -1,318
897,974;16595,786;    1,819;    0,318
898,532;16720,652;    6,091;    2,682
899,089;16628,608;    2,091;   -0,682
899,647;16705,292;   -1,454;    1,318
900,205;16427,884;    1,182;    1,045
900,763;16625,295;   -0,454;    0,227
901,321;16644,888;    2,364;   -1,409
901,878;16097,026;   -1,000;   -0,773
902,436;15975,255;   -1,363;    1,318
902,994;16359,575;    4,728;    3,682
903,551;15808,623;    0,728;    0,409
904,109;16181,579;    0,182;   -1,409
904,666;15785,445;    2,455;    1,045
905,224;15603,037;    0,182;   -0,409
905,781;15331,994;    0,727;   -0,318
906,338;15425,223;   -1,363;    1,045
906,895;15356,997;    0,637;    2,045
907,453;15251,681;    1,727;    1,136
908,010;15314,183;   -0,909;    0,409
908,567;14953,776;    1,273;    0,591
909,124;14497,914;    0,364;   -1,500
909,681;14606,688;   -2,909;    0,682
910,238;14743,736;    0,636;   -1,318
910,795;15034,056;   -0,273;   -1,136
911,352;14646,692;   -2,909;   -2,682
911,909;14092,328;   -1,364;   -0,864
912,466;14589,783;   -3,182;    1,500
913,022;14130,874;   -1,636;    0,500
913,579;14499,328;   -0,909;    2,045
914,136;14209,510;    1,636;    0,955
914,692;14564,874;    0,091;   -1,227
915,249;14139,419;    1,455;    0,409
915,806;14360,237;    0,182;    1,955
916,362;14113,510;    1,909;    1,864
916,918;13699,601;    2,000;    1,045
917,475;13672,056;   -1,182;    0,955
918,031;13754,510;    3,364;   -0,045
918,587;13188,783;   -0,909;   -0,318
919,144;13448,419;   -2,273;    0,227
919,700;13706,965;    1,727;    0,773
920,256;13310,146;    0,727;    0,045
920,812;12939,328;   -0,727;   -1,045
921,368;12945,783;   -1,727;   -1,045
921,924;12599,783;    0,182;   -0,136
922,480;12166,783;   -0,545;    1,227
923,036;12774,783;    1,273;    1,955
923,592;12743,692;    0,455;    0,318
924,148;12631,783;    0,455;   -0,955
924,704;11940,328;   -1,364;   -0,409
925,259;12214,601;   -0,273;    0,591
925,815;11998,056;    1,455;    0,500
926,371;11534,783;    2,909;    1,409
926,926;11431,783;    2,091;    0,591
927,482;11040,328;   -1,364;    0,773
928,037;10937,601;    0,909;    2,045
928,593;11222,874;    1,636;    1,045
929,148;11058,146;   -1,818;   -1,500
929,704;10560,692;   -1,455;   -0,500
930,259;10779,965;    0,091;   -0,136
930,814; 9859,328;   -0,818;    1,955
931,369; 9562,692;    1,091;   -0,773
931,925; 9440,965;   -0,091;    0,136
932,480; 9366,056;   -2,818;   -2,591
933,035; 9258,692;    0,545;   -0,318
933,590; 8995,237;    0,364;   -1,773
934,145; 8657,601;   -1,364;   -0,318
934,700; 9000,965;    0,455;   -0,591
935,255; 8786,692;   -0,091;    0,045
935,809; 8079,874;    3,182;    0,864
936,364; 7266,056;   -0,455;   -0,136
936,919; 7219,146;    0,455;   -1,773
937,474; 7135,056;    1,455;    0,136
938,028; 6885,237;   -1,636;    1,136
938,583; 6337,146;    1,818;    4,682
939,138; 6648,328;    2,091;    2,136
939,692; 6085,965;    1,636;   -1,136
940,247; 5791,328;   -0,727;   -1,045
940,801; 5365,874;   -0,636;    0,227
941,355; 5279,510;   -0,364;    2,591
941,910; 4963,965;   -0,273;   -2,136
942,464; 5040,510;   -0,818;   -0,318
943,018; 4824,056;    1,000;   -0,227
943,572; 4787,419;    2,545;   -0,682
944,126; 4235,056;    0,091;   -0,409
944,681; 4119,237;    3,091;    0,227
945,235; 4093,328;    1,000;   -0,591
945,789; 4024,419;    0,364;   -1,864
946,342; 4136,965;    0,455;   -0,591
946,896; 3951,328;   -2,273;    0,955
947,450; 3720,783;    1,545;   -0,227
948,004; 3900,601;    1,727;   -0,045
948,558; 3901,146;    0,273;   -0,864
949,111; 3834,419;   -0,273;   -0,318
949,665; 3861,146;    1,636;   -0,682
950,219; 3731,601;   -0,091;   -1,045
950,772; 3802,146;   -1,909;    1,864
951,326; 3717,965;    0,545;   -0,955
951,879; 3803,146;    0,727;   -2,318
952,433; 3818,056;    0,000;    2,227
952,986; 3658,146;    2,909;    0,682
953,539; 3606,783;   -0,273;    0,591
954,093; 3566,783;    0,545;   -1,318
954,646; 3688,965;    0,909;    1,318
955,199; 3478,692;    0,000;   -0,500
955,752; 3400,965;   -0,455;    1,773
956,305; 3379,328;   -0,091;    2,955
956,858; 3522,874;    0,818;   -0,318
957,411; 3680,237;   -0,545;    2,136
957,964; 3509,056;    1,364;    2,136
958,517; 3505,783;   -1,545;    3,136
959,070; 3344,510;   -0,455;    1,955
959,623; 3417,874;    1,091;    1,500
960,176; 3206,601;    1,727;    2,045
960,728; 3186,692;   -2,727;    0,773
961,281; 3234,692;    0,545;    0,500
961,834; 3284,419;   -0,909;    0,864
962,386; 3205,510;    1,727;    1,045
962,939; 3142,510;    0,364;   -0,318
963,491; 3267,874;    0,455;    1,136
964,043; 3149,692;    1,182;    2,409
964,596; 3260,965;   -1,000;    2,227
965,148; 3107,419;   -1,000;    1,773
965,700; 3032,874;    1,091;   -0,227
966,253; 3188,146;   -0,636;    0,318
966,805; 3013,692;   -2,273;    0,773
967,357; 3070,237;    1,091;   -1,500
967,909; 3031,328;    0,455;   -1,227
968,461; 3132,419;    0,545;    3,136
969,013; 3071,692;   -0,182;   -0,864
969,565; 3133,965;   -0,455;   -1,136
970,117; 3199,237;   -0,364;    1,045
970,669; 3037,419;    0,182;   -0,136
971,220; 2919,237;   -0,455;   -1,500
971,772; 2837,419;   -0,636;   -0,318
972,324; 2960,328;    0,091;   -0,500
972,876; 2888,692;    0,818;   -0,045
973,427; 3024,056;    1,909;   -1,045
973,979; 2986,783;   -0,727;   -2,500
974,530; 3044,237;    1,818;    1,318
975,082; 3053,601;   -0,545;    1,682
975,633; 2966,146;    1,091;    1,682
976,184; 3083,510;    0,909;    0,773
976,736; 2874,056;    0,091;    0,227
977,287; 2691,328;   -0,909;   -0,500
977,838; 2871,146;    0,909;   -0,318
978,389; 2914,783;   -1,000;   -0,500
978,940; 2797,692;    0,545;   -0,409
979,491; 2832,328;    0,091;   -0,500
980,042; 2797,874;    0,182;    3,045
980,593; 2835,692;   -2,545;    0,227
981,144; 2890,692;    2,545;   -0,500
981,695; 2866,328;    1,455;    1,500
982,246; 2819,237;   -0,273;    1,045
982,797; 2991,237;   -1,727;    0,682
983,347; 3099,601;    0,364;    0,591
983,898; 3260,237;    3,091;    0,409
984,449; 3077,146;    2,182;    0,773
984,999; 2978,965;    1,455;   -1,136
985,550; 2771,510;    0,182;   -0,318
986,100; 2789,328;   -0,455;   -0,318
986,651; 2837,601;   -0,818;    0,045
987,201; 2820,328;   -1,000;   -0,591
987,751; 2903,510;    0,818;    2,864
988,302; 2886,874;    2,636;    1,500
988,852; 2910,601;    0,455;   -1,136
989,402; 2949,419;    0,091;    0,682
989,952; 2850,237;   -2,182;    0,864
990,502; 2968,237;   -0,091;    0,682
991,052; 2954,146;   -0,727;    0,045
991,602; 2813,237;   -2,909;    1,318
992,152; 2795,601;    0,455;    0,682
992,702; 2791,146;    1,364;   -0,045
993,252; 2704,237;   -3,000;   -0,500
993,802; 2795,419;   -0,273;    1,318
994,352; 3029,146;   -1,545;    1,136
994,901; 3119,237;   -0,182;    3,227
995,451; 3028,601;   -0,182;    0,318
996,000; 3120,056;    1,636;    0,318
996,550; 2838,056;    2,273;    0,227
997,100; 2856,146;    1,273;   -0,045
997,649; 3122,510;    2,182;    0,955
998,198; 2758,237;    1,727;   -1,500
998,748; 2957,601;    1,091;   -2,318
999,297; 2856,146;   -0,818;   -0,409
999,846; 2903,965;    1,000;   -0,773
1000,395; 2956,783;   -0,818;    0,500
1000,945; 2910,783;    1,818;   -0,773
1001,494; 3009,692;    2,364;    0,682
1002,043; 2998,601;    4,636;    0,864
1002,592; 2833,965;   -1,091;    1,955
1003,141; 2986,874;   -0,455;   -0,682
1003,690; 2858,692;    1,727;    0,500
1004,238; 2927,874;    1,455;   -0,045
1004,787; 2573,510;    1,364;    1,227
1005,336; 2814,783;    0,364;    0,682
1005,885; 2944,237;    1,364;   -2,773
1006,433; 3081,146;    0,545;    0,955
1006,982; 3124,237;    0,455;    1,682
1007,531; 3049,419;   -1,818;   -0,227
1008,079; 2981,419;   -2,273;    0,500
1008,627; 3136,601;   -1,455;    0,409
1009,176; 2899,965;    0,000;   -1,955
1009,724; 2930,601;    1,091;    0,864
1010,273; 2975,237;    1,273;    0,500
1010,821; 3096,965;    0,091;    1,409
1011,369; 2836,510;   -1,364;    1,318
1011,917; 2813,146;   -1,364;   -0,591
1012,465; 3077,056;    1,273;   -1,591
1013,013; 3208,510;    2,091;   -1,682
1013,561; 3075,601;    0,455;   -0,773
1014,109; 3134,874;   -1,909;    1,682
1014,657; 3022,601;    0,364;    0,591
1015,205; 3139,237;    1,636;   -0,955
1015,753; 3168,237;   -0,545;   -1,409
1016,301; 3185,419;   -2,636;    3,045
1016,848; 3206,601;   -1,273;    0,409
1017,396; 3260,692;    2,545;    0,045
1017,944; 3382,874;    1,182;    1,864
1018,491; 3133,237;    0,273;    1,409
1019,039; 3279,419;    0,455;    0,591
1019,586; 3197,328;   -1,364;    1,682
1020,134; 3304,146;    0,455;    1,500
1020,681; 3308,874;    0,182;   -1,136
1021,228; 3330,419;    2,909;   -2,227
1021,776; 3151,510;    1,182;   -1,136
1022,323; 3374,146;    0,455;    0,773
1022,870; 3312,965;   -1,000;   -0,045
1023,417; 3212,328;    2,636;    1,864
1023,964; 3361,237;    2,636;    1,227
1024,511; 3194,237;    1,000;    0,773
1025,058; 3001,874;    3,182;   -0,045
1025,605; 3054,965;   -2,273;    3,136
1026,152; 3275,783;    1,727;   -0,591
1026,699; 3006,237;    1,818;    1,318
1027,245; 3159,601;   -0,091;    0,318
1027,792; 3381,237;   -1,000;    1,409
1028,339; 3272,056;    2,364;   -0,045
1028,885; 3105,601;    1,000;   -0,227
1029,432; 3055,146;   -0,091;    0,227
1029,978; 3128,146;   -1,000;   -1,591
1030,525; 3017,237;    1,000;    0,409
1031,071; 3269,510;   -1,364;    1,136
1031,618; 3358,874;    0,364;    1,682
1032,164; 3152,146;   -0,091;    3,045
1032,710; 3183,601;    1,636;   -1,500
1033,256; 3117,419;   -0,636;   -0,136
1033,803; 3106,510;   -0,545;    1,500
1034,349; 2828,692;   -1,364;    0,136
1034,895; 2988,965;    0,000;   -0,318
1035,441; 2968,056;   -0,818;    0,318
1035,987; 2979,419;   -2,364;   -0,682
1036,533; 2979,419;   -1,455;   -0,955
1037,078; 3172,328;    1,455;    1,682
1037,624; 3005,146;    2,455;   -0,955
1038,170; 3030,965;    0,455;   -0,318
1038,716; 2923,146;    1,636;   -0,409
1039,261; 2840,783;   -2,273;   -0,773
1039,807; 2789,965;   -0,091;    3,409
1040,352; 2845,146;   -1,909;   -0,318
1040,898; 2899,783;   -1,545;   -0,682
1041,443; 2797,056;   -1,455;   -2,591
1041,989; 2819,328;    1,091;    1,591
1042,534; 2715,965;   -0,364;    2,591
1043,079; 2834,692;    2,909;    0,955
1043,625; 2617,056;    1,818;    0,500
1044,170; 2683,419;   -1,364;    1,045
1044,715; 2930,146;    2,455;    0,955
1045,260; 2748,874;    2,182;   -0,955
1045,805; 2780,419;    1,182;   -0,591
1046,350; 2702,965;    1,364;   -0,409
1046,895; 2674,328;    2,909;    1,591
1047,440; 2621,601;    5,364;    0,409
1047,985; 2520,783;    2,818;   -0,955
1048,530; 2428,510;    1,545;    1,227
1049,074; 2501,056;    0,000;    0,318
1049,619; 2475,237;   -1,364;    1,955
1050,164; 2309,783;    0,455;    0,227
1050,708; 2353,328;   -0,455;    0,045
1051,253; 2707,874;    1,273;   -2,227
1051,797; 2422,783;    0,818;   -1,318
1052,342; 2434,783;   -1,182;    1,045
1052,886; 2422,601;    0,364;   -1,409
1053,430; 2283,419;   -1,364;    0,136
1053,975; 2300,692;   -0,818;   -0,318
1054,519; 2316,783;   -0,727;    3,227
1055,063; 2318,692;    0,909;    1,318
1055,607; 2201,783;   -0,182;    0,227
1056,151; 2215,146;    2,909;    1,682
1056,695; 2135,056;    2,273;   -1,136
1057,239; 2206,056;   -1,727;   -0,682
1057,783; 2199,783;    0,818;   -1,500
1058,327; 2168,146;    0,000;    1,409
1058,871; 2380,601;   -0,545;    1,318
1059,415; 2098,783;   -0,818;   -0,045
1059,958; 2350,056;    1,455;    2,591
1060,502; 2076,601;   -1,000;   -0,773
1061,046; 1976,601;    0,364;   -0,955
1061,589; 1964,510;   -3,000;   -1,136
1062,133; 1855,874;   -1,273;    1,864
1062,676; 1793,692;    1,182;    0,864
1063,220; 1787,056;    1,091;    0,500
1063,763; 1812,328;    0,909;    1,136
1064,306; 1908,328;   -0,909;    1,864
1064,849; 1781,237;   -0,909;    0,591
1065,393; 1791,692;    2,000;   -1,500
1065,936; 1901,146;    0,182;   -0,409
1066,479; 1779,146;   -1,455;    1,318
1067,022; 1790,965;   -0,273;   -0,227
1067,565; 1704,146;   -0,091;   -1,318
1068,108; 1727,965;    0,727;   -0,591
1068,651; 1710,328;   -0,636;    1,409
1069,194; 1630,328;   -0,455;   -1,682
1069,736; 1640,965;   -1,273;    0,955
1070,279; 1625,328;   -1,364;   -0,500
1070,822; 1668,419;   -2,000;   -0,318
1071,364; 1736,146;   -0,364;    1,318
1071,907; 1574,965;   -0,727;    3,227
1072,450; 1490,692;    0,000;   -0,045
1072,992; 1480,056;   -0,273;    3,136
1073,535; 1606,510;    2,091;    2,136
1074,077; 1416,783;   -0,727;    2,045
1074,619; 1386,419;   -1,364;    0,591
1075,161; 1417,965;   -1,091;    1,500
1075,704; 1579,146;    1,545;    1,227
1076,246; 1387,237;   -0,182;    0,682
1076,788; 1313,146;   -0,364;    1,773
1077,330; 1401,056;    1,273;    2,136
1077,872; 1362,146;    0,909;    0,955
1078,414; 1579,419;    2,727;    0,773
1078,956; 1306,510;    1,273;   -0,227
1079,498; 1556,419;    1,636;    0,318
1080,040; 1280,419;    1,909;   -1,318
1080,581; 1224,510;    1,636;   -0,318
1081,123; 1156,328;    0,091;   -0,773
1081,665; 1196,783;   -1,182;   -0,955
1082,206; 1479,056;    1,364;   -0,500
1082,748; 1356,692;    0,727;    2,045
1083,289; 1235,783;   -2,000;    1,318
1083,831; 1143,419;   -0,545;    0,227
1084,372; 1175,601;    0,000;    0,591
1084,913; 1168,965;    1,091;    0,864
1085,455; 1143,601;   -1,909;   -2,045
1085,996; 1107,692;   -2,273;    0,136
1086,537; 1137,328;   -0,091;    0,864
1087,078; 1169,874;   -0,909;   -2,136
1087,619; 1207,692;   -1,273;    0,227
1088,160; 1128,874;    0,000;    1,318
1088,701; 1109,419;   -1,091;    0,682
1089,242; 1050,510;    1,364;   -2,227
1089,783; 1148,419;   -0,273;    1,409
1090,324; 1108,783;    0,455;    0,682
1090,865;  994,510;    2,727;   -0,409
1091,405;  957,601;    0,727;    2,227
1091,946;  987,237;    0,182;   -0,955
1092,487;  918,328;    0,818;   -1,409
1093,027; 1075,056;   -1,364;   -1,500
1093,568;  940,510;   -0,364;    1,227
1094,108; 1031,510;    0,273;    1,773
1094,649;  972,965;   -1,182;    0,136
1095,189;  904,419;   -0,636;   -0,682
1095,729;  859,056;   -0,091;    0,955
1096,269;  862,783;    0,727;   -0,955
1096,810; 1169,328;   -1,364;    0,500
1097,350;  996,328;    1,364;   -0,773
1097,890;  898,328;    0,364;    1,227
1098,430; 1157,510;    2,364;    2,864
1098,970; 1038,056;    2,182;    1,682
1099,510;  899,056;    0,545;   -2,318
1100,050;  819,146;    1,000;   -1,591
1100,589;  788,510;   -0,727;   -0,318
1101,129;  921,056;    0,818;   -0,955
1101,669; 1066,692;    1,727;    2,136
1102,209;  887,328;   -0,091;    2,227
1102,748;  843,237;    0,000;    0,955
1103,288;  834,328;    1,273;   -1,227
1103,827;  862,510;    3,091;   -2,227
1104,367;  737,056;   -0,091;   -2,409
1104,906;  706,237;    1,364;   -1,136
1105,445;  775,510;    0,636;   -1,136
1105,985;  717,237;   -0,727;    1,500
1106,524;  769,056;   -1,727;   -0,682
1107,063;  743,056;   -2,727;    1,409
1107,602;  715,146;   -1,909;   -1,500
1108,141;  634,419;   -1,909;    1,500
1108,680;  736,328;   -3,455;   -0,591
1109,219;  679,419;   -0,909;   -0,500
1109,758;  678,874;    0,455;    0,682
1110,297;  648,056;    1,000;   -0,682
1110,836;  590,510;   -0,727;    0,955
1111,375;  747,874;   -2,545;    0,409
1111,913;  773,965;   -1,000;    0,773
1112,452;  700,601;   -0,273;    0,136
1112,991;  583,328;    1,091;    1,955
1113,529;  554,965;   -0,818;   -0,045
1114,068;  615,601;   -0,273;    2,955
1114,606;  514,237;   -0,364;   -0,955
1115,144;  679,146;   -1,273;    1,045
1115,683;  608,146;   -0,727;    0,318
1116,221;  658,328;   -0,455;   -0,864
1116,759;  572,692;    0,636;   -0,864
1117,297;  767,419;    0,000;    1,864
1117,836;  576,601;   -2,182;   -1,227
1118,374;  580,056;    0,182;   -0,682
1118,912;  520,965;    0,909;    2,682
1119,450;  512,328;    1,000;    0,864
1119,988;  567,965;    1,545;    2,136
1120,525; 1009,783;    5,091;    3,318
1121,063;  725,056;    1,182;    1,864
1121,601;  525,692;   -0,909;   -1,227
1122,139;  480,510;   -0,727;   -2,045
1122,676;  690,237;   -0,727;    2,773
1123,214;  617,601;   -1,182;    4,409
1123,751;  428,146;    1,727;    2,227
1124,289;  555,965;   -0,091;   -0,409
1124,826;  432,601;    1,727;    0,227
1125,364;  345,237;    1,727;   -0,955
1125,901;  537,874;    1,182;    1,227
1126,438;  645,056;    0,818;    0,955
1126,975;  376,783;   -0,727;   -0,773
1127,513;  445,056;    0,273;    2,136
1128,050;  355,056;    1,636;   -0,682
1128,587;  438,692;    2,000;   -0,227
1129,124;  487,692;    0,091;    1,318
1129,661;  360,056;    0,273;    0,227
1130,198;  517,237;    1,636;    0,773
1130,734;  466,510;    0,182;    1,409
1131,271;  319,419;   -0,909;    0,864
1131,808;  498,056;    2,909;    3,045
1132,345;  373,783;    1,545;    0,318
1132,881;  239,601;   -1,545;   -1,864
1133,418;  385,510;    0,727;   -1,136
1133,954;  322,419;    2,455;   -2,682
1134,491;  394,874;    1,364;   -0,773
1135,027;  300,783;    2,364;    0,864
1135,564;  379,146;    0,273;    2,955
1136,100;  359,419;    0,364;    2,136
1136,636;  251,692;   -1,273;   -1,045
1137,172;  351,601;    0,000;   -1,045
1137,708;  282,874;   -1,364;   -1,045
1138,245;  279,510;    1,273;   -1,227
1138,781;  229,692;    1,091;   -3,318
1139,317;  297,146;    1,273;   -1,409
1139,852;  288,965;    3,091;    0,136
1140,388;  412,783;   -1,182;   -0,409
1140,924;  277,874;   -1,091;   -2,227
1141,460;  232,510;   -1,636;    0,136
1141,996;  160,146;   -1,364;    2,682
1142,531;  205,874;    1,364;    3,318
1143,067;  418,510;    1,182;    1,045
1143,602;  479,692;   -0,091;   -0,318
1144,138;  323,237;   -2,636;    1,045
1144,673;  189,328;   -1,455;    1,409
1145,209;  253,510;   -1,909;   -0,318
1145,744;  181,056;   -0,727;    0,864
1146,279;  318,601;    1,818;   -0,136
1146,815;  233,237;    1,545;   -2,682
1147,350;  265,692;   -1,364;    0,045
1147,885;  183,328;   -0,818;   -1,318
1148,420;  181,692;   -2,273;    0,773
1148,955;  157,601;   -1,727;    1,864
1149,490;  185,146;   -0,909;   -1,591
1150,025;  178,965;    0,455;   -1,773
1150,560;  291,874;    1,091;   -0,955
1151,094;  257,146;    1,455;   -0,591
1151,629;  258,328;    1,636;    0,864
1152,164;  189,601;    1,364;    1,318
1152,698;  148,692;   -0,182;   -0,136
1153,233;  106,601;    0,091;   -0,682
1153,767;  155,965;   -3,000;   -2,318
1154,302;  196,783;   -1,455;    1,773
1154,836;  188,783;   -0,455;   -2,136
1155,371;  253,965;   -1,364;    3,682
1155,905;  205,783;   -0,636;    1,682
1156,439;  178,692;   -0,636;   -0,500
1156,973;  206,601;    0,364;    0,318
1157,507;  137,692;   -0,364;    0,682
1158,042;  160,874;   -0,727;    1,045
1158,576;  212,692;    0,182;    1,773
1159,110;  208,692;   -0,818;    2,409
1159,643;  178,510;    0,636;   -0,045
1160,177;  112,692;   -1,545;    1,500

