
Integration time [ms]:   0,040
Averaging Nr. [scans]: 11
Smoothing Nr. [pixels]: 0
Data measured with spectrometer [name]: 7318044SP
Wave   ;Sample   ;Dark     ;Reference
[nm]   ;[counts] ;[counts] ;[counts] 

186,757;   18,333;   31,551;    1,318
187,357;   55,522;   22,551;    0,955
187,958;   28,222;   15,460;   -1,591
188,558;   73,422;    8,915;   -1,227
189,159;   42,979;    6,733;   -4,500
189,759;    8,493;    7,278;   -3,591
190,360;   11,063;    2,824;   -2,136
190,960;   46,297;    2,915;   -4,136
191,560;   63,972;    3,189;   -6,591
192,161;  296,830;    4,372;   -3,500
192,761;  146,485;    4,010;   -3,227
193,361;   88,682;    1,556;   -3,773
193,962;  147,533;    2,010;   -2,682
194,562;   78,144;    1,189;   -3,955
195,162;  105,797;   -2,448;   -2,227
195,762;  255,423;   -3,176;   -0,045
196,362;  207,160;    1,370;   -2,500
196,963;   87,205;    2,006;   -0,864
197,563;  144,968;    1,551;   -0,955
198,163;  101,574;    0,096;   -0,682
198,763;  117,499;    1,733;   -0,500
199,363;  221,289;    3,096;   -0,500
199,963;  184,771;    0,369;    0,409
200,563;  153,540;    2,823;   -1,409
201,163;  130,220;    3,277;   -0,227
201,763;  230,125;    3,732;    0,318
202,363;  169,738;    1,459;    1,500
202,963;  272,995;    1,459;    1,045
203,563;  372,380;    0,277;    0,500
204,162;  230,111;    2,096;   -1,864
204,762;  220,874;    0,550;    0,591
205,362;  192,011;    3,004;    1,955
205,962;  294,856;    3,096;    1,955
206,562;  292,670;    1,823;    2,318
207,161;  255,035;   -0,087;    0,318
207,761;  418,156;    1,277;    2,409
208,361;  290,567;   -0,268;    1,409
208,960;  382,182;    0,459;    1,500
209,560;  465,513;    1,277;    1,591
210,160;  441,229;    0,550;    1,864
210,759;  415,523;    4,186;    1,227
211,359;  413,889;    1,459;    1,045
211,958;  681,322;    1,277;    2,045
212,558;  772,681;    1,732;    1,864
213,157;  602,873;    1,822;    1,500
213,757; 1035,531;    3,822;   -0,227
214,356;  732,003;    1,277;   -0,409
214,956; 1069,584;    3,095;    0,409
215,555;  699,444;    2,095;    2,136
216,154;  637,384;   -2,723;   -0,591
216,754;  647,473;    0,277;    0,773
217,353;  779,516;   -0,268;   -1,045
217,952;  638,795;   -0,178;    0,318
218,552;  886,978;    1,368;   -0,773
219,151;  777,291;    0,277;    0,955
219,750;  774,823;    0,004;   -0,227
220,349;  893,224;   -0,451;    1,045
220,948;  975,145;   -1,360;    1,136
221,548;  982,154;    0,913;    1,227
222,147; 1088,454;   -0,087;   -0,409
222,746; 1368,143;   -0,451;   -0,955
223,345; 1244,965;    0,731;    0,500
223,944; 1249,100;   -0,451;    0,773
224,543; 1432,998;    1,004;   -1,409
225,142; 1531,315;    0,094;    0,136
225,741; 1444,166;   -0,814;    1,045
226,340; 1458,110;   -0,451;   -0,955
226,939; 1899,906;   -0,996;   -0,136
227,538; 1847,649;   -0,360;   -0,773
228,137; 2003,233;   -0,814;    0,864
228,735; 2136,050;   -0,541;    1,227
229,334; 1889,412;   -0,905;   -0,227
229,933; 2268,202;    0,459;    0,591
230,532; 2367,919;    1,186;   -0,409
231,131; 2407,488;    1,732;    0,318
231,729; 2535,289;   -2,450;   -2,318
232,328; 2648,801;   -0,723;   -1,500
232,927; 2711,271;    1,004;   -0,500
233,525; 2835,519;    3,640;    0,045
234,124; 3042,161;    2,368;   -1,591
234,723; 3068,895;    0,913;   -1,045
235,321; 3191,606;    2,277;    0,136
235,920; 3409,017;    1,186;   -1,227
236,518; 3659,909;    3,459;    0,318
237,117; 3836,397;    0,004;   -0,227
237,715; 3990,746;    0,640;   -0,500
238,314; 4027,194;   -0,087;   -2,318
238,912; 4144,225;   -0,723;   -1,409
239,510; 4163,585;    0,459;   -1,227
240,109; 4334,022;    0,004;    3,773
240,707; 4411,996;   -0,996;    1,227
241,305; 4776,941;    0,550;    0,136
241,904; 4967,850;   -0,178;   -2,045
242,502; 4920,580;   -0,632;   -0,227
243,100; 4873,653;   -0,087;   -0,955
243,698; 5122,820;    0,732;    1,682
244,297; 5296,776;   -0,632;    0,682
244,895; 5148,968;   -0,269;   -2,318
245,493; 5457,400;    2,186;   -0,591
246,091; 5478,639;    1,368;   -1,318
246,689; 5480,820;    1,004;    0,591
247,287; 5639,425;    0,822;   -1,136
247,885; 5926,623;   -1,451;    1,227
248,483; 6060,030;    1,822;   -0,500
249,081; 6144,609;    0,185;    1,591
249,679; 6295,000;   -0,178;    1,682
250,277; 6578,618;   -1,723;    0,864
250,875; 6582,018;   -1,087;   -1,045
251,473; 6582,611;   -1,178;    0,500
252,071; 6766,757;    1,459;    1,045
252,669; 6949,373;   -1,814;    0,318
253,267; 7232,674;   -0,087;    0,773
253,864; 7161,152;   -0,360;    0,682
254,462; 7013,621;    1,640;    1,591
255,060; 6978,798;   -0,269;    1,318
255,658; 7299,827;    0,822;   -0,136
256,255; 7705,697;    0,186;   -2,045
256,853; 7571,987;   -0,269;    1,409
257,451; 7591,762;    0,822;    1,864
258,048; 7841,030;    1,822;    1,864
258,646; 7621,166;    1,731;   -1,045
259,243; 7811,442;   -0,087;    2,227
259,841; 7881,798;   -0,814;    0,318
260,438; 7751,139;   -0,087;    0,864
261,036; 8470,172;   -1,905;    1,409
261,633; 8392,647;   -0,087;    2,227
262,231; 8147,219;    2,731;   -0,045
262,828; 8213,075;   -0,905;    1,136
263,425; 8266,665;    0,913;   -0,591
264,023; 8531,889;    0,186;    0,045
264,620; 8057,437;   -0,360;   -0,318
265,217; 8401,737;   -2,087;    3,136
265,815; 8527,335;   -1,905;    2,136
266,412; 8285,103;    0,731;    0,136
267,009; 8346,670;   -1,451;    0,773
267,606; 8233,075;    0,822;   -0,955
268,203; 8258,751;   -0,269;   -0,591
268,801; 8536,675;    1,731;    0,591
269,398; 8834,293;   -0,360;    2,500
269,995; 8797,620;    0,277;    1,591
270,592; 8548,533;   -0,632;   -0,500
271,189; 8794,596;    0,186;    0,409
271,786; 8920,969;   -0,632;    1,227
272,383; 8718,810;   -1,087;    0,227
272,980; 8938,914;    0,277;    0,318
273,577; 9393,978;    0,004;    1,227
274,174; 8930,012;    0,822;    2,591
274,771; 8921,555;   -0,814;   -0,773
275,367; 9052,977;    2,277;    1,409
275,964; 9021,321;    0,731;   -0,500
276,561; 9106,830;    1,549;   -1,045
277,158; 9328,818;    0,095;   -1,773
277,755; 9433,336;    2,185;    0,409
278,351; 8880,801;   -0,451;   -1,500
278,948; 9157,305;   -0,815;    0,045
279,545; 9172,598;   -1,360;    2,318
280,141; 9786,122;   -1,723;   -2,045
280,738; 9661,917;   -0,451;   -0,136
281,334; 9891,020;   -1,633;    0,591
281,931; 9284,836;   -0,087;   -1,318
282,528; 9374,498;    0,822;   -0,500
283,124;10090,894;   -1,087;   -0,500
283,721; 9992,105;   -0,451;    1,409
284,317; 9801,534;    0,185;    2,500
284,913;10338,531;   -1,360;    0,591
285,510;10491,167;    0,640;   -0,318
286,106;10525,853;   -2,269;   -0,955
286,703;10173,635;   -0,360;    1,955
287,299;10378,161;   -1,451;   -0,591
287,895;10596,467;    0,822;   -1,045
288,491;11148,475;    0,186;    2,136
289,088;10888,634;   -2,360;    2,409
289,684;10934,009;   -1,723;    1,500
290,280;10958,301;    0,368;    0,682
290,876;11038,496;    1,822;    5,500
291,472;10952,394;    1,276;    2,227
292,068;11016,127;    1,367;    0,227
292,665;10753,525;    2,095;    0,773
293,261;10366,416;    0,276;    2,136
293,857;10741,936;    2,913;    2,136
294,453;10700,383;    3,550;    0,955
295,049;10568,216;   -0,268;    1,955
295,644;10610,845;    0,095;    0,136
296,240;10516,346;   -0,905;   -0,136
296,836;10571,418;   -0,995;    0,318
297,432;10821,070;    1,096;   -0,500
298,028;10867,404;    0,732;    0,773
298,624;11326,330;    1,459;    1,864
299,220;11554,019;    2,368;    0,591
299,815;11201,817;    1,005;   -0,409
300,411;10989,761;    0,914;    1,773
301,007;11024,310;    1,368;    0,227
301,602;11072,298;   -0,541;   -2,318
302,198;11217,393;    0,732;   -0,773
302,794;11580,713;    1,187;   -0,500
303,389;11658,534;   -1,177;    1,045
303,985;11717,233;    0,550;    1,409
304,580;11661,985;    1,459;    1,591
305,176;11673,185;   -3,086;    0,136
305,771;11586,678;   -1,268;   -1,227
306,367;11427,472;    4,095;    0,136
306,962;11771,116;    0,641;    1,500
307,558;11468,055;   -0,450;    0,136
308,153;11418,822;    1,095;   -1,136
308,748;11685,969;   -0,814;    1,682
309,344;11668,320;   -0,632;   -1,318
309,939;11746,980;   -1,905;   -1,318
310,534;12022,559;   -0,086;   -1,682
311,130;11930,122;    0,459;   -2,500
311,725;11658,037;    1,004;   -0,500
312,320;11983,997;    2,459;    0,045
312,915;11807,469;    1,459;   -1,045
313,510;11886,705;    1,550;   -0,500
314,105;12407,950;    1,096;    1,409
314,700;11832,048;   -3,086;   -1,045
315,295;11453,894;   -0,904;    0,045
315,890;11035,660;    1,277;    0,864
316,485;11390,312;   -0,359;   -0,318
317,080;11521,845;   -3,086;    1,591
317,675;12049,634;    2,005;   -0,682
318,270;11432,579;    5,550;    3,318
318,865;11473,851;    3,278;    3,045
319,460;11319,450;   -0,904;    0,591
320,055;11532,812;   -0,541;   -1,227
320,650;11234,596;   -1,995;   -0,591
321,244;11280,998;   -0,177;   -1,409
321,839;12185,141;   -1,541;   -0,227
322,434;12082,815;   -1,086;   -1,591
323,029;11704,795;    1,732;    1,591
323,623;11514,150;    1,550;    0,773
324,218;11310,608;    2,368;    1,409
324,812;11172,714;    1,096;    1,591
325,407;10985,359;   -0,814;    2,045
326,002;10879,512;    0,277;   -0,409
326,596;11189,863;    0,914;    1,318
327,191;11426,507;    0,823;   -1,045
327,785;11026,682;   -0,813;   -0,227
328,379;11229,447;    1,368;    0,136
328,974;11006,478;    0,914;   -3,955
329,568;11224,836;    0,186;   -2,409
330,163;11041,100;    2,096;    1,045
330,757;11435,466;    2,459;    1,591
331,351;10760,305;    0,459;    0,682
331,945;11058,803;    0,914;    1,409
332,540;10648,851;   -1,723;   -0,591
333,134;10812,982;   -1,086;    0,773
333,728;11022,003;    0,005;    0,318
334,322;11355,203;   -1,177;   -0,864
334,916;10643,779;    0,277;    0,955
335,510;10983,425;   -0,450;   -0,136
336,105;11251,962;   -1,086;    1,591
336,699;10940,672;   -1,086;    0,591
337,293;10884,474;   -1,723;    0,318
337,887;11036,209;   -2,723;    1,955
338,481;11144,881;    0,459;    0,591
339,074;11285,778;   -0,359;    2,682
339,668;11131,198;   -1,632;    1,227
340,262;11339,377;    1,732;    3,227
340,856;10884,302;    1,822;   -0,682
341,450;10285,189;    1,004;    1,864
342,044;11190,565;    1,459;    0,136
342,637;10917,840;    0,913;   -2,136
343,231;10769,187;   -2,360;    0,682
343,825;10764,762;   -1,086;   -0,591
344,419;10718,990;   -1,995;    0,500
345,012;10481,922;    2,459;    4,045
345,606;10525,068;    4,641;    1,591
346,199;10403,451;   -1,813;   -0,227
346,793; 9920,326;    1,914;    2,045
347,386;10124,410;   -0,813;   -1,136
347,980;10114,619;   -0,268;   -0,045
348,573; 9905,120;    2,278;    0,409
349,167; 9563,438;    5,278;    4,773
349,760; 9902,743;    2,914;    2,682
350,354; 9918,552;   -0,813;    1,136
350,947; 9618,964;    1,096;    1,682
351,540; 9300,902;   -0,358;   -1,409
352,134; 9284,592;    1,096;    1,136
352,727; 9387,887;   -0,086;    1,136
353,320; 9186,081;    0,005;    0,591
353,913; 9035,571;   -1,995;    1,864
354,507; 9195,121;    0,823;   -1,227
355,100; 9207,116;    0,460;    0,864
355,693; 8488,812;    2,005;    2,409
356,286; 8532,864;    0,823;    2,773
356,879; 8878,108;   -0,722;    1,227
357,472; 8470,414;   -0,904;    1,500
358,065; 8686,097;   -0,722;    2,500
358,658; 8612,926;   -0,540;    2,318
359,251; 8251,564;   -1,631;   -0,591
359,844; 7746,458;   -1,904;   -1,136
360,437; 7908,814;   -2,995;    0,045
361,030; 8174,351;    1,369;   -0,682
361,623; 7774,177;    2,824;    0,318
362,215; 7793,852;   -0,086;    2,045
362,808; 7669,585;   -2,358;   -1,682
363,401; 7874,685;   -2,449;    0,136
363,994; 7622,283;   -0,631;   -1,500
364,586; 7543,562;    0,824;   -1,500
365,179; 7729,759;   -0,449;   -1,136
365,772; 7225,695;   -1,995;    2,045
366,364; 7528,253;    1,915;   -3,227
366,957; 7726,578;    2,279;   -0,045
367,549; 7733,507;    2,188;   -0,864
368,142; 7364,849;    1,825;   -1,500
368,734; 7583,020;    0,734;   -2,136
369,327; 7550,003;    1,643;   -0,500
369,919; 7457,490;   -1,538;    0,409
370,512; 7258,571;   -1,083;   -0,500
371,104; 7037,559;   -0,901;    1,591
371,696; 7184,230;    1,191;   -0,955
372,289; 7267,692;    0,373;    1,136
372,881; 7397,020;   -2,080;    1,318
373,473; 7348,668;   -2,170;    1,136
374,066; 7164,248;   -0,169;    0,500
374,658; 6993,601;    0,378;    1,136
375,250; 7354,599;    0,653;   -1,409
375,842; 7209,299;    0,473;   -0,045
376,434; 7091,286;   -0,435;   -0,409
377,026; 7642,425;    0,204;   -2,500
377,618; 7565,421;   -0,158;   -0,682
378,210; 7389,624;   -0,338;   -1,955
378,802; 7248,640;    0,754;   -0,591
379,394; 7196,560;    1,846;    0,682
379,986; 7800,174;    1,393;   -0,955
380,578; 7876,574;   -0,153;    0,773
381,170; 7178,687;   -0,972;    0,045
381,762; 7181,705;    0,755;    1,409
382,354; 7362,132;   -0,065;   -1,318
382,945; 7478,592;   -2,976;    0,318
383,537; 7633,402;   -2,705;   -1,955
384,129; 7634,448;   -2,160;   -1,136
384,721; 7830,466;   -0,252;    0,955
385,312; 7747,620;   -0,161;   -0,955
385,904; 7869,655;   -2,706;    1,591
386,496; 7215,263;   -0,979;    1,045
387,087; 7346,848;    1,022;    2,500
387,679; 7399,369;   -1,160;    0,045
388,270; 7552,258;    2,840;    2,045
388,862; 7652,030;    1,295;   -0,318
389,453; 7539,294;   -0,887;    1,045
390,045; 7814,354;   -0,705;   -2,682
390,636; 7762,846;    0,204;   -0,591
391,227; 7590,966;   -0,523;   -0,045
391,819; 7691,162;    0,204;    0,773
392,410; 7743,061;    1,022;    0,045
393,001; 7690,061;   -0,979;   -1,591
393,593; 7957,013;    1,930;   -0,045
394,184; 7823,971;    1,385;   -0,409
394,775; 7730,912;    1,839;    2,136
395,366; 7933,578;    1,385;    0,773
395,957; 7931,729;    0,113;    0,136
396,548; 8275,661;   -0,342;    2,682
397,139; 8546,899;   -2,433;    0,591
397,730; 8297,091;   -1,888;    0,955
398,321; 8352,294;   -1,252;    0,955
398,912; 8354,785;   -0,615;    0,136
399,503; 8458,814;   -3,524;   -1,409
400,094; 7885,131;    0,294;    1,682
400,685; 7749,139;   -0,433;    0,045
401,276; 7833,587;    0,930;   -0,955
401,867; 8140,421;   -0,888;    0,773
402,458; 8244,463;   -2,251;   -2,318
403,048; 8223,427;    1,112;    0,591
403,639; 7864,128;    0,840;    0,864
404,230; 8059,459;    2,476;    0,318
404,821; 7998,542;   -0,615;    0,045
405,411; 8129,315;    1,203;   -2,591
406,002; 7741,368;   -1,252;   -1,136
406,592; 7607,662;    2,294;    0,045
407,183; 7883,448;    0,566;   -1,500
407,774; 7810,315;    3,475;   -0,136
408,364; 8126,823;    0,930;    0,409
408,954; 7756,438;    0,384;    1,227
409,545; 7805,890;    1,021;    1,045
410,135; 7340,277;    1,293;    0,500
410,726; 7501,532;    1,838;    0,318
411,316; 7896,925;    0,111;    0,773
411,906; 7545,247;   -0,253;   -0,409
412,497; 7057,156;   -1,070;   -0,045
413,087; 7647,673;   -1,980;   -0,227
413,677; 8032,926;   -0,707;    3,864
414,267; 7868,529;    0,656;    1,409
414,857; 7847,352;   -2,980;    4,227
415,448; 8141,799;    0,839;    0,500
416,038; 7863,743;    0,020;   -0,591
416,628; 7831,469;   -0,889;    0,409
417,218; 7316,087;    0,565;    3,318
417,808; 7538,092;    0,202;   -0,409
418,398; 7972,760;    0,020;    2,682
418,988; 8006,188;    2,020;    0,591
419,578; 8250,628;   -0,707;    1,409
420,168; 8552,522;   -1,343;   -0,955
420,757; 8137,829;   -1,343;   -1,500
421,347; 7845,934;    0,111;   -0,227
421,937; 7993,053;    2,292;    1,409
422,527; 7936,700;    0,838;   -0,773
423,116; 7778,880;   -0,253;   -0,045
423,706; 8113,042;   -1,889;    0,318
424,296; 8071,132;    1,384;    0,682
424,885; 8484,495;   -0,071;   -3,045
425,475; 8769,690;    1,474;   -2,864
426,065; 8689,810;   -0,980;   -0,318
426,654; 8339,996;   -0,435;   -0,318
427,244; 8452,269;    0,020;    1,409
427,833; 7902,627;    1,383;   -0,500
428,423; 8376,502;   -0,526;    1,136
429,012; 9106,434;   -0,344;   -1,136
429,601; 8584,476;   -1,344;    0,136
430,191; 8842,758;    1,292;    4,318
430,780; 8498,291;   -0,344;   -0,409
431,369; 8406,477;    0,746;   -0,045
431,959; 9036,694;   -1,254;    0,500
432,548; 8837,727;   -1,163;   -0,045
433,137; 8927,283;   -1,254;   -1,318
433,726; 9433,548;    0,292;    0,500
434,315; 8827,161;   -0,526;    2,409
434,905; 8944,135;   -1,254;    1,409
435,494; 8833,694;    0,746;    0,955
436,083; 9261,158;   -0,981;   -0,955
436,672; 9151,895;    0,110;    0,500
437,261; 8727,701;    0,292;   -1,955
437,850; 8831,390;    1,383;    0,682
438,439; 8783,481;    3,291;    1,955
439,027; 8628,943;    3,655;    1,773
439,616; 8971,354;    2,927;    1,227
440,205; 8853,853;    0,200;   -2,136
440,794; 8934,994;    2,109;   -0,045
441,383; 9150,167;   -1,346;   -0,591
441,971; 9005,345;   -2,436;    0,591
442,560; 8873,396;    0,563;   -1,773
443,149; 8627,211;    0,379;   -1,318
443,737; 8752,673;   -0,074;   -2,318
444,326; 9007,944;    0,018;    0,318
444,915; 9083,698;   -1,982;    0,864
445,503; 9453,779;   -2,891;   -0,318
446,092; 8673,786;    0,382;    2,136
446,680; 9239,799;    0,382;    0,318
447,269; 9425,776;   -0,346;   -0,318
447,857; 9191,702;    0,018;   -1,773
448,445; 9290,284;    0,563;    1,318
449,034; 9527,855;   -1,528;   -1,136
449,622; 9645,128;   -1,073;    3,500
450,210; 8866,710;    2,017;    2,227
450,799; 9419,080;    0,290;   -0,591
451,387; 9367,663;    1,381;   -0,591
451,975; 9025,108;    2,654;    0,864
452,563; 9084,607;    3,472;    2,318
453,151; 9144,814;   -0,528;   -1,227
453,739; 9070,363;   -1,347;    0,136
454,328; 8880,958;    2,381;   -2,136
454,916; 8606,275;    2,562;   -0,136
455,504; 8825,384;    1,017;    1,227
456,092; 9001,040;    0,017;   -1,591
456,679; 8940,830;    1,472;    0,682
457,267; 8908,483;    4,017;    1,045
457,855; 9054,463;    1,017;    1,409
458,443; 8793,847;   -0,165;    1,682
459,031; 8920,380;    0,108;    2,409
459,619; 9354,520;   -1,801;    2,864
460,206; 9498,831;    0,835;    2,045
460,794; 9596,055;   -2,983;   -0,227
461,382; 9828,111;   -0,529;   -0,864
461,970; 9413,141;    1,198;    1,864
462,557; 9419,988;   -0,711;   -0,682
463,145; 9599,039;   -3,165;   -1,682
463,732; 9757,066;    2,016;   -1,045
464,320; 9693,208;   -0,075;   -3,045
464,907; 9375,351;    2,743;   -0,773
465,495; 9265,907;    0,743;   -1,227
466,082; 9413,327;   -1,984;   -0,045
466,670; 9324,694;   -2,529;    1,227
467,257; 9720,157;   -1,711;    2,045
467,844; 9884,468;   -0,075;    0,045
468,432; 9912,047;    0,834;    3,500
469,019; 9397,222;    0,925;   -1,773
469,606; 9879,905;    0,470;    3,682
470,193; 9713,905;   -1,439;    0,227
470,780; 9272,395;   -2,075;    0,864
471,368; 9631,168;   -1,257;   -0,773
471,955; 9389,252;    1,379;   -0,682
472,542; 9030,304;    0,652;   -1,136
473,129; 9252,135;   -0,166;    0,136
473,716; 9021,462;    1,470;    0,591
474,303; 9231,828;    0,652;   -0,864
474,890; 9488,807;   -1,439;   -0,500
475,477; 9464,333;   -1,621;    0,409
476,064; 9375,176;    1,106;   -1,591
476,650; 9290,245;    0,288;    0,318
477,237; 9144,699;   -0,258;    0,955
477,824; 9300,371;   -1,076;    0,864
478,411; 9318,459;   -1,894;   -0,318
478,997; 9466,297;    0,560;   -0,773
479,584; 9558,564;    1,196;   -0,409
480,171;10216,645;   -0,440;   -0,773
480,757; 9872,426;    2,651;    0,773
481,344;10178,798;    0,469;    0,409
481,931; 9689,199;    1,105;    1,045
482,517;10624,716;   -1,258;    0,318
483,104;11101,806;    1,106;    2,864
483,690;11376,536;   -1,804;    0,045
484,276;11706,676;   -0,895;    0,227
484,863;11451,665;    2,469;    1,136
485,449;12048,055;   -0,077;    0,318
486,035;12049,634;   -1,986;   -0,136
486,622;12472,889;   -0,895;    0,045
487,208;12439,234;    1,378;    1,500
487,794;12299,554;    0,741;    0,318
488,380;12379,742;    0,105;   -1,409
488,967;12415,866;   -1,168;   -0,409
489,553;12492,247;   -1,895;   -1,409
490,139;12680,764;    1,559;    0,773
490,725;12179,222;    0,741;   -0,227
491,311;11796,551;    3,287;    3,045
491,897;11183,372;   -0,986;    1,500
492,483;11056,227;    0,105;    1,227
493,069;10822,436;    3,923;    0,864
493,655;10803,209;    1,650;    0,682
494,241;10737,266;    1,377;   -0,955
494,826;11137,246;    0,287;   -1,045
495,412;10604,640;    2,559;   -0,682
495,998;10793,047;   -0,805;   -0,318
496,584;10937,612;    0,377;    1,045
497,169;10912,682;    1,014;   -0,682
497,755;10890,773;    0,650;    1,227
498,341;11446,499;    0,559;    0,318
498,926;11046,664;    1,832;    1,955
499,512;11262,307;    1,286;    2,955
500,097;11409,369;    0,195;   -0,318
500,683;11355,722;   -0,350;    2,136
501,268;11753,846;   -0,169;   -0,955
501,854;11472,916;   -0,169;    1,227
502,439;11441,213;   -0,624;   -1,773
503,024;11664,620;    0,195;    0,500
503,610;11777,193;   -0,078;   -0,682
504,195;11775,324;    0,558;    1,955
504,780;11906,667;    2,922;    1,227
505,366;11759,026;    3,013;    2,864
505,951;11519,294;    0,740;    1,045
506,536;11545,592;   -3,260;   -3,682
507,121;11570,885;    0,285;   -0,318
507,706;12077,797;    2,376;    1,045
508,291;12485,113;    2,649;    1,136
508,876;11969,827;   -0,988;    2,591
509,461;11480,809;   -0,169;   -0,773
510,046;11911,927;    0,194;    0,318
510,631;12121,367;   -0,351;   -0,773
511,216;11810,985;    2,467;   -0,500
511,801;12184,473;   -0,442;    2,591
512,386;12466,252;    0,740;    0,500
512,971;12444,185;   -2,988;    0,955
513,555;12020,320;   -0,897;   -1,500
514,140;12818,357;   -0,442;   -3,136
514,725;12814,172;   -0,715;   -1,136
515,309;12940,076;   -0,533;    0,318
515,894;12445,771;   -0,624;   -2,227
516,479;12874,416;   -0,624;   -0,955
517,063;12685,227;    0,376;    1,227
517,648;12853,776;    1,012;   -1,136
518,232;12498,120;   -0,261;   -1,409
518,817;12834,637;   -0,079;    1,682
519,401;13045,783;    2,194;    0,591
519,985;12598,322;    1,103;    1,136
520,570;12497,731;    0,830;   -1,955
521,154;12792,349;    2,102;    0,591
521,738;12912,827;   -2,352;    2,409
522,323;13510,344;   -0,170;    1,682
522,907;13266,340;    0,466;   -0,136
523,491;12977,706;    0,557;    0,955
524,075;12981,131;    2,284;    0,591
524,659;13065,784;    1,466;    0,591
525,243;12545,091;    1,739;    0,409
525,827;12782,920;    0,648;   -0,045
526,411;13629,602;   -1,989;   -0,136
526,995;13823,489;   -0,352;    1,409
527,579;13382,611;   -0,443;   -1,045
528,163;13681,383;    0,375;   -1,500
528,747;13623,924;    2,466;   -0,773
529,331;13947,769;   -0,080;   -1,409
529,915;14153,779;    1,738;    0,955
530,499;14089,657;   -0,807;    1,227
531,082;13792,519;   -0,534;    1,591
531,666;13234,163;    1,374;    0,773
532,250;13916,531;    1,284;    2,682
532,833;14277,491;    0,920;    2,773
533,417;14150,069;   -1,807;    0,864
534,001;14081,116;    1,647;   -0,318
534,584;14803,710;    0,374;    0,500
535,168;14622,981;    0,465;    1,409
535,751;14624,649;    0,647;    0,045
536,334;14125,838;   -0,898;   -0,409
536,918;14723,502;    0,011;    1,591
537,501;14820,605;   -0,899;    1,318
538,085;14797,338;   -0,444;    1,045
538,668;14972,855;    0,829;    2,409
539,251;15246,735;    1,829;    3,773
539,834;15289,368;    0,101;    0,773
540,418;15229,877;   -1,990;    4,318
541,001;15314,931;   -0,990;    1,773
541,584;15280,485;    2,101;    2,227
542,167;15004,729;    1,374;    2,955
542,750;15170,222;    1,919;   -0,773
543,333;14780,219;    0,555;    2,136
543,916;15543,413;    0,192;    2,500
544,499;16103,027;   -1,354;    0,227
545,082;16141,454;    1,374;    3,591
545,665;16270,205;    1,919;    1,500
546,248;16583,583;    1,010;   -0,318
546,830;16261,457;   -0,445;    1,955
547,413;16675,446;    1,010;   -0,773
547,996;17218,699;    0,555;    0,500
548,579;16992,229;    0,919;    0,955
549,161;16807,655;    1,828;    2,682
549,744;16552,730;   -0,809;    0,409
550,326;17063,641;   -0,809;   -1,136
550,909;16867,622;    2,737;    0,591
551,492;17280,817;   -0,263;    0,227
552,074;17042,023;   -0,173;   -1,318
552,657;17577,902;    2,373;    0,045
553,239;17389,906;   -0,173;   -0,773
553,821;17298,980;   -1,082;    1,045
554,404;16807,053;    1,282;    1,136
554,986;17174,972;    0,464;    1,045
555,568;17733,612;    1,191;   -0,955
556,151;16949,311;    1,191;   -0,227
556,733;17142,422;   -0,264;   -0,864
557,315;17653,904;    0,100;    0,500
557,897;17444,415;    0,554;   -0,500
558,479;17579,720;   -1,991;    1,318
559,061;17661,109;   -0,719;   -0,864
559,643;17976,976;   -0,264;    0,045
560,225;18371,766;    1,645;    2,864
560,807;18402,430;    0,918;    0,318
561,389;17915,405;    0,554;    2,318
561,971;18598,983;    0,463;    2,136
562,553;18451,050;   -1,628;    1,591
563,135;18573,442;   -0,537;    1,136
563,717;18160,956;    3,372;    1,136
564,298;18861,358;    3,645;   -0,045
564,880;18604,819;    0,645;   -1,409
565,462;18755,000;    0,645;    1,318
566,043;19904,730;   -0,446;    2,318
566,625;19398,911;    1,918;    1,227
567,207;19258,017;    1,099;    1,682
567,788;20361,476;   -1,264;    1,500
568,370;21122,012;    1,917;   -0,500
568,951;20955,088;    0,190;    0,227
569,533;21790,206;   -0,628;   -0,500
570,114;22189,041;   -0,446;    0,682
570,695;22686,165;   -0,174;   -1,318
571,277;23173,812;   -0,265;   -1,682
571,858;23865,561;    2,008;   -1,136
572,439;24794,520;    1,554;   -1,045
573,021;24891,868;    2,099;   -2,773
573,602;25322,220;   -1,265;    0,318
574,183;26243,292;   -2,083;    2,227
574,764;26341,713;   -1,629;    0,409
575,345;26911,359;    0,917;   -0,136
575,926;27533,338;   -0,356;    0,136
576,507;27518,856;    1,099;   -0,227
577,088;28583,916;    3,099;    1,682
577,669;28573,720;    0,735;    1,955
578,250;29263,746;    0,644;   -1,045
578,831;29878,654;   -1,356;   -2,227
579,412;30114,236;   -0,810;    0,955
579,993;31043,027;    1,008;    0,227
580,573;31397,240;   -0,629;   -0,955
581,154;30336,206;    0,735;   -0,591
581,735;31173,779;    0,644;    0,773
582,315;30714,416;   -0,629;    2,136
582,896;30980,622;   -0,174;    1,227
583,477;30506,552;    0,189;    1,227
584,057;30708,541;    0,553;    0,955
584,638;31019,663;    2,553;    2,318
585,218;30991,358;   -0,538;    2,682
585,799;31168,018;    0,281;   -0,227
586,379;31179,462;    0,372;    1,591
586,959;29993,535;    0,735;    0,318
587,540;29397,468;   -0,629;    2,227
588,120;28921,886;    1,007;   -0,045
588,700;27903,352;    2,553;    2,136
589,281;28204,906;    0,462;   -0,955
589,861;28163,760;    0,099;   -1,682
590,441;27968,089;    2,371;   -2,682
591,021;26998,662;   -0,265;   -2,591
591,601;27261,850;   -0,537;    0,500
592,181;27234,423;   -0,719;   -0,773
592,761;26549,994;    0,007;    1,409
593,341;26475,776;   -0,901;    0,045
593,921;26478,158;   -0,265;    1,591
594,501;26357,838;   -0,538;    1,318
595,081;26246,096;    0,917;   -0,318
595,661;26551,348;   -1,447;    0,955
596,240;27061,335;   -0,537;    0,136
596,820;26723,804;    0,372;    1,955
597,400;26882,830;    2,008;    0,773
597,980;27055,359;    2,008;    1,045
598,559;27057,464;    2,735;   -0,227
599,139;26868,560;   -0,174;   -1,227
599,718;26771,560;   -0,174;   -0,409
600,298;26966,858;    0,735;    0,682
600,877;27186,180;    2,917;    1,409
601,457;27498,285;    2,281;    1,136
602,036;27376,667;    0,190;    2,045
602,616;27597,722;    0,644;    1,682
603,195;27906,830;   -0,355;    3,500
603,774;27455,259;   -0,901;    2,045
604,354;27403,684;    0,826;   -0,500
604,933;26875,211;    0,463;    1,864
605,512;26949,838;    3,554;    0,591
606,091;27051,975;   -0,537;    3,773
606,671;27891,073;    0,281;    0,773
607,250;26984,530;    1,644;    3,136
607,829;27171,692;    2,372;    3,227
608,408;27094,670;    1,190;    2,591
608,987;26163,189;    1,281;    3,409
609,566;26408,167;   -1,265;   -2,500
610,145;26551,889;   -1,082;    0,682
610,723;26938,378;    4,372;    6,864
611,302;26175,181;   -0,446;    1,682
611,881;25686,916;    5,008;   11,227
612,460;26545,887;    1,645;    3,955
613,039;26958,992;   -0,082;    2,045
613,617;25757,181;    1,736;    4,773
614,196;25949,282;    1,099;    1,227
614,775;26256,869;    1,009;    2,409
615,353;26228,829;    0,736;    0,864
615,932;25907,983;    0,100;    2,409
616,510;26465,868;    0,554;    0,591
617,089;25996,864;    7,100;   17,591
617,667;25771,620;    2,372;    6,136
618,246;25663,186;   -1,537;    1,318
618,824;25806,795;   -3,355;   -0,955
619,402;25386,887;   -2,900;   -1,773
619,981;25896,058;   -0,173;   -1,045
620,559;25786,747;    0,009;    1,682
621,137;25343,357;   -0,718;    1,864
621,715;25330,937;   -1,173;   -0,682
622,293;25271,508;   -0,537;   -0,773
622,871;25702,086;   -0,718;    0,500
623,450;25306,430;    0,373;   -0,864
624,028;25207,322;    0,191;   -0,955
624,606;24844,070;   -1,718;    1,682
625,183;25227,119;   -1,536;   -1,136
625,761;24830,482;    1,009;    1,136
626,339;25140,862;    1,373;    2,591
626,917;25543,646;   -0,172;   -0,045
627,495;25533,497;   -0,354;    1,318
628,073;24971,151;   -0,263;    2,864
628,650;24678,959;    0,100;    2,136
629,228;25091,093;    0,373;    4,409
629,806;24563,324;    2,282;    1,136
630,383;24801,007;    1,464;   -0,318
630,961;24626,537;    2,555;   -0,955
631,539;24372,702;    2,464;    0,227
632,116;23758,446;   11,373;   15,409
632,694;24295,463;    2,555;    6,500
633,271;24581,739;    0,828;    2,682
633,848;24474,115;    1,828;    2,045
634,426;24553,700;   -1,081;    1,773
635,003;23705,003;    1,101;   -0,409
635,580;23985,636;    1,192;    3,682
636,158;24543,811;    3,737;    1,227
636,735;24543,861;    0,555;   -0,500
637,312;24645,725;   -0,809;   -0,682
637,889;24769,847;   -4,354;   -0,682
638,466;24230,721;   -3,990;   -0,409
639,043;24240,909;    2,101;   -1,136
639,620;24625,423;   -2,262;   -0,955
640,197;24873,661;    1,100;    1,682
640,774;24979,526;   -0,172;    1,136
641,351;25424,483;    0,737;    1,136
641,928;24838,985;   -0,627;    1,409
642,505;24448,486;    0,828;   -0,500
643,082;24635,261;   -1,718;    1,227
643,658;23678,036;   -0,718;    1,500
644,235;24387,538;    1,191;    2,500
644,812;24646,039;    1,918;    0,773
645,388;24393,087;   -0,991;    1,409
645,965;24537,407;   -0,809;    1,682
646,542;24599,181;   -1,445;   -0,227
647,118;24559,592;    1,009;   -0,955
647,695;24877,458;   -0,263;    1,136
648,271;24798,778;   -0,536;    0,500
648,848;25080,189;    0,736;    2,227
649,424;24930,145;    0,827;    1,318
650,000;24714,466;   -0,354;   -1,045
650,577;24456,149;   -0,627;   -0,955
651,153;24926,106;   -1,809;    0,955
651,729;25925,335;    1,191;    0,864
652,305;26038,382;    0,645;    2,773
652,881;30006,975;   -0,082;    1,136
653,458;36531,477;    1,100;    0,227
654,034;40398,161;    0,282;    1,591
654,610;41907,390;    0,554;    0,773
655,186;43220,801;    0,645;    3,045
655,762;42932,030;   -0,991;    0,409
656,338;42998,623;    0,100;    0,136
656,913;43906,761;   -0,082;    0,409
657,489;43245,081;    0,827;   -0,318
658,065;43270,219;   -0,173;   -1,591
658,641;43879,812;   -0,900;   -0,864
659,217;43224,405;   -0,991;    0,409
659,792;42596,270;    0,645;   -0,409
660,368;42818,681;   -2,173;   -0,682
660,944;42592,183;   -2,082;    1,227
661,519;38485,867;   -0,628;    0,409
662,095;32855,005;   -1,719;    0,591
662,670;28226,325;    1,281;   -0,136
663,246;26958,645;    1,009;   -0,409
663,821;26219,420;    0,281;    1,682
664,396;25701,104;    0,009;    1,864
664,972;25950,060;    0,009;   -0,500
665,547;26262,107;    1,372;    0,136
666,122;26348,882;   -1,082;    0,318
666,698;26592,111;   -0,173;    0,318
667,273;25915,795;   -0,173;    0,136
667,848;26688,388;    2,372;    1,500
668,423;26505,708;    2,190;    2,318
668,998;27075,119;    2,827;   -0,682
669,573;27593,439;   -3,264;   -1,500
670,148;27424,122;   -1,446;   -0,682
670,723;27258,352;   -1,810;    0,318
671,298;27620,672;    2,372;    1,045
671,873;27774,446;   -0,082;   -0,136
672,448;27697,403;    0,645;    0,136
673,023;28071,905;   -1,992;   -0,227
673,597;28385,497;    0,827;    2,318
674,172;28138,908;   -0,355;    0,318
674,747;27592,774;    0,372;   -1,045
675,321;27456,185;   -0,628;    3,318
675,896;27073,778;    0,645;    1,045
676,471;28031,461;    2,645;    1,591
677,045;27834,145;   -1,264;    0,682
677,620;27906,283;    0,190;    1,136
678,194;28165,058;   -2,628;    1,136
678,769;27761,378;   -1,083;   -0,318
679,343;27988,698;   -0,628;    1,773
679,917;27837,655;   -1,446;    1,955
680,492;27982,884;    0,826;    3,227
681,066;28022,567;    3,372;    0,409
681,640;28055,978;    1,463;   -0,318
682,214;28872,753;    0,735;    0,500
682,788;28433,982;   -1,356;   -0,773
683,363;28327,939;   -1,810;    1,682
683,937;28047,713;   -1,719;   -0,318
684,511;28831,942;    0,463;   -0,591
685,085;28528,444;   -1,356;    0,318
685,659;28373,583;   -2,538;    0,864
686,232;28531,084;   -0,356;   -0,318
686,806;28302,041;   -0,901;    0,409
687,380;28934,270;   -0,174;    0,591
687,954;29153,681;   -1,174;    1,136
688,528;28840,819;   -0,719;    1,955
689,101;29640,230;   -3,992;    1,045
689,675;29244,550;   -0,356;   -0,136
690,249;28611,416;   -0,719;    0,409
690,822;28910,736;    0,280;    0,318
691,396;28998,692;   -0,265;    1,227
691,969;28471,194;    1,280;    0,136
692,543;28949,332;   -0,447;   -1,955
693,116;28594,925;   -0,265;   -1,409
693,690;28458,336;    0,099;    0,500
694,263;29003,929;   -1,083;    2,955
694,836;29030,158;    1,371;    3,591
695,410;27710,569;   -0,265;    1,773
695,983;28184,071;    0,189;    0,591
696,556;28115,846;   -0,447;   -1,045
697,129;28511,257;   -0,356;    1,409
697,703;28146,395;   -1,629;    1,955
698,276;28117,897;    1,462;   -0,773
698,849;27977,762;    1,280;    1,409
699,422;28349,719;   -1,083;    0,591
699,995;28018,675;    0,007;    0,136
700,568;28500,541;   -0,629;    3,045
701,140;28558,224;   -2,811;    1,682
701,713;28247,544;   -0,174;    2,409
702,286;28051,319;   -0,538;    0,864
702,859;27954,366;   -0,902;   -0,591
703,432;27087,686;    0,825;    0,682
704,004;27599,825;    0,462;    0,318
704,577;27418,781;   -0,629;    0,136
705,150;28000,465;    0,189;    2,500
705,722;27829,967;   -0,356;   -3,227
706,295;27599,105;   -0,175;   -0,591
706,867;27492,061;   -0,175;    1,955
707,440;27683,836;   -1,720;   -0,409
708,012;27917,520;    0,462;    0,591
708,584;27835,476;    2,462;    0,227
709,157;28129,251;    1,825;   -0,591
709,729;27750,480;    2,280;    2,045
710,301;28625,164;    0,734;    0,045
710,874;28609,484;   -1,447;   -0,227
711,446;27501,531;    0,371;    0,864
712,018;27376,942;    0,098;    0,500
712,590;27148,626;   -1,993;    1,682
713,162;27651,128;    0,825;    1,318
713,734;27924,629;    1,825;   -2,045
714,306;27781,404;   -1,902;   -0,409
714,878;26517,451;    0,825;    0,864
715,450;27374,499;    0,643;    0,864
716,022;27630,182;    1,552;    1,318
716,593;27749,139;    0,189;    0,591
717,165;27681,732;   -3,175;   -1,227
717,737;27344,234;    0,280;    0,409
718,309;27025,099;    0,280;   -0,045
718,880;27017,419;   -0,539;   -1,409
719,452;27249,648;   -0,175;   -1,591
720,024;26811,605;    0,734;   -0,591
720,595;27376,379;   -2,902;    0,955
721,167;26948,154;    0,370;   -2,045
721,738;26468,110;   -0,812;   -1,045
722,309;26438,067;   -0,993;   -1,227
722,881;26200,841;   -1,357;    0,773
723,452;26846,889;   -2,630;    2,864
724,023;27037,482;   -0,721;    2,682
724,595;26768,802;    0,007;    0,682
725,166;26550,849;    0,007;   -0,409
725,737;26209,624;    1,734;    0,227
726,308;26291,853;   -0,266;    0,318
726,879;26714,718;   -1,630;    1,227
727,450;26557,311;    0,552;   -0,045
728,021;26567,358;    3,097;    0,682
728,592;26362,679;    0,734;    0,500
729,163;26664,090;    0,643;   -0,136
729,734;26628,228;    0,188;   -0,227
730,305;27013,275;    1,734;    0,136
730,876;27391,777;    0,188;    2,955
731,447;27094,461;    2,188;    2,682
732,017;27159,508;    1,097;    1,864
732,588;26646,828;    0,734;    1,227
733,159;26861,512;    0,643;   -1,045
733,729;26676,832;    0,006;    0,409
734,300;25968,425;    0,915;    0,864
734,870;26392,654;    3,461;    0,591
735,441;26970,519;    0,370;   -0,591
736,011;26734,112;    0,643;   -1,591
736,582;26736,159;   -0,812;    0,045
737,152;26151,661;   -1,721;   -2,045
737,722;26575,072;   -0,267;   -0,682
738,293;26299,211;   -1,358;    1,318
738,863;26143,258;    2,461;    2,318
739,433;25965,851;    5,279;    0,318
740,003;26620,171;   -0,994;   -0,682
740,573;26047,764;    2,097;   -1,591
741,143;25969,175;   -1,085;    0,318
741,713;26728,767;    1,188;   -0,500
742,283;26454,542;    0,915;    1,591
742,853;26242,498;    1,915;    1,591
743,423;25692,000;    1,733;    0,045
743,993;25889,048;   -0,358;    1,500
744,563;25296,095;    0,097;   -0,864
745,133;25176,506;   -0,812;   -0,864
745,702;25913,190;   -0,267;    1,773
746,272;25133,146;   -0,176;    0,591
746,842;24896,284;   -1,358;   -0,591
747,411;25334,423;   -0,267;   -0,318
747,981;25552,834;    0,097;    0,500
748,551;25554,699;    2,278;   -1,045
749,120;25397,656;    0,642;   -0,227
749,690;25768,521;   -0,631;    2,409
750,259;26113,023;    1,369;    2,955
750,828;25975,707;    1,551;   -1,955
751,398;26230,209;    1,278;   -0,045
751,967;25764,347;    2,187;    0,409
752,536;25994,394;   -0,813;   -0,227
753,105;26397,805;    0,096;    0,227
753,675;26217,762;    0,096;    1,773
754,244;26170,263;   -0,904;    3,591
754,813;26190,765;    0,551;    1,227
755,382;25785,540;    0,460;    0,955
755,951;26307,315;    1,551;    3,682
756,520;25840,544;   -0,085;    1,864
757,089;26369,591;    0,278;    0,500
757,658;26479,093;    1,733;    1,227
758,227;26508,504;    1,096;    0,318
758,795;26787,642;    1,187;    1,136
759,364;27045,599;   -0,086;   -0,591
759,933;26077,010;   -1,176;   -0,045
760,501;25564,421;    0,733;   -1,318
761,070;26093,286;   -2,813;   -1,409
761,639;26747,970;   -1,904;    1,318
762,207;26083,290;    1,551;   -0,955
762,776;26001,246;    0,369;    0,864
763,344;26013,657;   -0,995;    0,591
763,913;25157,977;   -0,722;    1,409
764,481;25861,570;    1,005;   -0,136
765,049;25680,799;   -1,358;    1,409
765,618;25560,574;   -0,086;    0,318
766,186;25685,349;    0,278;    0,136
766,754;25849,759;    0,005;    1,864
767,322;24870,261;   -1,995;    0,409
767,890;24848,400;   -0,722;   -1,773
768,459;25256,356;   -2,177;   -0,318
769,027;25482,312;    1,641;    3,409
769,595;24392,178;    3,278;    2,591
770,163;24853,316;    3,823;    2,955
770,730;24671,000;    0,732;   -0,136
771,298;24511,138;    0,187;   -1,409
771,866;24601,913;   -1,541;    4,955
772,434;24931,233;   -0,631;   -1,864
773,002;25088,008;    0,005;    0,682
773,569;24736,509;    0,914;    1,682
774,137;24550,193;   -0,268;   -0,045
774,705;25319,968;    0,278;   -0,136
775,272;24855,379;    0,641;    0,682
775,840;24602,608;   -0,177;    2,682
776,407;24117,473;    0,277;    1,955
776,975;23772,066;   -0,632;    0,318
777,542;24792,750;   -1,086;   -0,045
778,110;24599,070;   -1,268;   -0,045
778,677;24291,935;   -2,359;   -0,864
779,244;24077,619;    2,186;    1,045
779,812;24141,394;    1,823;    0,864
780,379;24022,532;    0,005;    1,136
780,946;24269,670;    1,005;   -0,773
781,513;24577,536;   -1,450;    0,318
782,080;23971,401;   -0,086;    2,864
782,647;24719,176;   -0,268;    3,045
783,214;24279,041;   -0,177;    3,864
783,781;23894,452;   -0,723;   -0,682
784,348;23801,682;   -0,632;    1,500
784,915;24274,638;   -3,177;    0,318
785,482;24027,231;    1,368;    2,591
786,049;24452,005;    0,186;   -0,591
786,615;24566,871;    0,277;   -0,955
787,182;24310,736;    0,186;   -0,682
787,749;23986,057;   -2,814;    1,409
788,315;23343,195;   -1,632;   -0,409
788,882;23631,151;    1,550;   -1,227
789,448;24278,926;    1,732;   -0,955
790,015;24328,791;    1,095;    3,227
790,581;23879,021;    1,459;    0,227
791,148;23795,068;    0,641;    1,045
791,714;24054,297;   -0,541;    3,136
792,280;23663,708;    0,186;    1,591
792,847;23276,755;    0,550;    2,500
793,413;23808,894;   -0,269;   -0,318
793,979;23353,941;    3,459;   -1,318
794,545;23465,170;    4,459;    2,682
795,111;22904,217;    2,186;    1,318
795,678;23055,538;    0,731;   -1,682
796,244;22677,039;    3,368;    0,136
796,810;23228,814;    1,731;    0,773
797,375;22921,952;    0,549;   -2,136
797,941;22954,818;   -0,541;    0,591
798,507;23112,229;   -0,451;   -0,955
799,073;22675,912;   -0,360;    0,591
799,639;22713,778;   -2,632;    3,136
800,205;22740,098;    0,095;    2,682
800,770;22312,236;    0,640;    1,773
801,336;22397,102;    1,368;   -0,955
801,901;22112,422;    4,549;    3,136
802,467;22705,106;   -0,542;    2,045
803,033;22066,789;   -0,087;    0,864
803,598;22210,382;    1,913;   -1,045
804,163;22281,066;    1,095;   -0,318
804,729;22238,659;   -0,178;    1,136
805,294;22640,251;    0,822;    2,227
805,859;22427,026;    0,731;   -0,409
806,425;21918,982;    1,186;    2,682
806,990;21548,030;    2,186;    4,318
807,555;22027,168;   -1,451;    2,591
808,120;21904,761;    0,822;   -0,409
808,685;22001,626;    0,185;   -2,500
809,250;21498,765;    0,004;   -0,500
809,815;21863,630;    1,913;    0,682
810,380;22367,041;   -0,269;    1,591
810,945;22865,907;   -1,087;    2,045
811,510;22081,681;    2,094;    1,591
812,075;21793,638;   -0,633;   -1,409
812,640;21796,321;    2,003;    1,409
813,204;21831,278;    0,822;   -0,227
813,769;22302,507;    2,094;   -0,045
814,334;21772,282;    0,458;    0,864
814,898;21878,602;    0,367;    0,591
815,463;21696,740;    1,276;   -0,773
816,027;21672,424;   -0,724;   -2,318
816,592;21791,653;    0,640;   -2,045
817,156;21239,791;    2,094;    1,136
817,721;21073,929;    4,276;    2,318
818,285;21079,249;    2,912;    1,500
818,849;21693,115;   -1,451;    1,682
819,414;21600,526;   -0,269;    2,955
819,978;21248,391;   -1,269;    1,773
820,542;21805,257;    2,003;    0,500
821,106;21526,213;   -0,815;    0,682
821,670;21622,806;   -0,815;    2,591
822,234;21376,853;   -0,270;    1,409
822,798;20778,628;    0,003;    0,500
823,362;20696,039;   -0,633;    4,227
823,926;19983,541;    0,094;    1,136
824,490;20226,497;   -0,997;   -0,682
825,054;20700,908;   -0,088;   -1,136
825,618;20325,047;   -1,542;   -1,500
826,181;20245,185;    0,458;   -1,318
826,745;20138,596;    1,367;   -1,045
827,309;20457,098;    1,185;    1,318
827,872;19855,236;    1,367;    0,955
828,436;20864,011;    1,185;   -0,773
828,999;20934,149;   -0,997;    1,227
829,563;19756,196;   -0,179;    1,136
830,126;19614,971;   -0,179;   -0,591
830,690;19569,200;   -1,997;    2,864
831,253;19114,611;   -0,543;    2,227
831,816;19188,295;   -1,906;    0,500
832,380;19155,251;    0,185;    0,864
832,943;19374,844;   -1,361;   -0,500
833,506;18865,255;    2,639;   -1,227
834,069;19645,848;    3,912;   -0,955
834,632;19733,349;    1,730;    1,318
835,195;19655,124;    1,003;    0,955
835,758;18876,990;   -0,997;    1,955
836,321;18702,946;    0,730;   -1,045
836,884;18801,175;   -0,725;   -0,955
837,447;18828,313;   -2,816;    1,773
838,010;19046,543;    0,366;    3,227
838,573;19352,863;   -1,179;    0,773
839,135;19364,819;   -1,361;   -0,955
839,698;18830,139;    1,275;    0,409
840,261;18338,550;    1,003;   -0,227
840,823;18196,234;   -0,543;    0,864
841,386;18496,099;   -0,452;   -2,409
841,948;18384,783;   -1,361;    1,773
842,511;18130,194;    0,912;    1,682
843,073;18229,787;    1,912;    0,227
843,636;18038,471;   -0,361;   -0,227
844,198;17946,245;    0,911;    0,591
844,760;18080,929;    1,093;    1,955
845,322;17737,613;    0,548;    1,136
845,885;18162,387;    0,730;    0,591
846,447;18587,980;   -1,998;    0,227
847,009;18172,755;    1,911;   -0,682
847,571;18526,529;    0,820;   -2,045
848,133;18632,940;   -1,089;   -1,864
848,695;18441,260;   -0,543;    1,409
849,257;17978,671;   -1,089;   -1,682
849,819;18152,719;   -0,998;   -0,409
850,381;18202,675;   -0,725;   -0,864
850,942;18556,268;    1,093;   -0,591
851,504;18493,679;    1,184;    0,227
852,066;18556,272;    1,275;   -1,591
852,628;18086,319;   -0,180;    1,955
853,189;17627,548;    1,638;    2,682
853,751;17762,414;   -0,907;    1,409
854,312;17609,097;   -0,453;   -1,682
854,874;18109,508;   -2,089;   -0,773
855,435;18601,465;   -0,907;   -1,682
855,997;18764,148;   -1,816;   -0,136
856,558;18017,196;    0,366;    1,773
857,119;18125,880;    0,820;    2,864
857,681;17840,290;    0,002;    0,318
858,242;17897,701;    1,911;   -2,136
858,803;18327,658;    0,456;   -0,773
859,364;18872,887;    0,184;   -4,773
859,925;18200,753;   -2,453;   -0,955
860,486;18127,618;   -0,453;   -0,955
861,047;17863,665;   -0,544;   -1,227
861,608;17657,986;   -1,089;   -0,773
862,169;17816,942;    0,638;   -0,045
862,730;17545,807;    0,456;    1,409
863,291;17775,491;   -0,635;   -0,500
863,852;18150,084;   -0,635;    1,955
864,412;17670,677;   -0,271;   -0,864
864,973;16241,815;   -0,089;    0,500
865,534;16132,044;   -1,726;    0,227
866,094;17631,273;    1,820;    0,227
866,655;17282,230;    1,274;    3,318
867,215;17536,732;    0,274;    0,136
867,776;17408,506;    0,547;   -0,136
868,336;17495,917;   -1,453;    0,136
868,897;16951,601;    2,638;    1,682
869,457;16684,739;    1,365;    0,318
870,017;16930,514;    0,547;   -1,227
870,578;17456,379;   -0,817;    0,773
871,138;17137,427;   -2,089;   -0,955
871,698;16673,929;   -0,817;   -1,318
872,258;16517,612;   -0,453;   -2,864
872,818;16878,296;    2,729;    0,045
873,378;16883,343;    0,638;    1,045
873,938;16445,936;    0,547;    0,500
874,498;16778,620;    0,274;   -1,955
875,058;16676,940;    2,183;    1,773
875,618;16529,169;    1,910;   -2,682
876,177;16452,580;    1,274;    0,136
876,737;16031,446;   -0,090;    1,955
877,297;16058,129;    0,183;    1,955
877,856;16075,267;   -0,362;    0,318
878,416;16044,769;    1,183;   -0,136
878,976;16279,544;   -1,817;    0,409
879,535;16455,682;    0,092;    3,136
880,095;16199,820;   -0,544;    0,045
880,654;16286,777;   -1,090;    1,318
881,213;16335,552;    2,456;    1,500
881,773;15981,417;    2,637;    2,682
882,332;16359,192;    3,365;    5,136
882,891;16229,057;    3,092;    2,136
883,451;16681,923;   -1,272;    1,682
884,010;16134,425;   -2,908;   -0,409
884,569;16212,381;   -0,999;   -0,045
885,128;16343,337;    2,819;   -1,864
885,687;16411,294;    4,455;    0,682
886,246;16104,523;    1,455;    2,136
886,805;15886,389;    2,455;    2,045
887,364;16197,345;   -0,999;   -0,500
887,922;16548,483;   -1,181;    0,045
888,481;16060,712;   -1,545;    0,591
889,040;16385,578;    1,183;    2,136
889,599;17021,534;    2,455;    1,409
890,157;17076,309;    1,455;    2,409
890,716;16746,902;   -0,090;    0,227
891,274;16597,767;    0,092;   -1,136
891,833;17015,724;    1,546;    0,864
892,391;16891,226;   -0,454;    0,500
892,950;16951,909;    1,819;   -0,773
893,508;17321,502;    0,455;   -0,409
894,067;16692,186;    0,637;    0,136
894,625;16568,779;   -0,636;   -1,500
895,183;16780,462;   -0,363;   -0,682
895,741;16638,237;    1,728;   -1,773
896,299;16529,012;   -0,545;   -2,409
896,858;16726,241;    0,819;   -1,591
897,416;16811,924;    2,728;   -1,318
897,974;16598,608;    1,819;    0,318
898,532;16717,292;    6,091;    2,682
899,089;16642,521;    2,091;   -0,682
899,647;16715,659;   -1,454;    1,318
900,205;16405,525;    1,182;    1,045
900,763;16627,936;   -0,454;    0,227
901,321;16659,438;    2,364;   -1,409
901,878;16091,303;   -1,000;   -0,773
902,436;15942,532;   -1,363;    1,318
902,994;16304,580;    4,728;    3,682
903,551;15784,082;    0,728;    0,409
904,109;16165,129;    0,182;   -1,409
904,666;15801,631;    2,455;    1,045
905,224;15626,587;    0,182;   -0,409
905,781;15346,453;    0,727;   -0,318
906,338;15421,682;   -1,363;    1,045
906,895;15333,638;    0,637;    2,045
907,453;15260,777;    1,727;    1,136
908,010;15326,006;   -0,909;    0,409
908,567;14982,689;    1,273;    0,591
909,124;14497,828;    0,364;   -1,500
909,681;14553,420;   -2,909;    0,682
910,238;14705,650;    0,636;   -1,318
910,795;15047,242;   -0,273;   -1,136
911,352;14672,061;   -2,909;   -2,682
911,909;14115,788;   -1,364;   -0,864
912,466;14589,061;   -3,182;    1,500
913,022;14115,152;   -1,636;    0,500
913,579;14470,061;   -0,909;    2,045
914,136;14195,970;    1,636;    0,955
914,692;14513,515;    0,091;   -1,227
915,249;14141,606;    1,455;    0,409
915,806;14372,879;    0,182;    1,955
916,362;14091,333;    1,909;    1,864
916,918;13664,242;    2,000;    1,045
917,475;13617,697;   -1,182;    0,955
918,031;13724,333;    3,364;   -0,045
918,587;13200,788;   -0,909;   -0,318
919,144;13426,242;   -2,273;    0,227
919,700;13727,697;    1,727;    0,773
920,256;13322,424;    0,727;    0,045
920,812;12964,606;   -0,727;   -1,045
921,368;12950,242;   -1,727;   -1,045
921,924;12581,152;    0,182;   -0,136
922,480;12166,061;   -0,545;    1,227
923,036;12790,697;    1,273;    1,955
923,592;12703,970;    0,455;    0,318
924,148;12627,515;    0,455;   -0,955
924,704;11927,606;   -1,364;   -0,409
925,259;12201,242;   -0,273;    0,591
925,815;11984,152;    1,455;    0,500
926,371;11509,333;    2,909;    1,409
926,926;11406,515;    2,091;    0,591
927,482;11055,515;   -1,364;    0,773
928,037;10936,970;    0,909;    2,045
928,593;11224,970;    1,636;    1,045
929,148;11047,970;   -1,818;   -1,500
929,704;10570,424;   -1,455;   -0,500
930,259;10767,061;    0,091;   -0,136
930,814; 9839,606;   -0,818;    1,955
931,369; 9554,606;    1,091;   -0,773
931,925; 9445,152;   -0,091;    0,136
932,480; 9338,606;   -2,818;   -2,591
933,035; 9220,515;    0,545;   -0,318
933,590; 9001,061;    0,364;   -1,773
934,145; 8672,424;   -1,364;   -0,318
934,700; 8995,515;    0,455;   -0,591
935,255; 8783,515;   -0,091;    0,045
935,809; 8075,333;    3,182;    0,864
936,364; 7244,515;   -0,455;   -0,136
936,919; 7234,061;    0,455;   -1,773
937,474; 7119,697;    1,455;    0,136
938,028; 6899,970;   -1,636;    1,136
938,583; 6355,061;    1,818;    4,682
939,138; 6643,606;    2,091;    2,136
939,692; 6099,152;    1,636;   -1,136
940,247; 5823,061;   -0,727;   -1,045
940,801; 5384,061;   -0,636;    0,227
941,355; 5256,061;   -0,364;    2,591
941,910; 4935,333;   -0,273;   -2,136
942,464; 5039,788;   -0,818;   -0,318
943,018; 4841,424;    1,000;   -0,227
943,572; 4782,788;    2,545;   -0,682
944,126; 4199,970;    0,091;   -0,409
944,681; 4091,333;    3,091;    0,227
945,235; 4087,242;    1,000;   -0,591
945,789; 4033,424;    0,364;   -1,864
946,342; 4121,333;    0,455;   -0,591
946,896; 3945,970;   -2,273;    0,955
947,450; 3718,333;    1,545;   -0,227
948,004; 3901,879;    1,727;   -0,045
948,558; 3901,970;    0,273;   -0,864
949,111; 3833,424;   -0,273;   -0,318
949,665; 3863,424;    1,636;   -0,682
950,219; 3739,879;   -0,091;   -1,045
950,772; 3813,606;   -1,909;    1,864
951,326; 3700,424;    0,545;   -0,955
951,879; 3813,061;    0,727;   -2,318
952,433; 3840,606;    0,000;    2,227
952,986; 3673,788;    2,909;    0,682
953,539; 3643,788;   -0,273;    0,591
954,093; 3580,788;    0,545;   -1,318
954,646; 3712,333;    0,909;    1,318
955,199; 3502,515;    0,000;   -0,500
955,752; 3391,879;   -0,455;    1,773
956,305; 3368,697;   -0,091;    2,955
956,858; 3521,879;    0,818;   -0,318
957,411; 3679,242;   -0,545;    2,136
957,964; 3521,333;    1,364;    2,136
958,517; 3512,879;   -1,545;    3,136
959,070; 3353,061;   -0,455;    1,955
959,623; 3446,606;    1,091;    1,500
960,176; 3205,152;    1,727;    2,045
960,728; 3181,333;   -2,727;    0,773
961,281; 3250,879;    0,545;    0,500
961,834; 3306,879;   -0,909;    0,864
962,386; 3198,242;    1,727;    1,045
962,939; 3136,515;    0,364;   -0,318
963,491; 3276,333;    0,455;    1,136
964,043; 3146,970;    1,182;    2,409
964,596; 3261,788;   -1,000;    2,227
965,148; 3108,515;   -1,000;    1,773
965,700; 3021,970;    1,091;   -0,227
966,253; 3175,697;   -0,636;    0,318
966,805; 3007,242;   -2,273;    0,773
967,357; 3054,424;    1,091;   -1,500
967,909; 3011,061;    0,455;   -1,227
968,461; 3119,061;    0,545;    3,136
969,013; 3057,515;   -0,182;   -0,864
969,565; 3131,788;   -0,455;   -1,136
970,117; 3203,061;   -0,364;    1,045
970,669; 3052,333;    0,182;   -0,136
971,220; 2914,788;   -0,455;   -1,500
971,772; 2841,879;   -0,636;   -0,318
972,324; 2959,970;    0,091;   -0,500
972,876; 2909,333;    0,818;   -0,045
973,427; 3034,333;    1,909;   -1,045
973,979; 3007,788;   -0,727;   -2,500
974,530; 3020,879;    1,818;    1,318
975,082; 3059,152;   -0,545;    1,682
975,633; 2951,879;    1,091;    1,682
976,184; 3088,333;    0,909;    0,773
976,736; 2884,788;    0,091;    0,227
977,287; 2691,152;   -0,909;   -0,500
977,838; 2870,697;    0,909;   -0,318
978,389; 2917,242;   -1,000;   -0,500
978,940; 2801,697;    0,545;   -0,409
979,491; 2833,788;    0,091;   -0,500
980,042; 2796,152;    0,182;    3,045
980,593; 2868,515;   -2,545;    0,227
981,144; 2907,606;    2,545;   -0,500
981,695; 2868,424;    1,455;    1,500
982,246; 2829,697;   -0,273;    1,045
982,797; 2961,879;   -1,727;    0,682
983,347; 3066,333;    0,364;    0,591
983,898; 3248,970;    3,091;    0,409
984,449; 3066,242;    2,182;    0,773
984,999; 2984,788;    1,455;   -1,136
985,550; 2761,515;    0,182;   -0,318
986,100; 2795,606;   -0,455;   -0,318
986,651; 2847,879;   -0,818;    0,045
987,201; 2817,788;   -1,000;   -0,591
987,751; 2903,970;    0,818;    2,864
988,302; 2889,697;    2,636;    1,500
988,852; 2910,515;    0,455;   -1,136
989,402; 2944,788;    0,091;    0,682
989,952; 2853,879;   -2,182;    0,864
990,502; 2970,061;   -0,091;    0,682
991,052; 2921,242;   -0,727;    0,045
991,602; 2782,061;   -2,909;    1,318
992,152; 2810,424;    0,455;    0,682
992,702; 2784,424;    1,364;   -0,045
993,252; 2707,606;   -3,000;   -0,500
993,802; 2804,424;   -0,273;    1,318
994,352; 3024,879;   -1,545;    1,136
994,901; 3097,515;   -0,182;    3,227
995,451; 3035,061;   -0,182;    0,318
996,000; 3127,788;    1,636;    0,318
996,550; 2851,788;    2,273;    0,227
997,100; 2840,242;    1,273;   -0,045
997,649; 3104,788;    2,182;    0,955
998,198; 2755,242;    1,727;   -1,500
998,748; 2937,333;    1,091;   -2,318
999,297; 2866,606;   -0,818;   -0,409
999,846; 2933,152;    1,000;   -0,773
1000,395; 2961,879;   -0,818;    0,500
1000,945; 2924,333;    1,818;   -0,773
1001,494; 3010,061;    2,364;    0,682
1002,043; 2981,152;    4,636;    0,864
1002,592; 2838,242;   -1,091;    1,955
1003,141; 2988,970;   -0,455;   -0,682
1003,690; 2836,697;    1,727;    0,500
1004,238; 2922,424;    1,455;   -0,045
1004,787; 2573,788;    1,364;    1,227
1005,336; 2798,242;    0,364;    0,682
1005,885; 2928,424;    1,364;   -2,773
1006,433; 3067,606;    0,545;    0,955
1006,982; 3129,333;    0,455;    1,682
1007,531; 3055,606;   -1,818;   -0,227
1008,079; 2993,515;   -2,273;    0,500
1008,627; 3132,606;   -1,455;    0,409
1009,176; 2888,061;    0,000;   -1,955
1009,724; 2932,788;    1,091;    0,864
1010,273; 2985,424;    1,273;    0,500
1010,821; 3097,879;    0,091;    1,409
1011,369; 2840,242;   -1,364;    1,318
1011,917; 2816,424;   -1,364;   -0,591
1012,465; 3089,152;    1,273;   -1,591
1013,013; 3199,242;    2,091;   -1,682
1013,561; 3078,333;    0,455;   -0,773
1014,109; 3138,515;   -1,909;    1,682
1014,657; 3013,970;    0,364;    0,591
1015,205; 3130,152;    1,636;   -0,955
1015,753; 3168,788;   -0,545;   -1,409
1016,301; 3199,606;   -2,636;    3,045
1016,848; 3206,242;   -1,273;    0,409
1017,396; 3242,606;    2,545;    0,045
1017,944; 3367,152;    1,182;    1,864
1018,491; 3130,606;    0,273;    1,409
1019,039; 3271,152;    0,455;    0,591
1019,586; 3210,788;   -1,364;    1,682
1020,134; 3297,697;    0,455;    1,500
1020,681; 3325,333;    0,182;   -1,136
1021,228; 3335,152;    2,909;   -2,227
1021,776; 3170,424;    1,182;   -1,136
1022,323; 3392,606;    0,455;    0,773
1022,870; 3331,970;   -1,000;   -0,045
1023,417; 3203,152;    2,636;    1,864
1023,964; 3337,152;    2,636;    1,227
1024,511; 3204,424;    1,000;    0,773
1025,058; 3002,879;    3,182;   -0,045
1025,605; 3037,333;   -2,273;    3,136
1026,152; 3275,697;    1,727;   -0,591
1026,699; 3012,970;    1,818;    1,318
1027,245; 3176,515;   -0,091;    0,318
1027,792; 3402,970;   -1,000;    1,409
1028,339; 3253,061;    2,364;   -0,045
1028,885; 3117,061;    1,000;   -0,227
1029,432; 3064,515;   -0,091;    0,227
1029,978; 3113,333;   -1,000;   -1,591
1030,525; 3035,606;    1,000;    0,409
1031,071; 3283,515;   -1,364;    1,136
1031,618; 3378,788;    0,364;    1,682
1032,164; 3150,970;   -0,091;    3,045
1032,710; 3196,152;    1,636;   -1,500
1033,256; 3129,242;   -0,636;   -0,136
1033,803; 3119,697;   -0,545;    1,500
1034,349; 2834,788;   -1,364;    0,136
1034,895; 3002,515;    0,000;   -0,318
1035,441; 2977,970;   -0,818;    0,318
1035,987; 2980,061;   -2,364;   -0,682
1036,533; 2960,061;   -1,455;   -0,955
1037,078; 3167,424;    1,455;    1,682
1037,624; 3001,061;    2,455;   -0,955
1038,170; 3017,515;    0,455;   -0,318
1038,716; 2920,061;    1,636;   -0,409
1039,261; 2838,879;   -2,273;   -0,773
1039,807; 2785,970;   -0,091;    3,409
1040,352; 2852,788;   -1,909;   -0,318
1040,898; 2895,152;   -1,545;   -0,682
1041,443; 2825,697;   -1,455;   -2,591
1041,989; 2824,606;    1,091;    1,591
1042,534; 2704,424;   -0,364;    2,591
1043,079; 2833,788;    2,909;    0,955
1043,625; 2619,697;    1,818;    0,500
1044,170; 2663,970;   -1,364;    1,045
1044,715; 2916,061;    2,455;    0,955
1045,260; 2736,606;    2,182;   -0,955
1045,805; 2781,970;    1,182;   -0,591
1046,350; 2721,242;    1,364;   -0,409
1046,895; 2678,152;    2,909;    1,591
1047,440; 2614,242;    5,364;    0,409
1047,985; 2530,333;    2,818;   -0,955
1048,530; 2450,879;    1,545;    1,227
1049,074; 2532,606;    0,000;    0,318
1049,619; 2504,152;   -1,364;    1,955
1050,164; 2302,606;    0,455;    0,227
1050,708; 2353,606;   -0,455;    0,045
1051,253; 2694,879;    1,273;   -2,227
1051,797; 2428,788;    0,818;   -1,318
1052,342; 2450,788;   -1,182;    1,045
1052,886; 2397,970;    0,364;   -1,409
1053,430; 2299,515;   -1,364;    0,136
1053,975; 2306,424;   -0,818;   -0,318
1054,519; 2290,424;   -0,727;    3,227
1055,063; 2316,061;    0,909;    1,318
1055,607; 2190,697;   -0,182;    0,227
1056,151; 2216,606;    2,909;    1,682
1056,695; 2148,788;    2,273;   -1,136
1057,239; 2231,879;   -1,727;   -0,682
1057,783; 2217,333;    0,818;   -1,500
1058,327; 2161,879;    0,000;    1,409
1058,871; 2394,970;   -0,545;    1,318
1059,415; 2109,242;   -0,818;   -0,045
1059,958; 2368,970;    1,455;    2,591
1060,502; 2076,061;   -1,000;   -0,773
1061,046; 1998,970;    0,364;   -0,955
1061,589; 1969,333;   -3,000;   -1,136
1062,133; 1859,788;   -1,273;    1,864
1062,676; 1806,515;    1,182;    0,864
1063,220; 1810,606;    1,091;    0,500
1063,763; 1823,424;    0,909;    1,136
1064,306; 1884,061;   -0,909;    1,864
1064,849; 1766,970;   -0,909;    0,591
1065,393; 1785,879;    2,000;   -1,500
1065,936; 1900,242;    0,182;   -0,409
1066,479; 1790,424;   -1,455;    1,318
1067,022; 1825,515;   -0,273;   -0,227
1067,565; 1701,606;   -0,091;   -1,318
1068,108; 1748,879;    0,727;   -0,591
1068,651; 1726,061;   -0,636;    1,409
1069,194; 1638,970;   -0,455;   -1,682
1069,736; 1641,879;   -1,273;    0,955
1070,279; 1622,970;   -1,364;   -0,500
1070,822; 1675,788;   -2,000;   -0,318
1071,364; 1754,242;   -0,364;    1,318
1071,907; 1570,879;   -0,727;    3,227
1072,450; 1482,970;    0,000;   -0,045
1072,992; 1474,879;   -0,273;    3,136
1073,535; 1612,606;    2,091;    2,136
1074,077; 1415,333;   -0,727;    2,045
1074,619; 1383,424;   -1,364;    0,591
1075,161; 1415,879;   -1,091;    1,500
1075,704; 1586,061;    1,545;    1,227
1076,246; 1385,788;   -0,182;    0,682
1076,788; 1313,242;   -0,364;    1,773
1077,330; 1399,333;    1,273;    2,136
1077,872; 1350,606;    0,909;    0,955
1078,414; 1567,515;    2,727;    0,773
1078,956; 1316,061;    1,273;   -0,227
1079,498; 1568,424;    1,636;    0,318
1080,040; 1271,788;    1,909;   -1,318
1080,581; 1215,970;    1,636;   -0,318
1081,123; 1150,424;    0,091;   -0,773
1081,665; 1202,061;   -1,182;   -0,955
1082,206; 1497,970;    1,364;   -0,500
1082,748; 1359,515;    0,727;    2,045
1083,289; 1230,788;   -2,000;    1,318
1083,831; 1138,788;   -0,545;    0,227
1084,372; 1163,515;    0,000;    0,591
1084,913; 1180,424;    1,091;    0,864
1085,455; 1153,515;   -1,909;   -2,045
1085,996; 1115,879;   -2,273;    0,136
1086,537; 1141,061;   -0,091;    0,864
1087,078; 1168,333;   -0,909;   -2,136
1087,619; 1207,242;   -1,273;    0,227
1088,160; 1128,152;    0,000;    1,318
1088,701; 1103,061;   -1,091;    0,682
1089,242; 1051,152;    1,364;   -2,227
1089,783; 1130,970;   -0,273;    1,409
1090,324; 1114,515;    0,455;    0,682
1090,865; 1003,606;    2,727;   -0,409
1091,405;  968,606;    0,727;    2,227
1091,946;  988,788;    0,182;   -0,955
1092,487;  927,333;    0,818;   -1,409
1093,027; 1087,697;   -1,364;   -1,500
1093,568;  942,606;   -0,364;    1,227
1094,108; 1023,424;    0,273;    1,773
1094,649;  974,970;   -1,182;    0,136
1095,189;  912,697;   -0,636;   -0,682
1095,729;  849,697;   -0,091;    0,955
1096,269;  863,424;    0,727;   -0,955
1096,810; 1170,788;   -1,364;    0,500
1097,350; 1006,697;    1,364;   -0,773
1097,890;  901,970;    0,364;    1,227
1098,430; 1160,242;    2,364;    2,864
1098,970; 1037,970;    2,182;    1,682
1099,510;  899,515;    0,545;   -2,318
1100,050;  828,970;    1,000;   -1,591
1100,589;  798,061;   -0,727;   -0,318
1101,129;  910,879;    0,818;   -0,955
1101,669; 1055,152;    1,727;    2,136
1102,209;  878,333;   -0,091;    2,227
1102,748;  832,152;    0,000;    0,955
1103,288;  821,606;    1,273;   -1,227
1103,827;  853,333;    3,091;   -2,227
1104,367;  741,242;   -0,091;   -2,409
1104,906;  710,606;    1,364;   -1,136
1105,445;  781,606;    0,636;   -1,136
1105,985;  720,424;   -0,727;    1,500
1106,524;  758,970;   -1,727;   -0,682
1107,063;  734,515;   -2,727;    1,409
1107,602;  705,515;   -1,909;   -1,500
1108,141;  638,061;   -1,909;    1,500
1108,680;  728,606;   -3,455;   -0,591
1109,219;  669,879;   -0,909;   -0,500
1109,758;  671,061;    0,455;    0,682
1110,297;  648,515;    1,000;   -0,682
1110,836;  599,515;   -0,727;    0,955
1111,375;  765,606;   -2,545;    0,409
1111,913;  776,333;   -1,000;    0,773
1112,452;  706,424;   -0,273;    0,136
1112,991;  590,333;    1,091;    1,955
1113,529;  551,061;   -0,818;   -0,045
1114,068;  622,333;   -0,273;    2,955
1114,606;  522,061;   -0,364;   -0,955
1115,144;  673,788;   -1,273;    1,045
1115,683;  610,970;   -0,727;    0,318
1116,221;  664,788;   -0,455;   -0,864
1116,759;  573,333;    0,636;   -0,864
1117,297;  764,333;    0,000;    1,864
1117,836;  567,788;   -2,182;   -1,227
1118,374;  583,333;    0,182;   -0,682
1118,912;  518,697;    0,909;    2,682
1119,450;  517,333;    1,000;    0,864
1119,988;  565,697;    1,545;    2,136
1120,525; 1019,061;    5,091;    3,318
1121,063;  714,697;    1,182;    1,864
1121,601;  516,152;   -0,909;   -1,227
1122,139;  477,242;   -0,727;   -2,045
1122,676;  675,515;   -0,727;    2,773
1123,214;  607,242;   -1,182;    4,409
1123,751;  425,879;    1,727;    2,227
1124,289;  551,424;   -0,091;   -0,409
1124,826;  425,242;    1,727;    0,227
1125,364;  353,515;    1,727;   -0,955
1125,901;  537,061;    1,182;    1,227
1126,438;  649,697;    0,818;    0,955
1126,975;  384,333;   -0,727;   -0,773
1127,513;  446,788;    0,273;    2,136
1128,050;  352,879;    1,636;   -0,682
1128,587;  454,697;    2,000;   -0,227
1129,124;  491,970;    0,091;    1,318
1129,661;  363,424;    0,273;    0,227
1130,198;  522,970;    1,636;    0,773
1130,734;  470,242;    0,182;    1,409
1131,271;  327,970;   -0,909;    0,864
1131,808;  491,061;    2,909;    3,045
1132,345;  376,515;    1,545;    0,318
1132,881;  248,879;   -1,545;   -1,864
1133,418;  381,970;    0,727;   -1,136
1133,954;  319,606;    2,455;   -2,682
1134,491;  387,242;    1,364;   -0,773
1135,027;  294,697;    2,364;    0,864
1135,564;  387,242;    0,273;    2,955
1136,100;  369,697;    0,364;    2,136
1136,636;  253,788;   -1,273;   -1,045
1137,172;  344,788;    0,000;   -1,045
1137,708;  265,788;   -1,364;   -1,045
1138,245;  281,515;    1,273;   -1,227
1138,781;  230,879;    1,091;   -3,318
1139,317;  293,970;    1,273;   -1,409
1139,852;  283,879;    3,091;    0,136
1140,388;  408,333;   -1,182;   -0,409
1140,924;  291,879;   -1,091;   -2,227
1141,460;  228,606;   -1,636;    0,136
1141,996;  164,515;   -1,364;    2,682
1142,531;  211,152;    1,364;    3,318
1143,067;  419,970;    1,182;    1,045
1143,602;  481,424;   -0,091;   -0,318
1144,138;  328,970;   -2,636;    1,045
1144,673;  187,515;   -1,455;    1,409
1145,209;  254,697;   -1,909;   -0,318
1145,744;  185,788;   -0,727;    0,864
1146,279;  310,152;    1,818;   -0,136
1146,815;  230,333;    1,545;   -2,682
1147,350;  273,424;   -1,364;    0,045
1147,885;  189,788;   -0,818;   -1,318
1148,420;  186,061;   -2,273;    0,773
1148,955;  164,333;   -1,727;    1,864
1149,490;  192,061;   -0,909;   -1,591
1150,025;  173,970;    0,455;   -1,773
1150,560;  282,061;    1,091;   -0,955
1151,094;  253,970;    1,455;   -0,591
1151,629;  255,879;    1,636;    0,864
1152,164;  181,061;    1,364;    1,318
1152,698;  151,879;   -0,182;   -0,136
1153,233;  114,242;    0,091;   -0,682
1153,767;  157,788;   -3,000;   -2,318
1154,302;  207,152;   -1,455;    1,773
1154,836;  197,879;   -0,455;   -2,136
1155,371;  244,515;   -1,364;    3,682
1155,905;  197,152;   -0,636;    1,682
1156,439;  172,424;   -0,636;   -0,500
1156,973;  206,333;    0,364;    0,318
1157,507;  143,606;   -0,364;    0,682
1158,042;  174,697;   -0,727;    1,045
1158,576;  215,515;    0,182;    1,773
1159,110;  200,333;   -0,818;    2,409
1159,643;  166,697;    0,636;   -0,045
1160,177;  110,061;   -1,545;    1,500

