
Integration time [ms]:   0,040
Averaging Nr. [scans]: 11
Smoothing Nr. [pixels]: 0
Data measured with spectrometer [name]: 7318044SP
Wave   ;Sample   ;Dark     ;Reference
[nm]   ;[counts] ;[counts] ;[counts] 

186,757;    9,321;   31,551;    1,318
187,357;   25,849;   22,551;    0,955
187,958;    1,384;   15,460;   -1,591
188,558;   44,492;    8,915;   -1,227
189,159;   15,138;    6,733;   -4,500
189,759;   -7,990;    7,278;   -3,591
190,360;   -8,882;    2,824;   -2,136
190,960;    6,613;    2,915;   -4,136
191,560;    8,864;    3,189;   -6,591
192,161;  218,749;    4,372;   -3,500
192,761;   87,572;    4,010;   -3,227
193,361;   47,688;    1,556;   -3,773
193,962;   76,017;    2,010;   -2,682
194,562;    5,466;    1,189;   -3,955
195,162;   21,760;   -2,448;   -2,227
195,762;  128,007;   -3,176;   -0,045
196,362;   82,614;    1,370;   -2,500
196,963;    4,735;    2,006;   -0,864
197,563;   43,861;    1,551;   -0,955
198,163;   -0,562;    0,096;   -0,682
198,763;    4,564;    1,733;   -0,500
199,363;   53,275;    3,096;   -0,500
199,963;   22,259;    0,369;    0,409
200,563;   16,449;    2,823;   -1,409
201,163;    8,200;    3,277;   -0,227
201,763;   33,174;    3,732;    0,318
202,363;    2,280;    1,459;    1,500
202,963;   32,336;    1,459;    1,045
203,563;   74,493;    0,277;    0,500
204,162;   14,877;    2,096;   -1,864
204,762;    2,009;    0,550;    0,591
205,362;   -4,020;    3,004;    1,955
205,962;   17,286;    3,096;    1,955
206,562;    3,874;    1,823;    2,318
207,161;   -5,057;   -0,087;    0,318
207,761;   67,634;    1,277;    2,409
208,361;    5,433;   -0,268;    1,409
208,960;   16,912;    0,459;    1,500
209,560;   22,206;    1,277;    1,591
210,160;   36,497;    0,550;    1,864
210,759;    8,841;    4,186;    1,227
211,359;    2,193;    1,459;    1,045
211,958;   94,695;    1,277;    2,045
212,558;   95,846;    1,732;    1,864
213,157;   31,367;    1,822;    1,500
213,757;  163,861;    3,822;   -0,227
214,356;   57,901;    1,277;   -0,409
214,956;  145,355;    3,095;    0,409
215,555;   30,341;    2,095;    2,136
216,154;    5,191;   -2,723;   -0,591
216,754;    3,363;    0,277;    0,773
217,353;   14,767;   -0,268;   -1,045
217,952;  -24,400;   -0,178;    0,318
218,552;   43,787;    1,368;   -0,773
219,151;    8,153;    0,277;    0,955
219,750;    1,589;    0,004;   -0,227
220,349;  -10,038;   -0,451;    1,045
220,948;   50,126;   -1,360;    1,136
221,548;   -0,699;    0,913;    1,227
222,147;    6,489;   -0,087;   -0,409
222,746;   71,474;   -0,451;   -0,955
223,345;   28,136;    0,731;    0,500
223,944;   25,097;   -0,451;    0,773
224,543;   25,756;    1,004;   -1,409
225,142;   17,844;    0,094;    0,136
225,741;   21,919;   -0,814;    1,045
226,340;   14,068;   -0,451;   -0,955
226,939;   60,115;   -0,996;   -0,136
227,538;   14,390;   -0,360;   -0,773
228,137;   73,678;   -0,814;    0,864
228,735;   43,582;   -0,541;    1,227
229,334;  -14,974;   -0,905;   -0,227
229,933;   71,737;    0,459;    0,591
230,532;   59,947;    1,186;   -0,409
231,131;   96,392;    1,732;    0,318
231,729;   35,529;   -2,450;   -2,318
232,328;    4,209;   -0,723;   -1,500
232,927;   19,875;    1,004;   -0,500
233,525;   13,124;    3,640;    0,045
234,124;   27,461;    2,368;   -1,591
234,723;    0,320;    0,913;   -1,045
235,321;  -14,811;    2,277;    0,136
235,920;   -8,375;    1,186;   -1,227
236,518;   68,858;    3,459;    0,318
237,117;    3,365;    0,004;   -0,227
237,715;   10,454;    0,640;   -0,500
238,314;   23,326;   -0,087;   -2,318
238,912;   62,540;   -0,723;   -1,409
239,510;   32,974;    0,459;   -1,227
240,109;   89,229;    0,004;    3,773
240,707;   59,859;   -0,996;    1,227
241,305;    4,382;    0,550;    0,136
241,904;   31,655;   -0,178;   -2,045
242,502;   90,398;   -0,632;   -0,227
243,100;   42,807;   -0,087;   -0,955
243,698;    5,986;    0,732;    1,682
244,297;   20,122;   -0,632;    0,682
244,895;   25,179;   -0,269;   -2,318
245,493;   82,562;    2,186;   -0,591
246,091;   88,146;    1,368;   -1,318
246,689;   53,141;    1,004;    0,591
247,287;   43,467;    0,822;   -1,136
247,885;   13,298;   -1,451;    1,227
248,483;    1,612;    1,822;   -0,500
249,081;   40,455;    0,185;    1,591
249,679;   48,012;   -0,178;    1,682
250,277;    1,898;   -1,723;    0,864
250,875;   38,085;   -1,087;   -1,045
251,473;    8,129;   -1,178;    0,500
252,071;   52,794;    1,459;    1,045
252,669;   20,369;   -1,814;    0,318
253,267;   -6,000;   -0,087;    0,773
253,864;   13,922;   -0,360;    0,682
254,462;   58,283;    1,640;    1,591
255,060;    1,984;   -0,269;    1,318
255,658;   -2,267;    0,822;   -0,136
256,255;   12,826;    0,186;   -2,045
256,853;   32,207;   -0,269;    1,409
257,451;    8,097;    0,822;    1,864
258,048;  169,708;    1,822;    1,864
258,646;   73,732;    1,731;   -1,045
259,243;  100,025;   -0,087;    2,227
259,841;   50,797;   -0,814;    0,318
260,438;    6,817;   -0,087;    0,864
261,036;   38,068;   -1,905;    1,409
261,633;    8,652;   -0,087;    2,227
262,231;   -3,705;    2,731;   -0,045
262,828;  -17,513;   -0,905;    1,136
263,425;   -5,484;    0,913;   -0,591
264,023;   -1,198;    0,186;    0,045
264,620;   48,994;   -0,360;   -0,318
265,217;   84,829;   -2,087;    3,136
265,815;   19,081;   -1,905;    2,136
266,412;   43,476;    0,731;    0,136
267,009;   36,456;   -1,451;    0,773
267,606;   67,823;    0,822;   -0,955
268,203;   19,121;   -0,269;   -0,591
268,801;   20,305;    1,731;    0,591
269,398;    2,709;   -0,360;    2,500
269,995;   32,305;    0,277;    1,591
270,592;   22,876;   -0,632;   -0,500
271,189;   -3,259;    0,186;    0,409
271,786;  -14,447;   -0,632;    1,227
272,383;   43,260;   -1,087;    0,227
272,980;   10,434;    0,277;    0,318
273,577;   -2,641;    0,004;    1,227
274,174;  -11,315;    0,822;    2,591
274,771;   35,369;   -0,814;   -0,773
275,367;  179,081;    2,277;    1,409
275,964;   79,208;    0,731;   -0,500
276,561;   19,658;    1,549;   -1,045
277,158;  -17,806;    0,095;   -1,773
277,755;   70,728;    2,185;    0,409
278,351;   38,272;   -0,451;   -1,500
278,948;   52,873;   -0,815;    0,045
279,545;   32,388;   -1,360;    2,318
280,141;   80,440;   -1,723;   -2,045
280,738;   82,450;   -0,451;   -0,136
281,334;    6,073;   -1,633;    0,591
281,931;    1,485;   -0,087;   -1,318
282,528;   46,763;    0,822;   -0,500
283,124;   68,646;   -1,087;   -0,500
283,721;   65,828;   -0,451;    1,409
284,317;   26,099;    0,185;    2,500
284,913;   73,988;   -1,360;    0,591
285,510;  136,442;    0,640;   -0,318
286,106;   84,706;   -2,269;   -0,955
286,703;   38,007;   -0,360;    1,955
287,299;   14,888;   -1,451;   -0,591
287,895;   16,026;    0,822;   -1,045
288,491;    8,255;    0,186;    2,136
289,088;   42,269;   -2,360;    2,409
289,684;   40,460;   -1,723;    1,500
290,280;   99,516;    0,368;    0,682
290,876;   69,503;    1,822;    5,500
291,472;   49,408;    1,276;    2,227
292,068;   58,626;    1,367;    0,227
292,665;   22,706;    2,095;    0,773
293,261;    2,388;    0,276;    2,136
293,857;   51,051;    2,913;    2,136
294,453;   10,368;    3,550;    0,955
295,049;   90,056;   -0,268;    1,955
295,644;   44,805;    0,095;    0,136
296,240;   -6,224;   -0,905;   -0,136
296,836;   31,390;   -0,995;    0,318
297,432;   57,328;    1,096;   -0,500
298,028;   54,302;    0,732;    0,773
298,624;   22,132;    1,459;    1,864
299,220;   20,690;    2,368;    0,591
299,815;   20,089;    1,005;   -0,409
300,411;   48,511;    0,914;    1,773
301,007;   71,559;    1,368;    0,227
301,602;   13,277;   -0,541;   -2,318
302,198;   69,325;    0,732;   -0,773
302,794;   17,824;    1,187;   -0,500
303,389;   -8,342;   -1,177;    1,045
303,985;    8,096;    0,550;    1,409
304,580;   63,819;    1,459;    1,591
305,176;   19,479;   -3,086;    0,136
305,771;  -22,806;   -1,268;   -1,227
306,367;  136,471;    4,095;    0,136
306,962;   45,368;    0,641;    1,500
307,558;   62,213;   -0,450;    0,136
308,153;   49,393;    1,095;   -1,136
308,748;   -4,943;   -0,814;    1,682
309,344;  119,594;   -0,632;   -1,318
309,939;  114,124;   -1,905;   -1,318
310,534;   26,359;   -0,086;   -1,682
311,130;   16,308;    0,459;   -2,500
311,725;    3,804;    1,004;   -0,500
312,320;   15,892;    2,459;    0,045
312,915;   42,728;    1,459;   -1,045
313,510;  127,659;    1,550;   -0,500
314,105;   24,216;    1,096;    1,409
314,700;   -4,470;   -3,086;   -1,045
315,295;   14,637;   -0,904;    0,045
315,890;   -2,461;    1,277;    0,864
316,485;   35,269;   -0,359;   -0,318
317,080;   -1,985;   -3,086;    1,591
317,675;  123,715;    2,005;   -0,682
318,270;  222,715;    5,550;    3,318
318,865;  147,619;    3,278;    3,045
319,460;   74,700;   -0,904;    0,591
320,055;    6,085;   -0,541;   -1,227
320,650;    9,846;   -1,995;   -0,591
321,244;   21,384;   -0,177;   -1,409
321,839;    6,909;   -1,541;   -0,227
322,434;   24,437;   -1,086;   -1,591
323,029;    5,682;    1,732;    1,591
323,623;    2,239;    1,550;    0,773
324,218;   89,191;    2,368;    1,409
324,812;   50,920;    1,096;    1,591
325,407;   41,245;   -0,814;    2,045
326,002;  106,041;    0,277;   -0,409
326,596;   68,514;    0,914;    1,318
327,191;   17,197;    0,823;   -1,045
327,785;   11,424;   -0,813;   -0,227
328,379;   -1,861;    1,368;    0,136
328,974;   16,898;    0,914;   -3,955
329,568;   38,321;    0,186;   -2,409
330,163;   78,542;    2,096;    1,045
330,757;   13,525;    2,459;    1,591
331,351;   -7,954;    0,459;    0,682
331,945;  -15,090;    0,914;    1,409
332,540;   35,960;   -1,723;   -0,591
333,134;   33,322;   -1,086;    0,773
333,728;   40,928;    0,005;    0,318
334,322;   -1,749;   -1,177;   -0,864
334,916;   -2,744;    0,277;    0,955
335,510;   54,886;   -0,450;   -0,136
336,105;   42,379;   -1,086;    1,591
336,699;   -1,297;   -1,086;    0,591
337,293;   19,395;   -1,723;    0,318
337,887;    0,015;   -2,723;    1,955
338,481;   40,714;    0,459;    0,591
339,074;   87,705;   -0,359;    2,682
339,668;   68,829;   -1,632;    1,227
340,262;  320,177;    1,732;    3,227
340,856;  131,548;    1,822;   -0,682
341,450;   17,381;    1,004;    1,864
342,044;   34,850;    1,459;    0,136
342,637;   68,774;    0,913;   -2,136
343,231;   28,889;   -2,360;    0,682
343,825;   21,607;   -1,086;   -0,591
344,419;   22,032;   -1,995;    0,500
345,012;  255,836;    2,459;    4,045
345,606;  155,227;    4,641;    1,591
346,199;   32,101;   -1,813;   -0,227
346,793;   74,679;    1,914;    2,045
347,386;   13,883;   -0,813;   -1,136
347,980;  -18,260;   -0,268;   -0,045
348,573;   13,989;    2,278;    0,409
349,167;  170,954;    5,278;    4,773
349,760;   74,451;    2,914;    2,682
350,354;   58,513;   -0,813;    1,136
350,947;   72,017;    1,096;    1,682
351,540;   38,130;   -0,358;   -1,409
352,134;   -3,244;    1,096;    1,136
352,727;    0,351;   -0,086;    1,136
353,320;    4,450;    0,005;    0,591
353,913;  -12,850;   -1,995;    1,864
354,507;   64,085;    0,823;   -1,227
355,100;    4,963;    0,460;    0,864
355,693;  217,771;    2,005;    2,409
356,286;   99,206;    0,823;    2,773
356,879;   28,007;   -0,722;    1,227
357,472;   38,964;   -0,904;    1,500
358,065;   43,849;   -0,722;    2,500
358,658;   -6,180;   -0,540;    2,318
359,251;  -14,988;   -1,631;   -0,591
359,844;   50,470;   -1,904;   -1,136
360,437;   78,578;   -2,995;    0,045
361,030;    6,617;    1,369;   -0,682
361,623;   19,600;    2,824;    0,318
362,215;  130,775;   -0,086;    2,045
362,808;   40,987;   -2,358;   -1,682
363,401;   13,072;   -2,449;    0,136
363,994;  125,539;   -0,631;   -1,500
364,586;   34,420;    0,824;   -1,500
365,179;   17,268;   -0,449;   -1,136
365,772;  -32,048;   -1,995;    2,045
366,364;   14,625;    1,915;   -3,227
366,957;   32,659;    2,279;   -0,045
367,549;   14,629;    2,188;   -0,864
368,142;   26,409;    1,825;   -1,500
368,734;    9,000;    0,734;   -2,136
369,327;  -21,189;    1,643;   -0,500
369,919;    4,517;   -1,538;    0,409
370,512;   14,664;   -1,083;   -0,500
371,104;  189,459;   -0,901;    1,591
371,696;  193,963;    1,191;   -0,955
372,289;  106,331;    0,373;    1,136
372,881;   64,714;   -2,080;    1,318
373,473;    1,960;   -2,170;    1,136
374,066;   53,240;   -0,169;    0,500
374,658;   35,786;    0,378;    1,136
375,250;  -11,702;    0,653;   -1,409
375,842;   23,388;    0,473;   -0,045
376,434;  -24,831;   -0,435;   -0,409
377,026;  -47,118;    0,204;   -2,500
377,618;   -2,407;   -0,158;   -0,682
378,210;  -54,637;   -0,338;   -1,955
378,802;  -65,492;    0,754;   -0,591
379,394;  286,497;    1,846;    0,682
379,986;   58,776;    1,393;   -0,955
380,578;  -33,310;   -0,153;    0,773
381,170;  201,861;   -0,972;    0,045
381,762;  119,802;    0,755;    1,409
382,354;   87,563;   -0,065;   -1,318
382,945;    9,462;   -2,976;    0,318
383,537;  -21,294;   -2,705;   -1,955
384,129;  -19,182;   -2,160;   -1,136
384,721;   86,717;   -0,252;    0,955
385,312;   23,406;   -0,161;   -0,955
385,904;   93,582;   -2,706;    1,591
386,496;   26,224;   -0,979;    1,045
387,087;  139,454;    1,022;    2,500
387,679;   79,667;   -1,160;    0,045
388,270;   58,912;    2,840;    2,045
388,862;   35,117;    1,295;   -0,318
389,453;   22,247;   -0,887;    1,045
390,045;   23,670;   -0,705;   -2,682
390,636;  -72,866;    0,204;   -0,591
391,227;  -14,053;   -0,523;   -0,045
391,819;  -31,056;    0,204;    0,773
392,410;  187,854;    1,022;    0,045
393,001;   22,072;   -0,979;   -1,591
393,593;   67,273;    1,930;   -0,045
394,184;  110,446;    1,385;   -0,409
394,775;    4,575;    1,839;    2,136
395,366;  -61,008;    1,385;    0,773
395,957;   86,624;    0,113;    0,136
396,548;   -0,332;   -0,342;    2,682
397,139;   88,461;   -2,433;    0,591
397,730;    9,950;   -1,888;    0,955
398,321;   21,165;   -1,252;    0,955
398,912;  -20,216;   -0,615;    0,136
399,503;  -24,467;   -3,524;   -1,409
400,094;   11,012;    0,294;    1,682
400,685;    2,086;   -0,433;    0,045
401,276;  -35,592;    0,930;   -0,955
401,867;  -54,039;   -0,888;    0,773
402,458;  -88,816;   -2,251;   -2,318
403,048;   36,724;    1,112;    0,591
403,639;   -9,436;    0,840;    0,864
404,230;   89,585;    2,476;    0,318
404,821;  131,715;   -0,615;    0,045
405,411;   52,477;    1,203;   -2,591
406,002;  -22,324;   -1,252;   -1,136
406,592;  174,624;    2,294;    0,045
407,183;   51,463;    0,566;   -1,500
407,774;   39,000;    3,475;   -0,136
408,364;   -8,170;    0,930;    0,409
408,954;  100,219;    0,384;    1,227
409,545;   96,840;    1,021;    1,045
410,135;   71,803;    1,293;    0,500
410,726;   20,367;    1,838;    0,318
411,316;  178,239;    0,111;    0,773
411,906;   49,658;   -0,253;   -0,409
412,497;   62,498;   -1,070;   -0,045
413,087;   -1,518;   -1,980;   -0,227
413,677;  -59,238;   -0,707;    3,864
414,267;  -58,290;    0,656;    1,409
414,857;  -70,077;   -2,980;    4,227
415,448;  -69,733;    0,839;    0,500
416,038;  -44,584;    0,020;   -0,591
416,628;   -5,617;   -0,889;    0,409
417,218;   40,242;    0,565;    3,318
417,808;  173,273;    0,202;   -0,409
418,398;   62,219;    0,020;    2,682
418,988;  -40,514;    2,020;    0,591
419,578;   46,398;   -0,707;    1,409
420,168;  -13,968;   -1,343;   -0,955
420,757;  111,390;   -1,343;   -1,500
421,347;   17,418;    0,111;   -0,227
421,937;  -12,202;    2,292;    1,409
422,527;  108,775;    0,838;   -0,773
423,116;  233,246;   -0,253;   -0,045
423,706;   -8,628;   -1,889;    0,318
424,296;  -42,729;    1,384;    0,682
424,885;   64,089;   -0,071;   -3,045
425,475;   34,531;    1,474;   -2,864
426,065;  -58,539;   -0,980;   -0,318
426,654;  -72,171;   -0,435;   -0,318
427,244;  168,311;    0,020;    1,409
427,833;  131,638;    1,383;   -0,500
428,423;   16,012;   -0,526;    1,136
429,012;   17,334;   -0,344;   -1,136
429,601;  137,348;   -1,344;    0,136
430,191;   32,609;    1,292;    4,318
430,780;  -56,827;   -0,344;   -0,409
431,369;  119,626;    0,746;   -0,045
431,959;   21,775;   -1,254;    0,500
432,548;  -43,996;   -1,163;   -0,045
433,137;  -89,388;   -1,254;   -1,318
433,726;  -21,890;    0,292;    0,500
434,315;   -5,693;   -0,526;    2,409
434,905;  101,910;   -1,254;    1,409
435,494;   90,747;    0,746;    0,955
436,083;  -33,714;   -0,981;   -0,955
436,672;   58,621;    0,110;    0,500
437,261;    8,794;    0,292;   -1,955
437,850;  218,892;    1,383;    0,682
438,439;  256,688;    3,291;    1,955
439,027;  358,638;    3,655;    1,773
439,616;  294,501;    2,927;    1,227
440,205;   90,553;    0,200;   -2,136
440,794;   44,709;    2,109;   -0,045
441,383;  -16,739;   -1,346;   -0,591
441,971;  -41,851;   -2,436;    0,591
442,560;  -31,240;    0,563;   -1,773
443,149; -106,201;    0,379;   -1,318
443,737;  -70,359;   -0,074;   -2,318
444,326;  -47,770;    0,018;    0,318
444,915;    1,964;   -1,982;    0,864
445,503;    3,634;   -2,891;   -0,318
446,092;  245,403;    0,382;    2,136
446,680;  180,844;    0,382;    0,318
447,269;   90,495;   -0,346;   -0,318
447,857;   70,144;    0,018;   -1,773
448,445;   33,758;    0,563;    1,318
449,034;  -17,241;   -1,528;   -1,136
449,622;  -15,963;   -1,073;    3,500
450,210;  246,805;    2,017;    2,227
450,799;  161,296;    0,290;   -0,591
451,387;  126,369;    1,381;   -0,591
451,975;  115,494;    2,654;    0,864
452,563;  185,369;    3,472;    2,318
453,151;   19,792;   -0,528;   -1,227
453,739;   60,972;   -1,347;    0,136
454,328;  159,964;    2,381;   -2,136
454,916;  102,533;    2,562;   -0,136
455,504;  109,033;    1,017;    1,227
456,092;   10,725;    0,017;   -1,591
456,679;  -29,383;    1,472;    0,682
457,267;  369,994;    4,017;    1,045
457,855;   74,387;    1,017;    1,409
458,443;  -62,579;   -0,165;    1,682
459,031;   68,525;    0,108;    2,409
459,619;   48,153;   -1,801;    2,864
460,206;  -42,859;    0,835;    2,045
460,794;  -42,300;   -2,983;   -0,227
461,382;    3,614;   -0,529;   -0,864
461,970;    5,369;    1,198;    1,864
462,557;  -61,973;   -0,711;   -0,682
463,145;   47,210;   -3,165;   -1,682
463,732;  277,467;    2,016;   -1,045
464,320;   68,260;   -0,075;   -3,045
464,907;  191,727;    2,743;   -0,773
465,495;  108,034;    0,743;   -1,227
466,082;   30,367;   -1,984;   -0,045
466,670;   59,115;   -2,529;    1,227
467,257;  -38,560;   -1,711;    2,045
467,844;   59,791;   -0,075;    0,045
468,432;   33,480;    0,834;    3,500
469,019;   -6,043;    0,925;   -1,773
469,606;   65,387;    0,470;    3,682
470,193;   99,905;   -1,439;    0,227
470,780;   59,360;   -2,075;    0,864
471,368;   -8,970;   -1,257;   -0,773
471,955;   89,438;    1,379;   -0,682
472,542;   53,696;    0,652;   -1,136
473,129;  -42,835;   -0,166;    0,136
473,716;  -41,267;    1,470;    0,591
474,303;   -6,530;    0,652;   -0,864
474,890;   -8,254;   -1,439;   -0,500
475,477;   92,690;   -1,621;    0,409
476,064;    4,022;    1,106;   -1,591
476,650;  114,069;    0,288;    0,318
477,237;   31,887;   -0,258;    0,955
477,824;   13,496;   -1,076;    0,864
478,411;  -70,888;   -1,894;   -0,318
478,997;  -70,406;    0,560;   -0,773
479,584; -118,282;    1,196;   -0,409
480,171;   45,292;   -0,440;   -0,773
480,757;   95,555;    2,651;    0,773
481,344;    1,452;    0,469;    0,409
481,931;  -81,433;    1,105;    1,045
482,517;   35,664;   -1,258;    0,318
483,104;  110,322;    1,106;    2,864
483,690;   -7,390;   -1,804;    0,045
484,276;  -25,425;   -0,895;    0,227
484,863;  170,780;    2,469;    1,136
485,449;   31,486;   -0,077;    0,318
486,035;   -7,279;   -1,986;   -0,136
486,622;   71,248;   -0,895;    0,045
487,208;   -6,257;    1,378;    1,500
487,794;  -82,035;    0,741;    0,318
488,380;  -77,539;    0,105;   -1,409
488,967;  -65,974;   -1,168;   -0,409
489,553;  -54,752;   -1,895;   -1,409
490,139;   14,772;    1,559;    0,773
490,725;  -51,657;    0,741;   -0,227
491,311;   -6,078;    3,287;    3,045
491,897;  -28,517;   -0,986;    1,500
492,483;  -21,262;    0,105;    1,227
493,069;  381,290;    3,923;    0,864
493,655;  123,329;    1,650;    0,682
494,241;   -0,092;    1,377;   -0,955
494,826;    6,788;    0,287;   -1,045
495,412;   65,548;    2,559;   -0,682
495,998;  -14,006;   -0,805;   -0,318
496,584;   39,504;    0,377;    1,045
497,169;   50,802;    1,014;   -0,682
497,755;   -5,589;    0,650;    1,227
498,341;  115,705;    0,559;    0,318
498,926;  236,484;    1,832;    1,955
499,512;  -12,075;    1,286;    2,955
500,097;  -13,888;    0,195;   -0,318
500,683;   16,232;   -0,350;    2,136
501,268;  -34,816;   -0,169;   -0,955
501,854;  -14,150;   -0,169;    1,227
502,439;  -24,278;   -0,624;   -1,773
503,024;   -6,595;    0,195;    0,500
503,610;   14,330;   -0,078;   -0,682
504,195;  -33,671;    0,558;    1,955
504,780;   55,841;    2,922;    1,227
505,366;  133,537;    3,013;    2,864
505,951;   64,729;    0,740;    1,045
506,536;   -8,361;   -3,260;   -3,682
507,121;   44,245;    0,285;   -0,318
507,706;   13,897;    2,376;    1,045
508,291;  -45,539;    2,649;    1,136
508,876;  -37,494;   -0,988;    2,591
509,461;   -3,512;   -0,169;   -0,773
510,046;   23,408;    0,194;    0,318
510,631;   36,229;   -0,351;   -0,773
511,216;  -34,458;    2,467;   -0,500
511,801;   12,259;   -0,442;    2,591
512,386;   32,693;    0,740;    0,500
512,971;   46,020;   -2,988;    0,955
513,555;   69,889;   -0,897;   -1,500
514,140;   27,685;   -0,442;   -3,136
514,725;  139,455;   -0,715;   -1,136
515,309;   54,060;   -0,533;    0,318
515,894;  -24,704;   -0,624;   -2,227
516,479;    7,348;   -0,624;   -0,955
517,063;   11,756;    0,376;    1,227
517,648;  -21,860;    1,012;   -1,136
518,232;  -40,120;   -0,261;   -1,409
518,817;   27,950;   -0,079;    1,682
519,401;  108,250;    2,194;    0,591
519,985;  102,572;    1,103;    1,136
520,570;    5,607;    0,830;   -1,955
521,154;   79,375;    2,102;    0,591
521,738;  197,792;   -2,352;    2,409
522,323;   92,980;   -0,170;    1,682
522,907;  112,927;    0,466;   -0,136
523,491;   59,488;    0,557;    0,955
524,075;   73,284;    2,284;    0,591
524,659;  269,410;    1,466;    0,591
525,243;  252,463;    1,739;    0,409
525,827;  251,803;    0,648;   -0,045
526,411;  312,410;   -1,989;   -0,136
526,995;  514,339;   -0,352;    1,409
527,579;  666,894;   -0,443;   -1,045
528,163;  697,736;    0,375;   -1,500
528,747;  993,892;    2,466;   -0,773
529,331; 1069,444;   -0,080;   -1,409
529,915; 1009,506;    1,738;    0,955
530,499; 1323,656;   -0,807;    1,227
531,082; 1639,520;   -0,534;    1,591
531,666; 1872,903;    1,374;    0,773
532,250; 2134,961;    1,284;    2,682
532,833; 2574,663;    0,920;    2,773
533,417; 2746,069;   -1,807;    0,864
534,001; 3033,472;    1,647;   -0,318
534,584; 3679,431;    0,374;    0,500
535,168; 3938,239;    0,465;    1,409
535,751; 4482,395;    0,647;    0,045
536,334; 4464,350;   -0,898;   -0,409
536,918; 5249,731;    0,011;    1,591
537,501; 5687,076;   -0,899;    1,318
538,085; 6101,203;   -0,444;    1,045
538,668; 6507,454;    0,829;    2,409
539,251; 7190,705;    1,829;    3,773
539,834; 7634,139;    0,101;    0,773
540,418; 7953,498;   -1,990;    4,318
541,001; 8376,697;   -0,990;    1,773
541,584; 8722,181;    2,101;    2,227
542,167; 8773,460;    1,374;    2,955
542,750; 9177,629;    1,919;   -0,773
543,333; 9105,132;    0,555;    2,136
543,916;10047,504;    0,192;    2,500
544,499;10767,797;   -1,354;    0,227
545,082;11062,417;    1,374;    3,591
545,665;11427,771;    1,919;    1,500
546,248;11936,950;    1,010;   -0,318
546,830;11857,801;   -0,445;    1,955
547,413;12440,161;    1,010;   -0,773
547,996;13140,196;    0,555;    0,500
548,579;13114,616;    0,919;    0,955
549,161;13123,781;    1,828;    2,682
549,744;13047,655;   -0,809;    0,409
550,326;13709,302;   -0,809;   -1,136
550,909;13651,161;    2,737;    0,591
551,492;14165,635;   -0,263;    0,227
552,074;14103,507;   -0,173;   -1,318
552,657;14733,117;    2,373;    0,045
553,239;14667,870;   -0,173;   -0,773
553,821;14697,039;   -1,082;    1,045
554,404;14340,716;    1,282;    1,136
554,986;14810,232;    0,464;    1,045
555,568;15441,895;    1,191;   -0,955
556,151;14773,055;    1,191;   -0,227
556,733;15071,025;   -0,264;   -0,864
557,315;15583,009;    0,100;    0,500
557,897;15463,047;    0,554;   -0,500
558,479;15632,180;   -1,991;    1,318
559,061;15814,336;   -0,719;   -0,864
559,643;16219,413;   -0,264;    0,045
560,225;16580,060;    1,645;    2,864
560,807;16688,595;    0,918;    0,318
561,389;16276,685;    0,554;    2,318
561,971;17010,518;    0,463;    2,136
562,553;16890,918;   -1,628;    1,591
563,135;17077,571;   -0,537;    1,136
563,717;16776,170;    3,372;    1,136
564,298;17475,072;    3,645;   -0,045
564,880;17250,081;    0,645;   -1,409
565,462;17428,899;    0,645;    1,318
566,043;18571,669;   -0,446;    2,318
566,625;18158,210;    1,918;    1,227
567,207;18062,667;    1,099;    1,682
567,788;19140,238;   -1,264;    1,500
568,370;20001,790;    1,917;   -0,500
568,951;19830,060;    0,190;    0,227
569,533;20693,408;   -0,628;   -0,500
570,114;21135,294;   -0,446;    0,682
570,695;21637,950;   -0,174;   -1,318
571,277;22160,012;   -0,265;   -1,682
571,858;22855,538;    2,008;   -1,136
572,439;23751,530;    1,554;   -1,045
573,021;23927,018;    2,099;   -2,773
573,602;24438,769;   -1,265;    0,318
574,183;25363,713;   -2,083;    2,227
574,764;25491,666;   -1,629;    0,409
575,345;26033,632;    0,917;   -0,136
575,926;26712,684;   -0,356;    0,136
576,507;26715,400;    1,099;   -0,227
577,088;27831,732;    3,099;    1,682
577,669;27863,252;    0,735;    1,955
578,250;28544,895;    0,644;   -1,045
578,831;29219,857;   -1,356;   -2,227
579,412;29444,776;   -0,810;    0,955
579,993;30433,760;    1,008;    0,227
580,573;30871,070;   -0,629;   -0,955
581,154;29871,108;    0,735;   -0,591
581,735;30686,761;    0,644;    0,773
582,315;30231,670;   -0,629;    2,136
582,896;30626,484;   -0,174;    1,227
583,477;30112,426;    0,189;    1,227
584,057;30365,182;    0,553;    0,955
584,638;30685,760;    2,553;    2,318
585,218;30663,899;   -0,538;    2,682
585,799;30903,344;    0,281;   -0,227
586,379;30879,822;    0,372;    1,591
586,959;29666,323;    0,735;    0,318
587,540;29110,927;   -0,629;    2,227
588,120;28694,832;    1,007;   -0,045
588,700;27749,108;    2,553;    2,136
589,281;28025,733;    0,462;   -0,955
589,861;27973,796;    0,099;   -1,682
590,441;27853,107;    2,371;   -2,682
591,021;26885,573;   -0,265;   -2,591
591,601;27150,545;   -0,537;    0,500
592,181;27166,193;   -0,719;   -0,773
592,761;26530,417;    0,007;    1,409
593,341;26445,831;   -0,901;    0,045
593,921;26409,609;   -0,265;    1,591
594,501;26345,355;   -0,538;    1,318
595,081;26263,630;    0,917;   -0,318
595,661;26595,383;   -1,447;    0,955
596,240;27127,032;   -0,537;    0,136
596,820;26704,238;    0,372;    1,955
597,400;26957,308;    2,008;    0,773
597,980;27215,477;    2,008;    1,045
598,559;27257,838;    2,735;   -0,227
599,139;26955,778;   -0,174;   -1,227
599,718;26936,687;   -0,174;   -0,409
600,298;27175,961;    0,735;    0,682
600,877;27386,765;    2,917;    1,409
601,457;27678,245;    2,281;    1,136
602,036;27617,268;    0,190;    2,045
602,616;27841,472;    0,644;    1,682
603,195;28171,512;   -0,355;    3,500
603,774;27713,784;   -0,901;    2,045
604,354;27630,580;    0,826;   -0,500
604,933;27215,075;    0,463;    1,864
605,512;27380,837;    3,554;    0,591
606,091;27410,262;   -0,537;    3,773
606,671;28240,218;    0,281;    0,773
607,250;27296,955;    1,644;    3,136
607,829;27530,200;    2,372;    3,227
608,408;27388,856;    1,190;    2,591
608,987;26459,695;    1,281;    3,409
609,566;26783,751;   -1,265;   -2,500
610,145;26888,048;   -1,082;    0,682
610,723;27317,555;    4,372;    6,864
611,302;26598,831;   -0,446;    1,682
611,881;26105,417;    5,008;   11,227
612,460;26949,946;    1,645;    3,955
613,039;27436,420;   -0,082;    2,045
613,617;26141,343;    1,736;    4,773
614,196;26368,706;    1,099;    1,227
614,775;26710,378;    1,009;    2,409
615,353;26681,925;    0,736;    0,864
615,932;26391,545;    0,100;    2,409
616,510;27041,100;    0,554;    0,591
617,089;26487,529;    7,100;   17,591
617,667;26281,732;    2,372;    6,136
618,246;26191,247;   -1,537;    1,318
618,824;26298,145;   -3,355;   -0,955
619,402;25907,605;   -2,900;   -1,773
619,981;26452,810;   -0,173;   -1,045
620,559;26307,095;    0,009;    1,682
621,137;25850,276;   -0,718;    1,864
621,715;25885,420;   -1,173;   -0,682
622,293;25768,148;   -0,537;   -0,773
622,871;26208,554;   -0,718;    0,500
623,450;25824,071;    0,373;   -0,864
624,028;25740,304;    0,191;   -0,955
624,606;25398,734;   -1,718;    1,682
625,183;25812,993;   -1,536;   -1,136
625,761;25430,533;    1,009;    1,136
626,339;25740,909;    1,373;    2,591
626,917;26089,788;   -0,172;   -0,045
627,495;26187,563;   -0,354;    1,318
628,073;25594,517;   -0,263;    2,864
628,650;25302,518;    0,100;    2,136
629,228;25751,992;    0,373;    4,409
629,806;25178,074;    2,282;    1,136
630,383;25471,227;    1,464;   -0,318
630,961;25238,561;    2,555;   -0,955
631,539;24959,730;    2,464;    0,227
632,116;24313,924;   11,373;   15,409
632,694;24898,964;    2,555;    6,500
633,271;25258,285;    0,828;    2,682
633,848;25126,994;    1,828;    2,045
634,426;25146,110;   -1,081;    1,773
635,003;24306,528;    1,101;   -0,409
635,580;24623,508;    1,192;    3,682
636,158;25209,166;    3,737;    1,227
636,735;25180,045;    0,555;   -0,500
637,312;25345,806;   -0,809;   -0,682
637,889;25458,325;   -4,354;   -0,682
638,466;24922,840;   -3,990;   -0,409
639,043;24915,086;    2,101;   -1,136
639,620;25271,685;   -2,262;   -0,955
640,197;25558,428;    1,100;    1,682
640,774;25723,486;   -0,172;    1,136
641,351;26183,544;    0,737;    1,136
641,928;25562,239;   -0,627;    1,409
642,505;25214,115;    0,828;   -0,500
643,082;25382,810;   -1,718;    1,227
643,658;24401,231;   -0,718;    1,500
644,235;25144,926;    1,191;    2,500
644,812;25420,711;    1,918;    0,773
645,388;25142,860;   -0,991;    1,409
645,965;25272,464;   -0,809;    1,682
646,542;25377,704;   -1,445;   -0,227
647,118;25313,580;    1,009;   -0,955
647,695;25653,548;   -0,263;    1,136
648,271;25553,606;   -0,536;    0,500
648,848;25895,846;    0,736;    2,227
649,424;25700,722;    0,827;    1,318
650,000;25525,235;   -0,354;   -1,045
650,577;25302,384;   -0,627;   -0,955
651,153;25780,533;   -1,809;    0,955
651,729;26821,227;    1,191;    0,864
652,305;26957,649;    0,645;    2,773
652,881;31206,526;   -0,082;    1,136
653,458;38062,947;    1,100;    0,227
654,034;42051,551;    0,282;    1,591
654,610;43702,155;    0,554;    0,773
655,186;45079,395;    0,645;    3,045
655,762;44784,726;   -0,991;    0,409
656,338;44827,966;    0,100;    0,136
656,913;45836,205;   -0,082;    0,409
657,489;45089,264;    0,827;   -0,318
658,065;45021,685;   -0,173;   -1,591
658,641;45712,744;   -0,900;   -0,864
659,217;45091,711;   -0,991;    0,409
659,792;44509,133;    0,645;   -0,409
660,368;44707,554;   -2,173;   -0,682
660,944;44393,431;   -2,082;    1,227
661,519;40011,671;   -0,628;    0,409
662,095;34038,002;   -1,719;    0,591
662,670;29250,969;    1,281;   -0,136
663,246;27907,573;    1,009;   -0,409
663,821;27134,994;    0,281;    1,682
664,396;26666,780;    0,009;    1,864
664,972;26944,383;    0,009;   -0,500
665,547;27243,896;    1,372;    0,136
666,122;27299,682;   -1,082;    0,318
666,698;27546,012;   -0,173;    0,318
667,273;26900,616;   -0,173;    0,136
667,848;27763,311;    2,372;    1,500
668,423;27552,823;    2,190;    2,318
668,998;28044,245;    2,827;   -0,682
669,573;28631,121;   -3,264;   -1,500
670,148;28487,998;   -1,446;   -0,682
670,723;28280,147;   -1,810;    0,318
671,298;28660,750;    2,372;    1,045
671,873;28809,627;   -0,082;   -0,136
672,448;28754,230;    0,645;    0,136
673,023;29104,289;   -1,992;   -0,227
673,597;29405,801;    0,827;    2,318
674,172;29219,314;   -0,355;    0,318
674,747;28694,009;    0,372;   -1,045
675,321;28585,521;   -0,628;    3,318
675,896;28149,398;    0,645;    1,045
676,471;29153,819;    2,645;    1,591
677,045;28929,968;   -1,264;    0,682
677,620;28968,027;    0,190;    1,136
678,194;29314,176;   -2,628;    1,136
678,769;28876,143;   -1,083;   -0,318
679,343;29094,565;   -0,628;    1,773
679,917;28905,805;   -1,446;    1,955
680,492;29074,408;    0,826;    3,227
681,066;29266,376;    3,372;    0,409
681,640;29247,434;    1,463;   -0,318
682,214;30055,856;    0,735;    0,500
682,788;29552,005;   -1,356;   -0,773
683,363;29549,063;   -1,810;    1,682
683,937;29271,485;   -1,719;   -0,318
684,511;30013,816;    0,463;   -0,591
685,085;29726,237;   -1,356;    0,318
685,659;29515,386;   -2,538;    0,864
686,232;29707,172;   -0,356;   -0,318
686,806;29417,775;   -0,901;    0,409
687,380;30123,288;   -0,174;    0,591
687,954;30315,619;   -1,174;    1,136
688,528;29990,950;   -0,719;    1,955
689,101;30826,644;   -3,992;    1,045
689,675;30404,703;   -0,356;   -0,136
690,249;29789,215;   -0,719;    0,409
690,822;30070,910;    0,280;    0,318
691,396;30159,786;   -0,265;    1,227
691,969;29629,753;    1,280;    0,136
692,543;30134,812;   -0,447;   -1,955
693,116;29792,415;   -0,265;   -1,409
693,690;29619,928;    0,099;    0,500
694,263;30159,622;   -1,083;    2,955
694,836;30203,135;    1,371;    3,591
695,410;28887,284;   -0,265;    1,773
695,983;29355,797;    0,189;    0,591
696,556;29306,401;   -0,447;   -1,045
697,129;29740,459;   -0,356;    1,409
697,703;29313,062;   -1,629;    1,955
698,276;29319,939;    1,462;   -0,773
698,849;29132,815;    1,280;    1,409
699,422;29514,328;   -1,083;    0,591
699,995;29232,386;    0,007;    0,136
700,568;29763,535;   -0,629;    3,045
701,140;29765,230;   -2,811;    1,682
701,713;29452,015;   -0,174;    2,409
702,286;29196,800;   -0,538;    0,864
702,859;29146,131;   -0,902;   -0,591
703,432;28268,462;    0,825;    0,682
704,004;28784,157;    0,462;    0,318
704,577;28660,397;   -0,629;    0,136
705,150;29245,546;    0,189;    2,500
705,722;29048,968;   -0,356;   -3,227
706,295;28796,117;   -0,175;   -0,591
706,867;28628,448;   -0,175;    1,955
707,440;28844,869;   -1,720;   -0,409
708,012;29085,200;    0,462;    0,591
708,584;29045,986;    2,462;    0,227
709,157;29380,771;    1,825;   -0,591
709,729;29026,829;    2,280;    2,045
710,301;29849,069;    0,734;    0,045
710,874;29873,036;   -1,447;   -0,227
711,446;28752,276;    0,371;    0,864
712,018;28605,698;    0,098;    0,500
712,590;28369,393;   -1,993;    1,682
713,162;28861,724;    0,825;    1,318
713,734;29143,236;    1,825;   -2,045
714,306;29044,295;   -1,902;   -0,409
714,878;27725,444;    0,825;    0,864
715,450;28554,865;    0,643;    0,864
716,022;28843,560;    1,552;    1,318
716,593;28969,073;    0,189;    0,591
717,165;28878,222;   -3,175;   -1,227
717,737;28553,371;    0,280;    0,409
718,309;28271,065;    0,280;   -0,045
718,880;28243,305;   -0,539;   -1,409
719,452;28479,545;   -0,175;   -1,591
720,024;28033,967;    0,734;   -0,591
720,595;28597,480;   -2,902;    0,955
721,167;28166,083;    0,370;   -2,045
721,738;27645,778;   -0,812;   -1,045
722,309;27651,654;   -0,993;   -1,227
722,881;27406,440;   -1,357;    0,773
723,452;28112,407;   -2,630;    2,864
724,023;28234,738;   -0,721;    2,682
724,595;28061,523;    0,007;    0,682
725,166;27757,854;    0,007;   -0,409
725,737;27377,458;    1,734;    0,227
726,308;27486,334;   -0,266;    0,318
726,879;27933,120;   -1,630;    1,227
727,450;27728,814;    0,552;   -0,045
728,021;27761,418;    3,097;    0,682
728,592;27525,294;    0,734;    0,500
729,163;27882,898;    0,643;   -0,136
729,734;27904,320;    0,188;   -0,227
730,305;28199,832;    1,734;    0,136
730,876;28586,890;    0,188;    2,955
731,447;28244,312;    2,188;    2,682
732,017;28427,007;    1,097;    1,864
732,588;27917,065;    0,734;    1,227
733,159;28067,850;    0,643;   -1,045
733,729;27912,363;    0,006;    0,409
734,300;27170,694;    0,915;    0,864
734,870;27650,298;    3,461;    0,591
735,441;28236,447;    0,370;   -0,591
736,011;27955,868;    0,643;   -1,591
736,582;27906,017;   -0,812;    0,045
737,152;27353,167;   -1,721;   -2,045
737,722;27781,770;   -0,267;   -0,682
738,293;27530,556;   -1,358;    1,318
738,863;27449,796;    2,461;    2,318
739,433;27201,945;    5,279;    0,318
740,003;27800,185;   -0,994;   -0,682
740,573;27244,425;    2,097;   -1,591
741,143;27219,846;   -1,085;    0,318
741,713;28015,268;    1,188;   -0,500
742,283;27703,326;    0,915;    1,591
742,853;27411,112;    1,915;    1,591
743,423;26932,897;    1,733;    0,045
743,993;27045,137;   -0,358;    1,500
744,563;26415,104;    0,097;   -0,864
745,133;26369,344;   -0,812;   -0,864
745,702;27060,857;   -0,267;    1,773
746,272;26280,552;   -0,176;    0,591
746,842;26046,610;   -1,358;   -0,591
747,411;26485,668;   -0,267;   -0,318
747,981;26656,272;    0,097;    0,500
748,551;26684,148;    2,278;   -1,045
749,120;26563,115;    0,642;   -0,227
749,690;26914,628;   -0,631;    2,409
750,259;27269,595;    1,369;    2,955
750,828;27194,472;    1,551;   -1,955
751,398;27466,984;    1,278;   -0,045
751,967;26920,042;    2,187;    0,409
752,536;27197,737;   -0,813;   -0,227
753,105;27621,977;    0,096;    0,227
753,675;27463,035;    0,096;    1,773
754,244;27383,911;   -0,904;    3,591
754,813;27406,788;    0,551;    1,227
755,382;26950,028;    0,460;    0,955
755,951;27546,359;    1,551;    3,682
756,520;27030,871;   -0,085;    1,864
757,089;27616,384;    0,278;    0,500
757,658;27762,897;    1,733;    1,227
758,227;27743,137;    1,096;    0,318
758,795;28085,377;    1,187;    1,136
759,364;28323,162;   -0,086;   -0,591
759,933;27312,766;   -1,176;   -0,045
760,501;26884,006;    0,733;   -1,318
761,070;27309,700;   -2,813;   -1,409
761,639;28050,122;   -1,904;    1,318
762,207;27359,453;    1,551;   -0,955
762,776;27261,875;    0,369;    0,864
763,344;27247,569;   -0,995;    0,591
763,913;26460,991;   -0,722;    1,409
764,481;27117,595;    1,005;   -0,136
765,049;26907,562;   -1,358;    1,409
765,618;26817,438;   -0,086;    0,318
766,186;26852,133;    0,278;    0,136
766,754;27077,736;    0,005;    1,864
767,322;26094,249;   -1,995;    0,409
767,890;26176,307;   -0,722;   -1,773
768,459;26511,366;   -2,177;   -0,318
769,027;26646,605;    1,641;    3,409
769,595;25679,482;    3,278;    2,591
770,163;26135,267;    3,823;    2,955
770,730;25851,507;    0,732;   -0,136
771,298;25716,384;    0,187;   -1,409
771,866;25847,533;   -1,541;    4,955
772,434;26095,045;   -0,631;   -1,864
773,002;26245,376;    0,005;    0,682
773,569;25926,253;    0,914;    1,682
774,137;25775,674;   -0,268;   -0,045
774,705;26567,369;    0,278;   -0,136
775,272;26033,882;    0,641;    0,682
775,840;25745,394;   -0,177;    2,682
776,407;25287,634;    0,277;    1,955
776,975;24887,965;   -0,632;    0,318
777,542;25918,751;   -1,086;   -0,045
778,110;25737,172;   -1,268;   -0,045
778,677;25485,685;   -2,359;   -0,864
779,244;25214,834;    2,186;    1,045
779,812;25285,438;    1,823;    0,864
780,379;25118,496;    0,005;    1,136
780,946;25394,100;    1,005;   -0,773
781,513;25740,976;   -1,450;    0,318
782,080;25122,852;   -0,086;    2,864
782,647;25841,274;   -0,268;    3,045
783,214;25418,696;   -0,177;    3,864
783,781;25036,027;   -0,723;   -0,682
784,348;24918,994;   -0,632;    1,500
784,915;25372,689;   -3,177;    0,318
785,482;25153,292;    1,368;    2,591
786,049;25569,714;    0,186;   -0,591
786,615;25683,772;    0,277;   -0,955
787,182;25441,921;    0,186;   -0,682
787,749;25135,161;   -2,814;    1,409
788,315;24477,674;   -1,632;   -0,409
788,882;24763,187;    1,550;   -1,227
789,448;25439,699;    1,732;   -0,955
790,015;25516,394;    1,095;    3,227
790,581;25027,816;    1,459;    0,227
791,148;24942,510;    0,641;    1,045
791,714;25133,477;   -0,541;    3,136
792,280;24853,354;    0,186;    1,591
792,847;24404,048;    0,550;    2,500
793,413;25014,016;   -0,269;   -0,318
793,979;24507,528;    3,459;   -1,318
794,545;24613,496;    4,459;    2,682
795,111;23933,190;    2,186;    1,318
795,678;24208,339;    0,731;   -1,682
796,244;23743,125;    3,368;    0,136
796,810;24378,001;    1,731;    0,773
797,375;24092,695;    0,549;   -2,136
797,941;24117,845;   -0,541;    0,591
798,507;24251,812;   -0,451;   -0,955
799,073;23779,143;   -0,360;    0,591
799,639;23868,564;   -2,632;    3,136
800,205;23884,532;    0,095;    2,682
800,770;23421,317;    0,640;    1,773
801,336;23529,648;    1,368;   -0,955
801,901;23202,252;    4,549;    3,136
802,467;23764,492;   -0,542;    2,045
803,033;23082,732;   -0,087;    0,864
803,598;23347,608;    1,913;   -1,045
804,163;23387,303;    1,095;   -0,318
804,729;23306,724;   -0,178;    1,136
805,294;23732,692;    0,822;    2,227
805,859;23514,113;    0,731;   -0,409
806,425;22937,172;    1,186;    2,682
806,990;22615,684;    2,186;    4,318
807,555;23165,379;   -1,451;    2,591
808,120;22975,255;    0,822;   -0,409
808,685;23039,495;    0,185;   -2,500
809,250;22556,644;    0,004;   -0,500
809,815;22863,521;    1,913;    0,682
810,380;23381,670;   -0,269;    1,591
810,945;23954,910;   -1,087;    2,045
811,510;23149,695;    2,094;    1,591
812,075;22838,390;   -0,633;   -1,409
812,640;22853,902;    2,003;    1,409
813,204;22928,960;    0,822;   -0,227
813,769;23462,928;    2,094;   -0,045
814,334;22830,713;    0,458;    0,864
814,898;22880,953;    0,367;    0,591
815,463;22760,193;    1,276;   -0,773
816,027;22708,251;   -0,724;   -2,318
816,592;22809,128;    0,640;   -2,045
817,156;22311,277;    2,094;    1,136
817,721;22161,153;    4,276;    2,318
818,285;22083,848;    2,912;    1,500
818,849;22739,178;   -1,451;    1,682
819,414;22687,782;   -0,269;    2,955
819,978;22253,477;   -1,269;    1,773
820,542;22797,262;    2,003;    0,500
821,106;22500,957;   -0,815;    0,682
821,670;22614,560;   -0,815;    2,591
822,234;22375,073;   -0,270;    1,409
822,798;21759,040;    0,003;    0,500
823,362;21704,826;   -0,633;    4,227
823,926;20973,793;    0,094;    1,136
824,490;21223,851;   -0,997;   -0,682
825,054;21688,273;   -0,088;   -1,136
825,618;21295,058;   -1,542;   -1,500
826,181;21216,116;    0,458;   -1,318
826,745;21111,175;    1,367;   -1,045
827,309;21494,142;    1,185;    1,318
827,872;20846,200;    1,367;    0,955
828,436;21881,167;    1,185;   -0,773
828,999;21920,589;   -0,997;    1,227
829,563;20729,374;   -0,179;    1,136
830,126;20544,433;   -0,179;   -0,591
830,690;20526,945;   -1,997;    2,864
831,253;20050,458;   -0,543;    2,227
831,816;20212,880;   -1,906;    0,500
832,380;20125,938;    0,185;    0,864
832,943;20344,269;   -1,361;   -0,500
833,506;19883,782;    2,639;   -1,227
834,069;20604,022;    3,912;   -0,955
834,632;20704,716;    1,730;    1,318
835,195;20603,592;    1,003;    0,955
835,758;19818,651;   -0,997;    1,955
836,321;19649,981;    0,730;   -1,045
836,884;19761,585;   -0,725;   -0,955
837,447;19758,189;   -2,816;    1,773
838,010;20016,429;    0,366;    3,227
838,573;20275,850;   -1,179;    0,773
839,135;20238,818;   -1,361;   -0,955
839,698;19722,694;    1,275;    0,409
840,261;19233,752;    1,003;   -0,227
840,823;19077,719;   -0,543;    0,864
841,386;19376,323;   -0,452;   -2,409
841,948;19188,018;   -1,361;    1,773
842,511;18973,076;    0,912;    1,682
843,073;19080,407;    1,912;    0,227
843,636;18927,192;   -0,361;   -0,227
844,198;18850,068;    0,911;    0,591
844,760;19012,672;    1,093;    1,955
845,322;18613,003;    0,548;    1,136
845,885;19027,970;    0,730;    0,591
846,447;19501,210;   -1,998;    0,227
847,009;19052,814;    1,911;   -0,682
847,571;19399,963;    0,820;   -2,045
848,133;19518,112;   -1,089;   -1,864
848,695;19286,170;   -0,543;    1,409
849,257;18852,319;   -1,089;   -1,682
849,819;19030,105;   -0,998;   -0,409
850,381;19065,526;   -0,725;   -0,864
850,942;19456,857;    1,093;   -0,591
851,504;19403,006;    1,184;    0,227
852,066;19464,519;    1,275;   -1,591
852,628;18993,214;   -0,180;    1,955
853,189;18524,635;    1,638;    2,682
853,751;18625,785;   -0,907;    1,409
854,312;18476,025;   -0,453;   -1,682
854,874;18955,174;   -2,089;   -0,773
855,435;19504,686;   -0,907;   -1,682
855,997;19667,563;   -1,816;   -0,136
856,558;18936,348;    0,366;    1,773
857,119;19053,679;    0,820;    2,864
857,681;18769,646;    0,002;    0,318
858,242;18792,159;    1,911;   -2,136
858,803;19211,672;    0,456;   -0,773
859,364;19749,457;    0,184;   -4,773
859,925;19062,333;   -2,453;   -0,955
860,486;19033,119;   -0,453;   -0,955
861,047;18733,632;   -0,544;   -1,227
861,608;18560,417;   -1,089;   -0,773
862,169;18665,475;    0,638;   -0,045
862,730;18439,442;    0,456;    1,409
863,291;18642,228;   -0,635;   -0,500
863,852;19047,741;   -0,635;    1,955
864,412;18488,526;   -0,271;   -0,864
864,973;17083,948;   -0,089;    0,500
865,534;16919,097;   -1,726;    0,227
866,094;18482,882;    1,820;    0,227
866,655;18110,759;    1,274;    3,318
867,215;18409,908;    0,274;    0,136
867,776;18245,239;    0,547;   -0,136
868,336;18352,297;   -1,453;    0,136
868,897;17790,537;    2,638;    1,682
869,457;17518,322;    1,365;    0,318
870,017;17799,744;    0,547;   -1,227
870,578;18306,984;   -0,817;    0,773
871,138;17979,588;   -2,089;   -0,955
871,698;17477,464;   -0,817;   -1,318
872,258;17370,613;   -0,453;   -2,864
872,818;17749,126;    2,729;    0,045
873,378;17728,275;    0,638;    1,045
873,938;17282,697;    0,547;    0,500
874,498;17643,209;    0,274;   -1,955
875,058;17508,904;    2,183;    1,773
875,618;17334,417;    1,910;   -2,682
876,177;17293,293;    1,274;    0,136
876,737;16891,715;   -0,090;    1,955
877,297;16884,409;    0,183;    1,955
877,856;16873,195;   -0,362;    0,318
878,416;16830,889;    1,183;   -0,136
878,976;17044,311;   -1,817;    0,409
879,535;17233,551;    0,092;    3,136
880,095;16968,700;   -0,544;    0,045
880,654;17069,304;   -1,090;    1,318
881,213;17179,816;    2,456;    1,500
881,773;16811,420;    2,637;    2,682
882,332;17154,751;    3,365;    5,136
882,891;16989,354;    3,092;    2,136
883,451;17502,140;   -1,272;    1,682
884,010;17002,653;   -2,908;   -0,409
884,569;17055,711;   -0,999;   -0,045
885,128;17166,133;    2,819;   -1,864
885,687;17245,373;    4,455;    0,682
886,246;16960,613;    1,455;    2,136
886,805;16744,034;    2,455;    2,045
887,364;17058,820;   -0,999;   -0,500
887,922;17361,605;   -1,181;    0,045
888,481;16882,663;   -1,545;    0,591
889,040;17169,903;    1,183;    2,136
889,599;17902,234;    2,455;    1,409
890,157;17942,838;    1,455;    2,409
890,716;17589,169;   -0,090;    0,227
891,274;17412,772;    0,092;   -1,136
891,833;17858,740;    1,546;    0,864
892,391;17731,343;   -0,454;    0,500
892,950;17798,310;    1,819;   -0,773
893,508;18188,278;    0,455;   -0,409
894,067;17543,063;    0,637;    0,136
894,625;17451,121;   -0,636;   -1,500
895,183;17683,452;   -0,363;   -0,682
895,741;17561,419;    1,728;   -1,773
896,299;17414,296;   -0,545;   -2,409
896,858;17598,354;    0,819;   -1,591
897,416;17710,503;    2,728;   -1,318
897,974;17466,743;    1,819;    0,318
898,532;17563,619;    6,091;    2,682
899,089;17477,496;    2,091;   -0,682
899,647;17562,918;   -1,454;    1,318
900,205;17230,339;    1,182;    1,045
900,763;17456,761;   -0,454;    0,227
901,321;17463,819;    2,364;   -1,409
901,878;16897,514;   -1,000;   -0,773
902,436;16730,481;   -1,363;    1,318
902,994;17083,539;    4,728;    3,682
903,551;16561,325;    0,728;    0,409
904,109;16984,746;    0,182;   -1,409
904,666;16554,077;    2,455;    1,045
905,224;16401,590;    0,182;   -0,409
905,781;16103,648;    0,727;   -0,318
906,338;16182,434;   -1,363;    1,045
906,895;16151,855;    0,637;    2,045
907,453;16042,823;    1,727;    1,136
908,010;16090,972;   -0,909;    0,409
908,567;15745,212;    1,273;    0,591
909,124;15260,543;    0,364;   -1,500
909,681;15302,783;   -2,909;    0,682
910,238;15442,295;    0,636;   -1,318
910,795;15786,172;   -0,273;   -1,136
911,352;15409,717;   -2,909;   -2,682
911,909;14793,990;   -1,364;   -0,864
912,466;15306,899;   -3,182;    1,500
913,022;14831,899;   -1,636;    0,500
913,579;15191,899;   -0,909;    2,045
914,136;14917,354;    1,636;    0,955
914,692;15267,081;    0,091;   -1,227
915,249;14836,717;    1,455;    0,409
915,806;15064,172;    0,182;    1,955
916,362;14818,990;    1,909;    1,864
916,918;14353,717;    2,000;    1,045
917,475;14302,626;   -1,182;    0,955
918,031;14390,263;    3,364;   -0,045
918,587;13843,899;   -0,909;   -0,318
919,144;14061,354;   -2,273;    0,227
919,700;14386,626;    1,727;    0,773
920,256;13970,444;    0,727;    0,045
920,812;13625,172;   -0,727;   -1,045
921,368;13599,263;   -1,727;   -1,045
921,924;13192,444;    0,182;   -0,136
922,480;12775,990;   -0,545;    1,227
923,036;13449,990;    1,273;    1,955
923,592;13388,444;    0,455;    0,318
924,148;13268,990;    0,455;   -0,955
924,704;12562,990;   -1,364;   -0,409
925,259;12847,899;   -0,273;    0,591
925,815;12629,535;    1,455;    0,500
926,371;12145,354;    2,909;    1,409
926,926;12001,626;    2,091;    0,591
927,482;11624,354;   -1,364;    0,773
928,037;11493,990;    0,909;    2,045
928,593;11739,990;    1,636;    1,045
929,148;11597,081;   -1,818;   -1,500
929,704;11087,990;   -1,455;   -0,500
930,259;11296,899;    0,091;   -0,136
930,814;10359,081;   -0,818;    1,955
931,369;10040,444;    1,091;   -0,773
931,925; 9907,354;   -0,091;    0,136
932,480; 9815,081;   -2,818;   -2,591
933,035; 9687,263;    0,545;   -0,318
933,590; 9443,717;    0,364;   -1,773
934,145; 9093,172;   -1,364;   -0,318
934,700; 9464,626;    0,455;   -0,591
935,255; 9266,626;   -0,091;    0,045
935,809; 8498,263;    3,182;    0,864
936,364; 7623,626;   -0,455;   -0,136
936,919; 7586,626;    0,455;   -1,773
937,474; 7475,263;    1,455;    0,136
938,028; 7245,172;   -1,636;    1,136
938,583; 6655,354;    1,818;    4,682
939,138; 6939,081;    2,091;    2,136
939,692; 6416,263;    1,636;   -1,136
940,247; 6124,626;   -0,727;   -1,045
940,801; 5649,172;   -0,636;    0,227
941,355; 5553,081;   -0,364;    2,591
941,910; 5209,081;   -0,273;   -2,136
942,464; 5317,990;   -0,818;   -0,318
943,018; 5081,354;    1,000;   -0,227
943,572; 5021,808;    2,545;   -0,682
944,126; 4406,899;    0,091;   -0,409
944,681; 4324,081;    3,091;    0,227
945,235; 4299,535;    1,000;   -0,591
945,789; 4225,808;    0,364;   -1,864
946,342; 4326,535;    0,455;   -0,591
946,896; 4133,626;   -2,273;    0,955
947,450; 3879,354;    1,545;   -0,227
948,004; 4056,354;    1,727;   -0,045
948,558; 4096,899;    0,273;   -0,864
949,111; 4002,990;   -0,273;   -0,318
949,665; 4022,899;    1,636;   -0,682
950,219; 3882,990;   -0,091;   -1,045
950,772; 3996,172;   -1,909;    1,864
951,326; 3882,354;    0,545;   -0,955
951,879; 3980,172;    0,727;   -2,318
952,433; 4011,808;    0,000;    2,227
952,986; 3852,626;    2,909;    0,682
953,539; 3807,990;   -0,273;    0,591
954,093; 3738,899;    0,545;   -1,318
954,646; 3871,535;    0,909;    1,318
955,199; 3693,990;    0,000;   -0,500
955,752; 3560,263;   -0,455;    1,773
956,305; 3516,172;   -0,091;    2,955
956,858; 3686,444;    0,818;   -0,318
957,411; 3849,899;   -0,545;    2,136
957,964; 3684,081;    1,364;    2,136
958,517; 3685,263;   -1,545;    3,136
959,070; 3528,990;   -0,455;    1,955
959,623; 3558,535;    1,091;    1,500
960,176; 3323,808;    1,727;    2,045
960,728; 3309,354;   -2,727;    0,773
961,281; 3388,626;    0,545;    0,500
961,834; 3425,172;   -0,909;    0,864
962,386; 3347,626;    1,727;    1,045
962,939; 3282,535;    0,364;   -0,318
963,491; 3441,808;    0,455;    1,136
964,043; 3306,990;    1,182;    2,409
964,596; 3401,990;   -1,000;    2,227
965,148; 3235,172;   -1,000;    1,773
965,700; 3174,990;    1,091;   -0,227
966,253; 3327,444;   -0,636;    0,318
966,805; 3177,990;   -2,273;    0,773
967,357; 3215,263;    1,091;   -1,500
967,909; 3156,717;    0,455;   -1,227
968,461; 3296,899;    0,545;    3,136
969,013; 3230,081;   -0,182;   -0,864
969,565; 3284,172;   -0,455;   -1,136
970,117; 3330,263;   -0,364;    1,045
970,669; 3188,535;    0,182;   -0,136
971,220; 3062,626;   -0,455;   -1,500
971,772; 2987,990;   -0,636;   -0,318
972,324; 3092,990;    0,091;   -0,500
972,876; 3050,081;    0,818;   -0,045
973,427; 3186,081;    1,909;   -1,045
973,979; 3154,444;   -0,727;   -2,500
974,530; 3187,444;    1,818;    1,318
975,082; 3196,990;   -0,545;    1,682
975,633; 3086,444;    1,091;    1,682
976,184; 3219,081;    0,909;    0,773
976,736; 3006,172;    0,091;    0,227
977,287; 2811,899;   -0,909;   -0,500
977,838; 2989,626;    0,909;   -0,318
978,389; 3054,263;   -1,000;   -0,500
978,940; 2939,808;    0,545;   -0,409
979,491; 2948,899;    0,091;   -0,500
980,042; 2908,263;    0,182;    3,045
980,593; 2981,172;   -2,545;    0,227
981,144; 3022,354;    2,545;   -0,500
981,695; 2985,263;    1,455;    1,500
982,246; 2941,535;   -0,273;    1,045
982,797; 3119,354;   -1,727;    0,682
983,347; 3213,717;    0,364;    0,591
983,898; 3377,990;    3,091;    0,409
984,449; 3195,263;    2,182;    0,773
984,999; 3131,535;    1,455;   -1,136
985,550; 2887,899;    0,182;   -0,318
986,100; 2949,535;   -0,455;   -0,318
986,651; 2986,535;   -0,818;    0,045
987,201; 2935,535;   -1,000;   -0,591
987,751; 3017,354;    0,818;    2,864
988,302; 3015,081;    2,636;    1,500
988,852; 3023,172;    0,455;   -1,136
989,402; 3066,899;    0,091;    0,682
989,952; 2990,081;   -2,182;    0,864
990,502; 3099,990;   -0,091;    0,682
991,052; 3065,626;   -0,727;    0,045
991,602; 2924,263;   -2,909;    1,318
992,152; 2945,808;    0,455;    0,682
992,702; 2924,172;    1,364;   -0,045
993,252; 2851,263;   -3,000;   -0,500
993,802; 2921,081;   -0,273;    1,318
994,352; 3168,172;   -1,545;    1,136
994,901; 3266,990;   -0,182;    3,227
995,451; 3169,263;   -0,182;    0,318
996,000; 3260,626;    1,636;    0,318
996,550; 2968,354;    2,273;    0,227
997,100; 2967,081;    1,273;   -0,045
997,649; 3253,354;    2,182;    0,955
998,198; 2875,081;    1,727;   -1,500
998,748; 3072,263;    1,091;   -2,318
999,297; 3007,990;   -0,818;   -0,409
999,846; 3058,354;    1,000;   -0,773
1000,395; 3102,081;   -0,818;    0,500
1000,945; 3060,899;    1,818;   -0,773
1001,494; 3118,717;    2,364;    0,682
1002,043; 3126,717;    4,636;    0,864
1002,592; 2976,263;   -1,091;    1,955
1003,141; 3111,081;   -0,455;   -0,682
1003,690; 2975,354;    1,727;    0,500
1004,238; 3055,990;    1,455;   -0,045
1004,787; 2696,626;    1,364;    1,227
1005,336; 2915,535;    0,364;    0,682
1005,885; 3057,990;    1,364;   -2,773
1006,433; 3211,172;    0,545;    0,955
1006,982; 3262,899;    0,455;    1,682
1007,531; 3202,081;   -1,818;   -0,227
1008,079; 3136,172;   -2,273;    0,500
1008,627; 3296,263;   -1,455;    0,409
1009,176; 3019,172;    0,000;   -1,955
1009,724; 3071,535;    1,091;    0,864
1010,273; 3100,081;    1,273;    0,500
1010,821; 3219,899;    0,091;    1,409
1011,369; 2956,990;   -1,364;    1,318
1011,917; 2953,081;   -1,364;   -0,591
1012,465; 3236,354;    1,273;   -1,591
1013,013; 3355,626;    2,091;   -1,682
1013,561; 3213,899;    0,455;   -0,773
1014,109; 3250,444;   -1,909;    1,682
1014,657; 3135,263;    0,364;    0,591
1015,205; 3273,626;    1,636;   -0,955
1015,753; 3328,626;   -0,545;   -1,409
1016,301; 3349,990;   -2,636;    3,045
1016,848; 3345,626;   -1,273;    0,409
1017,396; 3396,444;    2,545;    0,045
1017,944; 3518,444;    1,182;    1,864
1018,491; 3268,263;    0,273;    1,409
1019,039; 3406,899;    0,455;    0,591
1019,586; 3337,444;   -1,364;    1,682
1020,134; 3432,899;    0,455;    1,500
1020,681; 3464,263;    0,182;   -1,136
1021,228; 3477,990;    2,909;   -2,227
1021,776; 3327,990;    1,182;   -1,136
1022,323; 3517,444;    0,455;    0,773
1022,870; 3438,535;   -1,000;   -0,045
1023,417; 3350,990;    2,636;    1,864
1023,964; 3513,899;    2,636;    1,227
1024,511; 3347,081;    1,000;    0,773
1025,058; 3142,172;    3,182;   -0,045
1025,605; 3186,081;   -2,273;    3,136
1026,152; 3405,808;    1,727;   -0,591
1026,699; 3152,354;    1,818;    1,318
1027,245; 3324,990;   -0,091;    0,318
1027,792; 3541,626;   -1,000;    1,409
1028,339; 3393,626;    2,364;   -0,045
1028,885; 3245,535;    1,000;   -0,227
1029,432; 3203,626;   -0,091;    0,227
1029,978; 3247,081;   -1,000;   -1,591
1030,525; 3162,535;    1,000;    0,409
1031,071; 3423,626;   -1,364;    1,136
1031,618; 3502,444;    0,364;    1,682
1032,164; 3302,808;   -0,091;    3,045
1032,710; 3336,899;    1,636;   -1,500
1033,256; 3267,444;   -0,636;   -0,136
1033,803; 3279,081;   -0,545;    1,500
1034,349; 2975,444;   -1,364;    0,136
1034,895; 3131,899;    0,000;   -0,318
1035,441; 3106,899;   -0,818;    0,318
1035,987; 3104,717;   -2,364;   -0,682
1036,533; 3102,444;   -1,455;   -0,955
1037,078; 3290,172;    1,455;    1,682
1037,624; 3120,626;    2,455;   -0,955
1038,170; 3155,990;    0,455;   -0,318
1038,716; 3047,990;    1,636;   -0,409
1039,261; 2985,444;   -2,273;   -0,773
1039,807; 2923,263;   -0,091;    3,409
1040,352; 2983,808;   -1,909;   -0,318
1040,898; 3012,444;   -1,545;   -0,682
1041,443; 2946,172;   -1,455;   -2,591
1041,989; 2942,444;    1,091;    1,591
1042,534; 2816,444;   -0,364;    2,591
1043,079; 2949,444;    2,909;    0,955
1043,625; 2738,444;    1,818;    0,500
1044,170; 2768,263;   -1,364;    1,045
1044,715; 3016,626;    2,455;    0,955
1045,260; 2838,808;    2,182;   -0,955
1045,805; 2914,990;    1,182;   -0,591
1046,350; 2834,172;    1,364;   -0,409
1046,895; 2773,808;    2,909;    1,591
1047,440; 2732,626;    5,364;    0,409
1047,985; 2636,444;    2,818;   -0,955
1048,530; 2549,717;    1,545;    1,227
1049,074; 2619,899;    0,000;    0,318
1049,619; 2617,444;   -1,364;    1,955
1050,164; 2412,535;    0,455;    0,227
1050,708; 2428,899;   -0,455;    0,045
1051,253; 2801,081;    1,273;   -2,227
1051,797; 2498,808;    0,818;   -1,318
1052,342; 2539,808;   -1,182;    1,045
1052,886; 2525,444;    0,364;   -1,409
1053,430; 2407,717;   -1,364;    0,136
1053,975; 2419,172;   -0,818;   -0,318
1054,519; 2380,354;   -0,727;    3,227
1055,063; 2390,263;    0,909;    1,318
1055,607; 2286,081;   -0,182;    0,227
1056,151; 2302,899;    2,909;    1,682
1056,695; 2227,808;    2,273;   -1,136
1057,239; 2310,899;   -1,727;   -0,682
1057,783; 2327,535;    0,818;   -1,500
1058,327; 2250,081;    0,000;    1,409
1058,871; 2465,899;   -0,545;    1,318
1059,415; 2175,263;   -0,818;   -0,045
1059,958; 2424,808;    1,455;    2,591
1060,502; 2152,263;   -1,000;   -0,773
1061,046; 2068,626;    0,364;   -0,955
1061,589; 2052,354;   -3,000;   -1,136
1062,133; 1934,899;   -1,273;    1,864
1062,676; 1869,354;    1,182;    0,864
1063,220; 1864,990;    1,091;    0,500
1063,763; 1896,263;    0,909;    1,136
1064,306; 1973,717;   -0,909;    1,864
1064,849; 1850,444;   -0,909;    0,591
1065,393; 1847,990;    2,000;   -1,500
1065,936; 1972,354;    0,182;   -0,409
1066,479; 1878,081;   -1,455;    1,318
1067,022; 1878,899;   -0,273;   -0,227
1067,565; 1774,626;   -0,091;   -1,318
1068,108; 1810,263;    0,727;   -0,591
1068,651; 1786,717;   -0,636;    1,409
1069,194; 1712,626;   -0,455;   -1,682
1069,736; 1700,354;   -1,273;    0,955
1070,279; 1686,354;   -1,364;   -0,500
1070,822; 1724,808;   -2,000;   -0,318
1071,364; 1801,354;   -0,364;    1,318
1071,907; 1649,263;   -0,727;    3,227
1072,450; 1542,990;    0,000;   -0,045
1072,992; 1532,717;   -0,273;    3,136
1073,535; 1673,354;    2,091;    2,136
1074,077; 1460,444;   -0,727;    2,045
1074,619; 1443,263;   -1,364;    0,591
1075,161; 1465,717;   -1,091;    1,500
1075,704; 1641,172;    1,545;    1,227
1076,246; 1441,990;   -0,182;    0,682
1076,788; 1378,626;   -0,364;    1,773
1077,330; 1462,990;    1,273;    2,136
1077,872; 1413,535;    0,909;    0,955
1078,414; 1633,263;    2,727;    0,773
1078,956; 1376,626;    1,273;   -0,227
1079,498; 1627,081;    1,636;    0,318
1080,040; 1329,717;    1,909;   -1,318
1080,581; 1276,535;    1,636;   -0,318
1081,123; 1199,263;    0,091;   -0,773
1081,665; 1251,081;   -1,182;   -0,955
1082,206; 1533,899;    1,364;   -0,500
1082,748; 1384,354;    0,727;    2,045
1083,289; 1280,990;   -2,000;    1,318
1083,831; 1187,172;   -0,545;    0,227
1084,372; 1205,990;    0,000;    0,591
1084,913; 1211,172;    1,091;    0,864
1085,455; 1183,172;   -1,909;   -2,045
1085,996; 1155,081;   -2,273;    0,136
1086,537; 1175,081;   -0,091;    0,864
1087,078; 1200,717;   -0,909;   -2,136
1087,619; 1239,263;   -1,273;    0,227
1088,160; 1158,717;    0,000;    1,318
1088,701; 1148,990;   -1,091;    0,682
1089,242; 1084,808;    1,364;   -2,227
1089,783; 1172,172;   -0,273;    1,409
1090,324; 1146,263;    0,455;    0,682
1090,865; 1034,172;    2,727;   -0,409
1091,405;  998,263;    0,727;    2,227
1091,946; 1036,444;    0,182;   -0,955
1092,487;  957,081;    0,818;   -1,409
1093,027; 1125,535;   -1,364;   -1,500
1093,568;  969,626;   -0,364;    1,227
1094,108; 1063,172;    0,273;    1,773
1094,649; 1008,354;   -1,182;    0,136
1095,189;  947,717;   -0,636;   -0,682
1095,729;  898,081;   -0,091;    0,955
1096,269;  905,263;    0,727;   -0,955
1096,810; 1207,808;   -1,364;    0,500
1097,350; 1034,535;    1,364;   -0,773
1097,890;  942,444;    0,364;    1,227
1098,430; 1184,626;    2,364;    2,864
1098,970; 1055,808;    2,182;    1,682
1099,510;  917,263;    0,545;   -2,318
1100,050;  848,899;    1,000;   -1,591
1100,589;  819,899;   -0,727;   -0,318
1101,129;  946,172;    0,818;   -0,955
1101,669; 1085,263;    1,727;    2,136
1102,209;  902,990;   -0,091;    2,227
1102,748;  861,990;    0,000;    0,955
1103,288;  851,535;    1,273;   -1,227
1103,827;  878,899;    3,091;   -2,227
1104,367;  753,899;   -0,091;   -2,409
1104,906;  732,263;    1,364;   -1,136
1105,445;  807,626;    0,636;   -1,136
1105,985;  738,263;   -0,727;    1,500
1106,524;  778,626;   -1,727;   -0,682
1107,063;  760,899;   -2,727;    1,409
1107,602;  732,990;   -1,909;   -1,500
1108,141;  651,626;   -1,909;    1,500
1108,680;  753,535;   -3,455;   -0,591
1109,219;  689,172;   -0,909;   -0,500
1109,758;  702,808;    0,455;    0,682
1110,297;  674,354;    1,000;   -0,682
1110,836;  617,172;   -0,727;    0,955
1111,375;  783,626;   -2,545;    0,409
1111,913;  792,899;   -1,000;    0,773
1112,452;  730,263;   -0,273;    0,136
1112,991;  610,808;    1,091;    1,955
1113,529;  564,535;   -0,818;   -0,045
1114,068;  636,899;   -0,273;    2,955
1114,606;  539,172;   -0,364;   -0,955
1115,144;  697,263;   -1,273;    1,045
1115,683;  628,263;   -0,727;    0,318
1116,221;  687,626;   -0,455;   -0,864
1116,759;  600,808;    0,636;   -0,864
1117,297;  797,717;    0,000;    1,864
1117,836;  599,808;   -2,182;   -1,227
1118,374;  598,990;    0,182;   -0,682
1118,912;  546,899;    0,909;    2,682
1119,450;  528,444;    1,000;    0,864
1119,988;  574,172;    1,545;    2,136
1120,525; 1029,172;    5,091;    3,318
1121,063;  736,172;    1,182;    1,864
1121,601;  536,899;   -0,909;   -1,227
1122,139;  496,717;   -0,727;   -2,045
1122,676;  692,081;   -0,727;    2,773
1123,214;  621,263;   -1,182;    4,409
1123,751;  428,354;    1,727;    2,227
1124,289;  558,808;   -0,091;   -0,409
1124,826;  427,081;    1,727;    0,227
1125,364;  361,444;    1,727;   -0,955
1125,901;  543,263;    1,182;    1,227
1126,438;  667,172;    0,818;    0,955
1126,975;  383,444;   -0,727;   -0,773
1127,513;  459,444;    0,273;    2,136
1128,050;  369,354;    1,636;   -0,682
1128,587;  460,354;    2,000;   -0,227
1129,124;  497,535;    0,091;    1,318
1129,661;  367,444;    0,273;    0,227
1130,198;  548,535;    1,636;    0,773
1130,734;  481,626;    0,182;    1,409
1131,271;  336,081;   -0,909;    0,864
1131,808;  507,808;    2,909;    3,045
1132,345;  382,626;    1,545;    0,318
1132,881;  253,081;   -1,545;   -1,864
1133,418;  398,717;    0,727;   -1,136
1133,954;  332,172;    2,455;   -2,682
1134,491;  411,263;    1,364;   -0,773
1135,027;  302,899;    2,364;    0,864
1135,564;  393,808;    0,273;    2,955
1136,100;  374,263;    0,364;    2,136
1136,636;  270,899;   -1,273;   -1,045
1137,172;  358,354;    0,000;   -1,045
1137,708;  293,990;   -1,364;   -1,045
1138,245;  288,899;    1,273;   -1,227
1138,781;  239,081;    1,091;   -3,318
1139,317;  307,990;    1,273;   -1,409
1139,852;  287,899;    3,091;    0,136
1140,388;  406,172;   -1,182;   -0,409
1140,924;  288,990;   -1,091;   -2,227
1141,460;  226,808;   -1,636;    0,136
1141,996;  169,535;   -1,364;    2,682
1142,531;  221,535;    1,364;    3,318
1143,067;  427,808;    1,182;    1,045
1143,602;  484,626;   -0,091;   -0,318
1144,138;  330,172;   -2,636;    1,045
1144,673;  197,263;   -1,455;    1,409
1145,209;  262,354;   -1,909;   -0,318
1145,744;  184,444;   -0,727;    0,864
1146,279;  323,626;    1,818;   -0,136
1146,815;  233,172;    1,545;   -2,682
1147,350;  274,172;   -1,364;    0,045
1147,885;  188,535;   -0,818;   -1,318
1148,420;  180,081;   -2,273;    0,773
1148,955;  170,717;   -1,727;    1,864
1149,490;  192,263;   -0,909;   -1,591
1150,025;  176,808;    0,455;   -1,773
1150,560;  290,535;    1,091;   -0,955
1151,094;  252,354;    1,455;   -0,591
1151,629;  255,990;    1,636;    0,864
1152,164;  189,626;    1,364;    1,318
1152,698;  149,535;   -0,182;   -0,136
1153,233;  107,263;    0,091;   -0,682
1153,767;  156,444;   -3,000;   -2,318
1154,302;  207,354;   -1,455;    1,773
1154,836;  201,535;   -0,455;   -2,136
1155,371;  258,899;   -1,364;    3,682
1155,905;  203,172;   -0,636;    1,682
1156,439;  176,808;   -0,636;   -0,500
1156,973;  203,081;    0,364;    0,318
1157,507;  137,354;   -0,364;    0,682
1158,042;  162,808;   -0,727;    1,045
1158,576;  217,081;    0,182;    1,773
1159,110;  211,990;   -0,818;    2,409
1159,643;  184,899;    0,636;   -0,045
1160,177;  109,899;   -1,545;    1,500

