
Integration time [ms]:   0,040
Averaging Nr. [scans]: 11
Smoothing Nr. [pixels]: 0
Data measured with spectrometer [name]: 7318044SP
Wave   ;Sample   ;Dark     ;Reference
[nm]   ;[counts] ;[counts] ;[counts] 

186,757;   33,526;   31,551;    1,318
187,357;   61,938;   22,551;    0,955
187,958;   36,021;   15,460;   -1,591
188,558;   78,877;    8,915;   -1,227
189,159;   50,684;    6,733;   -4,500
189,759;   22,646;    7,278;   -3,591
190,360;   20,896;    2,824;   -2,136
190,960;   55,712;    2,915;   -4,136
191,560;   70,599;    3,189;   -6,591
192,161;  309,657;    4,372;   -3,500
192,761;  154,029;    4,010;   -3,227
193,361;   95,854;    1,556;   -3,773
193,962;  144,741;    2,010;   -2,682
194,562;   76,338;    1,189;   -3,955
195,162;  104,296;   -2,448;   -2,227
195,762;  265,144;   -3,176;   -0,045
196,362;  210,399;    1,370;   -2,500
196,963;   75,172;    2,006;   -0,864
197,563;  147,792;    1,551;   -0,955
198,163;  105,766;    0,096;   -0,682
198,763;  116,967;    1,733;   -0,500
199,363;  208,771;    3,096;   -0,500
199,963;  184,058;    0,369;    0,409
200,563;  154,715;    2,823;   -1,409
201,163;  130,209;    3,277;   -0,227
201,763;  217,996;    3,732;    0,318
202,363;  153,655;    1,459;    1,500
202,963;  267,636;    1,459;    1,045
203,563;  371,329;    0,277;    0,500
204,162;  227,989;    2,096;   -1,864
204,762;  218,070;    0,550;    0,591
205,362;  179,934;    3,004;    1,955
205,962;  282,930;    3,096;    1,955
206,562;  288,366;    1,823;    2,318
207,161;  246,560;   -0,087;    0,318
207,761;  399,126;    1,277;    2,409
208,361;  286,002;   -0,268;    1,409
208,960;  391,855;    0,459;    1,500
209,560;  459,816;    1,277;    1,591
210,160;  439,094;    0,550;    1,864
210,759;  400,611;    4,186;    1,227
211,359;  411,362;    1,459;    1,045
211,958;  661,658;    1,277;    2,045
212,558;  754,894;    1,732;    1,864
213,157;  603,155;    1,822;    1,500
213,757; 1041,399;    3,822;   -0,227
214,356;  744,333;    1,277;   -0,409
214,956; 1086,306;    3,095;    0,409
215,555;  709,975;    2,095;    2,136
216,154;  652,462;   -2,723;   -0,591
216,754;  659,904;    0,277;    0,773
217,353;  801,380;   -0,268;   -1,045
217,952;  668,435;   -0,178;    0,318
218,552;  886,532;    1,368;   -0,773
219,151;  786,456;    0,277;    0,955
219,750;  799,000;    0,004;   -0,227
220,349;  924,348;   -0,451;    1,045
220,948;  982,616;   -1,360;    1,136
221,548; 1011,313;    0,913;    1,227
222,147; 1120,315;   -0,087;   -0,409
222,746; 1412,143;   -0,451;   -0,955
223,345; 1295,991;    0,731;    0,500
223,944; 1303,752;   -0,451;    0,773
224,543; 1498,218;    1,004;   -1,409
225,142; 1585,900;    0,094;    0,136
225,741; 1495,490;   -0,814;    1,045
226,340; 1525,280;   -0,451;   -0,955
226,939; 1970,939;   -0,996;   -0,136
227,538; 1936,776;   -0,360;   -0,773
228,137; 2086,676;   -0,814;    0,864
228,735; 2243,943;   -0,541;    1,227
229,334; 1994,385;   -0,905;   -0,227
229,933; 2361,189;    0,459;    0,591
230,532; 2482,298;    1,186;   -0,409
231,131; 2526,645;    1,732;    0,318
231,729; 2672,795;   -2,450;   -2,318
232,328; 2794,381;   -0,723;   -1,500
232,927; 2863,303;    1,004;   -0,500
233,525; 3002,410;    3,640;    0,045
234,124; 3211,629;    2,368;   -1,591
234,723; 3234,223;    0,913;   -1,045
235,321; 3390,652;    2,277;    0,136
235,920; 3626,892;    1,186;   -1,227
236,518; 3876,412;    3,459;    0,318
237,117; 4089,923;    0,004;   -0,227
237,715; 4244,904;    0,640;   -0,500
238,314; 4298,498;   -0,087;   -2,318
238,912; 4390,076;   -0,723;   -1,409
239,510; 4444,597;    0,459;   -1,227
240,109; 4599,286;    0,004;    3,773
240,707; 4632,285;   -0,996;    1,227
241,305; 5027,905;    0,550;    0,136
241,904; 5260,542;   -0,178;   -2,045
242,502; 5225,560;   -0,632;   -0,227
243,100; 5181,892;   -0,087;   -0,955
243,698; 5434,873;    0,732;    1,682
244,297; 5606,482;   -0,632;    0,682
244,895; 5447,095;   -0,269;   -2,318
245,493; 5756,123;    2,186;   -0,591
246,091; 5819,249;    1,368;   -1,318
246,689; 5830,697;    1,004;    0,591
247,287; 5994,204;    0,822;   -1,136
247,885; 6276,599;   -1,451;    1,227
248,483; 6390,984;    1,822;   -0,500
249,081; 6485,228;    0,185;    1,591
249,679; 6649,691;   -0,178;    1,682
250,277; 6926,647;   -1,723;    0,864
250,875; 6932,080;   -1,087;   -1,045
251,473; 6983,780;   -1,178;    0,500
252,071; 7160,075;    1,459;    1,045
252,669; 7331,661;   -1,814;    0,318
253,267; 7591,687;   -0,087;    0,773
253,864; 7546,568;   -0,360;    0,682
254,462; 7420,035;    1,640;    1,591
255,060; 7373,732;   -0,269;    1,318
255,658; 7728,388;    0,822;   -0,136
256,255; 8128,107;    0,186;   -2,045
256,853; 8026,872;   -0,269;    1,409
257,451; 8016,293;    0,822;    1,864
258,048; 8297,717;    1,822;    1,864
258,646; 8058,756;    1,731;   -1,045
259,243; 8250,781;   -0,087;    2,227
259,841; 8333,544;   -0,814;    0,318
260,438; 8211,118;   -0,087;    0,864
261,036; 8946,884;   -1,905;    1,409
261,633; 8833,582;   -0,087;    2,227
262,231; 8586,766;    2,731;   -0,045
262,828; 8704,569;   -0,905;    1,136
263,425; 8724,341;    0,913;   -0,591
264,023; 8994,459;    0,186;    0,045
264,620; 8525,380;   -0,360;   -0,318
265,217; 8883,758;   -2,087;    3,136
265,815; 9027,034;   -1,905;    2,136
266,412; 8805,588;    0,731;    0,136
267,009; 8845,196;   -1,451;    0,773
267,606; 8724,756;    0,822;   -0,955
268,203; 8744,395;   -0,269;   -0,591
268,801; 9024,505;    1,731;    0,591
269,398; 9338,650;   -0,360;    2,500
269,995; 9281,296;    0,277;    1,591
270,592; 9040,872;   -0,632;   -0,500
271,189; 9254,500;    0,186;    0,409
271,786; 9410,652;   -0,632;    1,227
272,383; 9235,078;   -1,087;    0,227
272,980; 9469,903;    0,277;    0,318
273,577; 9938,253;    0,004;    1,227
274,174; 9479,219;    0,822;    2,591
274,771; 9447,479;   -0,814;   -0,773
275,367; 9611,792;    2,277;    1,409
275,964; 9536,112;    0,731;   -0,500
276,561; 9653,043;    1,549;   -1,045
277,158; 9886,509;    0,095;   -1,773
277,755; 9987,410;    2,185;    0,409
278,351; 9379,296;   -0,451;   -1,500
278,948; 9696,826;   -0,815;    0,045
279,545; 9710,512;   -1,360;    2,318
280,141;10359,450;   -1,723;   -2,045
280,738;10237,922;   -0,451;   -0,136
281,334;10462,831;   -1,633;    0,591
281,931; 9843,637;   -0,087;   -1,318
282,528; 9965,821;    0,822;   -0,500
283,124;10660,399;   -1,087;   -0,500
283,721;10550,340;   -0,451;    1,409
284,317;10379,163;    0,185;    2,500
284,913;10935,774;   -1,360;    0,591
285,510;11140,956;    0,640;   -0,318
286,106;11184,208;   -2,269;   -0,955
286,703;10760,503;   -0,360;    1,955
287,299;10973,544;   -1,451;   -0,591
287,895;11188,776;    0,822;   -1,045
288,491;11792,286;    0,186;    2,136
289,088;11504,400;   -2,360;    2,409
289,684;11588,025;   -1,723;    1,500
290,280;11564,978;    0,368;    0,682
290,876;11641,978;    1,822;    5,500
291,472;11548,178;    1,276;    2,227
292,068;11635,129;    1,367;    0,227
292,665;11360,544;    2,095;    0,773
293,261;10962,967;    0,276;    2,136
293,857;11359,420;    2,913;    2,136
294,453;11336,092;    3,550;    0,955
295,049;11195,730;   -0,268;    1,955
295,644;11185,505;    0,095;    0,136
296,240;11117,914;   -0,905;   -0,136
296,836;11197,416;   -0,995;    0,318
297,432;11490,611;    1,096;   -0,500
298,028;11495,585;    0,732;    0,773
298,624;11907,525;    1,459;    1,864
299,220;12157,438;    2,368;    0,591
299,815;11839,303;    1,005;   -0,409
300,411;11634,275;    0,914;    1,773
301,007;11638,385;    1,368;    0,227
301,602;11696,941;   -0,541;   -2,318
302,198;11857,505;    0,732;   -0,773
302,794;12208,023;    1,187;   -0,500
303,389;12346,951;   -1,177;    1,045
303,985;12407,573;    0,550;    1,409
304,580;12372,381;    1,459;    1,591
305,176;12361,061;   -3,086;    0,136
305,771;12259,785;   -1,268;   -1,227
306,367;12090,341;    4,095;    0,136
306,962;12444,214;    0,641;    1,500
307,558;12180,149;   -0,450;    0,136
308,153;12102,794;    1,095;   -1,136
308,748;12373,180;   -0,814;    1,682
309,344;12327,737;   -0,632;   -1,318
309,939;12429,168;   -1,905;   -1,318
310,534;12707,952;   -0,086;   -1,682
311,130;12668,432;    0,459;   -2,500
311,725;12398,754;    1,004;   -0,500
312,320;12687,103;    2,459;    0,045
312,915;12550,049;    1,459;   -1,045
313,510;12612,702;    1,550;   -0,500
314,105;13122,227;    1,096;    1,409
314,700;12524,367;   -3,086;   -1,045
315,295;12187,836;   -0,904;    0,045
315,890;11749,838;    1,277;    0,864
316,485;12084,494;   -0,359;   -0,318
317,080;12226,044;   -3,086;    1,591
317,675;12775,382;    2,005;   -0,682
318,270;12157,445;    5,550;    3,318
318,865;12171,893;    3,278;    3,045
319,460;12035,454;   -0,904;    0,591
320,055;12296,260;   -0,541;   -1,227
320,650;11984,198;   -1,995;   -0,591
321,244;11967,655;   -0,177;   -1,409
321,839;12951,203;   -1,541;   -0,227
322,434;12827,194;   -1,086;   -1,591
323,029;12407,144;    1,732;    1,591
323,623;12256,089;    1,550;    0,773
324,218;12019,101;    2,368;    1,409
324,812;11904,211;    1,096;    1,591
325,407;11694,727;   -0,814;    2,045
326,002;11626,071;    0,277;   -0,409
326,596;11949,349;    0,914;    1,318
327,191;12159,767;    0,823;   -1,045
327,785;11748,894;   -0,813;   -0,227
328,379;11954,618;    1,368;    0,136
328,974;11770,014;    0,914;   -3,955
329,568;11953,613;    0,186;   -2,409
330,163;11753,734;    2,096;    1,045
330,757;12150,570;    2,459;    1,591
331,351;11479,354;    0,459;    0,682
331,945;11764,017;    0,914;    1,409
332,540;11351,360;   -1,723;   -0,591
333,134;11506,914;   -1,086;    0,773
333,728;11730,146;    0,005;    0,318
334,322;12117,547;   -1,177;   -0,864
334,916;11419,040;    0,277;    0,955
335,510;11710,738;   -0,450;   -0,136
336,105;11949,313;   -1,086;    1,591
336,699;11687,742;   -1,086;    0,591
337,293;11613,904;   -1,723;    0,318
337,887;11770,953;   -2,723;    1,955
338,481;11845,204;    0,459;    0,591
339,074;12010,761;   -0,359;    2,682
339,668;11791,971;   -1,632;    1,227
340,262;12068,043;    1,732;    3,227
340,856;11595,887;    1,822;   -0,682
341,450;10982,273;    1,004;    1,864
342,044;11883,904;    1,459;    0,136
342,637;11637,377;    0,913;   -2,136
343,231;11493,540;   -2,360;    0,682
343,825;11483,372;   -1,086;   -0,591
344,419;11447,145;   -1,995;    0,500
345,012;11200,304;    2,459;    4,045
345,606;11224,417;    4,641;    1,591
346,199;11062,279;   -1,813;   -0,227
346,793;10584,034;    1,914;    2,045
347,386;10785,537;   -0,813;   -1,136
347,980;10795,266;   -0,268;   -0,045
348,573;10555,772;    2,278;    0,409
349,167;10231,902;    5,278;    4,773
349,760;10596,674;    2,914;    2,682
350,354;10560,601;   -0,813;    1,136
350,947;10273,580;    1,096;    1,682
351,540; 9961,782;   -0,358;   -1,409
352,134; 9944,616;    1,096;    1,136
352,727;10017,235;   -0,086;    1,136
353,320; 9813,315;    0,005;    0,591
353,913; 9638,657;   -1,995;    1,864
354,507; 9808,869;    0,823;   -1,227
355,100; 9833,196;    0,460;    0,864
355,693; 9029,879;    2,005;    2,409
356,286; 9074,791;    0,823;    2,773
356,879; 9453,686;   -0,722;    1,227
357,472; 9066,737;   -0,904;    1,500
358,065; 9246,243;   -0,722;    2,500
358,658; 9217,771;   -0,540;    2,318
359,251; 8846,965;   -1,631;   -0,591
359,844; 8298,498;   -1,904;   -1,136
360,437; 8476,539;   -2,995;    0,045
361,030; 8728,933;    1,369;   -0,682
361,623; 8329,800;    2,824;    0,318
362,215; 8367,803;   -0,086;    2,045
362,808; 8217,203;   -2,358;   -1,682
363,401; 8418,173;   -2,449;    0,136
363,994; 8146,995;   -0,631;   -1,500
364,586; 8088,214;    0,824;   -1,500
365,179; 8308,591;   -0,449;   -1,136
365,772; 7777,065;   -1,995;    2,045
366,364; 8069,684;    1,915;   -3,227
366,957; 8274,676;    2,279;   -0,045
367,549; 8276,362;    2,188;   -0,864
368,142; 7952,209;    1,825;   -1,500
368,734; 8129,027;    0,734;   -2,136
369,327; 8113,638;    1,643;   -0,500
369,919; 8044,495;   -1,538;    0,409
370,512; 7828,052;   -1,083;   -0,500
371,104; 7582,493;   -0,901;    1,591
371,696; 7722,175;    1,191;   -0,955
372,289; 7813,485;    0,373;    1,136
372,881; 7960,216;   -2,080;    1,318
373,473; 7887,738;   -2,170;    1,136
374,066; 7684,584;   -0,169;    0,500
374,658; 7549,917;    0,378;    1,136
375,250; 7896,317;    0,653;   -1,409
375,842; 7767,722;    0,473;   -0,045
376,434; 7637,049;   -0,435;   -0,409
377,026; 8209,605;    0,204;   -2,500
377,618; 8092,624;   -0,158;   -0,682
378,210; 7928,092;   -0,338;   -1,955
378,802; 7785,815;    0,754;   -0,591
379,394; 7713,774;    1,846;    0,682
379,986; 8366,506;    1,393;   -0,955
380,578; 8473,484;   -0,153;    0,773
381,170; 7773,928;   -0,972;    0,045
381,762; 7711,171;    0,755;    1,409
382,354; 7951,557;   -0,065;   -1,318
382,945; 8059,993;   -2,976;    0,318
383,537; 8240,337;   -2,705;   -1,955
384,129; 8240,782;   -2,160;   -1,136
384,721; 8443,189;   -0,252;    0,955
385,312; 8364,460;   -0,161;   -0,955
385,904; 8418,790;   -2,706;    1,591
386,496; 7792,127;   -0,979;    1,045
387,087; 7933,845;    1,022;    2,500
387,679; 8014,395;   -1,160;    0,045
388,270; 8142,527;    2,840;    2,045
388,862; 8223,294;    1,295;   -0,318
389,453; 8133,869;   -0,887;    1,045
390,045; 8395,473;   -0,705;   -2,682
390,636; 8327,367;    0,204;   -0,591
391,227; 8199,029;   -0,523;   -0,045
391,819; 8295,951;    0,204;    0,773
392,410; 8343,793;    1,022;    0,045
393,001; 8314,168;   -0,979;   -1,591
393,593; 8587,020;    1,930;   -0,045
394,184; 8439,908;    1,385;   -0,409
394,775; 8376,219;    1,839;    2,136
395,366; 8552,785;    1,385;    0,773
395,957; 8595,474;    0,113;    0,136
396,548; 8879,905;   -0,342;    2,682
397,139; 9187,843;   -2,433;    0,591
397,730; 8923,649;   -1,888;    0,955
398,321; 8974,432;   -1,252;    0,955
398,912; 9032,968;   -0,615;    0,136
399,503; 9091,261;   -3,524;   -1,409
400,094; 8531,664;    0,294;    1,682
400,685; 8353,895;   -0,433;    0,045
401,276; 8460,482;    0,930;   -0,955
401,867; 8791,326;   -0,888;    0,773
402,458; 8895,165;   -2,251;   -2,318
403,048; 8880,368;    1,112;    0,591
403,639; 8472,088;    0,840;    0,864
404,230; 8720,413;    2,476;    0,318
404,821; 8670,625;   -0,615;    0,045
405,411; 8796,312;    1,203;   -2,591
406,002; 8370,231;   -1,252;   -1,136
406,592; 8179,202;    2,294;    0,045
407,183; 8521,073;    0,566;   -1,500
407,774; 8461,597;    3,475;   -0,136
408,364; 8776,510;    0,930;    0,409
408,954; 8371,908;    0,384;    1,227
409,545; 8447,254;    1,021;    1,045
410,135; 7977,788;    1,293;    0,500
410,726; 8134,308;    1,838;    0,318
411,316; 8528,601;    0,111;    0,773
411,906; 8173,405;   -0,253;   -0,409
412,497; 7669,665;   -1,070;   -0,045
413,087; 8304,288;   -1,980;   -0,227
413,677; 8712,522;   -0,707;    3,864
414,267; 8527,920;    0,656;    1,409
414,857; 8559,593;   -2,980;    4,227
415,448; 8848,260;    0,839;    0,500
416,038; 8513,686;    0,020;   -0,591
416,628; 8475,141;   -0,889;    0,409
417,218; 7945,739;    0,565;    3,318
417,808; 8198,412;    0,202;   -0,409
418,398; 8656,814;    0,020;    2,682
418,988; 8707,176;    2,020;    0,591
419,578; 8946,163;   -0,707;    1,409
420,168; 9293,417;   -1,343;   -0,955
420,757; 8847,201;   -1,343;   -1,500
421,347; 8519,856;    0,111;   -0,227
421,937; 8728,779;    2,292;    1,409
422,527; 8651,495;    0,838;   -0,773
423,116; 8498,204;   -0,253;   -0,045
423,706; 8852,160;   -1,889;    0,318
424,296; 8798,785;    1,384;    0,682
424,885; 9246,421;   -0,071;   -3,045
425,475; 9536,058;    1,474;   -2,864
426,065; 9449,351;   -0,980;   -0,318
426,654; 9094,303;   -0,435;   -0,318
427,244; 9191,751;    0,020;    1,409
427,833; 8623,708;    1,383;   -0,500
428,423; 9123,112;   -0,526;    1,136
429,012; 9926,005;   -0,344;   -1,136
429,601; 9366,304;   -1,344;    0,136
430,191; 9621,632;    1,292;    4,318
430,780; 9261,092;   -0,344;   -0,409
431,369; 9178,038;    0,746;   -0,045
431,959; 9834,101;   -1,254;    0,500
432,548; 9618,969;   -1,163;   -0,045
433,137; 9766,952;   -1,254;   -1,318
433,726;10322,079;    0,292;    0,500
434,315; 9631,101;   -0,526;    2,409
434,905; 9726,833;   -1,254;    1,409
435,494; 9628,561;    0,746;    0,955
436,083;10139,531;   -0,981;   -0,955
436,672; 9995,241;    0,110;    0,500
437,261; 9549,434;    0,292;   -1,955
437,850; 9616,068;    1,383;    0,682
438,439; 9613,262;    3,291;    1,955
439,027; 9465,311;    3,655;    1,773
439,616; 9828,465;    2,927;    1,227
440,205; 9712,408;    0,200;   -2,136
440,794; 9801,132;    2,109;   -0,045
441,383;10073,344;   -1,346;   -0,591
441,971; 9934,865;   -2,436;    0,591
442,560; 9770,135;    0,563;   -1,773
443,149; 9537,619;    0,379;   -1,318
443,737; 9653,995;   -0,074;   -2,318
444,326; 9925,244;    0,018;    0,318
444,915; 9996,155;   -1,982;    0,864
445,503;10441,451;   -2,891;   -0,318
446,092; 9654,227;    0,382;    2,136
446,680;10217,410;    0,382;    0,318
447,269;10386,251;   -0,346;   -0,318
447,857;10157,282;    0,018;   -1,773
448,445;10285,085;    0,563;    1,318
449,034;10512,899;   -1,528;   -1,136
449,622;10655,268;   -1,073;    3,500
450,210; 9831,440;    2,017;    2,227
450,799;10405,938;    0,290;   -0,591
451,387;10386,383;    1,381;   -0,591
451,975; 9966,043;    2,654;    0,864
452,563;10055,537;    3,472;    2,318
453,151;10108,532;   -0,528;   -1,227
453,739;10062,478;   -1,347;    0,136
454,328; 9888,911;    2,381;   -2,136
454,916; 9600,769;    2,562;   -0,136
455,504; 9774,346;    1,017;    1,227
456,092; 9985,662;    0,017;   -1,591
456,679; 9978,194;    1,472;    0,682
457,267; 9832,589;    4,017;    1,045
457,855;10010,539;    1,017;    1,409
458,443; 9832,686;   -0,165;    1,682
459,031; 9928,230;    0,108;    2,409
459,619;10431,209;   -1,801;    2,864
460,206;10598,206;    0,835;    2,045
460,794;10655,051;   -2,983;   -0,227
461,382;10903,448;   -0,529;   -0,864
461,970;10464,747;    1,198;    1,864
462,557;10493,949;   -0,711;   -0,682
463,145;10708,395;   -3,165;   -1,682
463,732;10840,864;    2,016;   -1,045
464,320;10813,315;   -0,075;   -3,045
464,907;10455,319;    2,743;   -0,773
465,495;10312,307;    0,743;   -1,227
466,082;10488,693;   -1,984;   -0,045
466,670;10402,172;   -2,529;    1,227
467,257;10843,870;   -1,711;    2,045
467,844;10958,593;   -0,075;    0,045
468,432;10987,377;    0,834;    3,500
469,019;10505,334;    0,925;   -1,773
469,606;10998,204;    0,470;    3,682
470,193;10792,574;   -1,439;    0,227
470,780;10302,819;   -2,075;    0,864
471,368;10713,143;   -1,257;   -0,773
471,955;10485,633;    1,379;   -0,682
472,542;10111,006;    0,652;   -1,136
473,129;10336,820;   -0,166;    0,136
473,716;10058,653;    1,470;    0,591
474,303;10309,666;    0,652;   -0,864
474,890;10617,258;   -1,439;   -0,500
475,477;10606,487;   -1,621;    0,409
476,064;10528,119;    1,106;   -1,591
476,650;10432,324;    0,288;    0,318
477,237;10282,324;   -0,258;    0,955
477,824;10459,211;   -1,076;    0,864
478,411;10509,641;   -1,894;   -0,318
478,997;10675,418;    0,560;   -0,773
479,584;10754,114;    1,196;   -0,409
480,171;11500,405;   -0,440;   -0,773
480,757;11123,420;    2,651;    0,773
481,344;11459,839;    0,469;    0,409
481,931;11000,393;    1,105;    1,045
482,517;11973,549;   -1,258;    0,318
483,104;12533,537;    1,106;    2,864
483,690;12855,100;   -1,804;    0,045
484,276;13274,176;   -0,895;    0,227
484,863;13020,915;    2,469;    1,136
485,449;13665,286;   -0,077;    0,318
486,035;13647,889;   -1,986;   -0,136
486,622;14083,033;   -0,895;    0,045
487,208;14066,086;    1,378;    1,500
487,794;13901,417;    0,741;    0,318
488,380;14005,556;    0,105;   -1,409
488,967;14057,431;   -1,168;   -0,409
489,553;14136,275;   -1,895;   -1,409
490,139;14324,436;    1,559;    0,773
490,725;13728,285;    0,741;   -0,227
491,311;13299,041;    3,287;    3,045
491,897;12628,422;   -0,986;    1,500
492,483;12431,504;    0,105;    1,227
493,069;12113,869;    3,923;    0,864
493,655;12127,109;    1,650;    0,682
494,241;12041,318;    1,377;   -0,955
494,826;12458,178;    0,287;   -1,045
495,412;11903,574;    2,559;   -0,682
495,998;12080,067;   -0,805;   -0,318
496,584;12222,020;    0,377;    1,045
497,169;12204,601;    1,014;   -0,682
497,755;12161,607;    0,650;    1,227
498,341;12709,049;    0,559;    0,318
498,926;12266,751;    1,832;    1,955
499,512;12480,630;    1,286;    2,955
500,097;12641,331;    0,195;   -0,318
500,683;12561,712;   -0,350;    2,136
501,268;12944,484;   -0,169;   -0,955
501,854;12647,707;   -0,169;    1,227
502,439;12612,787;   -0,624;   -1,773
503,024;12816,542;    0,195;    0,500
503,610;12860,647;   -0,078;   -0,682
504,195;12901,473;    0,558;    1,955
504,780;12997,418;    2,922;    1,227
505,366;12813,836;    3,013;    2,864
505,951;12508,090;    0,740;    1,045
506,536;12555,085;   -3,260;   -3,682
507,121;12545,862;    0,285;   -0,318
507,706;13107,608;    2,376;    1,045
508,291;13522,914;    2,649;    1,136
508,876;12960,101;   -0,988;    2,591
509,461;12384,336;   -0,169;   -0,773
510,046;12807,162;    0,194;    0,318
510,631;13044,422;   -0,351;   -0,773
511,216;12710,020;    2,467;   -0,500
511,801;13090,071;   -0,442;    2,591
512,386;13415,984;    0,740;    0,500
512,971;13340,973;   -2,988;    0,955
513,555;12904,188;   -0,897;   -1,500
514,140;13731,627;   -0,442;   -3,136
514,725;13712,154;   -0,715;   -1,136
515,309;13855,844;   -0,533;    0,318
515,894;13294,079;   -0,624;   -2,227
516,479;13733,413;   -0,624;   -0,955
517,063;13566,176;    0,376;    1,227
517,648;13717,109;    1,012;   -1,136
518,232;13378,259;   -0,261;   -1,409
518,817;13720,694;   -0,079;    1,682
519,401;13909,534;    2,194;    0,591
519,985;13449,576;    1,103;    1,136
520,570;13302,355;    0,830;   -1,955
521,154;13606,226;    2,102;    0,591
521,738;13750,125;   -2,352;    2,409
522,323;14329,826;   -0,170;    1,682
522,907;14101,619;    0,466;   -0,136
523,491;13808,092;    0,557;    0,955
524,075;13820,163;    2,284;    0,591
524,659;13930,273;    1,466;    0,591
525,243;13343,330;    1,739;    0,409
525,827;13598,682;    0,648;   -0,045
526,411;14433,819;   -1,989;   -0,136
526,995;14653,575;   -0,352;    1,409
527,579;14238,619;   -0,443;   -1,045
528,163;14567,568;    0,375;   -1,500
528,747;14493,992;    2,466;   -0,773
529,331;14800,721;   -0,080;   -1,409
529,915;15038,158;    1,738;    0,955
530,499;14967,580;   -0,807;    1,227
531,082;14615,516;   -0,534;    1,591
531,666;14040,941;    1,374;    0,773
532,250;14752,699;    1,284;    2,682
532,833;15128,514;    0,920;    2,773
533,417;15000,831;   -1,807;    0,864
534,001;14981,525;    1,647;   -0,318
534,584;15639,504;    0,374;    0,500
535,168;15513,037;    0,465;    1,409
535,751;15585,797;    0,647;    0,045
536,334;15039,034;   -0,898;   -0,409
536,918;15615,503;    0,011;    1,591
537,501;15762,225;   -0,899;    1,318
538,085;15764,177;   -0,444;    1,045
538,668;15881,793;    0,829;    2,409
539,251;16189,591;    1,829;    3,773
539,834;16192,112;    0,101;    0,773
540,418;16106,952;   -1,990;    4,318
541,001;16242,961;   -0,990;    1,773
541,584;16247,580;    2,101;    2,227
542,167;15971,827;    1,374;    2,955
542,750;16145,460;    1,919;   -0,773
543,333;15680,993;    0,555;    2,136
543,916;16488,345;    0,192;    2,500
544,499;17104,737;   -1,354;    0,227
545,082;17146,905;    1,374;    3,591
545,665;17269,070;    1,919;    1,500
546,248;17611,174;    1,010;   -0,318
546,830;17250,202;   -0,445;    1,955
547,413;17676,856;    1,010;   -0,773
547,996;18216,812;    0,555;    0,500
548,579;17994,338;    0,919;    0,955
549,161;17796,597;    1,828;    2,682
549,744;17624,032;   -0,809;    0,409
550,326;18133,590;   -0,809;   -1,136
550,909;17884,462;    2,737;    0,591
551,492;18300,099;   -0,263;    0,227
552,074;18097,361;   -0,173;   -1,318
552,657;18623,880;    2,373;    0,045
553,239;18390,274;   -0,173;   -0,773
553,821;18316,425;   -1,082;    1,045
554,404;17794,115;    1,282;    1,136
554,986;18190,915;    0,464;    1,045
555,568;18820,764;    1,191;   -0,955
556,151;18025,926;    1,191;   -0,227
556,733;18209,430;   -0,264;   -0,864
557,315;18704,444;    0,100;    0,500
557,897;18522,660;    0,554;   -0,500
558,479;18661,159;   -1,991;    1,318
559,061;18787,070;   -0,719;   -0,864
559,643;19112,043;   -0,264;    0,045
560,225;19453,659;    1,645;    2,864
560,807;19536,406;    0,918;    0,318
561,389;18995,501;    0,554;    2,318
561,971;19720,552;    0,463;    2,136
562,553;19507,926;   -1,628;    1,591
563,135;19691,577;   -0,537;    1,136
563,717;19310,629;    3,372;    1,136
564,298;20077,450;    3,645;   -0,045
564,880;19748,862;    0,645;   -1,409
565,462;19907,135;    0,645;    1,318
566,043;21084,966;   -0,446;    2,318
566,625;20589,959;    1,918;    1,227
567,207;20500,979;    1,099;    1,682
567,788;21657,918;   -1,264;    1,500
568,370;22483,402;    1,917;   -0,500
568,951;22287,201;    0,190;    0,227
569,533;23147,852;   -0,628;   -0,500
570,114;23639,598;   -0,446;    0,682
570,695;24162,655;   -0,174;   -1,318
571,277;24657,910;   -0,265;   -1,682
571,858;25417,427;    2,008;   -1,136
572,439;26360,588;    1,554;   -1,045
573,021;26551,308;    2,099;   -2,773
573,602;27067,137;   -1,265;    0,318
574,183;28033,821;   -2,083;    2,227
574,764;28160,043;   -1,629;    0,409
575,345;28682,474;    0,917;   -0,136
575,926;29383,775;   -0,356;    0,136
576,507;29363,131;    1,099;   -0,227
577,088;30504,372;    3,099;    1,682
577,669;30472,819;    0,735;    1,955
578,250;31236,912;    0,644;   -1,045
578,831;31915,087;   -1,356;   -2,227
579,412;32232,435;   -0,810;    0,955
579,993;33187,967;    1,008;    0,227
580,573;33520,732;   -0,629;   -0,955
581,154;32511,312;    0,735;   -0,591
581,735;33309,326;    0,644;    0,773
582,315;32859,781;   -0,629;    2,136
582,896;33138,588;   -0,174;    1,227
583,477;32616,008;    0,189;    1,227
584,057;32819,662;    0,553;    0,955
584,638;33091,421;    2,553;    2,318
585,218;33057,013;   -0,538;    2,682
585,799;33261,815;    0,281;   -0,227
586,379;33251,008;    0,372;    1,591
586,959;31980,249;    0,735;    0,318
587,540;31328,790;   -0,629;    2,227
588,120;30845,903;    1,007;   -0,045
588,700;29774,794;    2,553;    2,136
589,281;30021,395;    0,462;   -0,955
589,861;29943,919;    0,099;   -1,682
590,441;29787,135;    2,371;   -2,682
591,021;28805,597;   -0,265;   -2,591
591,601;29015,907;   -0,537;    0,500
592,181;29020,005;   -0,719;   -0,773
592,761;28293,837;    0,007;    1,409
593,341;28170,574;   -0,901;    0,045
593,921;28194,521;   -0,265;    1,591
594,501;28071,191;   -0,538;    1,318
595,081;27904,723;    0,917;   -0,318
595,661;28277,667;   -1,447;    0,955
596,240;28801,484;   -0,537;    0,136
596,820;28405,128;    0,372;    1,955
597,400;28630,772;    2,008;    0,773
597,980;28856,377;    2,008;    1,045
598,559;28885,572;    2,735;   -0,227
599,139;28583,608;   -0,174;   -1,227
599,718;28466,154;   -0,174;   -0,409
600,298;28709,331;    0,735;    0,682
600,877;28951,577;    2,917;    1,409
601,457;29253,584;    2,281;    1,136
602,036;29118,264;    0,190;    2,045
602,616;29329,462;    0,644;    1,682
603,195;29635,942;   -0,355;    3,500
603,774;29215,946;   -0,901;    2,045
604,354;29077,653;    0,826;   -0,500
604,933;28575,797;    0,463;    1,864
605,512;28745,185;    3,554;    0,591
606,091;28743,594;   -0,537;    3,773
606,671;29603,194;    0,281;    0,773
607,250;28661,479;    1,644;    3,136
607,829;28933,430;    2,372;    3,227
608,408;28759,367;    1,190;    2,591
608,987;27767,632;    1,281;    3,409
609,566;28122,673;   -1,265;   -2,500
610,145;28182,443;   -1,082;    0,682
610,723;28571,045;    4,372;    6,864
611,302;27814,759;   -0,446;    1,682
611,881;27297,535;    5,008;   11,227
612,460;28173,249;    1,645;    3,955
613,039;28611,250;   -0,082;    2,045
613,617;27330,759;    1,736;    4,773
614,196;27512,372;    1,099;    1,227
614,775;27839,478;    1,009;    2,409
615,353;27796,833;    0,736;    0,864
615,932;27483,910;    0,100;    2,409
616,510;28099,290;    0,554;    0,591
617,089;27614,805;    7,100;   17,591
617,667;27346,461;    2,372;    6,136
618,246;27237,966;   -1,537;    1,318
618,824;27369,776;   -3,355;   -0,955
619,402;26953,600;   -2,900;   -1,773
619,981;27442,794;   -0,173;   -1,045
620,559;27306,342;    0,009;    1,682
621,137;26846,892;   -0,718;    1,864
621,715;26887,676;   -1,173;   -0,682
622,293;26776,581;   -0,537;   -0,773
622,871;27223,898;   -0,718;    0,500
623,450;26825,031;    0,373;   -0,864
624,028;26660,369;    0,191;   -0,955
624,606;26285,334;   -1,718;    1,682
625,183;26701,216;   -1,536;   -1,136
625,761;26315,755;    1,009;    1,136
626,339;26598,332;    1,373;    2,591
626,917;27015,354;   -0,172;   -0,045
627,495;27052,587;   -0,354;    1,318
628,073;26466,164;   -0,263;    2,864
628,650;26152,005;    0,100;    2,136
629,228;26569,766;    0,373;    4,409
629,806;25969,472;    2,282;    1,136
630,383;26261,427;    1,464;   -0,318
630,961;26046,141;    2,555;   -0,955
631,539;25819,473;    2,464;    0,227
632,116;25091,050;   11,373;   15,409
632,694;25706,621;    2,555;    6,500
633,271;26017,639;    0,828;    2,682
633,848;25917,725;    1,828;    2,045
634,426;26000,818;   -1,081;    1,773
635,003;25105,384;    1,101;   -0,409
635,580;25404,814;    1,192;    3,682
636,158;25976,044;    3,737;    1,227
636,735;25946,308;    0,555;   -0,500
637,312;26062,723;   -0,809;   -0,682
637,889;26175,756;   -4,354;   -0,682
638,466;25614,141;   -3,990;   -0,409
639,043;25656,633;    2,101;   -1,136
639,620;25978,594;   -2,262;   -0,955
640,197;26264,699;    1,100;    1,682
640,774;26442,942;   -0,172;    1,136
641,351;26869,911;    0,737;    1,136
641,928;26246,426;   -0,627;    1,409
642,505;25880,396;    0,828;   -0,500
643,082;26034,366;   -1,718;    1,227
643,658;25015,517;   -0,718;    1,500
644,235;25802,759;    1,191;    2,500
644,812;26107,365;    1,918;    0,773
645,388;25841,153;   -0,991;    1,409
645,965;25931,668;   -0,809;    1,682
646,542;25967,547;   -1,445;   -0,227
647,118;25918,607;    1,009;   -0,955
647,695;26285,486;   -0,263;    1,136
648,271;26225,001;   -0,536;    0,500
648,848;26530,607;    0,736;    2,227
649,424;26351,304;    0,827;    1,318
650,000;26145,819;   -0,354;   -1,045
650,577;25902,697;   -0,627;   -0,955
651,153;26409,122;   -1,809;    0,955
651,729;27385,455;    1,191;    0,864
652,305;27614,515;    0,645;    2,773
652,881;32044,394;   -0,082;    1,136
653,458;39078,091;    1,100;    0,227
654,034;43168,424;    0,282;    1,591
654,610;44872,848;    0,554;    0,773
655,186;46296,000;    0,645;    3,045
655,762;45963,333;   -0,991;    0,409
656,338;45945,211;    0,100;    0,136
656,913;46935,999;   -0,082;    0,409
657,489;46309,514;    0,827;   -0,318
658,065;46258,575;   -0,173;   -1,591
658,641;46942,090;   -0,900;   -0,864
659,217;46239,059;   -0,991;    0,409
659,792;45599,756;    0,645;   -0,409
660,368;45827,999;   -2,173;   -0,682
660,944;45517,150;   -2,082;    1,227
661,519;40932,574;   -0,628;    0,409
662,095;34767,998;   -1,719;    0,591
662,670;29826,786;    1,281;   -0,136
663,246;28495,210;    1,009;   -0,409
663,821;27692,452;    0,281;    1,682
664,396;27203,149;    0,009;    1,864
664,972;27461,937;    0,009;   -0,500
665,547;27761,543;    1,372;    0,136
666,122;27765,331;   -1,082;    0,318
666,698;28073,391;   -0,173;    0,318
667,273;27442,543;   -0,173;    0,136
667,848;28267,876;    2,372;    1,500
668,423;28050,300;    2,190;    2,318
668,998;28629,542;    2,827;   -0,682
669,573;29177,694;   -3,264;   -1,500
670,148;28985,209;   -1,446;   -0,682
670,723;28840,269;   -1,810;    0,318
671,298;29230,602;    2,372;    1,045
671,873;29347,754;   -0,082;   -0,136
672,448;29289,087;    0,645;    0,136
673,023;29627,602;   -1,992;   -0,227
673,597;29955,390;    0,827;    2,318
674,172;29720,814;   -0,355;    0,318
674,747;29192,693;    0,372;   -1,045
675,321;29101,481;   -0,628;    3,318
675,896;28605,723;    0,645;    1,045
676,471;29621,874;    2,645;    1,591
677,045;29363,571;   -1,264;    0,682
677,620;29507,722;    0,190;    1,136
678,194;29826,692;   -2,628;    1,136
678,769;29314,934;   -1,083;   -0,318
679,343;29527,904;   -0,628;    1,773
679,917;29411,601;   -1,446;    1,955
680,492;29589,752;    0,826;    3,227
681,066;29744,631;    3,372;    0,409
681,640;29790,419;    1,463;   -0,318
682,214;30585,661;    0,735;    0,500
682,788;30105,176;   -1,356;   -0,773
683,363;30023,509;   -1,810;    1,682
683,937;29741,570;   -1,719;   -0,318
684,511;30543,994;    0,463;   -0,591
685,085;30203,509;   -1,356;    0,318
685,659;29940,479;   -2,538;    0,864
686,232;30213,721;   -0,356;   -0,318
686,806;29972,054;   -0,901;    0,409
687,380;30608,205;   -0,174;    0,591
687,954;30736,902;   -1,174;    1,136
688,528;30508,054;   -0,719;    1,955
689,101;31304,296;   -3,992;    1,045
689,675;30897,811;   -0,356;   -0,136
690,249;30200,962;   -0,719;    0,409
690,822;30512,659;    0,280;    0,318
691,396;30641,447;   -0,265;    1,227
691,969;30124,780;    1,280;    0,136
692,543;30558,841;   -0,447;   -1,955
693,116;30216,538;   -0,265;   -1,409
693,690;30081,416;    0,099;    0,500
694,263;30623,840;   -1,083;    2,955
694,836;30647,356;    1,371;    3,591
695,410;29283,052;   -0,265;    1,773
695,983;29775,931;    0,189;    0,591
696,556;29745,264;   -0,447;   -1,045
697,129;30142,688;   -0,356;    1,409
697,703;29768,567;   -1,629;    1,955
698,276;29767,809;    1,462;   -0,773
698,849;29551,870;    1,280;    1,409
699,422;29918,567;   -1,083;    0,591
699,995;29671,173;    0,007;    0,136
700,568;30165,324;   -0,629;    3,045
701,140;30154,021;   -2,811;    1,682
701,713;29876,263;   -0,174;    2,409
702,286;29579,415;   -0,538;    0,864
702,859;29528,566;   -0,902;   -0,591
703,432;28628,899;    0,825;    0,682
704,004;29188,142;    0,462;    0,318
704,577;29015,020;   -0,629;    0,136
705,150;29608,081;    0,189;    2,500
705,722;29389,869;   -0,356;   -3,227
706,295;29141,202;   -0,175;   -0,591
706,867;29039,899;   -0,175;    1,955
707,440;29261,323;   -1,720;   -0,409
708,012;29529,201;    0,462;    0,591
708,584;29446,080;    2,462;    0,227
709,157;29719,504;    1,825;   -0,591
709,729;29402,110;    2,280;    2,045
710,301;30254,171;    0,734;    0,045
710,874;30303,504;   -1,447;   -0,227
711,446;29183,564;    0,371;    0,864
712,018;28968,807;    0,098;    0,500
712,590;28643,322;   -1,993;    1,682
713,162;29270,473;    0,825;    1,318
713,734;29529,261;    1,825;   -2,045
714,306;29423,503;   -1,902;   -0,409
714,878;28110,200;    0,825;    0,864
715,450;28930,533;    0,643;    0,864
716,022;29179,139;    1,552;    1,318
716,593;29346,018;    0,189;    0,591
717,165;29305,624;   -3,175;   -1,227
717,737;28955,230;    0,280;    0,409
718,309;28596,654;    0,280;   -0,045
718,880;28555,624;   -0,539;   -1,409
719,452;28813,048;   -0,175;   -1,591
720,024;28345,108;    0,734;   -0,591
720,595;28907,805;   -2,902;    0,955
721,167;28476,866;    0,370;   -2,045
721,738;28007,562;   -0,812;   -1,045
722,309;27996,350;   -0,993;   -1,227
722,881;27794,411;   -1,357;    0,773
723,452;28414,198;   -2,630;    2,864
724,023;28586,441;   -0,721;    2,682
724,595;28319,774;    0,007;    0,682
725,166;28041,925;    0,007;   -0,409
725,737;27747,713;    1,734;    0,227
726,308;27806,592;   -0,266;    0,318
726,879;28223,380;   -1,630;    1,227
727,450;28114,713;    0,552;   -0,045
728,021;28099,864;    3,097;    0,682
728,592;27883,470;    0,734;    0,500
729,163;28196,713;    0,643;   -0,136
729,734;28186,864;    0,188;   -0,227
730,305;28567,924;    1,734;    0,136
730,876;28952,530;    0,188;    2,955
731,447;28616,954;    2,188;    2,682
732,017;28763,197;    1,097;    1,864
732,588;28266,166;    0,734;    1,227
733,159;28404,591;    0,643;   -1,045
733,729;28216,469;    0,006;    0,409
734,300;27490,439;    0,915;    0,864
734,870;27914,227;    3,461;    0,591
735,441;28506,196;    0,370;   -0,591
736,011;28267,529;    0,643;   -1,591
736,582;28185,499;   -0,812;    0,045
737,152;27672,105;   -1,721;   -2,045
737,722;28095,893;   -0,267;   -0,682
738,293;27854,771;   -1,358;    1,318
738,863;27783,923;    2,461;    2,318
739,433;27533,711;    5,279;    0,318
740,003;28143,680;   -0,994;   -0,682
740,573;27561,468;    2,097;   -1,591
741,143;27468,437;   -1,085;    0,318
741,713;28286,407;    1,188;   -0,500
742,283;27995,649;    0,915;    1,591
742,853;27781,710;    1,915;    1,591
743,423;27264,770;    1,733;    0,045
743,993;27399,194;   -0,358;    1,500
744,563;26720,710;    0,097;   -0,864
745,133;26706,770;   -0,812;   -0,864
745,702;27345,012;   -0,267;    1,773
746,272;26569,346;   -0,176;    0,591
746,842;26324,315;   -1,358;   -0,591
747,411;26806,467;   -0,267;   -0,318
747,981;26992,072;    0,097;    0,500
748,551;27025,224;    2,278;   -1,045
749,120;26837,830;    0,642;   -0,227
749,690;27232,527;   -0,631;    2,409
750,259;27570,405;    1,369;    2,955
750,828;27468,284;    1,551;   -1,955
751,398;27770,345;    1,278;   -0,045
751,967;27243,587;    2,187;    0,409
752,536;27501,284;   -0,813;   -0,227
753,105;27906,526;    0,096;    0,227
753,675;27717,223;    0,096;    1,773
754,244;27640,192;   -0,904;    3,591
754,813;27655,980;    0,551;    1,227
755,382;27295,950;    0,460;    0,955
755,951;27886,010;    1,551;    3,682
756,520;27342,344;   -0,085;    1,864
757,089;27884,586;    0,278;    0,500
757,658;28109,101;    1,733;    1,227
758,227;28096,343;    1,096;    0,318
758,795;28412,949;    1,187;    1,136
759,364;28659,010;   -0,086;   -0,591
759,933;27647,343;   -1,176;   -0,045
760,501;27195,767;    0,733;   -1,318
761,070;27728,646;   -2,813;   -1,409
761,639;28384,888;   -1,904;    1,318
762,207;27638,676;    1,551;   -0,955
762,776;27562,554;    0,369;    0,864
763,344;27552,797;   -0,995;    0,591
763,913;26717,130;   -0,722;    1,409
764,481;27405,827;    1,005;   -0,136
765,049;27210,069;   -1,358;    1,409
765,618;27101,675;   -0,086;    0,318
766,186;27214,008;    0,278;    0,136
766,754;27366,978;    0,005;    1,864
767,322;26328,402;   -1,995;    0,409
767,890;26359,463;   -0,722;   -1,773
768,459;26755,341;   -2,177;   -0,318
769,027;26923,311;    1,641;    3,409
769,595;25896,099;    3,278;    2,591
770,163;26354,705;    3,823;    2,955
770,730;26099,220;    0,732;   -0,136
771,298;25952,007;    0,187;   -1,409
771,866;26050,522;   -1,541;    4,955
772,434;26387,856;   -0,631;   -1,864
773,002;26527,825;    0,005;    0,682
773,569;26173,704;    0,914;    1,682
774,137;26020,492;   -0,268;   -0,045
774,705;26797,734;    0,278;   -0,136
775,272;26295,158;    0,641;    0,682
775,840;26040,400;   -0,177;    2,682
776,407;25564,188;    0,277;    1,955
776,975;25194,249;   -0,632;    0,318
777,542;26183,945;   -1,086;   -0,045
778,110;25996,461;   -1,268;   -0,045
778,677;25735,157;   -2,359;   -0,864
779,244;25488,491;    2,186;    1,045
779,812;25570,733;    1,823;    0,864
780,379;25436,793;    0,005;    1,136
780,946;25697,854;    1,005;   -0,773
781,513;26004,551;   -1,450;    0,318
782,080;25364,248;   -0,086;    2,864
782,647;26113,581;   -0,268;    3,045
783,214;25694,641;   -0,177;    3,864
783,781;25304,156;   -0,723;   -0,682
784,348;25202,308;   -0,632;    1,500
784,915;25693,096;   -3,177;    0,318
785,482;25403,883;    1,368;    2,591
786,049;25764,762;    0,186;   -0,591
786,615;25964,186;    0,277;   -0,955
787,182;25725,610;    0,186;   -0,682
787,749;25383,034;   -2,814;    1,409
788,315;24703,095;   -1,632;   -0,409
788,882;25024,428;    1,550;   -1,227
789,448;25650,034;    1,732;   -0,955
790,015;25729,913;    1,095;    3,227
790,581;25270,882;    1,459;    0,227
791,148;25139,306;    0,641;    1,045
791,714;25438,549;   -0,541;    3,136
792,280;25073,246;    0,186;    1,591
792,847;24583,488;    0,550;    2,500
793,413;25212,276;   -0,269;   -0,318
793,979;24695,882;    3,459;   -1,318
794,545;24761,669;    4,459;    2,682
795,111;24136,821;    2,186;    1,318
795,678;24375,881;    0,731;   -1,682
796,244;23996,487;    3,368;    0,136
796,810;24582,821;    1,731;    0,773
797,375;24308,881;    0,549;   -2,136
797,941;24362,851;   -0,541;    0,591
798,507;24511,184;   -0,451;   -0,955
799,073;24035,153;   -0,360;    0,591
799,639;24063,850;   -2,632;    3,136
800,205;24141,638;    0,095;    2,682
800,770;23658,699;    0,640;    1,773
801,336;23772,304;    1,368;   -0,955
801,901;23373,729;    4,549;    3,136
802,467;23981,425;   -0,542;    2,045
803,033;23302,850;   -0,087;    0,864
803,598;23548,546;    1,913;   -1,045
804,163;23571,061;    1,095;   -0,318
804,729;23494,758;   -0,178;    1,136
805,294;23910,092;    0,822;    2,227
805,859;23674,425;    0,731;   -0,409
806,425;23148,485;    1,186;    2,682
806,990;22840,273;    2,186;    4,318
807,555;23363,334;   -1,451;    2,591
808,120;23215,485;    0,822;   -0,409
808,685;23300,818;    0,185;   -2,500
809,250;22781,151;    0,004;   -0,500
809,815;23111,757;    1,913;    0,682
810,380;23657,727;   -0,269;    1,591
810,945;24140,697;   -1,087;    2,045
811,510;23287,393;    2,094;    1,591
812,075;23020,363;   -0,633;   -1,409
812,640;23024,423;    2,003;    1,409
813,204;23131,666;    0,822;   -0,227
813,769;23654,544;    2,094;   -0,045
814,334;22993,150;    0,458;    0,864
814,898;23054,665;    0,367;    0,591
815,463;22910,271;    1,276;   -0,773
816,027;22898,696;   -0,724;   -2,318
816,592;22989,483;    0,640;   -2,045
817,156;22542,907;    2,094;    1,136
817,721;22346,786;    4,276;    2,318
818,285;22292,938;    2,912;    1,500
818,849;22998,362;   -1,451;    1,682
819,414;22908,786;   -0,269;    2,955
819,978;22476,574;   -1,269;    1,773
820,542;23040,089;    2,003;    0,500
821,106;22721,967;   -0,815;    0,682
821,670;22787,573;   -0,815;    2,591
822,234;22535,997;   -0,270;    1,409
822,798;21923,058;    0,003;    0,500
823,362;21857,391;   -0,633;    4,227
823,926;21180,179;    0,094;    1,136
824,490;21381,785;   -0,997;   -0,682
825,054;21792,936;   -0,088;   -1,136
825,618;21464,906;   -1,542;   -1,500
826,181;21405,148;    0,458;   -1,318
826,745;21344,027;    1,367;   -1,045
827,309;21665,542;    1,185;    1,318
827,872;21063,511;    1,367;    0,955
828,436;22038,845;    1,185;   -0,773
828,999;22105,269;   -0,997;    1,227
829,563;20914,147;   -0,179;    1,136
830,126;20706,662;   -0,179;   -0,591
830,690;20727,087;   -1,997;    2,864
831,253;20280,420;   -0,543;    2,227
831,816;20381,026;   -1,906;    0,500
832,380;20284,177;    0,185;    0,864
832,943;20527,510;   -1,361;   -0,500
833,506;20024,571;    2,639;   -1,227
834,069;20773,722;    3,912;   -0,955
834,632;20860,328;    1,730;    1,318
835,195;20800,389;    1,003;    0,955
835,758;19979,631;   -0,997;    1,955
836,321;19818,146;    0,730;   -1,045
836,884;19862,934;   -0,725;   -0,955
837,447;19880,449;   -2,816;    1,773
838,010;20157,418;    0,366;    3,227
838,573;20516,206;   -1,179;    0,773
839,135;20438,267;   -1,361;   -0,955
839,698;19886,418;    1,275;    0,409
840,261;19386,297;    1,003;   -0,227
840,823;19226,357;   -0,543;    0,864
841,386;19564,600;   -0,452;   -2,409
841,948;19405,024;   -1,361;    1,773
842,511;19150,448;    0,912;    1,682
843,073;19266,236;    1,912;    0,227
843,636;19103,751;   -0,361;   -0,227
844,198;19052,629;    0,911;    0,591
844,760;19163,235;    1,093;    1,955
845,322;18752,114;    0,548;    1,136
845,885;19217,993;    0,730;    0,591
846,447;19673,144;   -1,998;    0,227
847,009;19199,568;    1,911;   -0,682
847,571;19528,174;    0,820;   -2,045
848,133;19660,144;   -1,089;   -1,864
848,695;19504,659;   -0,543;    1,409
849,257;19020,174;   -1,089;   -1,682
849,819;19213,143;   -0,998;   -0,409
850,381;19295,568;   -0,725;   -0,864
850,942;19645,901;    1,093;   -0,591
851,504;19567,507;    1,184;    0,227
852,066;19617,476;    1,275;   -1,591
852,628;19134,719;   -0,180;    1,955
853,189;18727,143;    1,638;    2,682
853,751;18833,840;   -0,907;    1,409
854,312;18663,446;   -0,453;   -1,682
854,874;19151,142;   -2,089;   -0,773
855,435;19679,748;   -0,907;   -1,682
855,997;19819,900;   -1,816;   -0,136
856,558;19055,233;    0,366;    1,773
857,119;19174,930;    0,820;    2,864
857,681;18857,354;    0,002;    0,318
858,242;18905,233;    1,911;   -2,136
858,803;19353,930;    0,456;   -0,773
859,364;19970,263;    0,184;   -4,773
859,925;19260,687;   -2,453;   -0,955
860,486;19124,838;   -0,453;   -0,955
861,047;18871,081;   -0,544;   -1,227
861,608;18725,959;   -1,089;   -0,773
862,169;18824,565;    0,638;   -0,045
862,730;18562,535;    0,456;    1,409
863,291;18821,959;   -0,635;   -0,500
863,852;19245,201;   -0,635;    1,955
864,412;18656,807;   -0,271;   -0,864
864,973;17228,686;   -0,089;    0,500
865,534;17092,746;   -1,726;    0,227
866,094;18588,443;    1,820;    0,227
866,655;18262,776;    1,274;    3,318
867,215;18540,201;    0,274;    0,136
867,776;18366,625;    0,547;   -0,136
868,336;18480,503;   -1,453;    0,136
868,897;17902,655;    2,638;    1,682
869,457;17647,170;    1,365;    0,318
870,017;17892,503;    0,547;   -1,227
870,578;18407,291;   -0,817;    0,773
871,138;18124,988;   -2,089;   -0,955
871,698;17678,048;   -0,817;   -1,318
872,258;17537,563;   -0,453;   -2,864
872,818;17912,896;    2,729;    0,045
873,378;17868,048;    0,638;    1,045
873,938;17433,290;    0,547;    0,500
874,498;17797,532;    0,274;   -1,955
875,058;17647,866;    2,183;    1,773
875,618;17504,108;    1,910;   -2,682
876,177;17435,896;    1,274;    0,136
876,737;17046,684;   -0,090;    1,955
877,297;17034,471;    0,183;    1,955
877,856;17011,714;   -0,362;    0,318
878,416;17000,956;    1,183;   -0,136
878,976;17213,198;   -1,817;    0,409
879,535;17403,077;    0,092;    3,136
880,095;17119,319;   -0,544;    0,045
880,654;17235,652;   -1,090;    1,318
881,213;17287,986;    2,456;    1,500
881,773;16970,501;    2,637;    2,682
882,332;17288,379;    3,365;    5,136
882,891;17155,531;    3,092;    2,136
883,451;17634,773;   -1,272;    1,682
884,010;17073,106;   -2,908;   -0,409
884,569;17134,076;   -0,999;   -0,045
885,128;17260,864;    2,819;   -1,864
885,687;17359,561;    4,455;    0,682
886,246;17037,257;    1,455;    2,136
886,805;16803,136;    2,455;    2,045
887,364;17122,378;   -0,999;   -0,500
887,922;17495,712;   -1,181;    0,045
888,481;16933,681;   -1,545;    0,591
889,040;17251,469;    1,183;    2,136
889,599;17981,075;    2,455;    1,409
890,157;18051,681;    1,455;    2,409
890,716;17701,196;   -0,090;    0,227
891,274;17516,620;    0,092;   -1,136
891,833;17971,862;    1,546;    0,864
892,391;17845,923;   -0,454;    0,500
892,950;17916,711;    1,819;   -0,773
893,508;18306,498;    0,455;   -0,409
894,067;17668,286;    0,637;    0,136
894,625;17539,528;   -0,636;   -1,500
895,183;17796,771;   -0,363;   -0,682
895,741;17686,013;    1,728;   -1,773
896,299;17521,528;   -0,545;   -2,409
896,858;17721,134;    0,819;   -1,591
897,416;17800,467;    2,728;   -1,318
897,974;17566,255;    1,819;    0,318
898,532;17676,770;    6,091;    2,682
899,089;17562,012;    2,091;   -0,682
899,647;17651,255;   -1,454;    1,318
900,205;17338,406;    1,182;    1,045
900,763;17575,467;   -0,454;    0,227
901,321;17580,527;    2,364;   -1,409
901,878;17020,679;   -1,000;   -0,773
902,436;16850,012;   -1,363;    1,318
902,994;17194,618;    4,728;    3,682
903,551;16703,587;    0,728;    0,409
904,109;17086,739;    0,182;   -1,409
904,666;16639,617;    2,455;    1,045
905,224;16482,951;    0,182;   -0,409
905,781;16233,829;    0,727;   -0,318
906,338;16314,708;   -1,363;    1,045
906,895;16248,223;    0,637;    2,045
907,453;16150,920;    1,727;    1,136
908,010;16229,344;   -0,909;    0,409
908,567;15817,495;    1,273;    0,591
909,124;15362,192;    0,364;   -1,500
909,681;15436,889;   -2,909;    0,682
910,238;15545,041;    0,636;   -1,318
910,795;15907,646;   -0,273;   -1,136
911,352;15542,646;   -2,909;   -2,682
911,909;14919,283;   -1,364;   -0,864
912,466;15444,919;   -3,182;    1,500
913,022;14998,010;   -1,636;    0,500
913,579;15315,101;   -0,909;    2,045
914,136;15020,192;    1,636;    0,955
914,692;15344,828;    0,091;   -1,227
915,249;14902,374;    1,455;    0,409
915,806;15151,828;    0,182;    1,955
916,362;14907,192;    1,909;    1,864
916,918;14481,010;    2,000;    1,045
917,475;14438,101;   -1,182;    0,955
918,031;14499,737;    3,364;   -0,045
918,587;13947,828;   -0,909;   -0,318
919,144;14186,556;   -2,273;    0,227
919,700;14517,737;    1,727;    0,773
920,256;14082,556;    0,727;    0,045
920,812;13693,919;   -0,727;   -1,045
921,368;13698,737;   -1,727;   -1,045
921,924;13320,465;    0,182;   -0,136
922,480;12891,828;   -0,545;    1,227
923,036;13522,010;    1,273;    1,955
923,592;13417,374;    0,455;    0,318
924,148;13338,919;    0,455;   -0,955
924,704;12640,192;   -1,364;   -0,409
925,259;12919,919;   -0,273;    0,591
925,815;12661,556;    1,455;    0,500
926,371;12182,556;    2,909;    1,409
926,926;12063,374;    2,091;    0,591
927,482;11683,192;   -1,364;    0,773
928,037;11560,737;    0,909;    2,045
928,593;11851,374;    1,636;    1,045
929,148;11671,010;   -1,818;   -1,500
929,704;11219,010;   -1,455;   -0,500
930,259;11421,737;    0,091;   -0,136
930,814;10452,737;   -0,818;    1,955
931,369;10114,828;    1,091;   -0,773
931,925; 9998,283;   -0,091;    0,136
932,480; 9937,646;   -2,818;   -2,591
933,035; 9752,192;    0,545;   -0,318
933,590; 9505,646;    0,364;   -1,773
934,145; 9160,556;   -1,364;   -0,318
934,700; 9526,010;    0,455;   -0,591
935,255; 9335,374;   -0,091;    0,045
935,809; 8582,919;    3,182;    0,864
936,364; 7711,556;   -0,455;   -0,136
936,919; 7644,919;    0,455;   -1,773
937,474; 7533,465;    1,455;    0,136
938,028; 7309,646;   -1,636;    1,136
938,583; 6747,556;    1,818;    4,682
939,138; 7043,737;    2,091;    2,136
939,692; 6478,465;    1,636;   -1,136
940,247; 6172,646;   -0,727;   -1,045
940,801; 5690,192;   -0,636;    0,227
941,355; 5579,737;   -0,364;    2,591
941,910; 5216,010;   -0,273;   -2,136
942,464; 5317,192;   -0,818;   -0,318
943,018; 5092,192;    1,000;   -0,227
943,572; 5037,828;    2,545;   -0,682
944,126; 4458,283;    0,091;   -0,409
944,681; 4353,556;    3,091;    0,227
945,235; 4336,192;    1,000;   -0,591
945,789; 4281,101;    0,364;   -1,864
946,342; 4356,737;    0,455;   -0,591
946,896; 4193,556;   -2,273;    0,955
947,450; 3920,828;    1,545;   -0,227
948,004; 4114,374;    1,727;   -0,045
948,558; 4129,465;    0,273;   -0,864
949,111; 4064,646;   -0,273;   -0,318
949,665; 4059,192;    1,636;   -0,682
950,219; 3926,556;   -0,091;   -1,045
950,772; 4009,283;   -1,909;    1,864
951,326; 3916,556;    0,545;   -0,955
951,879; 4041,556;    0,727;   -2,318
952,433; 4044,737;    0,000;    2,227
952,986; 3895,283;    2,909;    0,682
953,539; 3840,101;   -0,273;    0,591
954,093; 3775,919;    0,545;   -1,318
954,646; 3899,192;    0,909;    1,318
955,199; 3719,919;    0,000;   -0,500
955,752; 3596,919;   -0,455;    1,773
956,305; 3557,646;   -0,091;    2,955
956,858; 3697,010;    0,818;   -0,318
957,411; 3883,192;   -0,545;    2,136
957,964; 3707,192;    1,364;    2,136
958,517; 3712,556;   -1,545;    3,136
959,070; 3564,919;   -0,455;    1,955
959,623; 3633,192;    1,091;    1,500
960,176; 3405,101;    1,727;    2,045
960,728; 3356,919;   -2,727;    0,773
961,281; 3411,919;    0,545;    0,500
961,834; 3467,919;   -0,909;    0,864
962,386; 3378,374;    1,727;    1,045
962,939; 3296,374;    0,364;   -0,318
963,491; 3435,192;    0,455;    1,136
964,043; 3331,919;    1,182;    2,409
964,596; 3441,010;   -1,000;    2,227
965,148; 3298,646;   -1,000;    1,773
965,700; 3211,374;    1,091;   -0,227
966,253; 3373,919;   -0,636;    0,318
966,805; 3199,101;   -2,273;    0,773
967,357; 3238,828;    1,091;   -1,500
967,909; 3180,556;    0,455;   -1,227
968,461; 3318,737;    0,545;    3,136
969,013; 3238,192;   -0,182;   -0,864
969,565; 3311,101;   -0,455;   -1,136
970,117; 3364,101;   -0,364;    1,045
970,669; 3212,283;    0,182;   -0,136
971,220; 3091,828;   -0,455;   -1,500
971,772; 3008,465;   -0,636;   -0,318
972,324; 3121,374;    0,091;   -0,500
972,876; 3078,283;    0,818;   -0,045
973,427; 3206,192;    1,909;   -1,045
973,979; 3179,283;   -0,727;   -2,500
974,530; 3223,919;    1,818;    1,318
975,082; 3228,192;   -0,545;    1,682
975,633; 3124,283;    1,091;    1,682
976,184; 3244,919;    0,909;    0,773
976,736; 3034,101;    0,091;    0,227
977,287; 2834,556;   -0,909;   -0,500
977,838; 3026,556;    0,909;   -0,318
978,389; 3072,646;   -1,000;   -0,500
978,940; 2942,101;    0,545;   -0,409
979,491; 2985,646;    0,091;   -0,500
980,042; 2944,737;    0,182;    3,045
980,593; 2997,737;   -2,545;    0,227
981,144; 3044,010;    2,545;   -0,500
981,695; 3007,192;    1,455;    1,500
982,246; 2984,737;   -0,273;    1,045
982,797; 3129,737;   -1,727;    0,682
983,347; 3239,919;    0,364;    0,591
983,898; 3389,010;    3,091;    0,409
984,449; 3225,465;    2,182;    0,773
984,999; 3147,646;    1,455;   -1,136
985,550; 2921,465;    0,182;   -0,318
986,100; 2954,556;   -0,455;   -0,318
986,651; 2996,101;   -0,818;    0,045
987,201; 2991,828;   -1,000;   -0,591
987,751; 3067,556;    0,818;    2,864
988,302; 3028,556;    2,636;    1,500
988,852; 3064,646;    0,455;   -1,136
989,402; 3091,646;    0,091;    0,682
989,952; 3000,374;   -2,182;    0,864
990,502; 3118,101;   -0,091;    0,682
991,052; 3101,646;   -0,727;    0,045
991,602; 2959,737;   -2,909;    1,318
992,152; 2957,010;    0,455;    0,682
992,702; 2939,465;    1,364;   -0,045
993,252; 2869,101;   -3,000;   -0,500
993,802; 2944,010;   -0,273;    1,318
994,352; 3191,283;   -1,545;    1,136
994,901; 3277,737;   -0,182;    3,227
995,451; 3197,737;   -0,182;    0,318
996,000; 3281,556;    1,636;    0,318
996,550; 2984,192;    2,273;    0,227
997,100; 2966,556;    1,273;   -0,045
997,649; 3266,010;    2,182;    0,955
998,198; 2905,192;    1,727;   -1,500
998,748; 3101,737;    1,091;   -2,318
999,297; 3007,828;   -0,818;   -0,409
999,846; 3078,465;    1,000;   -0,773
1000,395; 3121,556;   -0,818;    0,500
1000,945; 3079,556;    1,818;   -0,773
1001,494; 3152,283;    2,364;    0,682
1002,043; 3136,010;    4,636;    0,864
1002,592; 2996,646;   -1,091;    1,955
1003,141; 3138,465;   -0,455;   -0,682
1003,690; 2985,919;    1,727;    0,500
1004,238; 3071,374;    1,455;   -0,045
1004,787; 2721,646;    1,364;    1,227
1005,336; 2955,192;    0,364;    0,682
1005,885; 3086,283;    1,364;   -2,773
1006,433; 3253,828;    0,545;    0,955
1006,982; 3295,646;    0,455;    1,682
1007,531; 3199,919;   -1,818;   -0,227
1008,079; 3178,828;   -2,273;    0,500
1008,627; 3321,828;   -1,455;    0,409
1009,176; 3050,465;    0,000;   -1,955
1009,724; 3101,556;    1,091;    0,864
1010,273; 3135,737;    1,273;    0,500
1010,821; 3251,192;    0,091;    1,409
1011,369; 2996,828;   -1,364;    1,318
1011,917; 2978,101;   -1,364;   -0,591
1012,465; 3264,737;    1,273;   -1,591
1013,013; 3378,556;    2,091;   -1,682
1013,561; 3233,374;    0,455;   -0,773
1014,109; 3293,374;   -1,909;    1,682
1014,657; 3167,646;    0,364;    0,591
1015,205; 3302,010;    1,636;   -0,955
1015,753; 3342,556;   -0,545;   -1,409
1016,301; 3374,556;   -2,636;    3,045
1016,848; 3378,556;   -1,273;    0,409
1017,396; 3414,556;    2,545;    0,045
1017,944; 3535,646;    1,182;    1,864
1018,491; 3301,374;    0,273;    1,409
1019,039; 3422,828;    0,455;    0,591
1019,586; 3362,556;   -1,364;    1,682
1020,134; 3469,465;    0,455;    1,500
1020,681; 3490,919;    0,182;   -1,136
1021,228; 3514,919;    2,909;   -2,227
1021,776; 3329,101;    1,182;   -1,136
1022,323; 3550,556;    0,455;    0,773
1022,870; 3475,828;   -1,000;   -0,045
1023,417; 3362,374;    2,636;    1,864
1023,964; 3528,283;    2,636;    1,227
1024,511; 3361,101;    1,000;    0,773
1025,058; 3171,283;    3,182;   -0,045
1025,605; 3219,010;   -2,273;    3,136
1026,152; 3430,828;    1,727;   -0,591
1026,699; 3159,101;    1,818;    1,318
1027,245; 3332,737;   -0,091;    0,318
1027,792; 3574,192;   -1,000;    1,409
1028,339; 3426,010;    2,364;   -0,045
1028,885; 3289,283;    1,000;   -0,227
1029,432; 3228,101;   -0,091;    0,227
1029,978; 3271,556;   -1,000;   -1,591
1030,525; 3201,101;    1,000;    0,409
1031,071; 3444,465;   -1,364;    1,136
1031,618; 3521,556;    0,364;    1,682
1032,164; 3327,737;   -0,091;    3,045
1032,710; 3353,101;    1,636;   -1,500
1033,256; 3286,283;   -0,636;   -0,136
1033,803; 3279,374;   -0,545;    1,500
1034,349; 2991,374;   -1,364;    0,136
1034,895; 3149,828;    0,000;   -0,318
1035,441; 3131,556;   -0,818;    0,318
1035,987; 3110,374;   -2,364;   -0,682
1036,533; 3104,374;   -1,455;   -0,955
1037,078; 3305,374;    1,455;    1,682
1037,624; 3145,646;    2,455;   -0,955
1038,170; 3195,283;    0,455;   -0,318
1038,716; 3084,737;    1,636;   -0,409
1039,261; 3013,919;   -2,273;   -0,773
1039,807; 2943,646;   -0,091;    3,409
1040,352; 2994,646;   -1,909;   -0,318
1040,898; 3038,283;   -1,545;   -0,682
1041,443; 2962,465;   -1,455;   -2,591
1041,989; 2955,374;    1,091;    1,591
1042,534; 2849,465;   -0,364;    2,591
1043,079; 2976,646;    2,909;    0,955
1043,625; 2760,374;    1,818;    0,500
1044,170; 2798,101;   -1,364;    1,045
1044,715; 3041,465;    2,455;    0,955
1045,260; 2862,646;    2,182;   -0,955
1045,805; 2922,737;    1,182;   -0,591
1046,350; 2854,828;    1,364;   -0,409
1046,895; 2789,283;    2,909;    1,591
1047,440; 2737,374;    5,364;    0,409
1047,985; 2668,010;    2,818;   -0,955
1048,530; 2583,101;    1,545;    1,227
1049,074; 2639,828;    0,000;    0,318
1049,619; 2628,010;   -1,364;    1,955
1050,164; 2411,737;    0,455;    0,227
1050,708; 2436,192;   -0,455;    0,045
1051,253; 2810,192;    1,273;   -2,227
1051,797; 2524,374;    0,818;   -1,318
1052,342; 2556,737;   -1,182;    1,045
1052,886; 2541,919;    0,364;   -1,409
1053,430; 2410,646;   -1,364;    0,136
1053,975; 2437,101;   -0,818;   -0,318
1054,519; 2395,010;   -0,727;    3,227
1055,063; 2403,646;    0,909;    1,318
1055,607; 2285,919;   -0,182;    0,227
1056,151; 2338,010;    2,909;    1,682
1056,695; 2262,919;    2,273;   -1,136
1057,239; 2322,374;   -1,727;   -0,682
1057,783; 2329,010;    0,818;   -1,500
1058,327; 2257,465;    0,000;    1,409
1058,871; 2488,828;   -0,545;    1,318
1059,415; 2189,646;   -0,818;   -0,045
1059,958; 2440,374;    1,455;    2,591
1060,502; 2171,101;   -1,000;   -0,773
1061,046; 2094,919;    0,364;   -0,955
1061,589; 2081,737;   -3,000;   -1,136
1062,133; 1954,828;   -1,273;    1,864
1062,676; 1882,828;    1,182;    0,864
1063,220; 1883,919;    1,091;    0,500
1063,763; 1897,010;    0,909;    1,136
1064,306; 1984,010;   -0,909;    1,864
1064,849; 1866,828;   -0,909;    0,591
1065,393; 1876,828;    2,000;   -1,500
1065,936; 1984,101;    0,182;   -0,409
1066,479; 1879,646;   -1,455;    1,318
1067,022; 1893,374;   -0,273;   -0,227
1067,565; 1785,010;   -0,091;   -1,318
1068,108; 1815,283;    0,727;   -0,591
1068,651; 1804,465;   -0,636;    1,409
1069,194; 1738,192;   -0,455;   -1,682
1069,736; 1724,010;   -1,273;    0,955
1070,279; 1714,101;   -1,364;   -0,500
1070,822; 1743,010;   -2,000;   -0,318
1071,364; 1815,465;   -0,364;    1,318
1071,907; 1658,010;   -0,727;    3,227
1072,450; 1561,646;    0,000;   -0,045
1072,992; 1550,465;   -0,273;    3,136
1073,535; 1680,646;    2,091;    2,136
1074,077; 1481,465;   -0,727;    2,045
1074,619; 1436,101;   -1,364;    0,591
1075,161; 1471,919;   -1,091;    1,500
1075,704; 1656,556;    1,545;    1,227
1076,246; 1463,828;   -0,182;    0,682
1076,788; 1387,556;   -0,364;    1,773
1077,330; 1461,828;    1,273;    2,136
1077,872; 1419,737;    0,909;    0,955
1078,414; 1635,646;    2,727;    0,773
1078,956; 1374,192;    1,273;   -0,227
1079,498; 1626,828;    1,636;    0,318
1080,040; 1333,646;    1,909;   -1,318
1080,581; 1276,919;    1,636;   -0,318
1081,123; 1212,192;    0,091;   -0,773
1081,665; 1258,192;   -1,182;   -0,955
1082,206; 1551,374;    1,364;   -0,500
1082,748; 1409,192;    0,727;    2,045
1083,289; 1292,646;   -2,000;    1,318
1083,831; 1195,646;   -0,545;    0,227
1084,372; 1216,737;    0,000;    0,591
1084,913; 1220,101;    1,091;    0,864
1085,455; 1209,010;   -1,909;   -2,045
1085,996; 1172,374;   -2,273;    0,136
1086,537; 1184,283;   -0,091;    0,864
1087,078; 1210,101;   -0,909;   -2,136
1087,619; 1252,465;   -1,273;    0,227
1088,160; 1174,374;    0,000;    1,318
1088,701; 1164,101;   -1,091;    0,682
1089,242; 1089,646;    1,364;   -2,227
1089,783; 1187,374;   -0,273;    1,409
1090,324; 1161,283;    0,455;    0,682
1090,865; 1042,465;    2,727;   -0,409
1091,405; 1013,828;    0,727;    2,227
1091,946; 1043,737;    0,182;   -0,955
1092,487;  968,101;    0,818;   -1,409
1093,027; 1125,919;   -1,364;   -1,500
1093,568;  987,374;   -0,364;    1,227
1094,108; 1075,737;    0,273;    1,773
1094,649; 1012,283;   -1,182;    0,136
1095,189;  957,828;   -0,636;   -0,682
1095,729;  900,646;   -0,091;    0,955
1096,269;  913,646;    0,727;   -0,955
1096,810; 1225,010;   -1,364;    0,500
1097,350; 1035,283;    1,364;   -0,773
1097,890;  946,101;    0,364;    1,227
1098,430; 1186,828;    2,364;    2,864
1098,970; 1064,828;    2,182;    1,682
1099,510;  948,101;    0,545;   -2,318
1100,050;  863,556;    1,000;   -1,591
1100,589;  820,737;   -0,727;   -0,318
1101,129;  943,101;    0,818;   -0,955
1101,669; 1089,556;    1,727;    2,136
1102,209;  920,556;   -0,091;    2,227
1102,748;  869,828;    0,000;    0,955
1103,288;  856,283;    1,273;   -1,227
1103,827;  887,465;    3,091;   -2,227
1104,367;  770,101;   -0,091;   -2,409
1104,906;  740,465;    1,364;   -1,136
1105,445;  794,374;    0,636;   -1,136
1105,985;  733,556;   -0,727;    1,500
1106,524;  785,919;   -1,727;   -0,682
1107,063;  763,828;   -2,727;    1,409
1107,602;  732,737;   -1,909;   -1,500
1108,141;  658,556;   -1,909;    1,500
1108,680;  757,374;   -3,455;   -0,591
1109,219;  693,192;   -0,909;   -0,500
1109,758;  699,556;    0,455;    0,682
1110,297;  678,283;    1,000;   -0,682
1110,836;  618,283;   -0,727;    0,955
1111,375;  786,192;   -2,545;    0,409
1111,913;  790,737;   -1,000;    0,773
1112,452;  726,646;   -0,273;    0,136
1112,991;  604,283;    1,091;    1,955
1113,529;  575,010;   -0,818;   -0,045
1114,068;  655,101;   -0,273;    2,955
1114,606;  550,828;   -0,364;   -0,955
1115,144;  709,010;   -1,273;    1,045
1115,683;  640,192;   -0,727;    0,318
1116,221;  689,919;   -0,455;   -0,864
1116,759;  590,465;    0,636;   -0,864
1117,297;  797,646;    0,000;    1,864
1117,836;  602,192;   -2,182;   -1,227
1118,374;  600,737;    0,182;   -0,682
1118,912;  545,737;    0,909;    2,682
1119,450;  538,646;    1,000;    0,864
1119,988;  590,919;    1,545;    2,136
1120,525; 1044,374;    5,091;    3,318
1121,063;  730,192;    1,182;    1,864
1121,601;  541,646;   -0,909;   -1,227
1122,139;  506,556;   -0,727;   -2,045
1122,676;  700,010;   -0,727;    2,773
1123,214;  630,101;   -1,182;    4,409
1123,751;  435,101;    1,727;    2,227
1124,289;  576,919;   -0,091;   -0,409
1124,826;  441,283;    1,727;    0,227
1125,364;  369,828;    1,727;   -0,955
1125,901;  558,010;    1,182;    1,227
1126,438;  673,828;    0,818;    0,955
1126,975;  393,737;   -0,727;   -0,773
1127,513;  460,101;    0,273;    2,136
1128,050;  372,646;    1,636;   -0,682
1128,587;  477,374;    2,000;   -0,227
1129,124;  506,465;    0,091;    1,318
1129,661;  375,374;    0,273;    0,227
1130,198;  550,283;    1,636;    0,773
1130,734;  479,010;    0,182;    1,409
1131,271;  336,283;   -0,909;    0,864
1131,808;  512,556;    2,909;    3,045
1132,345;  391,556;    1,545;    0,318
1132,881;  256,646;   -1,545;   -1,864
1133,418;  397,192;    0,727;   -1,136
1133,954;  335,010;    2,455;   -2,682
1134,491;  410,192;    1,364;   -0,773
1135,027;  308,374;    2,364;    0,864
1135,564;  397,465;    0,273;    2,955
1136,100;  385,101;    0,364;    2,136
1136,636;  276,646;   -1,273;   -1,045
1137,172;  367,101;    0,000;   -1,045
1137,708;  290,374;   -1,364;   -1,045
1138,245;  290,828;    1,273;   -1,227
1138,781;  238,646;    1,091;   -3,318
1139,317;  310,919;    1,273;   -1,409
1139,852;  295,010;    3,091;    0,136
1140,388;  409,646;   -1,182;   -0,409
1140,924;  298,919;   -1,091;   -2,227
1141,460;  242,010;   -1,636;    0,136
1141,996;  169,737;   -1,364;    2,682
1142,531;  211,556;    1,364;    3,318
1143,067;  430,465;    1,182;    1,045
1143,602;  486,010;   -0,091;   -0,318
1144,138;  331,010;   -2,636;    1,045
1144,673;  209,101;   -1,455;    1,409
1145,209;  275,919;   -1,909;   -0,318
1145,744;  189,374;   -0,727;    0,864
1146,279;  319,010;    1,818;   -0,136
1146,815;  242,010;    1,545;   -2,682
1147,350;  280,828;   -1,364;    0,045
1147,885;  195,192;   -0,818;   -1,318
1148,420;  191,283;   -2,273;    0,773
1148,955;  171,828;   -1,727;    1,864
1149,490;  201,101;   -0,909;   -1,591
1150,025;  181,465;    0,455;   -1,773
1150,560;  291,101;    1,091;   -0,955
1151,094;  254,192;    1,455;   -0,591
1151,629;  260,828;    1,636;    0,864
1152,164;  183,465;    1,364;    1,318
1152,698;  148,010;   -0,182;   -0,136
1153,233;  109,192;    0,091;   -0,682
1153,767;  159,192;   -3,000;   -2,318
1154,302;  211,101;   -1,455;    1,773
1154,836;  208,828;   -0,455;   -2,136
1155,371;  265,101;   -1,364;    3,682
1155,905;  212,283;   -0,636;    1,682
1156,439;  178,101;   -0,636;   -0,500
1156,973;  206,828;    0,364;    0,318
1157,507;  144,283;   -0,364;    0,682
1158,042;  164,556;   -0,727;    1,045
1158,576;  215,646;    0,182;    1,773
1159,110;  212,283;   -0,818;    2,409
1159,643;  188,556;    0,636;   -0,045
1160,177;  122,556;   -1,545;    1,500

