
Integration time [ms]:   0,040
Averaging Nr. [scans]: 11
Smoothing Nr. [pixels]: 0
Data measured with spectrometer [name]: 7318044SP
Wave   ;Sample   ;Dark     ;Reference
[nm]   ;[counts] ;[counts] ;[counts] 

186,757;   12,617;   31,551;    1,318
187,357;   33,442;   22,551;    0,955
187,958;   10,597;   15,460;   -1,591
188,558;   44,161;    8,915;   -1,227
189,159;   24,626;    6,733;   -4,500
189,759;  -11,314;    7,278;   -3,591
190,360;  -19,202;    2,824;   -2,136
190,960;   10,848;    2,915;   -4,136
191,560;   22,425;    3,189;   -6,591
192,161;  217,179;    4,372;   -3,500
192,761;   84,913;    4,010;   -3,227
193,361;   36,927;    1,556;   -3,773
193,962;   74,785;    2,010;   -2,682
194,562;    8,867;    1,189;   -3,955
195,162;   18,528;   -2,448;   -2,227
195,762;  127,885;   -3,176;   -0,045
196,362;   80,169;    1,370;   -2,500
196,963;   -0,422;    2,006;   -0,864
197,563;   29,253;    1,551;   -0,955
198,163;   -6,685;    0,096;   -0,682
198,763;    1,694;    1,733;   -0,500
199,363;   49,212;    3,096;   -0,500
199,963;   25,605;    0,369;    0,409
200,563;    8,647;    2,823;   -1,409
201,163;   -3,308;    3,277;   -0,227
201,763;   31,324;    3,732;    0,318
202,363;    5,302;    1,459;    1,500
202,963;   35,196;    1,459;    1,045
203,563;   77,580;    0,277;    0,500
204,162;   20,674;    2,096;   -1,864
204,762;    8,804;    0,550;    0,591
205,362;  -15,242;    3,004;    1,955
205,962;    7,055;    3,096;    1,955
206,562;   15,508;    1,823;    2,318
207,161;    0,602;   -0,087;    0,318
207,761;   62,357;    1,277;    2,409
208,361;   -3,597;   -0,268;    1,409
208,960;   27,383;    0,459;    1,500
209,560;   21,989;    1,277;    1,591
210,160;   32,703;    0,550;    1,864
210,759;   10,907;    4,186;    1,227
211,359;    3,457;    1,459;    1,045
211,958;   96,070;    1,277;    2,045
212,558;   97,246;    1,732;    1,864
213,157;   32,258;    1,822;    1,500
213,757;  165,917;    3,822;   -0,227
214,356;   53,206;    1,277;   -0,409
214,956;  149,422;    3,095;    0,409
215,555;   40,376;    2,095;    2,136
216,154;    8,134;   -2,723;   -0,591
216,754;    9,132;    0,277;    0,773
217,353;   23,628;   -0,268;   -1,045
217,952;  -23,453;   -0,178;    0,318
218,552;   40,638;    1,368;   -0,773
219,151;    4,771;    0,277;    0,955
219,750;    1,031;    0,004;   -0,227
220,349;   -9,297;   -0,451;    1,045
220,948;   47,898;   -1,360;    1,136
221,548;    3,360;    0,913;    1,227
222,147;   11,841;   -0,087;   -0,409
222,746;   78,441;   -0,451;   -0,955
223,345;   36,172;    0,731;    0,500
223,944;   33,488;   -0,451;    0,773
224,543;   32,385;    1,004;   -1,409
225,142;   19,978;    0,094;    0,136
225,741;   20,828;   -0,814;    1,045
226,340;   18,590;   -0,451;   -0,955
226,939;   68,930;   -0,996;   -0,136
227,538;   11,128;   -0,360;   -0,773
228,137;   77,892;   -0,814;    0,864
228,735;   45,073;   -0,541;    1,227
229,334;  -13,020;   -0,905;   -0,227
229,933;   71,407;    0,459;    0,591
230,532;   68,214;    1,186;   -0,409
231,131;  105,419;    1,732;    0,318
231,729;   43,584;   -2,450;   -2,318
232,328;   15,551;   -0,723;   -1,500
232,927;   16,565;    1,004;   -0,500
233,525;   10,998;    3,640;    0,045
234,124;   28,729;    2,368;   -1,591
234,723;   -4,718;    0,913;   -1,045
235,321;  -15,916;    2,277;    0,136
235,920;    0,131;    1,186;   -1,227
236,518;   73,114;    3,459;    0,318
237,117;   10,876;    0,004;   -0,227
237,715;   21,314;    0,640;   -0,500
238,314;   23,217;   -0,087;   -2,318
238,912;   76,702;   -0,723;   -1,409
239,510;   36,153;    0,459;   -1,227
240,109;   84,861;    0,004;    3,773
240,707;   63,835;   -0,996;    1,227
241,305;    0,327;    0,550;    0,136
241,904;   26,963;   -0,178;   -2,045
242,502;   92,511;   -0,632;   -0,227
243,100;   40,585;   -0,087;   -0,955
243,698;    1,205;    0,732;    1,682
244,297;   21,527;   -0,632;    0,682
244,895;   20,900;   -0,269;   -2,318
245,493;   85,970;    2,186;   -0,591
246,091;   98,299;    1,368;   -1,318
246,689;   51,389;    1,004;    0,591
247,287;   41,176;    0,822;   -1,136
247,885;   25,830;   -1,451;    1,227
248,483;   10,962;    1,822;   -0,500
249,081;   42,090;    0,185;    1,591
249,679;   48,935;   -0,178;    1,682
250,277;    5,188;   -1,723;    0,864
250,875;   52,404;   -1,087;   -1,045
251,473;   20,998;   -1,178;    0,500
252,071;   55,690;    1,459;    1,045
252,669;   23,852;   -1,814;    0,318
253,267;    5,974;   -0,087;    0,773
253,864;   23,903;   -0,360;    0,682
254,462;   76,918;    1,640;    1,591
255,060;    1,368;   -0,269;    1,318
255,658;    6,579;    0,822;   -0,136
256,255;   22,811;    0,186;   -2,045
256,853;   49,830;   -0,269;    1,409
257,451;   33,604;    0,822;    1,864
258,048;  212,327;    1,822;    1,864
258,646;  103,827;    1,731;   -1,045
259,243;  142,558;   -0,087;    2,227
259,841;   84,731;   -0,814;    0,318
260,438;   25,255;   -0,087;    0,864
261,036;   74,285;   -1,905;    1,409
261,633;   28,945;   -0,087;    2,227
262,231;   12,789;    2,731;   -0,045
262,828;    2,915;   -0,905;    1,136
263,425;   28,689;    0,913;   -0,591
264,023;   32,096;    0,186;    0,045
264,620;  111,007;   -0,360;   -0,318
265,217;  171,035;   -2,087;    3,136
265,815;   53,452;   -1,905;    2,136
266,412;  107,673;    0,731;    0,136
267,009;  104,694;   -1,451;    0,773
267,606;  156,190;    0,822;   -0,955
268,203;   66,501;   -0,269;   -0,591
268,801;   78,154;    1,731;    0,591
269,398;   34,591;   -0,360;    2,500
269,995;  118,006;    0,277;    1,591
270,592;   87,738;   -0,632;   -0,500
271,189;   37,076;    0,186;    0,409
271,786;   22,811;   -0,632;    1,227
272,383;  143,651;   -1,087;    0,227
272,980;   83,120;    0,277;    0,318
273,577;   54,000;    0,004;    1,227
274,174;   41,852;    0,822;    2,591
274,771;  125,215;   -0,814;   -0,773
275,367;  344,090;    2,277;    1,409
275,964;  200,162;    0,731;   -0,500
276,561;   83,491;    1,549;   -1,045
277,158;   26,935;    0,095;   -1,773
277,755;  179,272;    2,185;    0,409
278,351;  124,826;   -0,451;   -1,500
278,948;  149,604;   -0,815;    0,045
279,545;  121,987;   -1,360;    2,318
280,141;  206,601;   -1,723;   -2,045
280,738;  203,395;   -0,451;   -0,136
281,334;   88,045;   -1,633;    0,591
281,931;   85,409;   -0,087;   -1,318
282,528;  161,071;    0,822;   -0,500
283,124;  207,282;   -1,087;   -0,500
283,721;  203,496;   -0,451;    1,409
284,317;  124,289;    0,185;    2,500
284,913;  228,831;   -1,360;    0,591
285,510;  367,376;    0,640;   -0,318
286,106;  258,970;   -2,269;   -0,955
286,703;  156,843;   -0,360;    1,955
287,299;  127,549;   -1,451;   -0,591
287,895;  117,583;    0,822;   -1,045
288,491;  108,409;    0,186;    2,136
289,088;  188,387;   -2,360;    2,409
289,684;  231,215;   -1,723;    1,500
290,280;  350,961;    0,368;    0,682
290,876;  324,430;    1,822;    5,500
291,472;  275,784;    1,276;    2,227
292,068;  304,335;    1,367;    0,227
292,665;  232,913;    2,095;    0,773
293,261;  165,169;    0,276;    2,136
293,857;  338,505;    2,913;    2,136
294,453;  280,679;    3,550;    0,955
295,049;  490,053;   -0,268;    1,955
295,644;  361,867;    0,095;    0,136
296,240;  258,002;   -0,905;   -0,136
296,836;  402,437;   -0,995;    0,318
297,432;  560,087;    1,096;   -0,500
298,028;  613,058;    0,732;    0,773
298,624;  485,712;    1,459;    1,864
299,220;  491,128;    2,368;    0,591
299,815;  503,109;    1,005;   -0,409
300,411;  628,963;    0,914;    1,773
301,007;  778,146;    1,368;    0,227
301,602;  620,408;   -0,541;   -2,318
302,198;  778,137;    0,732;   -0,773
302,794;  627,731;    1,187;   -0,500
303,389;  598,188;   -1,177;    1,045
303,985;  672,706;    0,550;    1,409
304,580;  807,094;    1,459;    1,591
305,176;  716,205;   -3,086;    0,136
305,771;  599,516;   -1,268;   -1,227
306,367; 1032,219;    4,095;    0,136
306,962;  788,408;    0,641;    1,500
307,558;  808,438;   -0,450;    0,136
308,153;  908,115;    1,095;   -1,136
308,748;  669,806;   -0,814;    1,682
309,344; 1086,432;   -0,632;   -1,318
309,939; 1100,818;   -1,905;   -1,318
310,534;  738,579;   -0,086;   -1,682
311,130;  679,686;    0,459;   -2,500
311,725;  611,421;    1,004;   -0,500
312,320;  657,561;    2,459;    0,045
312,915;  787,217;    1,459;   -1,045
313,510; 1000,180;    1,550;   -0,500
314,105;  697,877;    1,096;    1,409
314,700;  502,248;   -3,086;   -1,045
315,295;  579,003;   -0,904;    0,045
315,890;  491,224;    1,277;    0,864
316,485;  590,150;   -0,359;   -0,318
317,080;  481,410;   -3,086;    1,591
317,675;  794,926;    2,005;   -0,682
318,270;  976,141;    5,550;    3,318
318,865;  838,322;    3,278;    3,045
319,460;  653,559;   -0,904;    0,591
320,055;  477,192;   -0,541;   -1,227
320,650;  459,612;   -1,995;   -0,591
321,244;  459,742;   -0,177;   -1,409
321,839;  482,432;   -1,541;   -0,227
322,434;  539,743;   -1,086;   -1,591
323,029;  442,722;    1,732;    1,591
323,623;  394,351;    1,550;    0,773
324,218;  569,716;    2,368;    1,409
324,812;  503,732;    1,096;    1,591
325,407;  519,105;   -0,814;    2,045
326,002;  645,530;    0,277;   -0,409
326,596;  587,790;    0,914;    1,318
327,191;  439,799;    0,823;   -1,045
327,785;  433,972;   -0,813;   -0,227
328,379;  479,556;    1,368;    0,136
328,974;  554,496;    0,914;   -3,955
329,568;  580,582;    0,186;   -2,409
330,163;  681,482;    2,096;    1,045
330,757;  550,122;    2,459;    1,591
331,351;  507,415;    0,459;    0,682
331,945;  527,094;    0,914;    1,409
332,540;  715,507;   -1,723;   -0,591
333,134;  724,639;   -1,086;    0,773
333,728;  740,022;    0,005;    0,318
334,322;  676,222;   -1,177;   -0,864
334,916;  671,163;    0,277;    0,955
335,510;  934,444;   -0,450;   -0,136
336,105;  991,889;   -1,086;    1,591
336,699;  887,692;   -1,086;    0,591
337,293;  960,495;   -1,723;    0,318
337,887;  957,137;   -2,723;    1,955
338,481; 1200,082;    0,459;    0,591
339,074; 1414,435;   -0,359;    2,682
339,668; 1427,764;   -1,632;    1,227
340,262; 2164,397;    1,732;    3,227
340,856; 1726,324;    1,822;   -0,682
341,450; 1355,574;    1,004;    1,864
342,044; 1604,404;    1,459;    0,136
342,637; 1779,952;    0,913;   -2,136
343,231; 1887,665;   -2,360;    0,682
343,825; 1727,054;   -1,086;   -0,591
344,419; 1826,554;   -1,995;    0,500
345,012; 2440,122;    2,459;    4,045
345,606; 2309,267;    4,641;    1,591
346,199; 2077,468;   -1,813;   -0,227
346,793; 2188,705;    1,914;    2,045
347,386; 2152,609;   -0,813;   -1,136
347,980; 2101,634;   -0,268;   -0,045
348,573; 2226,589;    2,278;    0,409
349,167; 2405,633;    5,278;    4,773
349,760; 2577,847;    2,914;    2,682
350,354; 2503,108;   -0,813;    1,136
350,947; 2519,248;    1,096;    1,682
351,540; 2313,823;   -0,358;   -1,409
352,134; 2245,696;    1,096;    1,136
352,727; 2346,902;   -0,086;    1,136
353,320; 2363,822;    0,005;    0,591
353,913; 2215,949;   -1,995;    1,864
354,507; 2452,590;    0,823;   -1,227
355,100; 2453,766;    0,460;    0,864
355,693; 2562,551;    2,005;    2,409
356,286; 2350,513;    0,823;    2,773
356,879; 2360,758;   -0,722;    1,227
357,472; 2187,973;   -0,904;    1,500
358,065; 2305,201;   -0,722;    2,500
358,658; 2212,212;   -0,540;    2,318
359,251; 2034,668;   -1,631;   -0,591
359,844; 2031,834;   -1,904;   -1,136
360,437; 2171,738;   -2,995;    0,045
361,030; 2135,092;    1,369;   -0,682
361,623; 1958,825;    2,824;    0,318
362,215; 2118,683;   -0,086;    2,045
362,808; 1938,689;   -2,358;   -1,682
363,401; 1936,060;   -2,449;    0,136
363,994; 2080,294;   -0,631;   -1,500
364,586; 1864,207;    0,824;   -1,500
365,179; 1836,222;   -0,449;   -1,136
365,772; 1550,435;   -1,995;    2,045
366,364; 1671,625;    1,915;   -3,227
366,957; 1837,674;    2,279;   -0,045
367,549; 1716,512;    2,188;   -0,864
368,142; 1649,035;    1,825;   -1,500
368,734; 1636,929;    0,734;   -2,136
369,327; 1568,093;    1,643;   -0,500
369,919; 1570,760;   -1,538;    0,409
370,512; 1605,565;   -1,083;   -0,500
371,104; 1723,729;   -0,901;    1,591
371,696; 1783,485;    1,191;   -0,955
372,289; 1649,942;    0,373;    1,136
372,881; 1595,627;   -2,080;    1,318
373,473; 1427,269;   -2,170;    1,136
374,066; 1515,202;   -0,169;    0,500
374,658; 1460,903;    0,378;    1,136
375,250; 1433,887;    0,653;   -1,409
375,842; 1438,118;    0,473;   -0,045
376,434; 1352,092;   -0,435;   -0,409
377,026; 1505,214;    0,204;   -2,500
377,618; 1460,375;   -0,158;   -0,682
378,210; 1346,018;   -0,338;   -1,955
378,802; 1241,479;    0,754;   -0,591
379,394; 1671,482;    1,846;    0,682
379,986; 1520,907;    1,393;   -0,955
380,578; 1438,760;   -0,153;    0,773
381,170; 1552,515;   -0,972;    0,045
381,762; 1419,269;    0,755;    1,409
382,354; 1402,617;   -0,065;   -1,318
382,945; 1339,634;   -2,976;    0,318
383,537; 1354,821;   -2,705;   -1,955
384,129; 1382,968;   -2,160;   -1,136
384,721; 1496,990;   -0,252;    0,955
385,312; 1370,601;   -0,161;   -0,955
385,904; 1530,180;   -2,706;    1,591
386,496; 1254,240;   -0,979;    1,045
387,087; 1433,548;    1,022;    2,500
387,679; 1354,067;   -1,160;    0,045
388,270; 1412,137;    2,840;    2,045
388,862; 1363,637;    1,295;   -0,318
389,453; 1223,173;   -0,887;    1,045
390,045; 1344,142;   -0,705;   -2,682
390,636; 1300,633;    0,204;   -0,591
391,227; 1275,300;   -0,523;   -0,045
391,819; 1340,497;    0,204;    0,773
392,410; 1565,216;    1,022;    0,045
393,001; 1388,856;   -0,979;   -1,591
393,593; 1492,264;    1,930;   -0,045
394,184; 1504,858;    1,385;   -0,409
394,775; 1294,253;    1,839;    2,136
395,366; 1358,735;    1,385;    0,773
395,957; 1510,157;    0,113;    0,136
396,548; 1449,363;   -0,342;    2,682
397,139; 1641,144;   -2,433;    0,591
397,730; 1473,339;   -1,888;    0,955
398,321; 1475,089;   -1,252;    0,955
398,912; 1415,490;   -0,615;    0,136
399,503; 1499,428;   -3,524;   -1,409
400,094; 1384,109;    0,294;    1,682
400,685; 1360,934;   -0,433;    0,045
401,276; 1276,108;    0,930;   -0,955
401,867; 1320,307;   -0,888;    0,773
402,458; 1294,985;   -2,251;   -2,318
403,048; 1425,859;    1,112;    0,591
403,639; 1253,467;    0,840;    0,864
404,230; 1511,983;    2,476;    0,318
404,821; 1529,610;   -0,615;    0,045
405,411; 1406,929;    1,203;   -2,591
406,002; 1212,437;   -1,252;   -1,136
406,592; 1452,642;    2,294;    0,045
407,183; 1306,339;    0,566;   -1,500
407,774; 1215,751;    3,475;   -0,136
408,364; 1208,621;    0,930;    0,409
408,954; 1287,055;    0,384;    1,227
409,545; 1253,052;    1,021;    1,045
410,135; 1100,987;    1,293;    0,500
410,726; 1052,154;    1,838;    0,318
411,316; 1278,181;    0,111;    0,773
411,906; 1004,323;   -0,253;   -0,409
412,497;  938,502;   -1,070;   -0,045
413,087;  897,837;   -1,980;   -0,227
413,677;  858,821;   -0,707;    3,864
414,267;  794,605;    0,656;    1,409
414,857;  706,974;   -2,980;    4,227
415,448;  713,236;    0,839;    0,500
416,038;  697,453;    0,020;   -0,591
416,628;  711,455;   -0,889;    0,409
417,218;  776,709;    0,565;    3,318
417,808;  940,897;    0,202;   -0,409
418,398;  728,474;    0,020;    2,682
418,988;  548,357;    2,020;    0,591
419,578;  620,705;   -0,707;    1,409
420,168;  579,143;   -1,343;   -0,955
420,757;  718,631;   -1,343;   -1,500
421,347;  558,468;    0,111;   -0,227
421,937;  490,405;    2,292;    1,409
422,527;  623,144;    0,838;   -0,773
423,116;  765,594;   -0,253;   -0,045
423,706;  397,939;   -1,889;    0,318
424,296;  298,392;    1,384;    0,682
424,885;  476,665;   -0,071;   -3,045
425,475;  418,496;    1,474;   -2,864
426,065;  256,525;   -0,980;   -0,318
426,654;  222,897;   -0,435;   -0,318
427,244;  550,440;    0,020;    1,409
427,833;  496,706;    1,383;   -0,500
428,423;  291,038;   -0,526;    1,136
429,012;  303,244;   -0,344;   -1,136
429,601;  430,287;   -1,344;    0,136
430,191;  279,022;    1,292;    4,318
430,780;  146,282;   -0,344;   -0,409
431,369;  369,379;    0,746;   -0,045
431,959;  225,051;   -1,254;    0,500
432,548;  131,721;   -1,163;   -0,045
433,137;   55,459;   -1,254;   -1,318
433,726;  140,178;    0,292;    0,500
434,315;  160,337;   -0,526;    2,409
434,905;  270,859;   -1,254;    1,409
435,494;  252,689;    0,746;    0,955
436,083;   99,879;   -0,981;   -0,955
436,672;  178,981;    0,110;    0,500
437,261;  117,243;    0,292;   -1,955
437,850;  365,294;    1,383;    0,682
438,439;  414,388;    3,291;    1,955
439,027;  502,668;    3,655;    1,773
439,616;  420,353;    2,927;    1,227
440,205;  184,033;    0,200;   -2,136
440,794;  122,176;    2,109;   -0,045
441,383;   40,714;   -1,346;   -0,591
441,971;    4,801;   -2,436;    0,591
442,560;   21,126;    0,563;   -1,773
443,149;  -76,768;    0,379;   -1,318
443,737;  -31,410;   -0,074;   -2,318
444,326;  -11,689;    0,018;    0,318
444,915;   28,428;   -1,982;    0,864
445,503;   34,054;   -2,891;   -0,318
446,092;  290,334;    0,382;    2,136
446,680;  216,711;    0,382;    0,318
447,269;  126,234;   -0,346;   -0,318
447,857;  110,253;    0,018;   -1,773
448,445;   61,471;    0,563;    1,318
449,034;    6,860;   -1,528;   -1,136
449,622;   15,134;   -1,073;    3,500
450,210;  281,082;    2,017;    2,227
450,799;  195,179;    0,290;   -0,591
451,387;  146,945;    1,381;   -0,591
451,975;  133,116;    2,654;    0,864
452,563;  203,888;    3,472;    2,318
453,151;   35,732;   -0,528;   -1,227
453,739;   84,739;   -1,347;    0,136
454,328;  177,606;    2,381;   -2,136
454,916;  109,560;    2,562;   -0,136
455,504;  129,759;    1,017;    1,227
456,092;   23,323;    0,017;   -1,591
456,679;  -13,341;    1,472;    0,682
457,267;  382,404;    4,017;    1,045
457,855;   83,839;    1,017;    1,409
458,443;  -53,776;   -0,165;    1,682
459,031;   90,393;    0,108;    2,409
459,619;   59,714;   -1,801;    2,864
460,206;  -25,247;    0,835;    2,045
460,794;  -32,295;   -2,983;   -0,227
461,382;   13,854;   -0,529;   -0,864
461,970;    8,702;    1,198;    1,864
462,557;  -51,360;   -0,711;   -0,682
463,145;   59,690;   -3,165;   -1,682
463,732;  293,446;    2,016;   -1,045
464,320;   81,135;   -0,075;   -3,045
464,907;  208,551;    2,743;   -0,773
465,495;  123,291;    0,743;   -1,227
466,082;   56,527;   -1,984;   -0,045
466,670;   70,167;   -2,529;    1,227
467,257;  -19,370;   -1,711;    2,045
467,844;   71,396;   -0,075;    0,045
468,432;   37,522;    0,834;    3,500
469,019;    8,335;    0,925;   -1,773
469,606;   83,380;    0,470;    3,682
470,193;  114,928;   -1,439;    0,227
470,780;   69,326;   -2,075;    0,864
471,368;    8,191;   -1,257;   -0,773
471,955;  102,637;    1,379;   -0,682
472,542;   70,510;    0,652;   -1,136
473,129;  -39,479;   -0,166;    0,136
473,716;  -23,789;    1,470;    0,591
474,303;    6,940;    0,652;   -0,864
474,890;   -0,895;   -1,439;   -0,500
475,477;  101,177;   -1,621;    0,409
476,064;   14,749;    1,106;   -1,591
476,650;  129,816;    0,288;    0,318
477,237;   39,998;   -0,258;    0,955
477,824;   15,670;   -1,076;    0,864
478,411;  -58,697;   -1,894;   -0,318
478,997;  -67,585;    0,560;   -0,773
479,584; -107,498;    1,196;   -0,409
480,171;   51,764;   -0,440;   -0,773
480,757;  102,910;    2,651;    0,773
481,344;    7,372;    0,469;    0,409
481,931;  -64,312;    1,105;    1,045
482,517;   52,839;   -1,258;    0,318
483,104;  128,563;    1,106;    2,864
483,690;   -3,707;   -1,804;    0,045
484,276;  -19,202;   -0,895;    0,227
484,863;  174,332;    2,469;    1,136
485,449;   32,542;   -0,077;    0,318
486,035;   -2,151;   -1,986;   -0,136
486,622;   78,011;   -0,895;    0,045
487,208;    1,448;    1,378;    1,500
487,794;  -74,413;    0,741;    0,318
488,380;  -64,042;    0,105;   -1,409
488,967;  -69,280;   -1,168;   -0,409
489,553;  -56,536;   -1,895;   -1,409
490,139;   24,253;    1,559;    0,773
490,725;  -43,470;    0,741;   -0,227
491,311;    0,313;    3,287;    3,045
491,897;  -25,684;   -0,986;    1,500
492,483;  -17,282;    0,105;    1,227
493,069;  409,926;    3,923;    0,864
493,655;  134,155;    1,650;    0,682
494,241;    9,847;    1,377;   -0,955
494,826;   12,099;    0,287;   -1,045
495,412;   72,221;    2,559;   -0,682
495,998;    3,358;   -0,805;   -0,318
496,584;   54,831;    0,377;    1,045
497,169;   70,356;    1,014;   -0,682
497,755;   10,995;    0,650;    1,227
498,341;  137,901;    0,559;    0,318
498,926;  248,158;    1,832;    1,955
499,512;    0,078;    1,286;    2,955
500,097;    4,956;    0,195;   -0,318
500,683;   25,582;   -0,350;    2,136
501,268;  -11,931;   -0,169;   -0,955
501,854;    6,595;   -0,169;    1,227
502,439;   -8,471;   -0,624;   -1,773
503,024;   10,299;    0,195;    0,500
503,610;   46,963;   -0,078;   -0,682
504,195;   -5,724;    0,558;    1,955
504,780;   77,982;    2,922;    1,227
505,366;  164,340;    3,013;    2,864
505,951;  102,703;    0,740;    1,045
506,536;   28,001;   -3,260;   -3,682
507,121;   85,839;    0,285;   -0,318
507,706;   42,478;    2,376;    1,045
508,291;   -2,023;    2,649;    1,136
508,876;    4,239;   -0,988;    2,591
509,461;   78,766;   -0,169;   -0,773
510,046;  143,338;    0,194;    0,318
510,631;  169,323;   -0,351;   -0,773
511,216;  104,577;    2,467;   -0,500
511,801;  220,428;   -0,442;    2,591
512,386;  307,481;    0,740;    0,500
512,971;  379,688;   -2,988;    0,955
513,555;  519,731;   -0,897;   -1,500
514,140;  551,405;   -0,442;   -3,136
514,725;  787,494;   -0,715;   -1,136
515,309;  776,398;   -0,533;    0,318
515,894;  757,094;   -0,624;   -2,227
516,479;  960,012;   -0,624;   -0,955
517,063; 1117,640;    0,376;    1,227
517,648; 1334,644;    1,012;   -1,136
518,232; 1425,446;   -0,261;   -1,409
518,817; 1852,781;   -0,079;    1,682
519,401; 2346,381;    2,194;    0,591
519,985; 2328,010;    1,103;    1,136
520,570; 2623,421;    0,830;   -1,955
521,154; 3174,039;    2,102;    0,591
521,738; 3718,247;   -2,352;    2,409
522,323; 4412,398;   -0,170;    1,682
522,907; 4625,850;    0,466;   -0,136
523,491; 4926,398;    0,557;    0,955
524,075; 5344,915;    2,284;    0,591
524,659; 5860,930;    1,466;    0,591
525,243; 5974,600;    1,739;    0,409
525,827; 6538,249;    0,648;   -0,045
526,411; 7501,384;   -1,989;   -0,136
526,995; 8071,363;   -0,352;    1,409
527,579; 8159,487;   -0,443;   -1,045
528,163; 8773,351;    0,375;   -1,500
528,747; 9087,346;    2,466;   -0,773
529,331; 9668,281;   -0,080;   -1,409
529,915;10119,474;    1,738;    0,955
530,499;10392,625;   -0,807;    1,227
531,082;10402,667;   -0,534;    1,591
531,666;10187,405;    1,374;    0,773
532,250;11016,499;    1,284;    2,682
532,833;11529,370;    0,920;    2,773
533,417;11574,857;   -1,807;    0,864
534,001;11749,814;    1,647;   -0,318
534,584;12527,773;    0,374;    0,500
535,168;12552,498;    0,465;    1,409
535,751;12726,255;    0,647;    0,045
536,334;12340,172;   -0,898;   -0,409
536,918;13067,291;    0,011;    1,591
537,501;13247,213;   -0,899;    1,318
538,085;13385,128;   -0,444;    1,045
538,668;13616,463;    0,829;    2,409
539,251;14009,343;    1,829;    3,773
539,834;14132,885;    0,101;    0,773
540,418;14099,669;   -1,990;    4,318
541,001;14293,631;   -0,990;    1,773
541,584;14362,461;    2,101;    2,227
542,167;14100,703;    1,374;    2,955
542,750;14321,832;    1,919;   -0,773
543,333;13969,468;    0,555;    2,136
543,916;14770,297;    0,192;    2,500
544,499;15422,185;   -1,354;    0,227
545,082;15473,157;    1,374;    3,591
545,665;15626,544;    1,919;    1,500
546,248;15972,287;    1,010;   -0,318
546,830;15662,342;   -0,445;    1,955
547,413;16072,787;    1,010;   -0,773
547,996;16652,405;    0,555;    0,500
548,579;16422,481;    0,919;    0,955
549,161;16272,998;    1,828;    2,682
549,744;16107,256;   -0,809;    0,409
550,326;16636,167;   -0,809;   -1,136
550,909;16408,331;    2,737;    0,591
551,492;16835,707;   -0,263;    0,227
552,074;16651,914;   -0,173;   -1,318
552,657;17202,066;    2,373;    0,045
553,239;17020,434;   -0,173;   -0,773
553,821;16956,689;   -1,082;    1,045
554,404;16461,398;    1,282;    1,136
554,986;16863,591;    0,464;    1,045
555,568;17468,505;    1,191;   -0,955
556,151;16688,567;    1,191;   -0,227
556,733;16916,041;   -0,264;   -0,864
557,315;17360,252;    0,100;    0,500
557,897;17193,763;    0,554;   -0,500
558,479;17321,614;   -1,991;    1,318
559,061;17427,096;   -0,719;   -0,864
559,643;17783,870;   -0,264;    0,045
560,225;18122,386;    1,645;    2,864
560,807;18170,598;    0,918;    0,318
561,389;17658,300;    0,554;    2,318
561,971;18381,244;    0,463;    2,136
562,553;18199,309;   -1,628;    1,591
563,135;18337,610;   -0,537;    1,136
563,717;17975,851;    3,372;    1,136
564,298;18640,345;    3,645;   -0,045
564,880;18341,990;    0,645;   -1,409
565,462;18580,172;    0,645;    1,318
566,043;19686,536;   -0,446;    2,318
566,625;19221,899;    1,918;    1,227
567,207;19103,642;    1,099;    1,682
567,788;20179,738;   -1,264;    1,500
568,370;20978,003;    1,917;   -0,500
568,951;20775,077;    0,190;    0,227
569,533;21635,015;   -0,628;   -0,500
570,114;22079,029;   -0,446;    0,682
570,695;22593,883;   -0,174;   -1,318
571,277;23060,803;   -0,265;   -1,682
571,858;23732,734;    2,008;   -1,136
572,439;24650,237;    1,554;   -1,045
573,021;24814,770;    2,099;   -2,773
573,602;25255,304;   -1,265;    0,318
574,183;26123,739;   -2,083;    2,227
574,764;26237,615;   -1,629;    0,409
575,345;26732,625;    0,917;   -0,136
575,926;27363,421;   -0,356;    0,136
576,507;27357,485;    1,099;   -0,227
577,088;28415,818;    3,099;    1,682
577,669;28410,077;    0,735;    1,955
578,250;29115,739;    0,644;   -1,045
578,831;29803,376;   -1,356;   -2,227
579,412;30037,594;   -0,810;    0,955
579,993;30943,293;    1,008;    0,227
580,573;31333,415;   -0,629;   -0,955
581,154;30272,108;    0,735;   -0,591
581,735;31142,955;    0,644;    0,773
582,315;30602,773;   -0,629;    2,136
582,896;30948,524;   -0,174;    1,227
583,477;30433,546;    0,189;    1,227
584,057;30632,990;    0,553;    0,955
584,638;30942,020;    2,553;    2,318
585,218;30942,988;   -0,538;    2,682
585,799;31060,738;    0,281;   -0,227
586,379;31071,363;    0,372;    1,591
586,959;29883,073;    0,735;    0,318
587,540;29303,100;   -0,629;    2,227
588,120;28878,883;    1,007;   -0,045
588,700;27876,256;    2,553;    2,136
589,281;28175,354;    0,462;   -0,955
589,861;28147,299;    0,099;   -1,682
590,441;27964,538;    2,371;   -2,682
591,021;26934,565;   -0,265;   -2,591
591,601;27178,205;   -0,537;    0,500
592,181;27196,960;   -0,719;   -0,773
592,761;26514,808;    0,007;    1,409
593,341;26413,042;   -0,901;    0,045
593,921;26424,696;   -0,265;    1,591
594,501;26306,195;   -0,538;    1,318
595,081;26204,725;    0,917;   -0,318
595,661;26490,795;   -1,447;    0,955
596,240;27014,054;   -0,537;    0,136
596,820;26629,795;    0,372;    1,955
597,400;26838,823;    2,008;    0,773
597,980;27027,714;    2,008;    1,045
598,559;27055,548;    2,735;   -0,227
599,139;26804,371;   -0,174;   -1,227
599,718;26713,735;   -0,174;   -0,409
600,298;26937,851;    0,735;    0,682
600,877;27133,171;    2,917;    1,409
601,457;27452,003;    2,281;    1,136
602,036;27379,295;    0,190;    2,045
602,616;27590,258;    0,644;    1,682
603,195;27909,820;   -0,355;    3,500
603,774;27412,340;   -0,901;    2,045
604,354;27303,766;    0,826;   -0,500
604,933;26834,021;    0,463;    1,864
605,512;26959,556;    3,554;    0,591
606,091;27009,147;   -0,537;    3,773
606,671;27804,337;    0,281;    0,773
607,250;26962,975;    1,644;    3,136
607,829;27177,408;    2,372;    3,227
608,408;27031,387;    1,190;    2,591
608,987;26057,722;    1,281;    3,409
609,566;26397,614;   -1,265;   -2,500
610,145;26480,059;   -1,082;    0,682
610,723;26898,275;    4,372;    6,864
611,302;26168,078;   -0,446;    1,682
611,881;25712,267;    5,008;   11,227
612,460;26524,693;    1,645;    3,955
613,039;26896,979;   -0,082;    2,045
613,617;25650,715;    1,736;    4,773
614,196;25843,997;    1,099;    1,227
614,775;26198,219;    1,009;    2,409
615,353;26202,996;    0,736;    0,864
615,932;25879,787;    0,100;    2,409
616,510;26478,763;    0,554;    0,591
617,089;26028,941;    7,100;   17,591
617,667;25815,333;    2,372;    6,136
618,246;25682,080;   -1,537;    1,318
618,824;25810,417;   -3,355;   -0,955
619,402;25396,054;   -2,900;   -1,773
619,981;25891,588;   -0,173;   -1,045
620,559;25776,003;    0,009;    1,682
621,137;25312,615;   -0,718;    1,864
621,715;25296,012;   -1,173;   -0,682
622,293;25227,219;   -0,537;   -0,773
622,871;25739,616;   -0,718;    0,500
623,450;25281,413;    0,373;   -0,864
624,028;25155,033;    0,191;   -0,955
624,606;24776,326;   -1,718;    1,682
625,183;25200,919;   -1,536;   -1,136
625,761;24840,191;    1,009;    1,136
626,339;25125,119;    1,373;    2,591
626,917;25499,808;   -0,172;   -0,045
627,495;25532,478;   -0,354;    1,318
628,073;24966,404;   -0,263;    2,864
628,650;24676,850;    0,100;    2,136
629,228;25053,258;    0,373;    4,409
629,806;24502,579;    2,282;    1,136
630,383;24804,169;    1,464;   -0,318
630,961;24577,519;    2,555;   -0,955
631,539;24347,410;    2,464;    0,227
632,116;23663,155;   11,373;   15,409
632,694;24273,535;    2,555;    6,500
633,271;24579,991;    0,828;    2,682
633,848;24476,185;    1,828;    2,045
634,426;24495,315;   -1,081;    1,773
635,003;23676,251;    1,101;   -0,409
635,580;23957,793;    1,192;    3,682
636,158;24522,879;    3,737;    1,227
636,735;24523,749;    0,555;   -0,500
637,312;24650,432;   -0,809;   -0,682
637,889;24707,007;   -4,354;   -0,682
638,466;24208,515;   -3,990;   -0,409
639,043;24194,337;    2,101;   -1,136
639,620;24564,760;   -2,262;   -0,955
640,197;24867,095;    1,100;    1,682
640,774;24969,324;   -0,172;    1,136
641,351;25359,553;    0,737;    1,136
641,928;24836,692;   -0,627;    1,409
642,505;24474,103;    0,828;   -0,500
643,082;24604,878;   -1,718;    1,227
643,658;23667,107;   -0,718;    1,500
644,235;24428,064;    1,191;    2,500
644,812;24713,020;    1,918;    0,773
645,388;24424,613;   -0,991;    1,409
645,965;24506,024;   -0,809;    1,682
646,542;24587,708;   -1,445;   -0,227
647,118;24546,483;    1,009;   -0,955
647,695;24850,985;   -0,263;    1,136
648,271;24780,305;   -0,536;    0,500
648,848;25062,989;    0,736;    2,227
649,424;24926,128;    0,827;    1,318
650,000;24691,448;   -0,354;   -1,045
650,577;24475,768;   -0,627;   -0,955
651,153;24965,179;   -1,809;    0,955
651,729;25896,863;    1,191;    0,864
652,305;26040,092;    0,645;    2,773
652,881;30084,322;   -0,082;    1,136
653,458;36630,551;    1,100;    0,227
654,034;40478,871;    0,282;    1,591
654,610;42052,464;    0,554;    0,773
655,186;43355,693;    0,645;    3,045
655,762;43021,195;   -0,991;    0,409
656,338;43015,970;    0,100;    0,136
656,913;44026,290;   -0,082;    0,409
657,489;43289,156;    0,827;   -0,318
658,065;43229,204;   -0,173;   -1,591
658,641;43929,433;   -0,900;   -0,864
659,217;43318,480;   -0,991;    0,409
659,792;42637,892;    0,645;   -0,409
660,368;42948,939;   -2,173;   -0,682
660,944;42664,532;   -2,082;    1,227
661,519;38510,125;   -0,628;    0,409
662,095;32782,354;   -1,719;    0,591
662,670;28192,856;    1,281;   -0,136
663,246;26967,177;    1,009;   -0,409
663,821;26250,406;    0,281;    1,682
664,396;25758,999;    0,009;    1,864
664,972;25989,592;    0,009;   -0,500
665,547;26263,458;    1,372;    0,136
666,122;26330,505;   -1,082;    0,318
666,698;26596,825;   -0,173;    0,318
667,273;25938,782;   -0,173;    0,136
667,848;26697,920;    2,372;    1,500
668,423;26506,786;    2,190;    2,318
668,998;27065,652;    2,827;   -0,682
669,573;27630,063;   -3,264;   -1,500
670,148;27427,656;   -1,446;   -0,682
670,723;27193,521;   -1,810;    0,318
671,298;27639,569;    2,372;    1,045
671,873;27767,798;   -0,082;   -0,136
672,448;27668,118;    0,645;    0,136
673,023;27977,166;   -1,992;   -0,227
673,597;28352,850;    0,827;    2,318
674,172;28116,806;   -0,355;    0,318
674,747;27646,763;    0,372;   -1,045
675,321;27495,901;   -0,628;    3,318
675,896;27065,222;    0,645;    1,045
676,471;28074,815;    2,645;    1,591
677,045;27799,135;   -1,264;    0,682
677,620;27894,819;    0,190;    1,136
678,194;28232,412;   -2,628;    1,136
678,769;27740,823;   -1,083;   -0,318
679,343;27972,416;   -0,628;    1,773
679,917;27831,009;   -1,446;    1,955
680,492;27925,693;    0,826;    3,227
681,066;28072,649;    3,372;    0,409
681,640;28117,242;    1,463;   -0,318
682,214;28899,926;    0,735;    0,500
682,788;28403,246;   -1,356;   -0,773
683,363;28384,566;   -1,810;    1,682
683,937;28105,887;   -1,719;   -0,318
684,511;28858,661;    0,463;   -0,591
685,085;28531,982;   -1,356;    0,318
685,659;28318,120;   -2,538;    0,864
686,232;28553,440;   -0,356;   -0,318
686,806;28333,761;   -0,901;    0,409
687,380;28946,081;   -0,174;    0,591
687,954;29175,401;   -1,174;    1,136
688,528;28879,176;   -0,719;    1,955
689,101;29610,223;   -3,992;    1,045
689,675;29199,362;   -0,356;   -0,136
690,249;28566,500;   -0,719;    0,409
690,822;28910,184;    0,280;    0,318
691,396;28998,504;   -0,265;    1,227
691,969;28443,552;    1,280;    0,136
692,543;28932,236;   -0,447;   -1,955
693,116;28614,828;   -0,265;   -1,409
693,690;28489,512;    0,099;    0,500
694,263;29014,742;   -1,083;    2,955
694,836;29034,607;    1,371;    3,591
695,410;27729,382;   -0,265;    1,773
695,983;28156,066;    0,189;    0,591
696,556;28171,386;   -0,447;   -1,045
697,129;28527,616;   -0,356;    1,409
697,703;28149,027;   -1,629;    1,955
698,276;28156,620;    1,462;   -0,773
698,849;27981,485;    1,280;    1,409
699,422;28310,442;   -1,083;    0,591
699,995;28047,398;    0,007;    0,136
700,568;28581,810;   -0,629;    3,045
701,140;28621,493;   -2,811;    1,682
701,713;28302,814;   -0,174;    2,409
702,286;28022,498;   -0,538;    0,864
702,859;27948,363;   -0,902;   -0,591
703,432;27109,229;    0,825;    0,682
704,004;27635,095;    0,462;    0,318
704,577;27507,233;   -0,629;    0,136
705,150;28050,644;    0,189;    2,500
705,722;27855,601;   -0,356;   -3,227
706,295;27646,739;   -0,175;   -0,591
706,867;27438,332;   -0,175;    1,955
707,440;27670,561;   -1,720;   -0,409
708,012;27892,518;    0,462;    0,591
708,584;27824,475;    2,462;    0,227
709,157;28172,249;    1,825;   -0,591
709,729;27823,751;    2,280;    2,045
710,301;28667,617;    0,734;    0,045
710,874;28645,301;   -1,447;   -0,227
711,446;27568,712;    0,371;    0,864
712,018;27393,396;    0,098;    0,500
712,590;27197,625;   -1,993;    1,682
713,162;27725,218;    0,825;    1,318
713,734;28014,811;    1,825;   -2,045
714,306;27882,768;   -1,902;   -0,409
714,878;26534,906;    0,825;    0,864
715,450;27364,226;    0,643;    0,864
716,022;27628,092;    1,552;    1,318
716,593;27786,412;    0,189;    0,591
717,165;27695,460;   -3,175;   -1,227
717,737;27394,326;    0,280;    0,409
718,309;27057,009;    0,280;   -0,045
718,880;27041,421;   -0,539;   -1,409
719,452;27266,650;   -0,175;   -1,591
720,024;26844,334;    0,734;   -0,591
720,595;27415,199;   -2,902;    0,955
721,167;27007,247;    0,370;   -2,045
721,738;26506,567;   -0,812;   -1,045
722,309;26513,615;   -0,993;   -1,227
722,881;26295,662;   -1,357;    0,773
723,452;26890,982;   -2,630;    2,864
724,023;27059,757;   -0,721;    2,682
724,595;26857,623;    0,007;    0,682
725,166;26586,761;    0,007;   -0,409
725,737;26221,172;    1,734;    0,227
726,308;26350,674;   -0,266;    0,318
726,879;26726,995;   -1,630;    1,227
727,450;26629,951;    0,552;   -0,045
728,021;26636,453;    3,097;    0,682
728,592;26406,319;    0,734;    0,500
729,163;26725,457;    0,643;   -0,136
729,734;26713,959;    0,188;   -0,227
730,305;27090,189;    1,734;    0,136
730,876;27437,964;    0,188;    2,955
731,447;27101,284;    2,188;    2,682
732,017;27228,331;    1,097;    1,864
732,588;26726,561;    0,734;    1,227
733,159;26864,426;    0,643;   -1,045
733,729;26721,019;    0,006;    0,409
734,300;26023,885;    0,915;    0,864
734,870;26434,569;    3,461;    0,591
735,441;26990,616;    0,370;   -0,591
736,011;26703,209;    0,643;   -1,591
736,582;26693,529;   -0,812;    0,045
737,152;26158,759;   -1,721;   -2,045
737,722;26584,624;   -0,267;   -0,682
738,293;26319,399;   -1,358;    1,318
738,863;26169,992;    2,461;    2,318
739,433;26001,494;    5,279;    0,318
740,003;26659,633;   -0,994;   -0,682
740,573;26062,044;    2,097;   -1,591
741,143;26027,637;   -1,085;    0,318
741,713;26797,684;    1,188;   -0,500
742,283;26528,095;    0,915;    1,591
742,853;26329,416;    1,915;    1,591
743,423;25781,372;    1,733;    0,045
743,993;25908,601;   -0,358;    1,500
744,563;25276,831;    0,097;   -0,864
745,133;25185,878;   -0,812;   -0,864
745,702;25917,017;   -0,267;    1,773
746,272;25114,519;   -0,176;    0,591
746,842;24889,475;   -1,358;   -0,591
747,411;25287,432;   -0,267;   -0,318
747,981;25553,116;    0,097;    0,500
748,551;25543,072;    2,278;   -1,045
749,120;25428,302;    0,642;   -0,227
749,690;25808,804;   -0,631;    2,409
750,259;26144,669;    1,369;    2,955
750,828;26008,262;    1,551;   -1,955
751,398;26275,855;    1,278;   -0,045
751,967;25773,357;    2,187;    0,409
752,536;26016,132;   -0,813;   -0,227
753,105;26438,907;    0,096;    0,227
753,675;26227,682;    0,096;    1,773
754,244;26133,820;   -0,904;    3,591
754,813;26185,595;    0,551;    1,227
755,382;25780,824;    0,460;    0,955
755,951;26277,417;    1,551;    3,682
756,520;25847,556;   -0,085;    1,864
757,089;26375,239;    0,278;    0,500
757,658;26514,741;    1,733;    1,227
758,227;26573,153;    1,096;    0,318
758,795;26913,200;    1,187;    1,136
759,364;27080,066;   -0,086;   -0,591
759,933;26083,750;   -1,176;   -0,045
760,501;25671,797;    0,733;   -1,318
761,070;26117,481;   -2,813;   -1,409
761,639;26832,256;   -1,904;    1,318
762,207;26115,121;    1,551;   -0,955
762,776;26061,442;    0,369;    0,864
763,344;26040,489;   -0,995;    0,591
763,913;25197,809;   -0,722;    1,409
764,481;25922,948;    1,005;   -0,136
765,049;25702,541;   -1,358;    1,409
765,618;25613,497;   -0,086;    0,318
766,186;25703,454;    0,278;    0,136
766,754;25889,047;    0,005;    1,864
767,322;24881,004;   -1,995;    0,409
767,890;24945,869;   -0,722;   -1,773
768,459;25290,553;   -2,177;   -0,318
769,027;25471,691;    1,641;    3,409
769,595;24475,921;    3,278;    2,591
770,163;24890,696;    3,823;    2,955
770,730;24668,198;    0,732;   -0,136
771,298;24507,154;    0,187;   -1,409
771,866;24619,202;   -1,541;    4,955
772,434;24884,976;   -0,631;   -1,864
773,002;25093,660;    0,005;    0,682
773,569;24750,981;    0,914;    1,682
774,137;24568,301;   -0,268;   -0,045
774,705;25383,894;    0,278;   -0,136
775,272;24873,669;    0,641;    0,682
775,840;24593,171;   -0,177;    2,682
776,407;24127,309;    0,277;    1,955
776,975;23780,538;   -0,632;    0,318
777,542;24757,495;   -1,086;   -0,045
778,110;24591,452;   -1,268;   -0,045
778,677;24321,590;   -2,359;   -0,864
779,244;24088,456;    2,186;    1,045
779,812;24174,594;    1,823;    0,864
780,379;24086,005;    0,005;    1,136
780,946;24299,325;    1,005;   -0,773
781,513;24622,282;   -1,450;    0,318
782,080;24036,966;   -0,086;    2,864
782,647;24712,559;   -0,268;    3,045
783,214;24292,970;   -0,177;    3,864
783,781;23891,927;   -0,723;   -0,682
784,348;23786,974;   -0,632;    1,500
784,915;24257,112;   -3,177;    0,318
785,482;24048,614;    1,368;    2,591
786,049;24459,480;    0,186;   -0,591
786,615;24590,255;    0,277;   -0,955
787,182;24347,121;    0,186;   -0,682
787,749;24035,804;   -2,814;    1,409
788,315;23320,216;   -1,632;   -0,409
788,882;23604,172;    1,550;   -1,227
789,448;24290,311;    1,732;   -0,955
790,015;24344,904;    1,095;    3,227
790,581;23911,951;    1,459;    0,227
791,148;23793,362;    0,641;    1,045
791,714;24049,682;   -0,541;    3,136
792,280;23708,275;    0,186;    1,591
792,847;23287,232;    0,550;    2,500
793,413;23875,189;   -0,269;   -0,318
793,979;23401,418;    3,459;   -1,318
794,545;23447,465;    4,459;    2,682
795,111;22840,422;    2,186;    1,318
795,678;23030,288;    0,731;   -1,682
796,244;22707,699;    3,368;    0,136
796,810;23285,110;    1,731;    0,773
797,375;22966,976;    0,549;   -2,136
797,941;23021,659;   -0,541;    0,591
798,507;23173,252;   -0,451;   -0,955
799,073;22742,845;   -0,360;    0,591
799,639;22774,711;   -2,632;    3,136
800,205;22868,395;    0,095;    2,682
800,770;22352,715;    0,640;    1,773
801,336;22403,217;    1,368;   -0,955
801,901;22108,447;    4,549;    3,136
802,467;22700,494;   -0,542;    2,045
803,033;22047,723;   -0,087;    0,864
803,598;22280,771;    1,913;   -1,045
804,163;22305,818;    1,095;   -0,318
804,729;22263,866;   -0,178;    1,136
805,294;22700,368;    0,822;    2,227
805,859;22443,324;    0,731;   -0,409
806,425;21853,917;    1,186;    2,682
806,990;21536,874;    2,186;    4,318
807,555;22056,649;   -1,451;    2,591
808,120;21938,605;    0,822;   -0,409
808,685;22030,198;    0,185;   -2,500
809,250;21554,700;    0,004;   -0,500
809,815;21857,021;    1,913;    0,682
810,380;22375,068;   -0,269;    1,591
810,945;22899,661;   -1,087;    2,045
811,510;22039,527;    2,094;    1,591
812,075;21737,302;   -0,633;   -1,409
812,640;21806,258;    2,003;    1,409
813,204;21888,397;    0,822;   -0,227
813,769;22388,171;    2,094;   -0,045
814,334;21846,401;    0,458;    0,864
814,898;21874,539;    0,367;    0,591
815,463;21680,587;    1,276;   -0,773
816,027;21654,089;   -0,724;   -2,318
816,592;21788,500;    0,640;   -2,045
817,156;21259,547;    2,094;    1,136
817,721;21127,595;    4,276;    2,318
818,285;21117,369;    2,912;    1,500
818,849;21743,053;   -1,451;    1,682
819,414;21672,737;   -0,269;    2,955
819,978;21229,967;   -1,269;    1,773
820,542;21800,559;    2,003;    0,500
821,106;21522,607;   -0,815;    0,682
821,670;21630,836;   -0,815;    2,591
822,234;21378,338;   -0,270;    1,409
822,798;20727,113;    0,003;    0,500
823,362;20695,979;   -0,633;    4,227
823,926;20038,754;    0,094;    1,136
824,490;20283,528;   -0,997;   -0,682
825,054;20673,758;   -0,088;   -1,136
825,618;20310,987;   -1,542;   -1,500
826,181;20257,216;    0,458;   -1,318
826,745;20174,264;    1,367;   -1,045
827,309;20492,857;    1,185;    1,318
827,872;19912,541;    1,367;    0,955
828,436;20927,770;    1,185;   -0,773
828,999;20938,454;   -0,997;    1,227
829,563;19768,047;   -0,179;    1,136
830,126;19570,912;   -0,179;   -0,591
830,690;19599,233;   -1,997;    2,864
831,253;19125,371;   -0,543;    2,227
831,816;19306,782;   -1,906;    0,500
832,380;19219,284;    0,185;    0,864
832,943;19404,150;   -1,361;   -0,500
833,506;18852,652;    2,639;   -1,227
834,069;19619,609;    3,912;   -0,955
834,632;19710,020;    1,730;    1,318
835,195;19628,795;    1,003;    0,955
835,758;18840,297;   -0,997;    1,955
836,321;18701,253;    0,730;   -1,045
836,884;18786,664;   -0,725;   -0,955
837,447;18843,985;   -2,816;    1,773
838,010;19060,668;    0,366;    3,227
838,573;19369,625;   -1,179;    0,773
839,135;19336,218;   -1,361;   -0,955
839,698;18828,538;    1,275;    0,409
840,261;18341,040;    1,003;   -0,227
840,823;18186,542;   -0,543;    0,864
841,386;18479,044;   -0,452;   -2,409
841,948;18328,092;   -1,361;    1,773
842,511;18054,867;    0,912;    1,682
843,073;18199,641;    1,912;    0,227
843,636;18088,962;   -0,361;   -0,227
844,198;17954,736;    0,911;    0,591
844,760;18091,693;    1,093;    1,955
845,322;17786,650;    0,548;    1,136
845,885;18175,879;    0,730;    0,591
846,447;18602,745;   -1,998;    0,227
847,009;18185,428;    1,911;   -0,682
847,571;18543,385;    0,820;   -2,045
848,133;18621,978;   -1,089;   -1,864
848,695;18470,389;   -0,543;    1,409
849,257;18034,800;   -1,089;   -1,682
849,819;18163,666;   -0,998;   -0,409
850,381;18205,441;   -0,725;   -0,864
850,942;18591,761;    1,093;   -0,591
851,504;18534,172;    1,184;    0,227
852,066;18586,310;    1,275;   -1,591
852,628;18106,540;   -0,180;    1,955
853,189;17614,678;    1,638;    2,682
853,751;17737,271;   -0,907;    1,409
854,312;17608,319;   -0,453;   -1,682
854,874;18086,366;   -2,089;   -0,773
855,435;18611,323;   -0,907;   -1,682
855,997;18748,188;   -1,816;   -0,136
856,558;18082,963;    0,366;    1,773
857,119;18160,829;    0,820;    2,864
857,681;17877,604;    0,002;    0,318
858,242;17874,742;    1,911;   -2,136
858,803;18352,790;    0,456;   -0,773
859,364;18918,928;    0,184;   -4,773
859,925;18184,248;   -2,453;   -0,955
860,486;18112,114;   -0,453;   -0,955
861,047;17830,525;   -0,544;   -1,227
861,608;17652,391;   -1,089;   -0,773
862,169;17813,620;    0,638;   -0,045
862,730;17600,031;    0,456;    1,409
863,291;17819,533;   -0,635;   -0,500
863,852;18177,672;   -0,635;    1,955
864,412;17679,628;   -0,271;   -0,864
864,973;16263,857;   -0,089;    0,500
865,534;16126,360;   -1,726;    0,227
866,094;17638,589;    1,820;    0,227
866,655;17282,727;    1,274;    3,318
867,215;17534,775;    0,274;    0,136
867,776;17422,277;    0,547;   -0,136
868,336;17493,688;   -1,453;    0,136
868,897;16954,735;    2,638;    1,682
869,457;16679,147;    1,365;    0,318
870,017;16943,558;    0,547;   -1,227
870,578;17473,787;   -0,817;    0,773
871,138;17142,653;   -2,089;   -0,955
871,698;16703,791;   -0,817;   -1,318
872,258;16591,566;   -0,453;   -2,864
872,818;16931,068;    2,729;    0,045
873,378;16900,115;    0,638;    1,045
873,938;16483,981;    0,547;    0,500
874,498;16794,574;    0,274;   -1,955
875,058;16661,349;    2,183;    1,773
875,618;16522,215;    1,910;   -2,682
876,177;16462,171;    1,274;    0,136
876,737;16087,673;   -0,090;    1,955
877,297;16092,266;    0,183;    1,955
877,856;16081,859;   -0,362;    0,318
878,416;16038,907;    1,183;   -0,136
878,976;16259,045;   -1,817;    0,409
879,535;16417,092;    0,092;    3,136
880,095;16195,049;   -0,544;    0,045
880,654;16274,006;   -1,090;    1,318
881,213;16370,235;    2,456;    1,500
881,773;16033,101;    2,637;    2,682
882,332;16363,785;    3,365;    5,136
882,891;16245,923;    3,092;    2,136
883,451;16650,698;   -1,272;    1,682
884,010;16120,654;   -2,908;   -0,409
884,569;16221,338;   -0,999;   -0,045
885,128;16373,477;    2,819;   -1,864
885,687;16479,342;    4,455;    0,682
886,246;16127,026;    1,455;    2,136
886,805;15897,528;    2,455;    2,045
887,364;16177,848;   -0,999;   -0,500
887,922;16541,714;   -1,181;    0,045
888,481;16035,943;   -1,545;    0,591
889,040;16345,991;    1,183;    2,136
889,599;17049,584;    2,455;    1,409
890,157;17107,268;    1,455;    2,409
890,716;16764,952;   -0,090;    0,227
891,274;16575,726;    0,092;   -1,136
891,833;17029,774;    1,546;    0,864
892,391;16895,640;   -0,454;    0,500
892,950;16949,505;    1,819;   -0,773
893,508;17318,644;    0,455;   -0,409
894,067;16682,509;    0,637;    0,136
894,625;16582,557;   -0,636;   -1,500
895,183;16810,786;   -0,363;   -0,682
895,741;16743,470;    1,728;   -1,773
896,299;16578,699;   -0,545;   -2,409
896,858;16747,110;    0,819;   -1,591
897,416;16874,431;    2,728;   -1,318
897,974;16598,842;    1,819;    0,318
898,532;16738,526;    6,091;    2,682
899,089;16658,664;    2,091;   -0,682
899,647;16726,984;   -1,454;    1,318
900,205;16440,305;    1,182;    1,045
900,763;16699,716;   -0,454;    0,227
901,321;16681,854;    2,364;   -1,409
901,878;16079,993;   -1,000;   -0,773
902,436;15981,585;   -1,363;    1,318
902,994;16337,451;    4,728;    3,682
903,551;15797,044;    0,728;    0,409
904,109;16175,546;    0,182;   -1,409
904,666;15769,594;    2,455;    1,045
905,224;15656,550;    0,182;   -0,409
905,781;15363,052;    0,727;   -0,318
906,338;15468,736;   -1,363;    1,045
906,895;15394,238;    0,637;    2,045
907,453;15295,922;    1,727;    1,136
908,010;15318,788;   -0,909;    0,409
908,567;15003,653;    1,273;    0,591
909,124;14515,337;    0,364;   -1,500
909,681;14582,748;   -2,909;    0,682
910,238;14728,796;    0,636;   -1,318
910,795;15046,389;   -0,273;   -1,136
911,352;14694,389;   -2,909;   -2,682
911,909;14091,571;   -1,364;   -0,864
912,466;14584,843;   -3,182;    1,500
913,022;14163,934;   -1,636;    0,500
913,579;14497,571;   -0,909;    2,045
914,136;14246,389;    1,636;    0,955
914,692;14559,662;    0,091;   -1,227
915,249;14145,934;    1,455;    0,409
915,806;14350,934;    0,182;    1,955
916,362;14131,480;    1,909;    1,864
916,918;13724,116;    2,000;    1,045
917,475;13692,571;   -1,182;    0,955
918,031;13760,480;    3,364;   -0,045
918,587;13184,843;   -0,909;   -0,318
919,144;13401,298;   -2,273;    0,227
919,700;13734,207;    1,727;    0,773
920,256;13335,571;    0,727;    0,045
920,812;12939,934;   -0,727;   -1,045
921,368;12918,025;   -1,727;   -1,045
921,924;12572,753;    0,182;   -0,136
922,480;12184,934;   -0,545;    1,227
923,036;12797,207;    1,273;    1,955
923,592;12735,480;    0,455;    0,318
924,148;12661,843;    0,455;   -0,955
924,704;11952,662;   -1,364;   -0,409
925,259;12204,753;   -0,273;    0,591
925,815;11986,298;    1,455;    0,500
926,371;11510,843;    2,909;    1,409
926,926;11394,934;    2,091;    0,591
927,482;11073,571;   -1,364;    0,773
928,037;10990,116;    0,909;    2,045
928,593;11210,207;    1,636;    1,045
929,148;11069,389;   -1,818;   -1,500
929,704;10562,480;   -1,455;   -0,500
930,259;10774,843;    0,091;   -0,136
930,814; 9845,934;   -0,818;    1,955
931,369; 9563,389;    1,091;   -0,773
931,925; 9438,753;   -0,091;    0,136
932,480; 9320,025;   -2,818;   -2,591
933,035; 9225,662;    0,545;   -0,318
933,590; 9048,389;    0,364;   -1,773
934,145; 8688,207;   -1,364;   -0,318
934,700; 9021,934;    0,455;   -0,591
935,255; 8821,389;   -0,091;    0,045
935,809; 8099,116;    3,182;    0,864
936,364; 7280,116;   -0,455;   -0,136
936,919; 7223,571;    0,455;   -1,773
937,474; 7113,662;    1,455;    0,136
938,028; 6889,843;   -1,636;    1,136
938,583; 6378,753;    1,818;    4,682
939,138; 6637,389;    2,091;    2,136
939,692; 6100,480;    1,636;   -1,136
940,247; 5825,753;   -0,727;   -1,045
940,801; 5364,843;   -0,636;    0,227
941,355; 5287,843;   -0,364;    2,591
941,910; 4939,843;   -0,273;   -2,136
942,464; 5036,843;   -0,818;   -0,318
943,018; 4846,753;    1,000;   -0,227
943,572; 4794,207;    2,545;   -0,682
944,126; 4222,571;    0,091;   -0,409
944,681; 4111,480;    3,091;    0,227
945,235; 4097,389;    1,000;   -0,591
945,789; 4035,116;    0,364;   -1,864
946,342; 4134,298;    0,455;   -0,591
946,896; 3938,298;   -2,273;    0,955
947,450; 3703,571;    1,545;   -0,227
948,004; 3898,662;    1,727;   -0,045
948,558; 3898,662;    0,273;   -0,864
949,111; 3819,753;   -0,273;   -0,318
949,665; 3865,116;    1,636;   -0,682
950,219; 3741,298;   -0,091;   -1,045
950,772; 3804,389;   -1,909;    1,864
951,326; 3705,934;    0,545;   -0,955
951,879; 3820,207;    0,727;   -2,318
952,433; 3833,207;    0,000;    2,227
952,986; 3681,843;    2,909;    0,682
953,539; 3647,025;   -0,273;    0,591
954,093; 3573,207;    0,545;   -1,318
954,646; 3703,025;    0,909;    1,318
955,199; 3511,934;    0,000;   -0,500
955,752; 3392,662;   -0,455;    1,773
956,305; 3360,934;   -0,091;    2,955
956,858; 3506,480;    0,818;   -0,318
957,411; 3699,934;   -0,545;    2,136
957,964; 3528,934;    1,364;    2,136
958,517; 3499,480;   -1,545;    3,136
959,070; 3339,571;   -0,455;    1,955
959,623; 3430,207;    1,091;    1,500
960,176; 3199,116;    1,727;    2,045
960,728; 3179,389;   -2,727;    0,773
961,281; 3258,843;    0,545;    0,500
961,834; 3294,753;   -0,909;    0,864
962,386; 3217,298;    1,727;    1,045
962,939; 3129,480;    0,364;   -0,318
963,491; 3257,389;    0,455;    1,136
964,043; 3139,025;    1,182;    2,409
964,596; 3236,116;   -1,000;    2,227
965,148; 3090,662;   -1,000;    1,773
965,700; 3044,389;    1,091;   -0,227
966,253; 3182,025;   -0,636;    0,318
966,805; 3037,662;   -2,273;    0,773
967,357; 3070,571;    1,091;   -1,500
967,909; 3034,116;    0,455;   -1,227
968,461; 3138,843;    0,545;    3,136
969,013; 3053,480;   -0,182;   -0,864
969,565; 3126,298;   -0,455;   -1,136
970,117; 3213,662;   -0,364;    1,045
970,669; 3053,116;    0,182;   -0,136
971,220; 2903,116;   -0,455;   -1,500
971,772; 2831,662;   -0,636;   -0,318
972,324; 2966,480;    0,091;   -0,500
972,876; 2909,480;    0,818;   -0,045
973,427; 3045,116;    1,909;   -1,045
973,979; 3009,753;   -0,727;   -2,500
974,530; 3038,207;    1,818;    1,318
975,082; 3047,116;   -0,545;    1,682
975,633; 2938,025;    1,091;    1,682
976,184; 3069,662;    0,909;    0,773
976,736; 2885,298;    0,091;    0,227
977,287; 2691,298;   -0,909;   -0,500
977,838; 2871,753;    0,909;   -0,318
978,389; 2927,025;   -1,000;   -0,500
978,940; 2787,843;    0,545;   -0,409
979,491; 2827,025;    0,091;   -0,500
980,042; 2801,753;    0,182;    3,045
980,593; 2845,934;   -2,545;    0,227
981,144; 2885,298;    2,545;   -0,500
981,695; 2856,207;    1,455;    1,500
982,246; 2808,298;   -0,273;    1,045
982,797; 2979,025;   -1,727;    0,682
983,347; 3068,662;    0,364;    0,591
983,898; 3234,207;    3,091;    0,409
984,449; 3081,389;    2,182;    0,773
984,999; 2982,753;    1,455;   -1,136
985,550; 2781,662;    0,182;   -0,318
986,100; 2789,571;   -0,455;   -0,318
986,651; 2840,207;   -0,818;    0,045
987,201; 2841,571;   -1,000;   -0,591
987,751; 2903,843;    0,818;    2,864
988,302; 2885,571;    2,636;    1,500
988,852; 2898,116;    0,455;   -1,136
989,402; 2945,298;    0,091;    0,682
989,952; 2869,662;   -2,182;    0,864
990,502; 2964,207;   -0,091;    0,682
991,052; 2928,389;   -0,727;    0,045
991,602; 2805,662;   -2,909;    1,318
992,152; 2794,025;    0,455;    0,682
992,702; 2754,662;    1,364;   -0,045
993,252; 2702,298;   -3,000;   -0,500
993,802; 2789,662;   -0,273;    1,318
994,352; 3011,571;   -1,545;    1,136
994,901; 3101,298;   -0,182;    3,227
995,451; 3031,207;   -0,182;    0,318
996,000; 3105,753;    1,636;    0,318
996,550; 2823,116;    2,273;    0,227
997,100; 2843,389;    1,273;   -0,045
997,649; 3096,662;    2,182;    0,955
998,198; 2767,753;    1,727;   -1,500
998,748; 2939,843;    1,091;   -2,318
999,297; 2866,480;   -0,818;   -0,409
999,846; 2915,662;    1,000;   -0,773
1000,395; 2952,571;   -0,818;    0,500
1000,945; 2900,298;    1,818;   -0,773
1001,494; 3008,025;    2,364;    0,682
1002,043; 2986,662;    4,636;    0,864
1002,592; 2818,298;   -1,091;    1,955
1003,141; 2971,753;   -0,455;   -0,682
1003,690; 2846,389;    1,727;    0,500
1004,238; 2915,116;    1,455;   -0,045
1004,787; 2564,025;    1,364;    1,227
1005,336; 2806,116;    0,364;    0,682
1005,885; 2940,207;    1,364;   -2,773
1006,433; 3079,389;    0,545;    0,955
1006,982; 3120,571;    0,455;    1,682
1007,531; 3039,298;   -1,818;   -0,227
1008,079; 2991,025;   -2,273;    0,500
1008,627; 3144,298;   -1,455;    0,409
1009,176; 2891,934;    0,000;   -1,955
1009,724; 2922,934;    1,091;    0,864
1010,273; 2963,298;    1,273;    0,500
1010,821; 3083,298;    0,091;    1,409
1011,369; 2821,298;   -1,364;    1,318
1011,917; 2815,571;   -1,364;   -0,591
1012,465; 3085,116;    1,273;   -1,591
1013,013; 3195,298;    2,091;   -1,682
1013,561; 3075,025;    0,455;   -0,773
1014,109; 3114,753;   -1,909;    1,682
1014,657; 2997,662;    0,364;    0,591
1015,205; 3120,298;    1,636;   -0,955
1015,753; 3156,843;   -0,545;   -1,409
1016,301; 3202,662;   -2,636;    3,045
1016,848; 3200,480;   -1,273;    0,409
1017,396; 3231,116;    2,545;    0,045
1017,944; 3356,389;    1,182;    1,864
1018,491; 3125,480;    0,273;    1,409
1019,039; 3275,025;    0,455;    0,591
1019,586; 3205,389;   -1,364;    1,682
1020,134; 3301,480;    0,455;    1,500
1020,681; 3307,571;    0,182;   -1,136
1021,228; 3345,843;    2,909;   -2,227
1021,776; 3170,116;    1,182;   -1,136
1022,323; 3370,116;    0,455;    0,773
1022,870; 3313,571;   -1,000;   -0,045
1023,417; 3206,571;    2,636;    1,864
1023,964; 3354,025;    2,636;    1,227
1024,511; 3207,753;    1,000;    0,773
1025,058; 2993,843;    3,182;   -0,045
1025,605; 3045,480;   -2,273;    3,136
1026,152; 3270,662;    1,727;   -0,591
1026,699; 3006,934;    1,818;    1,318
1027,245; 3189,389;   -0,091;    0,318
1027,792; 3377,207;   -1,000;    1,409
1028,339; 3256,843;    2,364;   -0,045
1028,885; 3087,389;    1,000;   -0,227
1029,432; 3061,480;   -0,091;    0,227
1029,978; 3113,207;   -1,000;   -1,591
1030,525; 3033,571;    1,000;    0,409
1031,071; 3268,934;   -1,364;    1,136
1031,618; 3342,298;    0,364;    1,682
1032,164; 3157,843;   -0,091;    3,045
1032,710; 3204,298;    1,636;   -1,500
1033,256; 3115,389;   -0,636;   -0,136
1033,803; 3108,753;   -0,545;    1,500
1034,349; 2834,934;   -1,364;    0,136
1034,895; 2980,934;    0,000;   -0,318
1035,441; 2967,298;   -0,818;    0,318
1035,987; 2968,207;   -2,364;   -0,682
1036,533; 2947,934;   -1,455;   -0,955
1037,078; 3140,116;    1,455;    1,682
1037,624; 2998,843;    2,455;   -0,955
1038,170; 3009,571;    0,455;   -0,318
1038,716; 2926,480;    1,636;   -0,409
1039,261; 2841,389;   -2,273;   -0,773
1039,807; 2783,934;   -0,091;    3,409
1040,352; 2856,934;   -1,909;   -0,318
1040,898; 2895,298;   -1,545;   -0,682
1041,443; 2803,480;   -1,455;   -2,591
1041,989; 2818,298;    1,091;    1,591
1042,534; 2712,116;   -0,364;    2,591
1043,079; 2818,116;    2,909;    0,955
1043,625; 2617,571;    1,818;    0,500
1044,170; 2655,207;   -1,364;    1,045
1044,715; 2895,480;    2,455;    0,955
1045,260; 2716,934;    2,182;   -0,955
1045,805; 2788,298;    1,182;   -0,591
1046,350; 2720,116;    1,364;   -0,409
1046,895; 2674,389;    2,909;    1,591
1047,440; 2618,298;    5,364;    0,409
1047,985; 2523,207;    2,818;   -0,955
1048,530; 2441,025;    1,545;    1,227
1049,074; 2526,116;    0,000;    0,318
1049,619; 2499,753;   -1,364;    1,955
1050,164; 2293,116;    0,455;    0,227
1050,708; 2324,025;   -0,455;    0,045
1051,253; 2690,571;    1,273;   -2,227
1051,797; 2418,025;    0,818;   -1,318
1052,342; 2426,025;   -1,182;    1,045
1052,886; 2413,389;    0,364;   -1,409
1053,430; 2317,207;   -1,364;    0,136
1053,975; 2318,843;   -0,818;   -0,318
1054,519; 2296,934;   -0,727;    3,227
1055,063; 2303,389;    0,909;    1,318
1055,607; 2192,934;   -0,182;    0,227
1056,151; 2212,934;    2,909;    1,682
1056,695; 2137,934;    2,273;   -1,136
1057,239; 2198,207;   -1,727;   -0,682
1057,783; 2202,662;    0,818;   -1,500
1058,327; 2157,571;    0,000;    1,409
1058,871; 2382,934;   -0,545;    1,318
1059,415; 2105,843;   -0,818;   -0,045
1059,958; 2359,207;    1,455;    2,591
1060,502; 2076,480;   -1,000;   -0,773
1061,046; 1985,843;    0,364;   -0,955
1061,589; 1981,480;   -3,000;   -1,136
1062,133; 1855,389;   -1,273;    1,864
1062,676; 1786,662;    1,182;    0,864
1063,220; 1798,662;    1,091;    0,500
1063,763; 1822,480;    0,909;    1,136
1064,306; 1895,934;   -0,909;    1,864
1064,849; 1775,571;   -0,909;    0,591
1065,393; 1786,116;    2,000;   -1,500
1065,936; 1901,207;    0,182;   -0,409
1066,479; 1787,662;   -1,455;    1,318
1067,022; 1802,480;   -0,273;   -0,227
1067,565; 1704,389;   -0,091;   -1,318
1068,108; 1729,389;    0,727;   -0,591
1068,651; 1715,662;   -0,636;    1,409
1069,194; 1624,207;   -0,455;   -1,682
1069,736; 1642,116;   -1,273;    0,955
1070,279; 1614,753;   -1,364;   -0,500
1070,822; 1664,116;   -2,000;   -0,318
1071,364; 1752,298;   -0,364;    1,318
1071,907; 1572,934;   -0,727;    3,227
1072,450; 1483,116;    0,000;   -0,045
1072,992; 1476,480;   -0,273;    3,136
1073,535; 1614,934;    2,091;    2,136
1074,077; 1423,934;   -0,727;    2,045
1074,619; 1383,662;   -1,364;    0,591
1075,161; 1409,389;   -1,091;    1,500
1075,704; 1583,116;    1,545;    1,227
1076,246; 1388,480;   -0,182;    0,682
1076,788; 1316,843;   -0,364;    1,773
1077,330; 1405,116;    1,273;    2,136
1077,872; 1342,843;    0,909;    0,955
1078,414; 1561,298;    2,727;    0,773
1078,956; 1305,571;    1,273;   -0,227
1079,498; 1553,480;    1,636;    0,318
1080,040; 1276,480;    1,909;   -1,318
1080,581; 1217,934;    1,636;   -0,318
1081,123; 1151,662;    0,091;   -0,773
1081,665; 1193,753;   -1,182;   -0,955
1082,206; 1484,571;    1,364;   -0,500
1082,748; 1347,480;    0,727;    2,045
1083,289; 1238,116;   -2,000;    1,318
1083,831; 1132,207;   -0,545;    0,227
1084,372; 1156,480;    0,000;    0,591
1084,913; 1173,389;    1,091;    0,864
1085,455; 1142,480;   -1,909;   -2,045
1085,996; 1105,843;   -2,273;    0,136
1086,537; 1134,207;   -0,091;    0,864
1087,078; 1171,025;   -0,909;   -2,136
1087,619; 1209,753;   -1,273;    0,227
1088,160; 1126,843;    0,000;    1,318
1088,701; 1112,662;   -1,091;    0,682
1089,242; 1053,934;    1,364;   -2,227
1089,783; 1148,207;   -0,273;    1,409
1090,324; 1106,934;    0,455;    0,682
1090,865;  990,207;    2,727;   -0,409
1091,405;  953,571;    0,727;    2,227
1091,946;  984,753;    0,182;   -0,955
1092,487;  924,934;    0,818;   -1,409
1093,027; 1082,025;   -1,364;   -1,500
1093,568;  928,934;   -0,364;    1,227
1094,108; 1028,753;    0,273;    1,773
1094,649;  968,753;   -1,182;    0,136
1095,189;  908,753;   -0,636;   -0,682
1095,729;  846,843;   -0,091;    0,955
1096,269;  864,571;    0,727;   -0,955
1096,810; 1163,480;   -1,364;    0,500
1097,350;  994,843;    1,364;   -0,773
1097,890;  902,207;    0,364;    1,227
1098,430; 1155,843;    2,364;    2,864
1098,970; 1034,025;    2,182;    1,682
1099,510;  897,571;    0,545;   -2,318
1100,050;  822,298;    1,000;   -1,591
1100,589;  788,843;   -0,727;   -0,318
1101,129;  912,934;    0,818;   -0,955
1101,669; 1051,207;    1,727;    2,136
1102,209;  875,753;   -0,091;    2,227
1102,748;  839,025;    0,000;    0,955
1103,288;  827,571;    1,273;   -1,227
1103,827;  852,934;    3,091;   -2,227
1104,367;  730,025;   -0,091;   -2,409
1104,906;  697,480;    1,364;   -1,136
1105,445;  776,025;    0,636;   -1,136
1105,985;  720,207;   -0,727;    1,500
1106,524;  758,753;   -1,727;   -0,682
1107,063;  738,480;   -2,727;    1,409
1107,602;  713,571;   -1,909;   -1,500
1108,141;  631,843;   -1,909;    1,500
1108,680;  731,571;   -3,455;   -0,591
1109,219;  674,480;   -0,909;   -0,500
1109,758;  674,207;    0,455;    0,682
1110,297;  643,662;    1,000;   -0,682
1110,836;  594,662;   -0,727;    0,955
1111,375;  749,025;   -2,545;    0,409
1111,913;  762,843;   -1,000;    0,773
1112,452;  693,662;   -0,273;    0,136
1112,991;  587,298;    1,091;    1,955
1113,529;  546,480;   -0,818;   -0,045
1114,068;  617,116;   -0,273;    2,955
1114,606;  512,571;   -0,364;   -0,955
1115,144;  668,934;   -1,273;    1,045
1115,683;  612,843;   -0,727;    0,318
1116,221;  657,480;   -0,455;   -0,864
1116,759;  568,843;    0,636;   -0,864
1117,297;  761,389;    0,000;    1,864
1117,836;  565,934;   -2,182;   -1,227
1118,374;  578,207;    0,182;   -0,682
1118,912;  523,025;    0,909;    2,682
1119,450;  508,389;    1,000;    0,864
1119,988;  553,207;    1,545;    2,136
1120,525; 1009,843;    5,091;    3,318
1121,063;  708,662;    1,182;    1,864
1121,601;  527,843;   -0,909;   -1,227
1122,139;  485,207;   -0,727;   -2,045
1122,676;  678,025;   -0,727;    2,773
1123,214;  612,934;   -1,182;    4,409
1123,751;  428,934;    1,727;    2,227
1124,289;  556,843;   -0,091;   -0,409
1124,826;  424,116;    1,727;    0,227
1125,364;  340,480;    1,727;   -0,955
1125,901;  528,843;    1,182;    1,227
1126,438;  642,025;    0,818;    0,955
1126,975;  371,934;   -0,727;   -0,773
1127,513;  441,298;    0,273;    2,136
1128,050;  345,753;    1,636;   -0,682
1128,587;  434,298;    2,000;   -0,227
1129,124;  483,116;    0,091;    1,318
1129,661;  353,753;    0,273;    0,227
1130,198;  513,298;    1,636;    0,773
1130,734;  462,389;    0,182;    1,409
1131,271;  324,116;   -0,909;    0,864
1131,808;  496,934;    2,909;    3,045
1132,345;  375,116;    1,545;    0,318
1132,881;  254,843;   -1,545;   -1,864
1133,418;  379,934;    0,727;   -1,136
1133,954;  314,571;    2,455;   -2,682
1134,491;  392,389;    1,364;   -0,773
1135,027;  293,298;    2,364;    0,864
1135,564;  371,480;    0,273;    2,955
1136,100;  362,389;    0,364;    2,136
1136,636;  257,571;   -1,273;   -1,045
1137,172;  350,480;    0,000;   -1,045
1137,708;  280,934;   -1,364;   -1,045
1138,245;  268,298;    1,273;   -1,227
1138,781;  228,298;    1,091;   -3,318
1139,317;  300,298;    1,273;   -1,409
1139,852;  292,116;    3,091;    0,136
1140,388;  395,207;   -1,182;   -0,409
1140,924;  283,298;   -1,091;   -2,227
1141,460;  225,298;   -1,636;    0,136
1141,996;  158,662;   -1,364;    2,682
1142,531;  209,389;    1,364;    3,318
1143,067;  408,298;    1,182;    1,045
1143,602;  472,207;   -0,091;   -0,318
1144,138;  315,843;   -2,636;    1,045
1144,673;  187,480;   -1,455;    1,409
1145,209;  262,480;   -1,909;   -0,318
1145,744;  182,389;   -0,727;    0,864
1146,279;  310,662;    1,818;   -0,136
1146,815;  231,753;    1,545;   -2,682
1147,350;  260,934;   -1,364;    0,045
1147,885;  183,025;   -0,818;   -1,318
1148,420;  171,389;   -2,273;    0,773
1148,955;  153,662;   -1,727;    1,864
1149,490;  187,662;   -0,909;   -1,591
1150,025;  171,571;    0,455;   -1,773
1150,560;  283,389;    1,091;   -0,955
1151,094;  248,753;    1,455;   -0,591
1151,629;  251,480;    1,636;    0,864
1152,164;  189,662;    1,364;    1,318
1152,698;  146,843;   -0,182;   -0,136
1153,233;  100,207;    0,091;   -0,682
1153,767;  140,843;   -3,000;   -2,318
1154,302;  191,025;   -1,455;    1,773
1154,836;  181,116;   -0,455;   -2,136
1155,371;  242,298;   -1,364;    3,682
1155,905;  202,934;   -0,636;    1,682
1156,439;  171,843;   -0,636;   -0,500
1156,973;  199,753;    0,364;    0,318
1157,507;  134,389;   -0,364;    0,682
1158,042;  164,753;   -0,727;    1,045
1158,576;  202,934;    0,182;    1,773
1159,110;  197,298;   -0,818;    2,409
1159,643;  165,753;    0,636;   -0,045
1160,177;  110,934;   -1,545;    1,500

