
Integration time [ms]:   0,040
Averaging Nr. [scans]: 11
Smoothing Nr. [pixels]: 0
Data measured with spectrometer [name]: 7318044SP
Wave   ;Sample   ;Dark     ;Reference
[nm]   ;[counts] ;[counts] ;[counts] 

186,757;   26,546;   31,551;    1,318
187,357;   58,830;   22,551;    0,955
187,958;   32,712;   15,460;   -1,591
188,558;   71,545;    8,915;   -1,227
189,159;   42,469;    6,733;   -4,500
189,759;   13,710;    7,278;   -3,591
190,360;   15,286;    2,824;   -2,136
190,960;   61,254;    2,915;   -4,136
191,560;   64,125;    3,189;   -6,591
192,161;  300,285;    4,372;   -3,500
192,761;  144,150;    4,010;   -3,227
193,361;   93,712;    1,556;   -3,773
193,962;  139,820;    2,010;   -2,682
194,562;   71,485;    1,189;   -3,955
195,162;  110,757;   -2,448;   -2,227
195,762;  267,374;   -3,176;   -0,045
196,362;  209,110;    1,370;   -2,500
196,963;   80,880;    2,006;   -0,864
197,563;  154,364;    1,551;   -0,955
198,163;  105,055;    0,096;   -0,682
198,763;  128,710;    1,733;   -0,500
199,363;  225,136;    3,096;   -0,500
199,963;  181,431;    0,369;    0,409
200,563;  159,562;    2,823;   -1,409
201,163;  142,695;    3,277;   -0,227
201,763;  227,964;    3,732;    0,318
202,363;  163,485;    1,459;    1,500
202,963;  273,012;    1,459;    1,045
203,563;  387,399;    0,277;    0,500
204,162;  238,492;    2,096;   -1,864
204,762;  229,159;    0,550;    0,591
205,362;  199,116;    3,004;    1,955
205,962;  295,876;    3,096;    1,955
206,562;  303,322;    1,823;    2,318
207,161;  261,954;   -0,087;    0,318
207,761;  417,353;    1,277;    2,409
208,361;  294,130;   -0,268;    1,409
208,960;  401,835;    0,459;    1,500
209,560;  464,797;    1,277;    1,591
210,160;  449,515;    0,550;    1,864
210,759;  424,993;    4,186;    1,227
211,359;  423,444;    1,459;    1,045
211,958;  686,971;    1,277;    2,045
212,558;  767,240;    1,732;    1,864
213,157;  610,522;    1,822;    1,500
213,757; 1062,176;    3,822;   -0,227
214,356;  757,104;    1,277;   -0,409
214,956; 1087,599;    3,095;    0,409
215,555;  710,816;    2,095;    2,136
216,154;  646,937;   -2,723;   -0,591
216,754;  663,390;    0,277;    0,773
217,353;  798,709;   -0,268;   -1,045
217,952;  659,254;   -0,178;    0,318
218,552;  895,528;    1,368;   -0,773
219,151;  794,658;    0,277;    0,955
219,750;  792,732;    0,004;   -0,227
220,349;  921,137;   -0,451;    1,045
220,948;  991,420;   -1,360;    1,136
221,548; 1009,887;    0,913;    1,227
222,147; 1118,278;   -0,087;   -0,409
222,746; 1395,418;   -0,451;   -0,955
223,345; 1283,694;    0,731;    0,500
223,944; 1304,286;   -0,451;    0,773
224,543; 1456,550;    1,004;   -1,409
225,142; 1559,768;    0,094;    0,136
225,741; 1478,897;   -0,814;    1,045
226,340; 1505,477;   -0,451;   -0,955
226,939; 1941,095;   -0,996;   -0,136
227,538; 1904,471;   -0,360;   -0,773
228,137; 2044,422;   -0,814;    0,864
228,735; 2192,967;   -0,541;    1,227
229,334; 1954,966;   -0,905;   -0,227
229,933; 2333,119;    0,459;    0,591
230,532; 2431,929;    1,186;   -0,409
231,131; 2490,135;    1,732;    0,318
231,729; 2636,206;   -2,450;   -2,318
232,328; 2744,810;   -0,723;   -1,500
232,927; 2843,737;    1,004;   -0,500
233,525; 2966,524;    3,640;    0,045
234,124; 3155,625;    2,368;   -1,591
234,723; 3180,631;    0,913;   -1,045
235,321; 3343,703;    2,277;    0,136
235,920; 3570,025;    1,186;   -1,227
236,518; 3823,642;    3,459;    0,318
237,117; 3999,312;    0,004;   -0,227
237,715; 4165,390;    0,640;   -0,500
238,314; 4174,385;   -0,087;   -2,318
238,912; 4263,870;   -0,723;   -1,409
239,510; 4327,322;    0,459;   -1,227
240,109; 4502,398;    0,004;    3,773
240,707; 4551,644;   -0,996;    1,227
241,305; 4926,770;    0,550;    0,136
241,904; 5122,679;   -0,178;   -2,045
242,502; 5090,954;   -0,632;   -0,227
243,100; 5027,843;   -0,087;   -0,955
243,698; 5263,649;    0,732;    1,682
244,297; 5438,603;   -0,632;    0,682
244,895; 5275,247;   -0,269;   -2,318
245,493; 5594,041;    2,186;   -0,591
246,091; 5640,463;    1,368;   -1,318
246,689; 5630,462;    1,004;    0,591
247,287; 5820,067;    0,822;   -1,136
247,885; 6100,354;   -1,451;    1,227
248,483; 6207,218;    1,822;   -0,500
249,081; 6308,973;    0,185;    1,591
249,679; 6452,001;   -0,178;    1,682
250,277; 6723,440;   -1,723;    0,864
250,875; 6692,662;   -1,087;   -1,045
251,473; 6737,434;   -1,178;    0,500
252,071; 6942,127;    1,459;    1,045
252,669; 7097,650;   -1,814;    0,318
253,267; 7344,674;   -0,087;    0,773
253,864; 7316,703;   -0,360;    0,682
254,462; 7163,533;    1,640;    1,591
255,060; 7122,439;   -0,269;    1,318
255,658; 7447,014;    0,822;   -0,136
256,255; 7860,884;    0,186;   -2,045
256,853; 7705,808;   -0,269;    1,409
257,451; 7700,404;    0,822;    1,864
258,048; 7977,764;    1,822;    1,864
258,646; 7769,078;    1,731;   -1,045
259,243; 7935,717;   -0,087;    2,227
259,841; 8032,075;   -0,814;    0,318
260,438; 7884,324;   -0,087;    0,864
261,036; 8574,270;   -1,905;    1,409
261,633; 8508,742;   -0,087;    2,227
262,231; 8266,315;    2,731;   -0,045
262,828; 8360,356;   -0,905;    1,136
263,425; 8403,126;    0,913;   -0,591
264,023; 8677,257;    0,186;    0,045
264,620; 8223,440;   -0,360;   -0,318
265,217; 8534,833;   -2,087;    3,136
265,815; 8661,153;   -1,905;    2,136
266,412; 8442,288;    0,731;    0,136
267,009; 8490,585;   -1,451;    0,773
267,606; 8397,987;    0,822;   -0,955
268,203; 8364,940;   -0,269;   -0,591
268,801; 8667,771;    1,731;    0,591
269,398; 8971,932;   -0,360;    2,500
269,995; 8923,174;    0,277;    1,591
270,592; 8704,087;   -0,632;   -0,500
271,189; 8859,053;    0,186;    0,409
271,786; 9014,794;   -0,632;    1,227
272,383; 8849,181;   -1,087;    0,227
272,980; 9058,828;    0,277;    0,318
273,577; 9530,260;    0,004;    1,227
274,174; 9092,203;    0,822;    2,591
274,771; 9072,377;   -0,814;   -0,773
275,367; 9203,351;    2,277;    1,409
275,964; 9152,693;    0,731;   -0,500
276,561; 9268,743;    1,549;   -1,045
277,158; 9463,546;    0,095;   -1,773
277,755; 9585,064;    2,185;    0,409
278,351; 9005,078;   -0,451;   -1,500
278,948; 9291,305;   -0,815;    0,045
279,545; 9315,509;   -1,360;    2,318
280,141; 9916,674;   -1,723;   -2,045
280,738; 9779,285;   -0,451;   -0,136
281,334;10017,750;   -1,633;    0,591
281,931; 9390,470;   -0,087;   -1,318
282,528; 9526,042;    0,822;   -0,500
283,124;10218,624;   -1,087;   -0,500
283,721;10112,467;   -0,451;    1,409
284,317; 9945,441;    0,185;    2,500
284,913;10485,802;   -1,360;    0,591
285,510;10655,984;    0,640;   -0,318
286,106;10680,126;   -2,269;   -0,955
286,703;10294,818;   -0,360;    1,955
287,299;10470,166;   -1,451;   -0,591
287,895;10719,653;    0,822;   -1,045
288,491;11267,932;    0,186;    2,136
289,088;11007,817;   -2,360;    2,409
289,684;11073,650;   -1,723;    1,500
290,280;11046,217;    0,368;    0,682
290,876;11106,591;    1,822;    5,500
291,472;11020,940;    1,276;    2,227
292,068;11117,218;    1,367;    0,227
292,665;10826,893;    2,095;    0,773
293,261;10484,509;    0,276;    2,136
293,857;10867,488;    2,913;    2,136
294,453;10795,936;    3,550;    0,955
295,049;10645,868;   -0,268;    1,955
295,644;10667,948;    0,095;    0,136
296,240;10602,542;   -0,905;   -0,136
296,836;10663,617;   -0,995;    0,318
297,432;10929,271;    1,096;   -0,500
298,028;10961,333;    0,732;    0,773
298,624;11352,165;    1,459;    1,864
299,220;11629,037;    2,368;    0,591
299,815;11271,925;    1,005;   -0,409
300,411;11086,959;    0,914;    1,773
301,007;11110,330;    1,368;    0,227
301,602;11162,497;   -0,541;   -2,318
302,198;11299,414;    0,732;   -0,773
302,794;11614,823;    1,187;   -0,500
303,389;11738,097;   -1,177;    1,045
303,985;11842,160;    0,550;    1,409
304,580;11763,640;    1,459;    1,591
305,176;11751,201;   -3,086;    0,136
305,771;11712,511;   -1,268;   -1,227
306,367;11494,758;    4,095;    0,136
306,962;11850,861;    0,641;    1,500
307,558;11580,891;   -0,450;    0,136
308,153;11482,202;    1,095;   -1,136
308,748;11743,894;   -0,814;    1,682
309,344;11693,879;   -0,632;   -1,318
309,939;11765,631;   -1,905;   -1,318
310,534;12075,300;   -0,086;   -1,682
311,130;12022,138;    0,459;   -2,500
311,725;11749,962;    1,004;   -0,500
312,320;12067,377;    2,459;    0,045
312,915;11914,392;    1,459;   -1,045
313,510;11980,993;    1,550;   -0,500
314,105;12482,515;    1,096;    1,409
314,700;11909,884;   -3,086;   -1,045
315,295;11524,549;   -0,904;    0,045
315,890;11100,678;    1,277;    0,864
316,485;11480,418;   -0,359;   -0,318
317,080;11592,590;   -3,086;    1,591
317,675;12121,651;    2,005;   -0,682
318,270;11527,781;    5,550;    3,318
318,865;11577,326;    3,278;    3,045
319,460;11398,921;   -0,904;    0,591
320,055;11627,562;   -0,541;   -1,227
320,650;11319,892;   -1,995;   -0,591
321,244;11367,657;   -0,177;   -1,409
321,839;12263,614;   -1,541;   -0,227
322,434;12132,195;   -1,086;   -1,591
323,029;11780,634;    1,732;    1,591
323,623;11604,349;    1,550;    0,773
324,218;11382,992;    2,368;    1,409
324,812;11253,914;    1,096;    1,591
325,407;11051,648;   -0,814;    2,045
326,002;10981,528;    0,277;   -0,409
326,596;11284,973;    0,914;    1,318
327,191;11459,798;    0,823;   -1,045
327,785;11046,428;   -0,813;   -0,227
328,379;11251,283;    1,368;    0,136
328,974;11068,586;    0,914;   -3,955
329,568;11325,673;    0,186;   -2,409
330,163;11127,029;    2,096;    1,045
330,757;11466,389;    2,459;    1,591
331,351;10787,503;    0,459;    0,682
331,945;11090,822;    0,914;    1,409
332,540;10687,413;   -1,723;   -0,591
333,134;10859,815;   -1,086;    0,773
333,728;11074,109;    0,005;    0,318
334,322;11446,130;   -1,177;   -0,864
334,916;10720,701;    0,277;    0,955
335,510;11055,077;   -0,450;   -0,136
336,105;11319,707;   -1,086;    1,591
336,699;11020,778;   -1,086;    0,591
337,293;10915,760;   -1,723;    0,318
337,887;11071,680;   -2,723;    1,955
338,481;11194,624;    0,459;    0,591
339,074;11341,246;   -0,359;    2,682
339,668;11139,030;   -1,632;    1,227
340,262;11399,755;    1,732;    3,227
340,856;10939,495;    1,822;   -0,682
341,450;10314,926;    1,004;    1,864
342,044;11214,214;    1,459;    0,136
342,637;11031,035;    0,913;   -2,136
343,231;10865,374;   -2,360;    0,682
343,825;10806,232;   -1,086;   -0,591
344,419;10789,008;   -1,995;    0,500
345,012;10564,850;    2,459;    4,045
345,606;10594,361;    4,641;    1,591
346,199;10416,928;   -1,813;   -0,227
346,793; 9938,894;    1,914;    2,045
347,386;10136,974;   -0,813;   -1,136
347,980;10121,007;   -0,268;   -0,045
348,573; 9946,783;    2,278;    0,409
349,167; 9606,013;    5,278;    4,773
349,760; 9955,681;    2,914;    2,682
350,354; 9960,769;   -0,813;    1,136
350,947; 9677,906;    1,096;    1,682
351,540; 9370,207;   -0,358;   -1,409
352,134; 9299,530;    1,096;    1,136
352,727; 9394,731;   -0,086;    1,136
353,320; 9197,382;    0,005;    0,591
353,913; 9051,871;   -1,995;    1,864
354,507; 9238,148;    0,823;   -1,227
355,100; 9280,780;    0,460;    0,864
355,693; 8499,663;    2,005;    2,409
356,286; 8533,256;    0,823;    2,773
356,879; 8902,501;   -0,722;    1,227
357,472; 8482,261;   -0,904;    1,500
358,065; 8700,401;   -0,722;    2,500
358,658; 8620,591;   -0,540;    2,318
359,251; 8309,319;   -1,631;   -0,591
359,844; 7779,398;   -1,904;   -1,136
360,437; 7949,387;   -2,995;    0,045
361,030; 8221,380;    1,369;   -0,682
361,623; 7845,482;    2,824;    0,318
362,215; 7873,611;   -0,086;    2,045
362,808; 7704,888;   -2,358;   -1,682
363,401; 7906,083;   -2,449;    0,136
363,994; 7654,227;   -0,631;   -1,500
364,586; 7588,510;    0,824;   -1,500
365,179; 7757,074;   -0,449;   -1,136
365,772; 7243,364;   -1,995;    2,045
366,364; 7576,748;    1,915;   -3,227
366,957; 7756,261;    2,279;   -0,045
367,549; 7786,374;    2,188;   -0,864
368,142; 7436,174;    1,825;   -1,500
368,734; 7644,624;    0,734;   -2,136
369,327; 7591,429;    1,643;   -0,500
369,919; 7519,103;   -1,538;    0,409
370,512; 7315,918;   -1,083;   -0,500
371,104; 7070,281;   -0,901;    1,591
371,696; 7214,422;    1,191;   -0,955
372,289; 7316,710;    0,373;    1,136
372,881; 7456,782;   -2,080;    1,318
373,473; 7394,080;   -2,170;    1,136
374,066; 7179,685;   -0,169;    0,500
374,658; 7054,161;    0,378;    1,136
375,250; 7392,463;    0,653;   -1,409
375,842; 7225,290;    0,473;   -0,045
376,434; 7104,850;   -0,435;   -0,409
377,026; 7700,663;    0,204;   -2,500
377,618; 7574,969;   -0,158;   -0,682
378,210; 7421,204;   -0,338;   -1,955
378,802; 7273,516;    0,754;   -0,591
379,394; 7236,273;    1,846;    0,682
379,986; 7822,810;    1,393;   -0,955
380,578; 7898,305;   -0,153;    0,773
381,170; 7242,586;   -0,972;    0,045
381,762; 7212,222;    0,755;    1,409
382,354; 7404,895;   -0,065;   -1,318
382,945; 7540,238;   -2,976;    0,318
383,537; 7685,655;   -2,705;   -1,955
384,129; 7694,405;   -2,160;   -1,136
384,721; 7840,233;   -0,252;    0,955
385,312; 7784,745;   -0,161;   -0,955
385,904; 7876,512;   -2,706;    1,591
386,496; 7243,488;   -0,979;    1,045
387,087; 7401,718;    1,022;    2,500
387,679; 7445,697;   -1,160;    0,045
388,270; 7593,136;    2,840;    2,045
388,862; 7687,359;    1,295;   -0,318
389,453; 7592,171;   -0,887;    1,045
390,045; 7838,867;   -0,705;   -2,682
390,636; 7780,000;    0,204;   -0,591
391,227; 7652,205;   -0,523;   -0,045
391,819; 7743,126;    0,204;    0,773
392,410; 7808,022;    1,022;    0,045
393,001; 7738,466;   -0,979;   -1,591
393,593; 8016,052;    1,930;   -0,045
394,184; 7873,104;    1,385;   -0,409
394,775; 7793,680;    1,839;    2,136
395,366; 7986,079;    1,385;    0,773
395,957; 7972,599;    0,113;    0,136
396,548; 8285,981;   -0,342;    2,682
397,139; 8581,226;   -2,433;    0,591
397,730; 8325,502;   -1,888;    0,955
398,321; 8393,428;   -1,252;    0,955
398,912; 8416,646;   -0,615;    0,136
399,503; 8488,129;   -3,524;   -1,409
400,094; 7951,080;    0,294;    1,682
400,685; 7822,183;   -0,433;    0,045
401,276; 7868,177;    0,930;   -0,955
401,867; 8207,099;   -0,888;    0,773
402,458; 8291,236;   -2,251;   -2,318
403,048; 8279,286;    1,112;    0,591
403,639; 7901,083;    0,840;    0,864
404,230; 8127,318;    2,476;    0,318
404,821; 8071,947;   -0,615;    0,045
405,411; 8181,627;    1,203;   -2,591
406,002; 7772,864;   -1,252;   -1,136
406,592; 7633,790;    2,294;    0,045
407,183; 7945,389;    0,566;   -1,500
407,774; 7883,986;    3,475;   -0,136
408,364; 8212,131;    0,930;    0,409
408,954; 7813,381;    0,384;    1,227
409,545; 7854,652;    1,021;    1,045
410,135; 7408,126;    1,293;    0,500
410,726; 7565,192;    1,838;    0,318
411,316; 7920,408;    0,111;    0,773
411,906; 7613,727;   -0,253;   -0,409
412,497; 7152,641;   -1,070;   -0,045
413,087; 7707,431;   -1,980;   -0,227
413,677; 8123,859;   -0,707;    3,864
414,267; 7948,098;    0,656;    1,409
414,857; 7969,738;   -2,980;    4,227
415,448; 8224,465;    0,839;    0,500
416,038; 7927,135;    0,020;   -0,591
416,628; 7865,038;   -0,889;    0,409
417,218; 7361,836;    0,565;    3,318
417,808; 7629,931;    0,202;   -0,409
418,398; 8079,144;    0,020;    2,682
418,988; 8112,390;    2,020;    0,591
419,578; 8342,832;   -0,707;    1,409
420,168; 8687,183;   -1,343;   -0,955
420,757; 8263,132;   -1,343;   -1,500
421,347; 7937,223;    0,111;   -0,227
421,937; 8133,524;    2,292;    1,409
422,527; 8049,897;    0,838;   -0,773
423,116; 7868,992;   -0,253;   -0,045
423,706; 8258,152;   -1,889;    0,318
424,296; 8203,333;    1,384;    0,682
424,885; 8611,333;   -0,071;   -3,045
425,475; 8885,434;    1,474;   -2,864
426,065; 8799,645;   -0,980;   -0,318
426,654; 8453,190;   -0,435;   -0,318
427,244; 8556,740;    0,020;    1,409
427,833; 8020,099;    1,383;   -0,500
428,423; 8482,151;   -0,526;    1,136
429,012; 9267,534;   -0,344;   -1,136
429,601; 8725,847;   -1,344;    0,136
430,191; 8969,678;    1,292;    4,318
430,780; 8608,122;   -0,344;   -0,409
431,369; 8544,848;    0,746;   -0,045
431,959; 9178,518;   -1,254;    0,500
432,548; 8960,187;   -1,163;   -0,045
433,137; 9084,468;   -1,254;   -1,318
433,726; 9611,189;    0,292;    0,500
434,315; 8975,801;   -0,526;    2,409
434,905; 9088,042;   -1,254;    1,409
435,494; 8970,695;    0,746;    0,955
436,083; 9440,071;   -0,981;   -0,955
436,672; 9314,989;    0,110;    0,500
437,261; 8872,065;    0,292;   -1,955
437,850; 8976,118;    1,383;    0,682
438,439; 8956,841;    3,291;    1,955
439,027; 8816,756;    3,655;    1,773
439,616; 9141,527;    2,927;    1,227
440,205; 9013,484;    0,200;   -2,136
440,794; 9111,622;    2,109;   -0,045
441,383; 9394,154;   -1,346;   -0,591
441,971; 9225,697;   -2,436;    0,591
442,560; 9054,835;    0,563;   -1,773
443,149; 8843,155;    0,379;   -1,318
443,737; 8963,919;   -0,074;   -2,318
444,326; 9238,474;    0,018;    0,318
444,915; 9293,955;   -1,982;    0,864
445,503; 9690,766;   -2,891;   -0,318
446,092; 8993,771;    0,382;    2,136
446,680; 9508,600;    0,382;    0,318
447,269; 9661,485;   -0,346;   -0,318
447,857; 9471,045;    0,018;   -1,773
448,445; 9577,898;    0,563;    1,318
449,034; 9813,834;   -1,528;   -1,136
449,622; 9912,653;   -1,073;    3,500
450,210; 9125,046;    2,017;    2,227
450,799; 9680,779;    0,290;   -0,591
451,387; 9643,269;    1,381;   -0,591
451,975; 9290,898;    2,654;    0,864
452,563; 9372,037;    3,472;    2,318
453,151; 9425,875;   -0,528;   -1,227
453,739; 9372,601;   -1,347;    0,136
454,328; 9217,288;    2,381;   -2,136
454,916; 8943,785;    2,562;   -0,136
455,504; 9146,532;    1,017;    1,227
456,092; 9298,281;    0,017;   -1,591
456,679; 9288,434;    1,472;    0,682
457,267; 9210,357;    4,017;    1,045
457,855; 9363,244;    1,017;    1,409
458,443; 9117,352;   -0,165;    1,682
459,031; 9255,160;    0,108;    2,409
459,619; 9707,211;   -1,801;    2,864
460,206; 9812,702;    0,835;    2,045
460,794; 9915,015;   -2,983;   -0,227
461,382;10125,340;   -0,529;   -0,864
461,970; 9747,824;    1,198;    1,864
462,557; 9778,944;   -0,711;   -0,682
463,145; 9942,906;   -3,165;   -1,682
463,732;10098,837;    2,016;   -1,045
464,320;10038,703;   -0,075;   -3,045
464,907; 9690,212;    2,743;   -0,773
465,495; 9596,488;    0,743;   -1,227
466,082; 9763,004;   -1,984;   -0,045
466,670; 9710,189;   -2,529;    1,227
467,257;10090,650;   -1,711;    2,045
467,844;10266,051;   -0,075;    0,045
468,432;10243,993;    0,834;    3,500
469,019; 9781,801;    0,925;   -1,773
469,606;10275,304;    0,470;    3,682
470,193;10086,935;   -1,439;    0,227
470,780; 9645,339;   -2,075;    0,864
471,368;10024,019;   -1,257;   -0,773
471,955; 9793,285;    1,379;   -0,682
472,542; 9435,607;    0,652;   -1,136
473,129; 9669,350;   -0,166;    0,136
473,716; 9396,041;    1,470;    0,591
474,303; 9628,316;    0,652;   -0,864
474,890; 9920,197;   -1,439;   -0,500
475,477; 9914,267;   -1,621;    0,409
476,064; 9823,560;    1,106;   -1,591
476,650; 9752,905;    0,288;    0,318
477,237; 9630,087;   -0,258;    0,955
477,824; 9752,576;   -1,076;    0,864
478,411; 9774,937;   -1,894;   -0,318
478,997; 9964,226;    0,560;   -0,773
479,584;10060,126;    1,196;   -0,409
480,171;10728,481;   -0,440;   -0,773
480,757;10401,167;    2,651;    0,773
481,344;10715,088;    0,469;    0,409
481,931;10209,387;    1,105;    1,045
482,517;11157,091;   -1,258;    0,318
483,104;11662,641;    1,106;    2,864
483,690;11959,916;   -1,804;    0,045
484,276;12369,598;   -0,895;    0,227
484,863;12091,589;    2,469;    1,136
485,449;12684,883;   -0,077;    0,318
486,035;12688,644;   -1,986;   -0,136
486,622;13111,356;   -0,895;    0,045
487,208;13043,790;    1,378;    1,500
487,794;12909,743;    0,741;    0,318
488,380;13037,567;    0,105;   -1,409
488,967;13112,958;   -1,168;   -0,409
489,553;13113,159;   -1,895;   -1,409
490,139;13344,130;    1,559;    0,773
490,725;12816,316;    0,741;   -0,227
491,311;12400,554;    3,287;    3,045
491,897;11773,829;   -0,986;    1,500
492,483;11595,865;    0,105;    1,227
493,069;11325,438;    3,923;    0,864
493,655;11332,936;    1,650;    0,682
494,241;11270,084;    1,377;   -0,955
494,826;11660,613;    0,287;   -1,045
495,412;11098,371;    2,559;   -0,682
495,998;11275,770;   -0,805;   -0,318
496,584;11400,337;    0,377;    1,045
497,169;11368,224;    1,014;   -0,682
497,755;11344,855;    0,650;    1,227
498,341;11909,677;    0,559;    0,318
498,926;11476,022;    1,832;    1,955
499,512;11677,017;    1,286;    2,955
500,097;11787,266;    0,195;   -0,318
500,683;11739,894;   -0,350;    2,136
501,268;12114,017;   -0,169;   -0,955
501,854;11845,449;   -0,169;    1,227
502,439;11738,832;   -0,624;   -1,773
503,024;11975,333;    0,195;    0,500
503,610;12066,816;   -0,078;   -0,682
504,195;12064,309;    0,558;    1,955
504,780;12173,656;    2,922;    1,227
505,366;12001,015;    3,013;    2,864
505,951;11751,001;    0,740;    1,045
506,536;11771,209;   -3,260;   -3,682
507,121;11802,686;    0,285;   -0,318
507,706;12252,415;    2,376;    1,045
508,291;12622,457;    2,649;    1,136
508,876;12126,253;   -0,988;    2,591
509,461;11580,147;   -0,169;   -0,773
510,046;11994,084;    0,194;    0,318
510,631;12231,527;   -0,351;   -0,773
511,216;11925,961;    2,467;   -0,500
511,801;12271,726;   -0,442;    2,591
512,386;12572,229;    0,740;    0,500
512,971;12507,794;   -2,988;    0,955
513,555;12095,387;   -0,897;   -1,500
514,140;12899,877;   -0,442;   -3,136
514,725;12886,596;   -0,715;   -1,136
515,309;13011,410;   -0,533;    0,318
515,894;12458,015;   -0,624;   -2,227
516,479;12878,840;   -0,624;   -0,955
517,063;12743,743;    0,376;    1,227
517,648;12911,109;    1,012;   -1,136
518,232;12549,720;   -0,261;   -1,409
518,817;12890,691;   -0,079;    1,682
519,401;13103,111;    2,194;    0,591
519,985;12619,559;    1,103;    1,136
520,570;12498,057;    0,830;   -1,955
521,154;12770,309;    2,102;    0,591
521,738;12934,238;   -2,352;    2,409
522,323;13502,851;   -0,170;    1,682
522,907;13254,842;    0,466;   -0,136
523,491;13000,844;    0,557;    0,955
524,075;12993,542;    2,284;    0,591
524,659;13067,924;    1,466;    0,591
525,243;12533,503;    1,739;    0,409
525,827;12754,785;    0,648;   -0,045
526,411;13620,379;   -1,989;   -0,136
526,995;13808,355;   -0,352;    1,409
527,579;13449,836;   -0,443;   -1,045
528,163;13726,878;    0,375;   -1,500
528,747;13639,783;    2,466;   -0,773
529,331;13924,447;   -0,080;   -1,409
529,915;14121,819;    1,738;    0,955
530,499;14110,970;   -0,807;    1,227
531,082;13797,380;   -0,534;    1,591
531,666;13263,290;    1,374;    0,773
532,250;13878,118;    1,284;    2,682
532,833;14182,802;    0,920;    2,773
533,417;14096,470;   -1,807;    0,864
534,001;14074,605;    1,647;   -0,318
534,584;14754,650;    0,374;    0,500
535,168;14622,558;    0,465;    1,409
535,751;14656,503;    0,647;    0,045
536,334;14072,509;   -0,898;   -0,409
536,918;14676,083;    0,011;    1,591
537,501;14780,911;   -0,899;    1,318
538,085;14760,825;   -0,444;    1,045
538,668;14936,796;    0,829;    2,409
539,251;15225,131;    1,829;    3,773
539,834;15259,855;    0,101;    0,773
540,418;15166,996;   -1,990;    4,318
541,001;15310,597;   -0,990;    1,773
541,584;15301,690;    2,101;    2,227
542,167;14977,757;    1,374;    2,955
542,750;15151,248;    1,919;   -0,773
543,333;14735,059;    0,555;    2,136
543,916;15512,074;    0,192;    2,500
544,499;16084,324;   -1,354;    0,227
545,082;16117,386;    1,374;    3,591
545,665;16252,047;    1,919;    1,500
546,248;16593,696;    1,010;   -0,318
546,830;16273,934;   -0,445;    1,955
547,413;16658,738;    1,010;   -0,773
547,996;17185,444;    0,555;    0,500
548,579;16942,153;    0,919;    0,955
549,161;16759,852;    1,828;    2,682
549,744;16559,197;   -0,809;    0,409
550,326;17094,016;   -0,809;   -1,136
550,909;16832,268;    2,737;    0,591
551,492;17200,103;   -0,263;    0,227
552,074;17020,577;   -0,173;   -1,318
552,657;17524,820;    2,373;    0,045
553,239;17334,642;   -0,173;   -0,773
553,821;17266,082;   -1,082;    1,045
554,404;16781,880;    1,282;    1,136
554,986;17150,070;    0,464;    1,045
555,568;17707,255;    1,191;   -0,955
556,151;16912,408;    1,191;   -0,227
556,733;17143,885;   -0,264;   -0,864
557,315;17577,816;    0,100;    0,500
557,897;17379,419;    0,554;   -0,500
558,479;17544,451;   -1,991;    1,318
559,061;17691,836;   -0,719;   -0,864
559,643;17986,068;   -0,264;    0,045
560,225;18352,772;    1,645;    2,864
560,807;18401,341;    0,918;    0,318
561,389;17872,406;    0,554;    2,318
561,971;18603,250;    0,463;    2,136
562,553;18414,685;   -1,628;    1,591
563,135;18507,350;   -0,537;    1,136
563,717;18131,137;    3,372;    1,136
564,298;18857,084;    3,645;   -0,045
564,880;18595,629;    0,645;   -1,409
565,462;18756,993;    0,645;    1,318
566,043;19883,182;   -0,446;    2,318
566,625;19371,090;    1,918;    1,227
567,207;19203,285;    1,099;    1,682
567,788;20346,106;   -1,264;    1,500
568,370;21095,275;    1,917;   -0,500
568,951;20941,717;    0,190;    0,227
569,533;21754,558;   -0,628;   -0,500
570,114;22173,855;   -0,446;    0,682
570,695;22634,791;   -0,174;   -1,318
571,277;23090,436;   -0,265;   -1,682
571,858;23848,551;    2,008;   -1,136
572,439;24728,602;    1,554;   -1,045
573,021;24869,215;    2,099;   -2,773
573,602;25313,751;   -1,265;    0,318
574,183;26207,821;   -2,083;    2,227
574,764;26330,516;   -1,629;    0,409
575,345;26800,432;    0,917;   -0,136
575,926;27459,415;   -0,356;    0,136
576,507;27442,205;    1,099;   -0,227
577,088;28553,266;    3,099;    1,682
577,669;28554,248;    0,735;    1,955
578,250;29233,548;    0,644;   -1,045
578,831;29859,723;   -1,356;   -2,227
579,412;30074,219;   -0,810;    0,955
579,993;31008,191;    1,008;    0,227
580,573;31369,495;   -0,629;   -0,955
581,154;30347,916;    0,735;   -0,591
581,735;31195,581;    0,644;    0,773
582,315;30647,581;   -0,629;    2,136
582,896;30936,061;   -0,174;    1,227
583,477;30476,442;    0,189;    1,227
584,057;30691,979;    0,553;    0,955
584,638;30958,191;    2,553;    2,318
585,218;30945,432;   -0,538;    2,682
585,799;31158,638;    0,281;   -0,227
586,379;31124,175;    0,372;    1,591
586,959;29887,155;    0,735;    0,318
587,540;29285,902;   -0,629;    2,227
588,120;28921,225;    1,007;   -0,045
588,700;27877,694;    2,553;    2,136
589,281;28151,070;    0,462;   -0,955
589,861;28066,378;    0,099;   -1,682
590,441;27884,981;    2,371;   -2,682
591,021;26930,645;   -0,265;   -2,591
591,601;27190,019;   -0,537;    0,500
592,181;27180,592;   -0,719;   -0,773
592,761;26487,790;    0,007;    1,409
593,341;26453,487;   -0,901;    0,045
593,921;26411,871;   -0,265;    1,591
594,501;26311,640;   -0,538;    1,318
595,081;26170,992;    0,917;   -0,318
595,661;26529,787;   -1,447;    0,955
596,240;26989,140;   -0,537;    0,136
596,820;26617,884;    0,372;    1,955
597,400;26839,815;    2,008;    0,773
597,980;27018,892;    2,008;    1,045
598,559;27103,268;    2,735;   -0,227
599,139;26849,908;   -0,174;   -1,227
599,718;26715,181;   -0,174;   -0,409
600,298;26891,844;    0,735;    0,682
600,877;27145,894;    2,917;    1,409
601,457;27501,911;    2,281;    1,136
602,036;27379,472;    0,190;    2,045
602,616;27564,255;    0,644;    1,682
603,195;27840,820;   -0,355;    3,500
603,774;27439,066;   -0,901;    2,045
604,354;27317,401;    0,826;   -0,500
604,933;26844,016;    0,463;    1,864
605,512;26970,100;    3,554;    0,591
606,091;27004,875;   -0,537;    3,773
606,671;27825,427;    0,281;    0,773
607,250;26917,792;    1,644;    3,136
607,829;27144,594;    2,372;    3,227
608,408;27036,934;    1,190;    2,591
608,987;26028,185;    1,281;    3,409
609,566;26341,788;   -1,265;   -2,500
610,145;26466,067;   -1,082;    0,682
610,723;26867,373;    4,372;    6,864
611,302;26172,452;   -0,446;    1,682
611,881;25688,003;    5,008;   11,227
612,460;26483,883;    1,645;    3,955
613,039;26897,536;   -0,082;    2,045
613,617;25675,627;    1,736;    4,773
614,196;25894,005;    1,099;    1,227
614,775;26194,959;    1,009;    2,409
615,353;26204,739;    0,736;    0,864
615,932;25904,074;    0,100;    2,409
616,510;26425,867;    0,554;    0,591
617,089;25989,591;    7,100;   17,591
617,667;25720,984;    2,372;    6,136
618,246;25637,006;   -1,537;    1,318
618,824;25815,251;   -3,355;   -0,955
619,402;25376,888;   -2,900;   -1,773
619,981;25889,697;   -0,173;   -1,045
620,559;25774,660;    0,009;    1,682
621,137;25312,452;   -0,718;    1,864
621,715;25291,849;   -1,173;   -0,682
622,293;25214,875;   -0,537;   -0,773
622,871;25679,543;   -0,718;    0,500
623,450;25269,982;    0,373;   -0,864
624,028;25144,326;    0,191;   -0,955
624,606;24769,167;   -1,718;    1,682
625,183;25152,581;   -1,536;   -1,136
625,761;24828,035;    1,009;    1,136
626,339;25096,686;    1,373;    2,591
626,917;25467,384;   -0,172;   -0,045
627,495;25513,417;   -0,354;    1,318
628,073;24988,982;   -0,263;    2,864
628,650;24662,787;    0,100;    2,136
629,228;25092,373;    0,373;    4,409
629,806;24476,334;    2,282;    1,136
630,383;24757,564;    1,464;   -0,318
630,961;24590,910;    2,555;   -0,955
631,539;24361,168;    2,464;    0,227
632,116;23661,091;   11,373;   15,409
632,694;24257,292;    2,555;    6,500
633,271;24526,210;    0,828;    2,682
633,848;24452,219;    1,828;    2,045
634,426;24541,899;   -1,081;    1,773
635,003;23637,934;    1,101;   -0,409
635,580;23948,022;    1,192;    3,682
636,158;24495,284;    3,737;    1,227
636,735;24478,240;    0,555;   -0,500
637,312;24602,192;   -0,809;   -0,682
637,889;24718,865;   -4,354;   -0,682
638,466;24224,018;   -3,990;   -0,409
639,043;24192,665;    2,101;   -1,136
639,620;24504,997;   -2,262;   -0,955
640,197;24841,403;    1,100;    1,682
640,774;24989,904;   -0,172;    1,136
641,351;25395,769;    0,737;    1,136
641,928;24780,544;   -0,627;    1,409
642,505;24427,318;    0,828;   -0,500
643,082;24567,456;   -1,718;    1,227
643,658;23609,866;   -0,718;    1,500
644,235;24346,004;    1,191;    2,500
644,812;24611,778;    1,918;    0,773
645,388;24361,007;   -0,991;    1,409
645,965;24455,418;   -0,809;    1,682
646,542;24560,465;   -1,445;   -0,227
647,118;24522,421;    1,009;   -0,955
647,695;24800,832;   -0,263;    1,136
648,271;24752,969;   -0,536;    0,500
648,848;25082,925;    0,736;    2,227
649,424;24890,336;    0,827;    1,318
650,000;24655,201;   -0,354;   -1,045
650,577;24446,521;   -0,627;   -0,955
651,153;24932,204;   -1,809;    0,955
651,729;25896,706;    1,191;    0,864
652,305;25993,571;    0,645;    2,773
652,881;29999,163;   -0,082;    1,136
653,458;36508,392;    1,100;    0,227
654,034;40276,985;    0,282;    1,591
654,610;41833,032;    0,554;    0,773
655,186;43165,624;    0,645;    3,045
655,762;42820,853;   -0,991;    0,409
656,338;42886,900;    0,100;    0,136
656,913;43817,947;   -0,082;    0,409
657,489;43092,994;    0,827;   -0,318
658,065;43142,768;   -0,173;   -1,591
658,641;43779,451;   -0,900;   -0,864
659,217;43128,862;   -0,991;    0,409
659,792;42459,273;    0,645;   -0,409
660,368;42766,501;   -2,173;   -0,682
660,944;42536,639;   -2,082;    1,227
661,519;38453,141;   -0,628;    0,409
662,095;32838,279;   -1,719;    0,591
662,670;28165,326;    1,281;   -0,136
663,246;26893,282;    1,009;   -0,409
663,821;26187,874;    0,281;    1,682
664,396;25666,739;    0,009;    1,864
664,972;25886,423;    0,009;   -0,500
665,547;26189,288;    1,372;    0,136
666,122;26283,790;   -1,082;    0,318
666,698;26556,109;   -0,173;    0,318
667,273;25881,338;   -0,173;    0,136
667,848;26692,294;    2,372;    1,500
668,423;26442,341;    2,190;    2,318
668,998;26976,206;    2,827;   -0,682
669,573;27522,344;   -3,264;   -1,500
670,148;27359,937;   -1,446;   -0,682
670,723;27151,165;   -1,810;    0,318
671,298;27617,758;    2,372;    1,045
671,873;27689,532;   -0,082;   -0,136
672,448;27665,761;    0,645;    0,136
673,023;28004,262;   -1,992;   -0,227
673,597;28303,673;    0,827;    2,318
674,172;28092,993;   -0,355;    0,318
674,747;27614,494;    0,372;   -1,045
675,321;27458,632;   -0,628;    3,318
675,896;27047,497;    0,645;    1,045
676,471;28001,090;    2,645;    1,591
677,045;27763,409;   -1,264;    0,682
677,620;27849,820;    0,190;    1,136
678,194;28207,413;   -2,628;    1,136
678,769;27758,369;   -1,083;   -0,318
679,343;27970,688;   -0,628;    1,773
679,917;27814,372;   -1,446;    1,955
680,492;27914,510;    0,826;    3,227
681,066;28058,193;    3,372;    0,409
681,640;28106,513;    1,463;   -0,318
682,214;28907,650;    0,735;    0,500
682,788;28403,152;   -1,356;   -0,773
683,363;28366,926;   -1,810;    1,682
683,937;28029,882;   -1,719;   -0,318
684,511;28841,657;    0,463;   -0,591
685,085;28522,704;   -1,356;    0,318
685,659;28319,023;   -2,538;    0,864
686,232;28574,070;   -0,356;   -0,318
686,806;28289,935;   -0,901;    0,409
687,380;28905,891;   -0,174;    0,591
687,954;29090,302;   -1,174;    1,136
688,528;28818,440;   -0,719;    1,955
689,101;29601,851;   -3,992;    1,045
689,675;29231,898;   -0,356;   -0,136
690,249;28586,945;   -0,719;    0,409
690,822;28859,264;    0,280;    0,318
691,396;28955,493;   -0,265;    1,227
691,969;28391,086;    1,280;    0,136
692,543;28855,860;   -0,447;   -1,955
693,116;28573,725;   -0,265;   -1,409
693,690;28375,226;    0,099;    0,500
694,263;28958,910;   -1,083;    2,955
694,836;28961,775;    1,371;    3,591
695,410;27622,095;   -0,265;    1,773
695,983;28066,323;    0,189;    0,591
696,556;28066,280;   -0,447;   -1,045
697,129;28502,145;   -0,356;    1,409
697,703;28120,283;   -1,629;    1,955
698,276;28098,875;    1,462;   -0,773
698,849;27897,195;    1,280;    1,409
699,422;28274,060;   -1,083;    0,591
699,995;28005,380;    0,007;    0,136
700,568;28492,881;   -0,629;    3,045
701,140;28511,474;   -2,811;    1,682
701,713;28219,339;   -0,174;    2,409
702,286;27995,477;   -0,538;    0,864
702,859;27859,887;   -0,902;   -0,591
703,432;27076,843;    0,825;    0,682
704,004;27514,345;    0,462;    0,318
704,577;27407,301;   -0,629;    0,136
705,150;27931,984;    0,189;    2,500
705,722;27759,486;   -0,356;   -3,227
706,295;27575,715;   -0,175;   -0,591
706,867;27440,489;   -0,175;    1,955
707,440;27638,445;   -1,720;   -0,409
708,012;27848,946;    0,462;    0,591
708,584;27777,630;    2,462;    0,227
709,157;28127,131;    1,825;   -0,591
709,729;27705,178;    2,280;    2,045
710,301;28630,771;    0,734;    0,045
710,874;28607,545;   -1,447;   -0,227
711,446;27436,501;    0,371;    0,864
712,018;27367,639;    0,098;    0,500
712,590;27090,141;   -1,993;    1,682
713,162;27595,642;    0,825;    1,318
713,734;27916,598;    1,825;   -2,045
714,306;27794,372;   -1,902;   -0,409
714,878;26488,510;    0,825;    0,864
715,450;27305,194;    0,643;    0,864
716,022;27552,332;    1,552;    1,318
716,593;27719,106;    0,189;    0,591
717,165;27604,425;   -3,175;   -1,227
717,737;27324,836;    0,280;    0,409
718,309;27042,883;    0,280;   -0,045
718,880;26964,385;   -0,539;   -1,409
719,452;27223,704;   -0,175;   -1,591
720,024;26793,297;    0,734;   -0,591
720,595;27305,344;   -2,902;    0,955
721,167;26875,482;    0,370;   -2,045
721,738;26454,074;   -0,812;   -1,045
722,309;26429,212;   -0,993;   -1,227
722,881;26175,713;   -1,357;    0,773
723,452;26831,306;   -2,630;    2,864
724,023;26959,171;   -0,721;    2,682
724,595;26766,491;    0,007;    0,682
725,166;26547,447;    0,007;   -0,409
725,737;26221,039;    1,734;    0,227
726,308;26260,359;   -0,266;    0,318
726,879;26673,042;   -1,630;    1,227
727,450;26576,635;    0,552;   -0,045
728,021;26522,864;    3,097;    0,682
728,592;26311,547;    0,734;    0,500
729,163;26619,503;    0,643;   -0,136
729,734;26656,459;    0,188;   -0,227
730,305;26995,142;    1,734;    0,136
730,876;27309,189;    0,188;    2,955
731,447;27041,873;    2,188;    2,682
732,017;27155,283;    1,097;    1,864
732,588;26638,239;    0,734;    1,227
733,159;26790,650;    0,643;   -1,045
733,729;26629,515;    0,006;    0,409
734,300;25928,289;    0,915;    0,864
734,870;26337,973;    3,461;    0,591
735,441;26894,202;    0,370;   -0,591
736,011;26678,521;    0,643;   -1,591
736,582;26633,114;   -0,812;    0,045
737,152;26075,888;   -1,721;   -2,045
737,722;26484,571;   -0,267;   -0,682
738,293;26266,255;   -1,358;    1,318
738,863;26161,211;    2,461;    2,318
739,433;25957,985;    5,279;    0,318
740,003;26598,123;   -0,994;   -0,682
740,573;25966,352;    2,097;   -1,591
741,143;25942,490;   -1,085;    0,318
741,713;26743,446;    1,188;   -0,500
742,283;26453,129;    0,915;    1,591
742,853;26254,540;    1,915;    1,591
743,423;25705,405;    1,733;    0,045
743,993;25770,815;   -0,358;    1,500
744,563;25145,681;    0,097;   -0,864
745,133;25155,000;   -0,812;   -0,864
745,702;25895,138;   -0,267;    1,773
746,272;25032,822;   -0,176;    0,591
746,842;24799,323;   -1,358;   -0,591
747,411;25269,643;   -0,267;   -0,318
747,981;25476,872;    0,097;    0,500
748,551;25493,646;    2,278;   -1,045
749,120;25303,238;    0,642;   -0,227
749,690;25732,467;   -0,631;    2,409
750,259;26055,878;    1,369;    2,955
750,828;25970,834;    1,551;   -1,955
751,398;26167,426;    1,278;   -0,045
751,967;25706,200;    2,187;    0,409
752,536;25967,975;   -0,813;   -0,227
753,105;26330,931;    0,096;    0,227
753,675;26120,523;    0,096;    1,773
754,244;26078,479;   -0,904;    3,591
754,813;26175,163;    0,551;    1,227
755,382;25745,937;    0,460;    0,955
755,951;26279,075;    1,551;    3,682
756,520;25796,122;   -0,085;    1,864
757,089;26317,714;    0,278;    0,500
757,658;26483,125;    1,733;    1,227
758,227;26519,081;    1,096;    0,318
758,795;26822,492;    1,187;    1,136
759,364;27004,084;   -0,086;   -0,591
759,933;25997,767;   -1,176;   -0,045
760,501;25564,905;    0,733;   -1,318
761,070;26013,316;   -2,813;   -1,409
761,639;26717,908;   -1,904;    1,318
762,207;26042,683;    1,551;   -0,955
762,776;25985,730;    0,369;    0,864
763,344;25995,231;   -0,995;    0,591
763,913;25105,642;   -0,722;    1,409
764,481;25787,689;    1,005;   -0,136
765,049;25636,281;   -1,358;    1,409
765,618;25605,055;   -0,086;    0,318
766,186;25627,739;    0,278;    0,136
766,754;25850,786;    0,005;    1,864
767,322;24884,196;   -1,995;    0,409
767,890;24852,061;   -0,722;   -1,773
768,459;25234,381;   -2,177;   -0,318
769,027;25410,337;    1,641;    3,409
769,595;24402,839;    3,278;    2,591
770,163;24811,249;    3,823;    2,955
770,730;24541,933;    0,732;   -0,136
771,298;24478,525;    0,187;   -1,409
771,866;24571,572;   -1,541;    4,955
772,434;24869,255;   -0,631;   -1,864
773,002;25037,302;    0,005;    0,682
773,569;24739,531;    0,914;    1,682
774,137;24543,851;   -0,268;   -0,045
774,705;25302,625;    0,278;   -0,136
775,272;24791,945;    0,641;    0,682
775,840;24595,265;   -0,177;    2,682
776,407;24140,312;    0,277;    1,955
776,975;23734,722;   -0,632;    0,318
777,542;24731,951;   -1,086;   -0,045
778,110;24542,089;   -1,268;   -0,045
778,677;24194,590;   -2,359;   -0,864
779,244;23950,274;    2,186;    1,045
779,812;24117,139;    1,823;    0,864
780,379;24003,641;    0,005;    1,136
780,946;24262,324;    1,005;   -0,773
781,513;24559,825;   -1,450;    0,318
782,080;23864,872;   -0,086;    2,864
782,647;24630,101;   -0,268;    3,045
783,214;24265,966;   -0,177;    3,864
783,781;23827,104;   -0,723;   -0,682
784,348;23723,697;   -0,632;    1,500
784,915;24219,198;   -3,177;    0,318
785,482;23993,336;    1,368;    2,591
786,049;24428,565;    0,186;   -0,591
786,615;24544,430;    0,277;   -0,955
787,182;24274,568;    0,186;   -0,682
787,749;23961,979;   -2,814;    1,409
788,315;23293,026;   -1,632;   -0,409
788,882;23568,073;    1,550;   -1,227
789,448;24221,483;    1,732;   -0,955
790,015;24263,348;    1,095;    3,227
790,581;23859,213;    1,459;    0,227
791,148;23760,988;    0,641;    1,045
791,714;23970,762;   -0,541;    3,136
792,280;23666,536;    0,186;    1,591
792,847;23228,310;    0,550;    2,500
793,413;23774,903;   -0,269;   -0,318
793,979;23317,041;    3,459;   -1,318
794,545;23405,451;    4,459;    2,682
795,111;22837,498;    2,186;    1,318
795,678;22989,000;    0,731;   -1,682
796,244;22623,592;    3,368;    0,136
796,810;23198,548;    1,731;    0,773
797,375;22884,232;    0,549;   -2,136
797,941;22962,642;   -0,541;    0,591
798,507;23085,417;   -0,451;   -0,955
799,073;22634,645;   -0,360;    0,591
799,639;22721,238;   -2,632;    3,136
800,205;22797,649;    0,095;    2,682
800,770;22320,241;    0,640;    1,773
801,336;22390,015;    1,368;   -0,955
801,901;22089,608;    4,549;    3,136
802,467;22690,564;   -0,542;    2,045
803,033;22026,974;   -0,087;    0,864
803,598;22261,112;    1,913;   -1,045
804,163;22263,614;    1,095;   -0,318
804,729;22218,843;   -0,178;    1,136
805,294;22628,708;    0,822;    2,227
805,859;22396,664;    0,731;   -0,409
806,425;21826,984;    1,186;    2,682
806,990;21509,030;    2,186;    4,318
807,555;22067,168;   -1,451;    2,591
808,120;21917,852;    0,822;   -0,409
808,685;21961,990;    0,185;   -2,500
809,250;21483,309;    0,004;   -0,500
809,815;21824,447;    1,913;    0,682
810,380;22346,585;   -0,269;    1,591
810,945;22859,814;   -1,087;    2,045
811,510;22028,770;    2,094;    1,591
812,075;21761,726;   -0,633;   -1,409
812,640;21773,955;    2,003;    1,409
813,204;21851,456;    0,822;   -0,227
813,769;22306,412;    2,094;   -0,045
814,334;21707,914;    0,458;    0,864
814,898;21769,961;    0,367;    0,591
815,463;21608,917;    1,276;   -0,773
816,027;21619,055;   -0,724;   -2,318
816,592;21742,920;    0,640;   -2,045
817,156;21236,149;    2,094;    1,136
817,721;21074,196;    4,276;    2,318
818,285;20998,697;    2,912;    1,500
818,849;21680,199;   -1,451;    1,682
819,414;21573,973;   -0,269;    2,955
819,978;21206,566;   -1,269;    1,773
820,542;21759,885;    2,003;    0,500
821,106;21464,478;   -0,815;    0,682
821,670;21556,434;   -0,815;    2,591
822,234;21300,390;   -0,270;    1,409
822,798;20694,255;    0,003;    0,500
823,362;20635,757;   -0,633;    4,227
823,926;19969,622;    0,094;    1,136
824,490;20186,487;   -0,997;   -0,682
825,054;20660,625;   -0,088;   -1,136
825,618;20261,763;   -1,542;   -1,500
826,181;20174,173;    0,458;   -1,318
826,745;20069,948;    1,367;   -1,045
827,309;20445,722;    1,185;    1,318
827,872;19848,860;    1,367;    0,955
828,436;20830,907;    1,185;   -0,773
828,999;20914,408;   -0,997;    1,227
829,563;19745,183;   -0,179;    1,136
830,126;19551,684;   -0,179;   -0,591
830,690;19566,276;   -1,997;    2,864
831,253;19080,687;   -0,543;    2,227
831,816;19189,189;   -1,906;    0,500
832,380;19149,781;    0,185;    0,864
832,943;19369,283;   -1,361;   -0,500
833,506;18870,330;    2,639;   -1,227
834,069;19598,195;    3,912;   -0,955
834,632;19700,969;    1,730;    1,318
835,195;19588,107;    1,003;    0,955
835,758;18813,427;   -0,997;    1,955
836,321;18668,201;    0,730;   -1,045
836,884;18792,611;   -0,725;   -0,955
837,447;18826,204;   -2,816;    1,773
838,010;19040,069;    0,366;    3,227
838,573;19356,298;   -1,179;    0,773
839,135;19317,436;   -1,361;   -0,955
839,698;18723,392;    1,275;    0,409
840,261;18289,166;    1,003;   -0,227
840,823;18189,940;   -0,543;    0,864
841,386;18445,533;   -0,452;   -2,409
841,948;18309,762;   -1,361;    1,773
842,511;18042,899;    0,912;    1,682
843,073;18169,765;    1,912;    0,227
843,636;18004,812;   -0,361;   -0,227
844,198;17962,859;    0,911;    0,591
844,760;18045,815;    1,093;    1,955
845,322;17715,043;    0,548;    1,136
845,885;18148,272;    0,730;    0,591
846,447;18559,228;   -1,998;    0,227
847,009;18128,821;    1,911;   -0,682
847,571;18460,050;    0,820;   -2,045
848,133;18567,278;   -1,089;   -1,864
848,695;18404,416;   -0,543;    1,409
849,257;17961,645;   -1,089;   -1,682
849,819;18136,510;   -0,998;   -0,409
850,381;18178,284;   -0,725;   -0,864
850,942;18505,604;    1,093;   -0,591
851,504;18465,197;    1,184;    0,227
852,066;18538,244;    1,275;   -1,591
852,628;18045,927;   -0,180;    1,955
853,189;17630,792;    1,638;    2,682
853,751;17740,385;   -0,907;    1,409
854,312;17569,977;   -0,453;   -1,682
854,874;18040,660;   -2,089;   -0,773
855,435;18600,526;   -0,907;   -1,682
855,997;18731,663;   -1,816;   -0,136
856,558;18035,529;    0,366;    1,773
857,119;18143,212;    0,820;    2,864
857,681;17817,804;    0,002;    0,318
858,242;17866,760;    1,911;   -2,136
858,803;18298,171;    0,456;   -0,773
859,364;18882,309;    0,184;   -4,773
859,925;18207,356;   -2,453;   -0,955
860,486;18135,767;   -0,453;   -0,955
861,047;17804,995;   -0,544;   -1,227
861,608;17607,679;   -1,089;   -0,773
862,169;17762,362;    0,638;   -0,045
862,730;17529,227;    0,456;    1,409
863,291;17763,820;   -0,635;   -0,500
863,852;18136,594;   -0,635;    1,955
864,412;17631,823;   -0,271;   -0,864
864,973;16222,233;   -0,089;    0,500
865,534;16094,644;   -1,726;    0,227
866,094;17565,964;    1,820;    0,227
866,655;17208,465;    1,274;    3,318
867,215;17514,785;    0,274;    0,136
867,776;17367,377;    0,547;   -0,136
868,336;17474,970;   -1,453;    0,136
868,897;16913,289;    2,638;    1,682
869,457;16662,882;    1,365;    0,318
870,017;16889,838;    0,547;   -1,227
870,578;17414,430;   -0,817;    0,773
871,138;17094,477;   -2,089;   -0,955
871,698;16681,161;   -0,817;   -1,318
872,258;16528,299;   -0,453;   -2,864
872,818;16914,527;    2,729;    0,045
873,378;16856,029;    0,638;    1,045
873,938;16434,803;    0,547;    0,500
874,498;16742,123;    0,274;   -1,955
875,058;16650,261;    2,183;    1,773
875,618;16516,217;    1,910;   -2,682
876,177;16446,446;    1,274;    0,136
876,737;16032,493;   -0,090;    1,955
877,297;16038,903;    0,183;    1,955
877,856;16045,587;   -0,362;    0,318
878,416;16014,725;    1,183;   -0,136
878,976;16217,862;   -1,817;    0,409
879,535;16420,728;    0,092;    3,136
880,095;16143,502;   -0,544;    0,045
880,654;16263,276;   -1,090;    1,318
881,213;16339,050;    2,456;    1,500
881,773;15958,279;    2,637;    2,682
882,332;16292,053;    3,365;    5,136
882,891;16174,737;    3,092;    2,136
883,451;16658,784;   -1,272;    1,682
884,010;16147,558;   -2,908;   -0,409
884,569;16183,241;   -0,999;   -0,045
885,128;16308,197;    2,819;   -1,864
885,687;16382,063;    4,455;    0,682
886,246;16078,928;    1,455;    2,136
886,805;15862,611;    2,455;    2,045
887,364;16150,022;   -0,999;   -0,500
887,922;16517,614;   -1,181;    0,045
888,481;16025,297;   -1,545;    0,591
889,040;16338,617;    1,183;    2,136
889,599;17019,301;    2,455;    1,409
890,157;17065,166;    1,455;    2,409
890,716;16746,394;   -0,090;    0,227
891,274;16581,078;    0,092;   -1,136
891,833;17010,670;    1,546;    0,864
892,391;16859,172;   -0,454;    0,500
892,950;16919,492;    1,819;   -0,773
893,508;17297,084;    0,455;   -0,409
894,067;16683,495;    0,637;    0,136
894,625;16543,087;   -0,636;   -1,500
895,183;16786,498;   -0,363;   -0,682
895,741;16640,363;    1,728;   -1,773
896,299;16520,773;   -0,545;   -2,409
896,858;16671,093;    0,819;   -1,591
897,416;16817,958;    2,728;   -1,318
897,974;16577,278;    1,819;    0,318
898,532;16671,780;    6,091;    2,682
899,089;16601,372;    2,091;   -0,682
899,647;16645,328;   -1,454;    1,318
900,205;16360,102;    1,182;    1,045
900,763;16583,695;   -0,454;    0,227
901,321;16585,378;    2,364;   -1,409
901,878;16055,061;   -1,000;   -0,773
902,436;15928,745;   -1,363;    1,318
902,994;16288,792;    4,728;    3,682
903,551;15734,930;    0,728;    0,409
904,109;16140,340;    0,182;   -1,409
904,666;15770,842;    2,455;    1,045
905,224;15592,525;    0,182;   -0,409
905,781;15304,936;    0,727;   -0,318
906,338;15374,892;   -1,363;    1,045
906,895;15336,302;    0,637;    2,045
907,453;15243,440;    1,727;    1,136
908,010;15306,487;   -0,909;    0,409
908,567;14956,534;    1,273;    0,591
909,124;14455,854;    0,364;   -1,500
909,681;14569,174;   -2,909;    0,682
910,238;14704,584;    0,636;   -1,318
910,795;15012,449;   -0,273;   -1,136
911,352;14646,359;   -2,909;   -2,682
911,909;14089,631;   -1,364;   -0,864
912,466;14603,086;   -3,182;    1,500
913,022;14101,449;   -1,636;    0,500
913,579;14466,268;   -0,909;    2,045
914,136;14154,359;    1,636;    0,955
914,692;14551,540;    0,091;   -1,227
915,249;14124,359;    1,455;    0,409
915,806;14346,540;    0,182;    1,955
916,362;14087,904;    1,909;    1,864
916,918;13649,449;    2,000;    1,045
917,475;13589,540;   -1,182;    0,955
918,031;13723,813;    3,364;   -0,045
918,587;13171,449;   -0,909;   -0,318
919,144;13375,722;   -2,273;    0,227
919,700;13691,449;    1,727;    0,773
920,256;13306,995;    0,727;    0,045
920,812;12942,540;   -0,727;   -1,045
921,368;12961,813;   -1,727;   -1,045
921,924;12579,540;    0,182;   -0,136
922,480;12136,449;   -0,545;    1,227
923,036;12783,813;    1,273;    1,955
923,592;12709,449;    0,455;    0,318
924,148;12628,995;    0,455;   -0,955
924,704;11928,540;   -1,364;   -0,409
925,259;12247,813;   -0,273;    0,591
925,815;11972,177;    1,455;    0,500
926,371;11529,449;    2,909;    1,409
926,926;11400,086;    2,091;    0,591
927,482;11039,904;   -1,364;    0,773
928,037;10919,086;    0,909;    2,045
928,593;11191,904;    1,636;    1,045
929,148;11062,177;   -1,818;   -1,500
929,704;10570,722;   -1,455;   -0,500
930,259;10760,359;    0,091;   -0,136
930,814; 9820,631;   -0,818;    1,955
931,369; 9535,722;    1,091;   -0,773
931,925; 9405,086;   -0,091;    0,136
932,480; 9333,359;   -2,818;   -2,591
933,035; 9210,540;    0,545;   -0,318
933,590; 9009,813;    0,364;   -1,773
934,145; 8651,449;   -1,364;   -0,318
934,700; 9000,086;    0,455;   -0,591
935,255; 8803,359;   -0,091;    0,045
935,809; 8070,904;    3,182;    0,864
936,364; 7233,086;   -0,455;   -0,136
936,919; 7219,722;    0,455;   -1,773
937,474; 7106,359;    1,455;    0,136
938,028; 6893,722;   -1,636;    1,136
938,583; 6357,540;    1,818;    4,682
939,138; 6646,359;    2,091;    2,136
939,692; 6097,086;    1,636;   -1,136
940,247; 5786,268;   -0,727;   -1,045
940,801; 5365,268;   -0,636;    0,227
941,355; 5273,904;   -0,364;    2,591
941,910; 4937,722;   -0,273;   -2,136
942,464; 5024,722;   -0,818;   -0,318
943,018; 4846,449;    1,000;   -0,227
943,572; 4782,086;    2,545;   -0,682
944,126; 4208,540;    0,091;   -0,409
944,681; 4101,177;    3,091;    0,227
945,235; 4099,449;    1,000;   -0,591
945,789; 4029,813;    0,364;   -1,864
946,342; 4122,631;    0,455;   -0,591
946,896; 3943,631;   -2,273;    0,955
947,450; 3716,722;    1,545;   -0,227
948,004; 3887,813;    1,727;   -0,045
948,558; 3887,904;    0,273;   -0,864
949,111; 3808,722;   -0,273;   -0,318
949,665; 3826,086;    1,636;   -0,682
950,219; 3743,177;   -0,091;   -1,045
950,772; 3805,268;   -1,909;    1,864
951,326; 3696,359;    0,545;   -0,955
951,879; 3811,904;    0,727;   -2,318
952,433; 3835,540;    0,000;    2,227
952,986; 3670,359;    2,909;    0,682
953,539; 3606,904;   -0,273;    0,591
954,093; 3582,995;    0,545;   -1,318
954,646; 3703,086;    0,909;    1,318
955,199; 3514,722;    0,000;   -0,500
955,752; 3407,722;   -0,455;    1,773
956,305; 3372,722;   -0,091;    2,955
956,858; 3512,813;    0,818;   -0,318
957,411; 3693,813;   -0,545;    2,136
957,964; 3521,086;    1,364;    2,136
958,517; 3497,631;   -1,545;    3,136
959,070; 3338,268;   -0,455;    1,955
959,623; 3426,722;    1,091;    1,500
960,176; 3184,540;    1,727;    2,045
960,728; 3153,177;   -2,727;    0,773
961,281; 3235,540;    0,545;    0,500
961,834; 3272,268;   -0,909;    0,864
962,386; 3195,904;    1,727;    1,045
962,939; 3119,904;    0,364;   -0,318
963,491; 3257,449;    0,455;    1,136
964,043; 3149,086;    1,182;    2,409
964,596; 3245,359;   -1,000;    2,227
965,148; 3110,540;   -1,000;    1,773
965,700; 3033,995;    1,091;   -0,227
966,253; 3173,631;   -0,636;    0,318
966,805; 3022,449;   -2,273;    0,773
967,357; 3065,722;    1,091;   -1,500
967,909; 3022,813;    0,455;   -1,227
968,461; 3123,177;    0,545;    3,136
969,013; 3062,359;   -0,182;   -0,864
969,565; 3130,449;   -0,455;   -1,136
970,117; 3202,177;   -0,364;    1,045
970,669; 3054,631;    0,182;   -0,136
971,220; 2927,722;   -0,455;   -1,500
971,772; 2865,086;   -0,636;   -0,318
972,324; 2950,813;    0,091;   -0,500
972,876; 2880,268;    0,818;   -0,045
973,427; 3035,268;    1,909;   -1,045
973,979; 3011,631;   -0,727;   -2,500
974,530; 3041,086;    1,818;    1,318
975,082; 3045,995;   -0,545;    1,682
975,633; 2929,359;    1,091;    1,682
976,184; 3083,449;    0,909;    0,773
976,736; 2888,722;    0,091;    0,227
977,287; 2693,086;   -0,909;   -0,500
977,838; 2853,722;    0,909;   -0,318
978,389; 2925,086;   -1,000;   -0,500
978,940; 2797,904;    0,545;   -0,409
979,491; 2822,086;    0,091;   -0,500
980,042; 2800,540;    0,182;    3,045
980,593; 2846,449;   -2,545;    0,227
981,144; 2884,177;    2,545;   -0,500
981,695; 2857,995;    1,455;    1,500
982,246; 2816,813;   -0,273;    1,045
982,797; 2978,268;   -1,727;    0,682
983,347; 3073,177;    0,364;    0,591
983,898; 3237,813;    3,091;    0,409
984,449; 3061,995;    2,182;    0,773
984,999; 2975,904;    1,455;   -1,136
985,550; 2759,995;    0,182;   -0,318
986,100; 2791,631;   -0,455;   -0,318
986,651; 2836,631;   -0,818;    0,045
987,201; 2817,086;   -1,000;   -0,591
987,751; 2893,540;    0,818;    2,864
988,302; 2871,268;    2,636;    1,500
988,852; 2904,813;    0,455;   -1,136
989,402; 2934,177;    0,091;    0,682
989,952; 2850,268;   -2,182;    0,864
990,502; 2947,268;   -0,091;    0,682
991,052; 2916,359;   -0,727;    0,045
991,602; 2791,449;   -2,909;    1,318
992,152; 2772,722;    0,455;    0,682
992,702; 2776,995;    1,364;   -0,045
993,252; 2693,177;   -3,000;   -0,500
993,802; 2789,449;   -0,273;    1,318
994,352; 3027,359;   -1,545;    1,136
994,901; 3115,268;   -0,182;    3,227
995,451; 3035,540;   -0,182;    0,318
996,000; 3124,904;    1,636;    0,318
996,550; 2845,449;    2,273;    0,227
997,100; 2832,359;    1,273;   -0,045
997,649; 3106,268;    2,182;    0,955
998,198; 2745,631;    1,727;   -1,500
998,748; 2945,631;    1,091;   -2,318
999,297; 2857,268;   -0,818;   -0,409
999,846; 2925,449;    1,000;   -0,773
1000,395; 2968,995;   -0,818;    0,500
1000,945; 2899,813;    1,818;   -0,773
1001,494; 2993,631;    2,364;    0,682
1002,043; 2996,631;    4,636;    0,864
1002,592; 2838,631;   -1,091;    1,955
1003,141; 2975,268;   -0,455;   -0,682
1003,690; 2835,813;    1,727;    0,500
1004,238; 2908,813;    1,455;   -0,045
1004,787; 2569,995;    1,364;    1,227
1005,336; 2782,995;    0,364;    0,682
1005,885; 2927,813;    1,364;   -2,773
1006,433; 3070,995;    0,545;    0,955
1006,982; 3133,359;    0,455;    1,682
1007,531; 3043,631;   -1,818;   -0,227
1008,079; 3003,359;   -2,273;    0,500
1008,627; 3127,540;   -1,455;    0,409
1009,176; 2874,904;    0,000;   -1,955
1009,724; 2929,722;    1,091;    0,864
1010,273; 2970,177;    1,273;    0,500
1010,821; 3090,995;    0,091;    1,409
1011,369; 2843,631;   -1,364;    1,318
1011,917; 2811,995;   -1,364;   -0,591
1012,465; 3093,449;    1,273;   -1,591
1013,013; 3214,904;    2,091;   -1,682
1013,561; 3076,540;    0,455;   -0,773
1014,109; 3115,449;   -1,909;    1,682
1014,657; 3005,995;    0,364;    0,591
1015,205; 3124,177;    1,636;   -0,955
1015,753; 3164,449;   -0,545;   -1,409
1016,301; 3200,631;   -2,636;    3,045
1016,848; 3191,086;   -1,273;    0,409
1017,396; 3246,177;    2,545;    0,045
1017,944; 3368,268;    1,182;    1,864
1018,491; 3128,540;    0,273;    1,409
1019,039; 3277,177;    0,455;    0,591
1019,586; 3190,540;   -1,364;    1,682
1020,134; 3305,631;    0,455;    1,500
1020,681; 3340,722;    0,182;   -1,136
1021,228; 3342,086;    2,909;   -2,227
1021,776; 3162,177;    1,182;   -1,136
1022,323; 3369,359;    0,455;    0,773
1022,870; 3305,631;   -1,000;   -0,045
1023,417; 3196,631;    2,636;    1,864
1023,964; 3359,449;    2,636;    1,227
1024,511; 3204,722;    1,000;    0,773
1025,058; 3003,449;    3,182;   -0,045
1025,605; 3044,904;   -2,273;    3,136
1026,152; 3266,359;    1,727;   -0,591
1026,699; 3000,722;    1,818;    1,318
1027,245; 3160,540;   -0,091;    0,318
1027,792; 3373,722;   -1,000;    1,409
1028,339; 3267,177;    2,364;   -0,045
1028,885; 3111,359;    1,000;   -0,227
1029,432; 3059,722;   -0,091;    0,227
1029,978; 3108,359;   -1,000;   -1,591
1030,525; 3026,449;    1,000;    0,409
1031,071; 3272,449;   -1,364;    1,136
1031,618; 3374,086;    0,364;    1,682
1032,164; 3156,722;   -0,091;    3,045
1032,710; 3192,177;    1,636;   -1,500
1033,256; 3122,268;   -0,636;   -0,136
1033,803; 3114,540;   -0,545;    1,500
1034,349; 2850,359;   -1,364;    0,136
1034,895; 2981,813;    0,000;   -0,318
1035,441; 2959,631;   -0,818;    0,318
1035,987; 2974,268;   -2,364;   -0,682
1036,533; 2971,086;   -1,455;   -0,955
1037,078; 3171,177;    1,455;    1,682
1037,624; 3000,268;    2,455;   -0,955
1038,170; 3025,177;    0,455;   -0,318
1038,716; 2929,813;    1,636;   -0,409
1039,261; 2830,995;   -2,273;   -0,773
1039,807; 2755,540;   -0,091;    3,409
1040,352; 2838,813;   -1,909;   -0,318
1040,898; 2882,722;   -1,545;   -0,682
1041,443; 2801,449;   -1,455;   -2,591
1041,989; 2826,268;    1,091;    1,591
1042,534; 2711,449;   -0,364;    2,591
1043,079; 2823,268;    2,909;    0,955
1043,625; 2617,177;    1,818;    0,500
1044,170; 2655,086;   -1,364;    1,045
1044,715; 2911,449;    2,455;    0,955
1045,260; 2736,177;    2,182;   -0,955
1045,805; 2789,995;    1,182;   -0,591
1046,350; 2726,086;    1,364;   -0,409
1046,895; 2669,995;    2,909;    1,591
1047,440; 2623,813;    5,364;    0,409
1047,985; 2527,995;    2,818;   -0,955
1048,530; 2440,449;    1,545;    1,227
1049,074; 2492,813;    0,000;    0,318
1049,619; 2479,722;   -1,364;    1,955
1050,164; 2305,086;    0,455;    0,227
1050,708; 2332,904;   -0,455;    0,045
1051,253; 2696,359;    1,273;   -2,227
1051,797; 2422,540;    0,818;   -1,318
1052,342; 2432,449;   -1,182;    1,045
1052,886; 2412,995;    0,364;   -1,409
1053,430; 2302,995;   -1,364;    0,136
1053,975; 2299,540;   -0,818;   -0,318
1054,519; 2288,631;   -0,727;    3,227
1055,063; 2306,813;    0,909;    1,318
1055,607; 2204,086;   -0,182;    0,227
1056,151; 2219,631;    2,909;    1,682
1056,695; 2134,995;    2,273;   -1,136
1057,239; 2213,631;   -1,727;   -0,682
1057,783; 2225,086;    0,818;   -1,500
1058,327; 2167,086;    0,000;    1,409
1058,871; 2387,540;   -0,545;    1,318
1059,415; 2092,904;   -0,818;   -0,045
1059,958; 2359,086;    1,455;    2,591
1060,502; 2081,086;   -1,000;   -0,773
1061,046; 1988,177;    0,364;   -0,955
1061,589; 1982,268;   -3,000;   -1,136
1062,133; 1849,631;   -1,273;    1,864
1062,676; 1799,268;    1,182;    0,864
1063,220; 1795,359;    1,091;    0,500
1063,763; 1808,540;    0,909;    1,136
1064,306; 1900,995;   -0,909;    1,864
1064,849; 1779,268;   -0,909;    0,591
1065,393; 1779,722;    2,000;   -1,500
1065,936; 1895,449;    0,182;   -0,409
1066,479; 1791,904;   -1,455;    1,318
1067,022; 1809,177;   -0,273;   -0,227
1067,565; 1705,631;   -0,091;   -1,318
1068,108; 1746,722;    0,727;   -0,591
1068,651; 1718,449;   -0,636;    1,409
1069,194; 1637,268;   -0,455;   -1,682
1069,736; 1630,540;   -1,273;    0,955
1070,279; 1613,359;   -1,364;   -0,500
1070,822; 1668,631;   -2,000;   -0,318
1071,364; 1752,995;   -0,364;    1,318
1071,907; 1582,995;   -0,727;    3,227
1072,450; 1485,540;    0,000;   -0,045
1072,992; 1470,722;   -0,273;    3,136
1073,535; 1620,359;    2,091;    2,136
1074,077; 1415,086;   -0,727;    2,045
1074,619; 1383,813;   -1,364;    0,591
1075,161; 1416,177;   -1,091;    1,500
1075,704; 1591,268;    1,545;    1,227
1076,246; 1386,359;   -0,182;    0,682
1076,788; 1318,540;   -0,364;    1,773
1077,330; 1406,086;    1,273;    2,136
1077,872; 1364,540;    0,909;    0,955
1078,414; 1572,086;    2,727;    0,773
1078,956; 1308,268;    1,273;   -0,227
1079,498; 1560,722;    1,636;    0,318
1080,040; 1274,631;    1,909;   -1,318
1080,581; 1211,449;    1,636;   -0,318
1081,123; 1154,359;    0,091;   -0,773
1081,665; 1190,995;   -1,182;   -0,955
1082,206; 1486,540;    1,364;   -0,500
1082,748; 1335,540;    0,727;    2,045
1083,289; 1231,813;   -2,000;    1,318
1083,831; 1134,449;   -0,545;    0,227
1084,372; 1167,268;    0,000;    0,591
1084,913; 1180,177;    1,091;    0,864
1085,455; 1152,995;   -1,909;   -2,045
1085,996; 1106,268;   -2,273;    0,136
1086,537; 1135,268;   -0,091;    0,864
1087,078; 1163,449;   -0,909;   -2,136
1087,619; 1198,540;   -1,273;    0,227
1088,160; 1123,813;    0,000;    1,318
1088,701; 1096,449;   -1,091;    0,682
1089,242; 1036,631;    1,364;   -2,227
1089,783; 1145,540;   -0,273;    1,409
1090,324; 1114,177;    0,455;    0,682
1090,865;  998,995;    2,727;   -0,409
1091,405;  968,268;    0,727;    2,227
1091,946;  989,177;    0,182;   -0,955
1092,487;  910,268;    0,818;   -1,409
1093,027; 1075,722;   -1,364;   -1,500
1093,568;  935,268;   -0,364;    1,227
1094,108; 1032,540;    0,273;    1,773
1094,649;  965,268;   -1,182;    0,136
1095,189;  907,359;   -0,636;   -0,682
1095,729;  862,813;   -0,091;    0,955
1096,269;  877,631;    0,727;   -0,955
1096,810; 1173,177;   -1,364;    0,500
1097,350;  999,813;    1,364;   -0,773
1097,890;  909,359;    0,364;    1,227
1098,430; 1152,177;    2,364;    2,864
1098,970; 1028,449;    2,182;    1,682
1099,510;  890,177;    0,545;   -2,318
1100,050;  820,904;    1,000;   -1,591
1100,589;  791,540;   -0,727;   -0,318
1101,129;  914,359;    0,818;   -0,955
1101,669; 1060,449;    1,727;    2,136
1102,209;  884,813;   -0,091;    2,227
1102,748;  830,268;    0,000;    0,955
1103,288;  828,813;    1,273;   -1,227
1103,827;  852,177;    3,091;   -2,227
1104,367;  739,086;   -0,091;   -2,409
1104,906;  702,268;    1,364;   -1,136
1105,445;  762,086;    0,636;   -1,136
1105,985;  716,904;   -0,727;    1,500
1106,524;  761,449;   -1,727;   -0,682
1107,063;  734,540;   -2,727;    1,409
1107,602;  710,268;   -1,909;   -1,500
1108,141;  636,268;   -1,909;    1,500
1108,680;  736,995;   -3,455;   -0,591
1109,219;  670,177;   -0,909;   -0,500
1109,758;  674,631;    0,455;    0,682
1110,297;  635,904;    1,000;   -0,682
1110,836;  594,086;   -0,727;    0,955
1111,375;  755,631;   -2,545;    0,409
1111,913;  770,268;   -1,000;    0,773
1112,452;  702,359;   -0,273;    0,136
1112,991;  597,177;    1,091;    1,955
1113,529;  545,995;   -0,818;   -0,045
1114,068;  624,177;   -0,273;    2,955
1114,606;  520,086;   -0,364;   -0,955
1115,144;  668,177;   -1,273;    1,045
1115,683;  612,995;   -0,727;    0,318
1116,221;  649,631;   -0,455;   -0,864
1116,759;  568,995;    0,636;   -0,864
1117,297;  770,268;    0,000;    1,864
1117,836;  581,631;   -2,182;   -1,227
1118,374;  584,540;    0,182;   -0,682
1118,912;  536,904;    0,909;    2,682
1119,450;  520,540;    1,000;    0,864
1119,988;  573,086;    1,545;    2,136
1120,525; 1010,540;    5,091;    3,318
1121,063;  713,177;    1,182;    1,864
1121,601;  525,359;   -0,909;   -1,227
1122,139;  487,813;   -0,727;   -2,045
1122,676;  681,631;   -0,727;    2,773
1123,214;  613,904;   -1,182;    4,409
1123,751;  427,449;    1,727;    2,227
1124,289;  560,359;   -0,091;   -0,409
1124,826;  424,177;    1,727;    0,227
1125,364;  350,904;    1,727;   -0,955
1125,901;  535,177;    1,182;    1,227
1126,438;  636,268;    0,818;    0,955
1126,975;  375,359;   -0,727;   -0,773
1127,513;  441,086;    0,273;    2,136
1128,050;  349,359;    1,636;   -0,682
1128,587;  446,995;    2,000;   -0,227
1129,124;  497,086;    0,091;    1,318
1129,661;  363,813;    0,273;    0,227
1130,198;  523,904;    1,636;    0,773
1130,734;  466,995;    0,182;    1,409
1131,271;  334,086;   -0,909;    0,864
1131,808;  494,540;    2,909;    3,045
1132,345;  380,359;    1,545;    0,318
1132,881;  257,359;   -1,545;   -1,864
1133,418;  392,540;    0,727;   -1,136
1133,954;  317,722;    2,455;   -2,682
1134,491;  386,268;    1,364;   -0,773
1135,027;  293,904;    2,364;    0,864
1135,564;  391,904;    0,273;    2,955
1136,100;  367,631;    0,364;    2,136
1136,636;  259,359;   -1,273;   -1,045
1137,172;  350,540;    0,000;   -1,045
1137,708;  273,086;   -1,364;   -1,045
1138,245;  283,449;    1,273;   -1,227
1138,781;  235,449;    1,091;   -3,318
1139,317;  300,904;    1,273;   -1,409
1139,852;  281,359;    3,091;    0,136
1140,388;  397,449;   -1,182;   -0,409
1140,924;  284,177;   -1,091;   -2,227
1141,460;  225,631;   -1,636;    0,136
1141,996;  167,359;   -1,364;    2,682
1142,531;  206,722;    1,364;    3,318
1143,067;  415,268;    1,182;    1,045
1143,602;  476,995;   -0,091;   -0,318
1144,138;  323,177;   -2,636;    1,045
1144,673;  191,540;   -1,455;    1,409
1145,209;  260,268;   -1,909;   -0,318
1145,744;  182,722;   -0,727;    0,864
1146,279;  314,177;    1,818;   -0,136
1146,815;  231,813;    1,545;   -2,682
1147,350;  269,995;   -1,364;    0,045
1147,885;  181,722;   -0,818;   -1,318
1148,420;  173,086;   -2,273;    0,773
1148,955;  162,995;   -1,727;    1,864
1149,490;  189,631;   -0,909;   -1,591
1150,025;  172,177;    0,455;   -1,773
1150,560;  291,540;    1,091;   -0,955
1151,094;  250,995;    1,455;   -0,591
1151,629;  247,722;    1,636;    0,864
1152,164;  173,359;    1,364;    1,318
1152,698;  135,995;   -0,182;   -0,136
1153,233;  102,813;    0,091;   -0,682
1153,767;  137,995;   -3,000;   -2,318
1154,302;  191,086;   -1,455;    1,773
1154,836;  197,449;   -0,455;   -2,136
1155,371;  250,177;   -1,364;    3,682
1155,905;  197,268;   -0,636;    1,682
1156,439;  161,904;   -0,636;   -0,500
1156,973;  195,722;    0,364;    0,318
1157,507;  136,449;   -0,364;    0,682
1158,042;  161,359;   -0,727;    1,045
1158,576;  214,268;    0,182;    1,773
1159,110;  204,359;   -0,818;    2,409
1159,643;  171,359;    0,636;   -0,045
1160,177;  109,449;   -1,545;    1,500

