
Integration time [ms]:   0,040
Averaging Nr. [scans]: 11
Smoothing Nr. [pixels]: 0
Data measured with spectrometer [name]: 7318044SP
Wave   ;Sample   ;Dark     ;Reference
[nm]   ;[counts] ;[counts] ;[counts] 

186,757;    6,261;   31,551;    1,318
187,357;   30,262;   22,551;    0,955
187,958;    7,145;   15,460;   -1,591
188,558;   43,622;    8,915;   -1,227
189,159;   21,629;    6,733;   -4,500
189,759;  -12,403;    7,278;   -3,591
190,360;  -15,934;    2,824;   -2,136
190,960;   13,017;    2,915;   -4,136
191,560;   17,123;    3,189;   -6,591
192,161;  208,386;    4,372;   -3,500
192,761;   87,541;    4,010;   -3,227
193,361;   42,460;    1,556;   -3,773
193,962;   72,792;    2,010;   -2,682
194,562;    9,010;    1,189;   -3,955
195,162;   17,876;   -2,448;   -2,227
195,762;  129,970;   -3,176;   -0,045
196,362;   89,438;    1,370;   -2,500
196,963;    1,032;    2,006;   -0,864
197,563;   34,624;    1,551;   -0,955
198,163;    3,692;    0,096;   -0,682
198,763;   16,068;    1,733;   -0,500
199,363;   65,495;    3,096;   -0,500
199,963;   30,348;    0,369;    0,409
200,563;   20,575;    2,823;   -1,409
201,163;    4,623;    3,277;   -0,227
201,763;   35,981;    3,732;    0,318
202,363;   12,506;    1,459;    1,500
202,963;   34,312;    1,459;    1,045
203,563;   83,694;    0,277;    0,500
204,162;   19,516;    2,096;   -1,864
204,762;   15,563;    0,550;    0,591
205,362;   -7,759;    3,004;    1,955
205,962;   17,713;    3,096;    1,955
206,562;   18,626;    1,823;    2,318
207,161;    3,999;   -0,087;    0,318
207,761;   69,475;    1,277;    2,409
208,361;   16,337;   -0,268;    1,409
208,960;   26,409;    0,459;    1,500
209,560;   21,112;    1,277;    1,591
210,160;   30,460;    0,550;    1,864
210,759;   17,207;    4,186;    1,227
211,359;   -0,235;    1,459;    1,045
211,958;   95,100;    1,277;    2,045
212,558;  103,821;    1,732;    1,864
213,157;   35,198;    1,822;    1,500
213,757;  173,316;    3,822;   -0,227
214,356;   62,602;    1,277;   -0,409
214,956;  153,995;    3,095;    0,409
215,555;   43,595;    2,095;    2,136
216,154;   10,443;   -2,723;   -0,591
216,754;    6,260;    0,277;    0,773
217,353;   16,297;   -0,268;   -1,045
217,952;  -12,595;   -0,178;    0,318
218,552;   43,406;    1,368;   -0,773
219,151;    6,995;    0,277;    0,955
219,750;    0,895;    0,004;   -0,227
220,349;   -7,892;   -0,451;    1,045
220,948;   57,941;   -1,360;    1,136
221,548;   13,400;    0,913;    1,227
222,147;   15,334;   -0,087;   -0,409
222,746;   83,393;   -0,451;   -0,955
223,345;   37,671;    0,731;    0,500
223,944;   32,620;   -0,451;    0,773
224,543;   41,060;    1,004;   -1,409
225,142;   37,026;    0,094;    0,136
225,741;   35,597;   -0,814;    1,045
226,340;   22,724;   -0,451;   -0,955
226,939;   75,968;   -0,996;   -0,136
227,538;   14,442;   -0,360;   -0,773
228,137;   83,383;   -0,814;    0,864
228,735;   53,655;   -0,541;    1,227
229,334;   -8,075;   -0,905;   -0,227
229,933;   75,807;    0,459;    0,591
230,532;   71,976;    1,186;   -0,409
231,131;  114,816;    1,732;    0,318
231,729;   52,620;   -2,450;   -2,318
232,328;   17,950;   -0,723;   -1,500
232,927;   22,506;    1,004;   -0,500
233,525;   20,673;    3,640;    0,045
234,124;   35,036;    2,368;   -1,591
234,723;    6,408;    0,913;   -1,045
235,321;   -8,423;    2,277;    0,136
235,920;   -1,470;    1,186;   -1,227
236,518;   70,699;    3,459;    0,318
237,117;    7,188;    0,004;   -0,227
237,715;   25,260;    0,640;   -0,500
238,314;   34,434;   -0,087;   -2,318
238,912;   78,919;   -0,723;   -1,409
239,510;   41,369;    0,459;   -1,227
240,109;   90,346;    0,004;    3,773
240,707;   67,503;   -0,996;    1,227
241,305;    6,905;    0,550;    0,136
241,904;   35,996;   -0,178;   -2,045
242,502;  104,090;   -0,632;   -0,227
243,100;   57,803;   -0,087;   -0,955
243,698;    9,056;    0,732;    1,682
244,297;   29,108;   -0,632;    0,682
244,895;   25,393;   -0,269;   -2,318
245,493;   99,555;    2,186;   -0,591
246,091;  104,338;    1,368;   -1,318
246,689;   57,610;    1,004;    0,591
247,287;   57,033;    0,822;   -1,136
247,885;   40,600;   -1,451;    1,227
248,483;   16,092;    1,822;   -0,500
249,081;   64,499;    0,185;    1,591
249,679;   74,434;   -0,178;    1,682
250,277;   27,592;   -1,723;    0,864
250,875;   76,622;   -1,087;   -1,045
251,473;   30,856;   -1,178;    0,500
252,071;   91,183;    1,459;    1,045
252,669;   45,620;   -1,814;    0,318
253,267;   33,384;   -0,087;    0,773
253,864;   63,578;   -0,360;    0,682
254,462;  134,051;    1,640;    1,591
255,060;   42,955;   -0,269;    1,318
255,658;   35,983;    0,822;   -0,136
256,255;   64,304;    0,186;   -2,045
256,853;  100,145;   -0,269;    1,409
257,451;   70,189;    0,822;    1,864
258,048;  313,002;    1,822;    1,864
258,646;  157,959;    1,731;   -1,045
259,243;  224,145;   -0,087;    2,227
259,841;  148,590;   -0,814;    0,318
260,438;   69,570;   -0,087;    0,864
261,036;  136,595;   -1,905;    1,409
261,633;   74,167;   -0,087;    2,227
262,231;   55,829;    2,731;   -0,045
262,828;   48,678;   -0,905;    1,136
263,425;   89,454;    0,913;   -0,591
264,023;  104,318;    0,186;    0,045
264,620;  202,593;   -0,360;   -0,318
265,217;  290,893;   -2,087;    3,136
265,815;  126,860;   -1,905;    2,136
266,412;  205,896;    0,731;    0,136
267,009;  211,188;   -1,451;    0,773
267,606;  281,868;    0,822;   -0,955
268,203;  154,084;   -0,269;   -0,591
268,801;  177,467;    1,731;    0,591
269,398;  127,452;   -0,360;    2,500
269,995;  233,042;    0,277;    1,591
270,592;  197,502;   -0,632;   -0,500
271,189;  125,119;    0,186;    0,409
271,786;  107,668;   -0,632;    1,227
272,383;  285,233;   -1,087;    0,227
272,980;  175,069;    0,277;    0,318
273,577;  137,216;    0,004;    1,227
274,174;  123,160;    0,822;    2,591
274,771;  236,529;   -0,814;   -0,773
275,367;  521,033;    2,277;    1,409
275,964;  361,471;    0,731;   -0,500
276,561;  198,441;    1,549;   -1,045
277,158;  129,889;    0,095;   -1,773
277,755;  321,772;    2,185;    0,409
278,351;  244,140;   -0,451;   -1,500
278,948;  295,194;   -0,815;    0,045
279,545;  248,212;   -1,360;    2,318
280,141;  371,730;   -1,723;   -2,045
280,738;  363,345;   -0,451;   -0,136
281,334;  206,361;   -1,633;    0,591
281,931;  219,548;   -0,087;   -1,318
282,528;  320,028;    0,822;   -0,500
283,124;  382,415;   -1,087;   -0,500
283,721;  380,998;   -0,451;    1,409
284,317;  265,792;    0,185;    2,500
284,913;  407,242;   -1,360;    0,591
285,510;  625,333;    0,640;   -0,318
286,106;  465,289;   -2,269;   -0,955
286,703;  314,070;   -0,360;    1,955
287,299;  271,681;   -1,451;   -0,591
287,895;  262,079;    0,822;   -1,045
288,491;  253,906;    0,186;    2,136
289,088;  391,886;   -2,360;    2,409
289,684;  454,983;   -1,723;    1,500
290,280;  609,000;    0,368;    0,682
290,876;  583,107;    1,822;    5,500
291,472;  512,374;    1,276;    2,227
292,068;  548,200;    1,367;    0,227
292,665;  443,317;    2,095;    0,773
293,261;  359,758;    0,276;    2,136
293,857;  594,270;    2,913;    2,136
294,453;  538,533;    3,550;    0,955
295,049;  801,353;   -0,268;    1,955
295,644;  641,807;    0,095;    0,136
296,240;  531,486;   -0,905;   -0,136
296,836;  711,916;   -0,995;    0,318
297,432;  911,564;    1,096;   -0,500
298,028; 1000,989;    0,732;    0,773
298,624;  862,647;    1,459;    1,864
299,220;  857,970;    2,368;    0,591
299,815;  859,681;    1,005;   -0,409
300,411; 1024,717;    0,914;    1,773
301,007; 1209,167;    1,368;    0,227
301,602; 1040,615;   -0,541;   -2,318
302,198; 1198,974;    0,732;   -0,773
302,794; 1082,300;    1,187;   -0,500
303,389; 1090,303;   -1,177;    1,045
303,985; 1196,275;    0,550;    1,409
304,580; 1302,935;    1,459;    1,591
305,176; 1202,141;   -3,086;    0,136
305,771; 1092,726;   -1,268;   -1,227
306,367; 1522,522;    4,095;    0,136
306,962; 1317,342;    0,641;    1,500
307,558; 1279,190;   -0,450;    0,136
308,153; 1374,596;    1,095;   -1,136
308,748; 1187,195;   -0,814;    1,682
309,344; 1591,007;   -0,632;   -1,318
309,939; 1616,664;   -1,905;   -1,318
310,534; 1280,154;   -0,086;   -1,682
311,130; 1175,440;    0,459;   -2,500
311,725; 1062,812;    1,004;   -0,500
312,320; 1148,132;    2,459;    0,045
312,915; 1274,700;    1,459;   -1,045
313,510; 1472,571;    1,550;   -0,500
314,105; 1239,899;    1,096;    1,409
314,700;  959,362;   -3,086;   -1,045
315,295; 1002,480;   -0,904;    0,045
315,890;  881,067;    1,277;    0,864
316,485;  992,087;   -0,359;   -0,318
317,080;  899,799;   -3,086;    1,591
317,675; 1233,406;    2,005;   -0,682
318,270; 1410,798;    5,550;    3,318
318,865; 1281,706;    3,278;    3,045
319,460; 1057,857;   -0,904;    0,591
320,055;  873,120;   -0,541;   -1,227
320,650;  827,357;   -1,995;   -0,591
321,244;  820,035;   -0,177;   -1,409
321,839;  894,002;   -1,541;   -0,227
322,434;  953,768;   -1,086;   -1,591
323,029;  812,016;    1,732;    1,591
323,623;  761,468;    1,550;    0,773
324,218;  925,463;    2,368;    1,409
324,812;  859,937;    1,096;    1,591
325,407;  876,675;   -0,814;    2,045
326,002; 1008,283;    0,277;   -0,409
326,596;  951,268;    0,914;    1,318
327,191;  822,096;    0,823;   -1,045
327,785;  784,541;   -0,813;   -0,227
328,379;  880,217;    1,368;    0,136
328,974;  932,884;    0,914;   -3,955
329,568;  986,878;    0,186;   -2,409
330,163; 1092,776;    2,096;    1,045
330,757;  998,514;    2,459;    1,591
331,351;  957,987;    0,459;    0,682
331,945; 1003,571;    0,914;    1,409
332,540; 1186,170;   -1,723;   -0,591
333,134; 1201,576;   -1,086;    0,773
333,728; 1221,230;    0,005;    0,318
334,322; 1243,246;   -1,177;   -0,864
334,916; 1180,558;    0,277;    0,955
335,510; 1453,198;   -0,450;   -0,136
336,105; 1573,641;   -1,086;    1,591
336,699; 1475,264;   -1,086;    0,591
337,293; 1552,161;   -1,723;    0,318
337,887; 1585,163;   -2,723;    1,955
338,481; 1852,018;    0,459;    0,591
339,074; 2104,920;   -0,359;    2,682
339,668; 2097,975;   -1,632;    1,227
340,262; 2819,154;    1,732;    3,227
340,856; 2389,356;    1,822;   -0,682
341,450; 2048,972;    1,004;    1,864
342,044; 2401,434;    1,459;    0,136
342,637; 2535,710;    0,913;   -2,136
343,231; 2624,887;   -2,360;    0,682
343,825; 2532,718;   -1,086;   -0,591
344,419; 2658,850;   -1,995;    0,500
345,012; 3150,235;    2,459;    4,045
345,606; 3070,743;    4,641;    1,591
346,199; 2909,942;   -1,813;   -0,227
346,793; 2912,996;    1,914;    2,045
347,386; 2976,178;   -0,813;   -1,136
347,980; 2932,650;   -0,268;   -0,045
348,573; 3051,602;    2,278;    0,409
349,167; 3134,552;    5,278;    4,773
349,760; 3365,403;    2,914;    2,682
350,354; 3296,746;   -0,813;    1,136
350,947; 3283,527;    1,096;    1,682
351,540; 3094,737;   -0,358;   -1,409
352,134; 3037,797;    1,096;    1,136
352,727; 3137,190;   -0,086;    1,136
353,320; 3114,106;    0,005;    0,591
353,913; 2973,598;   -1,995;    1,864
354,507; 3200,785;    0,823;   -1,227
355,100; 3235,597;    0,460;    0,864
355,693; 3126,557;    2,005;    2,409
356,286; 2998,433;    0,823;    2,773
356,879; 3082,496;   -0,722;    1,227
357,472; 2849,348;   -0,904;    1,500
358,065; 2985,028;   -0,722;    2,500
358,658; 2910,222;   -0,540;    2,318
359,251; 2708,679;   -1,631;   -0,591
359,844; 2625,661;   -1,904;   -1,136
360,437; 2748,659;   -2,995;    0,045
361,030; 2782,012;    1,369;   -0,682
361,623; 2574,559;    2,824;    0,318
362,215; 2678,510;   -0,086;    2,045
362,808; 2506,062;   -2,358;   -1,682
363,401; 2540,701;   -2,449;    0,136
363,994; 2605,115;   -0,631;   -1,500
364,586; 2422,751;    0,824;   -1,500
365,179; 2428,398;   -0,449;   -1,136
365,772; 2102,896;   -1,995;    2,045
366,364; 2233,713;    1,915;   -3,227
366,957; 2414,208;    2,279;   -0,045
367,549; 2293,862;    2,188;   -0,864
368,142; 2188,017;    1,825;   -1,500
368,734; 2193,993;    0,734;   -2,136
369,327; 2137,154;    1,643;   -0,500
369,919; 2118,724;   -1,538;    0,409
370,512; 2115,703;   -1,083;   -0,500
371,104; 2161,760;   -0,901;    1,591
371,696; 2241,317;    1,191;   -0,955
372,289; 2147,127;    0,373;    1,136
372,881; 2122,428;   -2,080;    1,318
373,473; 1961,599;   -2,170;    1,136
374,066; 1999,047;   -0,169;    0,500
374,658; 1934,890;    0,378;    1,136
375,250; 1975,382;    0,653;   -1,409
375,842; 1950,478;    0,473;   -0,045
376,434; 1854,327;   -0,435;   -0,409
377,026; 2047,584;    0,204;   -2,500
377,618; 1996,701;   -0,158;   -0,682
378,210; 1881,213;   -0,338;   -1,955
378,802; 1755,828;    0,754;   -0,591
379,394; 2110,171;    1,846;    0,682
379,986; 2091,398;    1,393;   -0,955
380,578; 2017,791;   -0,153;    0,773
381,170; 2016,291;   -0,972;    0,045
381,762; 1890,976;    0,755;    1,409
382,354; 1875,629;   -0,065;   -1,318
382,945; 1850,406;   -2,976;    0,318
383,537; 1892,538;   -2,705;   -1,955
384,129; 1937,350;   -2,160;   -1,136
384,721; 2036,472;   -0,252;    0,955
385,312; 1902,545;   -0,161;   -0,955
385,904; 2070,846;   -2,706;    1,591
386,496; 1750,172;   -0,979;    1,045
387,087; 1895,924;    1,022;    2,500
387,679; 1849,984;   -1,160;    0,045
388,270; 1930,231;    2,840;    2,045
388,862; 1894,098;    1,295;   -0,318
389,453; 1719,632;   -0,887;    1,045
390,045; 1886,783;   -0,705;   -2,682
390,636; 1855,996;    0,204;   -0,591
391,227; 1791,033;   -0,523;   -0,045
391,819; 1869,233;    0,204;    0,773
392,410; 2040,592;    1,022;    0,045
393,001; 1912,700;   -0,979;   -1,591
393,593; 2023,929;    1,930;   -0,045
394,184; 2007,430;    1,385;   -0,409
394,775; 1802,461;    1,839;    2,136
395,366; 1931,573;    1,385;    0,773
395,957; 1995,352;    0,113;    0,136
396,548; 1993,744;   -0,342;    2,682
397,139; 2208,610;   -2,433;    0,591
397,730; 2030,722;   -1,888;    0,955
398,321; 2028,294;   -1,252;    0,955
398,912; 1984,060;   -0,615;    0,136
399,503; 2090,453;   -3,524;   -1,409
400,094; 1897,773;    0,294;    1,682
400,685; 1869,684;   -0,433;    0,045
401,276; 1790,221;    0,930;   -0,955
401,867; 1870,968;   -0,888;    0,773
402,458; 1871,279;   -2,251;   -2,318
403,048; 1981,885;    1,112;    0,591
403,639; 1766,033;    0,840;    0,864
404,230; 2022,100;    2,476;    0,318
404,821; 2020,362;   -0,615;    0,045
405,411; 1936,139;    1,203;   -2,591
406,002; 1705,100;   -1,252;   -1,136
406,592; 1904,854;    2,294;    0,045
407,183; 1805,193;    0,566;   -1,500
407,774; 1682,512;    3,475;   -0,136
408,364; 1700,926;    0,930;    0,409
408,954; 1722,999;    0,384;    1,227
409,545; 1695,904;    1,021;    1,045
410,135; 1484,299;    1,293;    0,500
410,726; 1458,384;    1,838;    0,318
411,316; 1681,586;    0,111;    0,773
411,906; 1407,277;   -0,253;   -0,409
412,497; 1283,450;   -1,070;   -0,045
413,087; 1291,422;   -1,980;   -0,227
413,677; 1308,323;   -0,707;    3,864
414,267; 1210,106;    0,656;    1,409
414,857; 1123,386;   -2,980;    4,227
415,448; 1130,367;    0,839;    0,500
416,038; 1066,404;    0,020;   -0,591
416,628; 1062,684;   -0,889;    0,409
417,218; 1104,668;    0,565;    3,318
417,808; 1243,311;    0,202;   -0,409
418,398; 1047,706;    0,020;    2,682
418,988;  870,318;    2,020;    0,591
419,578;  932,299;   -0,707;    1,409
420,168;  917,643;   -1,343;   -0,955
420,757; 1025,216;   -1,343;   -1,500
421,347;  821,432;    0,111;   -0,227
421,937;  760,460;    2,292;    1,409
422,527;  891,928;    0,838;   -0,773
423,116; 1018,100;   -0,253;   -0,045
423,706;  657,538;   -1,889;    0,318
424,296;  536,536;    1,384;    0,682
424,885;  729,808;   -0,071;   -3,045
425,475;  657,461;    1,474;   -2,864
426,065;  479,126;   -0,980;   -0,318
426,654;  422,504;   -0,435;   -0,318
427,244;  770,678;    0,020;    1,409
427,833;  710,125;    1,383;   -0,500
428,423;  503,734;   -0,526;    1,136
429,012;  514,037;   -0,344;   -1,136
429,601;  628,264;   -1,344;    0,136
430,191;  464,812;    1,292;    4,318
430,780;  302,161;   -0,344;   -0,409
431,369;  557,811;    0,746;   -0,045
431,959;  418,665;   -1,254;    0,500
432,548;  290,426;   -1,163;   -0,045
433,137;  186,076;   -1,254;   -1,318
433,726;  285,611;    0,292;    0,500
434,315;  292,772;   -0,526;    2,409
434,905;  414,483;   -1,254;    1,409
435,494;  407,492;    0,746;    0,955
436,083;  219,404;   -0,981;   -0,955
436,672;  304,054;    0,110;    0,500
437,261;  229,865;    0,292;   -1,955
437,850;  506,733;    1,383;    0,682
438,439;  557,742;    3,291;    1,955
439,027;  647,205;    3,655;    1,773
439,616;  562,531;    2,927;    1,227
440,205;  289,661;    0,200;   -2,136
440,794;  209,263;    2,109;   -0,045
441,383;  112,805;   -1,346;   -0,591
441,971;   62,892;   -2,436;    0,591
442,560;   72,494;    0,563;   -1,773
443,149;  -28,260;    0,379;   -1,318
443,737;   18,425;   -0,074;   -2,318
444,326;   33,952;    0,018;    0,318
444,915;   80,341;   -1,982;    0,864
445,503;   81,692;   -2,891;   -0,318
446,092;  350,337;    0,382;    2,136
446,680;  271,535;    0,382;    0,318
447,269;  169,424;   -0,346;   -0,318
447,857;  151,627;    0,018;   -1,773
448,445;   97,847;    0,563;    1,318
449,034;   32,508;   -1,528;   -1,136
449,622;   39,600;   -1,073;    3,500
450,210;  322,465;    2,017;    2,227
450,799;  226,654;    0,290;   -0,591
451,387;  175,875;    1,381;   -0,591
451,975;  157,500;    2,654;    0,864
452,563;  238,359;    3,472;    2,318
453,151;   57,299;   -0,528;   -1,227
453,739;   94,768;   -1,347;    0,136
454,328;  204,814;    2,381;   -2,136
454,916;  130,135;    2,562;   -0,136
455,504;  151,058;    1,017;    1,227
456,092;   43,075;    0,017;   -1,591
456,679;    8,683;    1,472;    0,682
457,267;  398,251;    4,017;    1,045
457,855;   93,597;    1,017;    1,409
458,443;  -48,105;   -0,165;    1,682
459,031;  102,697;    0,108;    2,409
459,619;   61,653;   -1,801;    2,864
460,206;  -19,580;    0,835;    2,045
460,794;  -26,170;   -2,983;   -0,227
461,382;   26,984;   -0,529;   -0,864
461,970;   20,650;    1,198;    1,864
462,557;  -47,958;   -0,711;   -0,682
463,145;   65,636;   -3,165;   -1,682
463,732;  303,398;    2,016;   -1,045
464,320;   83,182;   -0,075;   -3,045
464,907;  212,505;    2,743;   -0,773
465,495;  135,345;    0,743;   -1,227
466,082;   54,755;   -1,984;   -0,045
466,670;   80,668;   -2,529;    1,227
467,257;  -21,685;   -1,711;    2,045
467,844;   84,629;   -0,075;    0,045
468,432;   42,391;    0,834;    3,500
469,019;   12,936;    0,925;   -1,773
469,606;  102,161;    0,470;    3,682
470,193;  115,442;   -1,439;    0,227
470,780;   69,925;   -2,075;    0,864
471,368;   13,430;   -1,257;   -0,773
471,955;  105,602;    1,379;   -0,682
472,542;   63,115;    0,652;   -1,136
473,129;  -36,149;   -0,166;    0,136
473,716;  -24,279;    1,470;    0,591
474,303;    7,360;    0,652;   -0,864
474,890;   15,260;   -1,439;   -0,500
475,477;  111,789;   -1,621;    0,409
476,064;   18,547;    1,106;   -1,591
476,650;  127,428;    0,288;    0,318
477,237;   51,065;   -0,258;    0,955
477,824;   17,738;   -1,076;    0,864
478,411;  -62,084;   -1,894;   -0,318
478,997;  -61,877;    0,560;   -0,773
479,584; -104,694;    1,196;   -0,409
480,171;   63,475;   -0,440;   -0,773
480,757;  119,535;    2,651;    0,773
481,344;   16,810;    0,469;    0,409
481,931;  -67,769;    1,105;    1,045
482,517;   49,376;   -1,258;    0,318
483,104;  124,548;    1,106;    2,864
483,690;    3,370;   -1,804;    0,045
484,276;  -19,667;   -0,895;    0,227
484,863;  184,501;    2,469;    1,136
485,449;   44,080;   -0,077;    0,318
486,035;    1,024;   -1,986;   -0,136
486,622;   79,183;   -0,895;    0,045
487,208;    7,986;    1,378;    1,500
487,794;  -60,963;    0,741;    0,318
488,380;  -68,045;    0,105;   -1,409
488,967;  -70,275;   -1,168;   -0,409
489,553;  -44,080;   -1,895;   -1,409
490,139;   31,346;    1,559;    0,773
490,725;  -39,739;    0,741;   -0,227
491,311;    1,133;    3,287;    3,045
491,897;  -11,681;   -0,986;    1,500
492,483;  -10,915;    0,105;    1,227
493,069;  414,292;    3,923;    0,864
493,655;  136,980;    1,650;    0,682
494,241;   13,853;    1,377;   -0,955
494,826;   27,555;    0,287;   -1,045
495,412;   86,404;    2,559;   -0,682
495,998;   -0,813;   -0,805;   -0,318
496,584;   52,203;    0,377;    1,045
497,169;   75,003;    1,014;   -0,682
497,755;   16,102;    0,650;    1,227
498,341;  143,911;    0,559;    0,318
498,926;  258,261;    1,832;    1,955
499,512;    3,014;    1,286;    2,955
500,097;    3,613;    0,195;   -0,318
500,683;   27,691;   -0,350;    2,136
501,268;  -15,276;   -0,169;   -0,955
501,854;   11,434;   -0,169;    1,227
502,439;    2,646;   -0,624;   -1,773
503,024;   23,775;    0,195;    0,500
503,610;   65,894;   -0,078;   -0,682
504,195;    9,755;    0,558;    1,955
504,780;   93,365;    2,922;    1,227
505,366;  189,631;    3,013;    2,864
505,951;  125,006;    0,740;    1,045
506,536;   49,848;   -3,260;   -3,682
507,121;  127,866;    0,285;   -0,318
507,706;   90,506;    2,376;    1,045
508,291;   44,916;    2,649;    1,136
508,876;   63,279;   -0,988;    2,591
509,461;  168,711;   -0,169;   -0,773
510,046;  250,283;    0,194;    0,318
510,631;  304,083;   -0,351;   -0,773
511,216;  251,613;    2,467;   -0,500
511,801;  392,912;   -0,442;    2,591
512,386;  519,970;    0,740;    0,500
512,971;  643,182;   -2,988;    0,955
513,555;  803,313;   -0,897;   -1,500
514,140;  897,351;   -0,442;   -3,136
514,725; 1170,900;   -0,715;   -1,136
515,309; 1228,439;   -0,533;    0,318
515,894; 1280,226;   -0,624;   -2,227
516,479; 1570,964;   -0,624;   -0,955
517,063; 1785,500;    0,376;    1,227
517,648; 2116,049;    1,012;   -1,136
518,232; 2215,679;   -0,261;   -1,409
518,817; 2767,377;   -0,079;    1,682
519,401; 3331,795;    2,194;    0,591
519,985; 3342,059;    1,103;    1,136
520,570; 3687,291;    0,830;   -1,955
521,154; 4303,730;    2,102;    0,591
521,738; 4862,488;   -2,352;    2,409
522,323; 5672,269;   -0,170;    1,682
522,907; 5881,454;    0,466;   -0,136
523,491; 6154,639;    0,557;    0,955
524,075; 6574,429;    2,284;    0,591
524,659; 7047,168;    1,466;    0,591
525,243; 7104,294;    1,739;    0,409
525,827; 7673,035;    0,648;   -0,045
526,411; 8637,350;   -1,989;   -0,136
526,995; 9206,966;   -0,352;    1,409
527,579; 9210,916;   -0,443;   -1,045
528,163; 9769,600;    0,375;   -1,500
528,747;10011,140;    2,466;   -0,773
529,331;10558,620;   -0,080;   -1,409
529,915;10955,724;    1,738;    0,955
530,499;11190,148;   -0,807;    1,227
531,082;11164,459;   -0,534;    1,591
531,666;10879,386;    1,374;    0,773
532,250;11684,657;    1,284;    2,682
532,833;12150,987;    0,920;    2,773
533,417;12182,292;   -1,807;    0,864
534,001;12294,707;    1,647;   -0,318
534,584;13069,306;    0,374;    0,500
535,168;13086,304;    0,465;    1,409
535,751;13219,236;    0,647;    0,045
536,334;12801,791;   -0,898;   -0,409
536,918;13469,728;    0,011;    1,591
537,501;13670,470;   -0,899;    1,318
538,085;13779,205;   -0,444;    1,045
538,668;13973,177;    0,829;    2,409
539,251;14387,239;    1,829;    3,773
539,834;14460,144;    0,101;    0,773
540,418;14394,750;   -1,990;    4,318
541,001;14567,438;   -0,990;    1,773
541,584;14621,732;    2,101;    2,227
542,167;14357,422;    1,374;    2,955
542,750;14553,553;    1,919;   -0,773
543,333;14186,286;    0,555;    2,136
543,916;14969,838;    0,192;    2,500
544,499;15597,454;   -1,354;    0,227
545,082;15633,518;    1,374;    3,591
545,665;15789,449;    1,919;    1,500
546,248;16179,831;    1,010;   -0,318
546,830;15891,704;   -0,445;    1,955
547,413;16284,698;    1,010;   -0,773
547,996;16828,227;    0,555;    0,500
548,579;16655,306;    0,919;    0,955
549,161;16414,006;    1,828;    2,682
549,744;16234,085;   -0,809;    0,409
550,326;16784,360;   -0,809;   -1,136
550,909;16585,526;    2,737;    0,591
551,492;16952,171;   -0,263;    0,227
552,074;16792,838;   -0,173;   -1,318
552,657;17362,808;    2,373;    0,045
553,239;17182,996;   -0,173;   -0,773
553,821;17057,701;   -1,082;    1,045
554,404;16563,140;    1,282;    1,136
554,986;16944,972;    0,464;    1,045
555,568;17532,613;    1,191;   -0,955
556,151;16813,403;    1,191;   -0,227
556,733;17029,602;   -0,264;   -0,864
557,315;17464,455;    0,100;    0,500
557,897;17270,148;    0,554;   -0,500
558,479;17420,908;   -1,991;    1,318
559,061;17522,668;   -0,719;   -0,864
559,643;17869,713;   -0,264;    0,045
560,225;18259,404;    1,645;    2,864
560,807;18315,349;    0,918;    0,318
561,389;17822,598;    0,554;    2,318
561,971;18487,548;    0,463;    2,136
562,553;18344,972;   -1,628;    1,591
563,135;18434,181;   -0,537;    1,136
563,717;18033,786;    3,372;    1,136
564,298;18741,737;    3,645;   -0,045
564,880;18492,116;    0,645;   -1,409
565,462;18682,753;    0,645;    1,318
566,043;19755,111;   -0,446;    2,318
566,625;19300,019;    1,918;    1,227
567,207;19172,220;    1,099;    1,682
567,788;20247,226;   -1,264;    1,500
568,370;21055,404;    1,917;   -0,500
568,951;20870,021;    0,190;    0,227
569,533;21725,965;   -0,628;   -0,500
570,114;22167,333;   -0,446;    0,682
570,695;22643,194;   -0,174;   -1,318
571,277;23069,752;   -0,265;   -1,682
571,858;23803,045;    2,008;   -1,136
572,439;24696,727;    1,554;   -1,045
573,021;24811,179;    2,099;   -2,773
573,602;25289,347;   -1,265;    0,318
574,183;26187,240;   -2,083;    2,227
574,764;26304,206;   -1,629;    0,409
575,345;26829,581;    0,917;   -0,136
575,926;27439,009;   -0,356;    0,136
576,507;27434,528;    1,099;   -0,227
577,088;28532,952;    3,099;    1,682
577,669;28524,851;    0,735;    1,955
578,250;29224,876;    0,644;   -1,045
578,831;29863,519;   -1,356;   -2,227
579,412;30092,549;   -0,810;    0,955
579,993;30994,613;    1,008;    0,227
580,573;31381,190;   -0,629;   -0,955
581,154;30394,428;    0,735;   -0,591
581,735;31203,910;    0,644;    0,773
582,315;30692,183;   -0,629;    2,136
582,896;31005,660;   -0,174;    1,227
583,477;30527,868;    0,189;    1,227
584,057;30724,310;    0,553;    0,955
584,638;30996,158;    2,553;    2,318
585,218;30986,580;   -0,538;    2,682
585,799;31200,693;    0,281;   -0,227
586,379;31151,497;    0,372;    1,591
586,959;29994,301;    0,735;    0,318
587,540;29344,605;   -0,629;    2,227
588,120;28975,393;    1,007;   -0,045
588,700;27895,854;    2,553;    2,136
589,281;28215,311;    0,462;   -0,955
589,861;28148,075;    0,099;   -1,682
590,441;27965,949;    2,371;   -2,682
591,021;26995,794;   -0,265;   -2,591
591,601;27257,520;   -0,537;    0,500
592,181;27228,183;   -0,719;   -0,773
592,761;26579,043;    0,007;    1,409
593,341;26485,360;   -0,901;    0,045
593,921;26456,739;   -0,265;    1,591
594,501;26368,150;   -0,538;    1,318
595,081;26240,586;    0,917;   -0,318
595,661;26560,931;   -1,447;    0,955
596,240;27096,642;   -0,537;    0,136
596,820;26679,924;    0,372;    1,955
597,400;26878,231;    2,008;    0,773
597,980;27121,755;    2,008;    1,045
598,559;27153,955;    2,735;   -0,227
599,139;26905,598;   -0,174;   -1,227
599,718;26792,143;   -0,174;   -0,409
600,298;27002,713;    0,735;    0,682
600,877;27254,394;    2,917;    1,409
601,457;27563,041;    2,281;    1,136
602,036;27431,064;    0,190;    2,045
602,616;27628,481;    0,644;    1,682
603,195;27920,494;   -0,355;    3,500
603,774;27448,561;   -0,901;    2,045
604,354;27369,532;    0,826;   -0,500
604,933;26913,880;    0,463;    1,864
605,512;27021,323;    3,554;    0,591
606,091;27085,365;   -0,537;    3,773
606,671;27874,738;    0,281;    0,773
607,250;27000,013;    1,644;    3,136
607,829;27219,443;    2,372;    3,227
608,408;27110,514;    1,190;    2,591
608,987;26186,480;    1,281;    3,409
609,566;26428,205;   -1,265;   -2,500
610,145;26554,181;   -1,082;    0,682
610,723;26975,398;    4,372;    6,864
611,302;26201,834;   -0,446;    1,682
611,881;25738,388;    5,008;   11,227
612,460;26555,179;    1,645;    3,955
613,039;27009,188;   -0,082;    2,045
613,617;25768,841;    1,736;    4,773
614,196;25944,937;    1,099;    1,227
614,775;26245,155;    1,009;    2,409
615,353;26216,203;    0,736;    0,864
615,932;25926,449;    0,100;    2,409
616,510;26537,336;    0,554;    0,591
617,089;26051,058;    7,100;   17,591
617,667;25869,632;    2,372;    6,136
618,246;25737,467;   -1,537;    1,318
618,824;25898,259;   -3,355;   -0,955
619,402;25440,351;   -2,900;   -1,773
619,981;25992,519;   -0,173;   -1,045
620,559;25830,842;    0,009;    1,682
621,137;25393,818;   -0,718;    1,864
621,715;25350,217;   -1,173;   -0,682
622,293;25235,604;   -0,537;   -0,773
622,871;25763,546;   -0,718;    0,500
623,450;25361,521;    0,373;   -0,864
624,028;25222,054;    0,191;   -0,955
624,606;24880,254;   -1,718;    1,682
625,183;25267,208;   -1,536;   -1,136
625,761;24905,025;    1,009;    1,136
626,339;25146,320;    1,373;    2,591
626,917;25552,093;   -0,172;   -0,045
627,495;25586,127;   -0,354;    1,318
628,073;25043,505;   -0,263;    2,864
628,650;24722,319;    0,100;    2,136
629,228;25121,820;    0,373;    4,409
629,806;24589,230;    2,282;    1,136
630,383;24879,817;    1,464;   -0,318
630,961;24644,534;    2,555;   -0,955
631,539;24423,148;    2,464;    0,227
632,116;23750,170;   11,373;   15,409
632,694;24312,365;    2,555;    6,500
633,271;24613,634;    0,828;    2,682
633,848;24496,103;    1,828;    2,045
634,426;24583,592;   -1,081;    1,773
635,003;23770,613;    1,101;   -0,409
635,580;24015,427;    1,192;    3,682
636,158;24575,427;    3,737;    1,227
636,735;24577,119;    0,555;   -0,500
637,312;24700,442;   -0,809;   -0,682
637,889;24791,192;   -4,354;   -0,682
638,466;24271,693;   -3,990;   -0,409
639,043;24270,238;    2,101;   -1,136
639,620;24593,661;   -2,262;   -0,955
640,197;24890,830;    1,100;    1,682
640,774;25084,242;   -0,172;    1,136
641,351;25453,290;    0,737;    1,136
641,928;24845,247;   -0,627;    1,409
642,505;24511,022;    0,828;   -0,500
643,082;24691,433;   -1,718;    1,227
643,658;23697,481;   -0,718;    1,500
644,235;24436,893;    1,191;    2,500
644,812;24692,123;    1,918;    0,773
645,388;24472,807;   -0,991;    1,409
645,965;24553,673;   -0,809;    1,682
646,542;24611,539;   -1,445;   -0,227
647,118;24570,042;    1,009;   -0,955
647,695;24902,181;   -0,263;    1,136
648,271;24829,774;   -0,536;    0,500
648,848;25115,731;    0,736;    2,227
649,424;24924,779;    0,827;    1,318
650,000;24724,736;   -0,354;   -1,045
650,577;24529,875;   -0,627;   -0,955
651,153;25016,559;   -1,809;    0,955
651,729;25992,152;    1,191;    0,864
652,305;26110,473;    0,645;    2,773
652,881;30104,248;   -0,082;    1,136
653,458;36621,660;    1,100;    0,227
654,034;40510,890;    0,282;    1,591
654,610;42052,029;    0,554;    0,773
655,186;43369,258;    0,645;    3,045
655,762;43056,034;   -0,991;    0,409
656,338;43028,900;    0,100;    0,136
656,913;43976,038;   -0,082;    0,409
657,489;43369,905;    0,827;   -0,318
658,065;43348,225;   -0,173;   -1,591
658,641;43970,182;   -0,900;   -0,864
659,217;43334,139;   -0,991;    0,409
659,792;42729,642;    0,645;   -0,409
660,368;42953,781;   -2,173;   -0,682
660,944;42667,647;   -2,082;    1,227
661,519;38556,786;   -0,628;    0,409
662,095;32865,561;   -1,719;    0,591
662,670;28259,427;    1,281;   -0,136
663,246;27030,020;    1,009;   -0,409
663,821;26276,250;    0,281;    1,682
664,396;25767,207;    0,009;    1,864
664,972;26016,073;    0,009;   -0,500
665,547;26329,394;    1,372;    0,136
666,122;26334,442;   -1,082;    0,318
666,698;26615,217;   -0,173;    0,318
667,273;26004,174;   -0,173;    0,136
667,848;26817,768;    2,372;    1,500
668,423;26593,361;    2,190;    2,318
668,998;27181,045;    2,827;   -0,682
669,573;27679,093;   -3,264;   -1,500
670,148;27478,141;   -1,446;   -0,682
670,723;27286,280;   -1,810;    0,318
671,298;27666,873;    2,372;    1,045
671,873;27783,376;   -0,082;   -0,136
672,448;27746,787;    0,645;    0,136
673,023;28116,199;   -1,992;   -0,227
673,597;28404,156;    0,827;    2,318
674,172;28191,477;   -0,355;    0,318
674,747;27709,343;    0,372;   -1,045
675,321;27510,936;   -0,628;    3,318
675,896;27171,893;    0,645;    1,045
676,471;28171,941;    2,645;    1,591
677,045;27911,080;   -1,264;    0,682
677,620;27970,946;    0,190;    1,136
678,194;28271,721;   -2,628;    1,136
678,769;27797,678;   -1,083;   -0,318
679,343;28045,454;   -0,628;    1,773
679,917;27904,411;   -1,446;    1,955
680,492;27954,004;    0,826;    3,227
681,066;28140,597;    3,372;    0,409
681,640;28204,554;    1,463;   -0,318
682,214;28990,784;    0,735;    0,500
682,788;28528,923;   -1,356;   -0,773
683,363;28436,426;   -1,810;    1,682
683,937;28206,201;   -1,719;   -0,318
684,511;28908,158;    0,463;   -0,591
685,085;28640,660;   -1,356;    0,318
685,659;28381,254;   -2,538;    0,864
686,232;28669,120;   -0,356;   -0,318
686,806;28382,259;   -0,901;    0,409
687,380;29009,216;   -0,174;    0,591
687,954;29279,809;   -1,174;    1,136
688,528;28989,039;   -0,719;    1,955
689,101;29686,996;   -3,992;    1,045
689,675;29291,316;   -0,356;   -0,136
690,249;28651,546;   -0,719;    0,409
690,822;28924,503;    0,280;    0,318
691,396;29052,642;   -0,265;    1,227
691,969;28502,236;    1,280;    0,136
692,543;28985,102;   -0,447;   -1,955
693,116;28652,422;   -0,265;   -1,409
693,690;28552,470;    0,099;    0,500
694,263;29072,427;   -1,083;    2,955
694,836;29074,839;    1,371;    3,591
695,410;27732,432;   -0,265;    1,773
695,983;28225,935;    0,189;    0,591
696,556;28147,437;   -0,447;   -1,045
697,129;28587,303;   -0,356;    1,409
697,703;28249,260;   -1,629;    1,955
698,276;28277,672;    1,462;   -0,773
698,849;28060,902;    1,280;    1,409
699,422;28455,131;   -1,083;    0,591
699,995;28133,634;    0,007;    0,136
700,568;28618,318;   -0,629;    3,045
701,140;28598,821;   -2,811;    1,682
701,713;28348,414;   -0,174;    2,409
702,286;28090,462;   -0,538;    0,864
702,859;28017,419;   -0,902;   -0,591
703,432;27178,831;    0,825;    0,682
704,004;27691,151;    0,462;    0,318
704,577;27540,199;   -0,629;    0,136
705,150;28121,520;    0,189;    2,500
705,722;27874,659;   -0,356;   -3,227
706,295;27622,616;   -0,175;   -0,591
706,867;27499,936;   -0,175;    1,955
707,440;27709,075;   -1,720;   -0,409
708,012;27964,851;    0,462;    0,591
708,584;27901,171;    2,462;    0,227
709,157;28192,128;    1,825;   -0,591
709,729;27868,449;    2,280;    2,045
710,301;28720,770;    0,734;    0,045
710,874;28711,545;   -1,447;   -0,227
711,446;27594,229;    0,371;    0,864
712,018;27434,186;    0,098;    0,500
712,590;27172,234;   -1,993;    1,682
713,162;27740,100;    0,825;    1,318
713,734;27975,875;    1,825;   -2,045
714,306;27916,378;   -1,902;   -0,409
714,878;26603,153;    0,825;    0,864
715,450;27475,201;    0,643;    0,864
716,022;27668,340;    1,552;    1,318
716,593;27831,661;    0,189;    0,591
717,165;27781,254;   -3,175;   -1,227
717,737;27447,211;    0,280;    0,409
718,309;27130,804;    0,280;   -0,045
718,880;27116,307;   -0,539;   -1,409
719,452;27350,900;   -0,175;   -1,591
720,024;26924,857;    0,734;   -0,591
720,595;27468,996;   -2,902;    0,955
721,167;27039,135;    0,370;   -2,045
721,738;26583,819;   -0,812;   -1,045
722,309;26515,594;   -0,993;   -1,227
722,881;26287,915;   -1,357;    0,773
723,452;26914,963;   -2,630;    2,864
724,023;27134,647;   -0,721;    2,682
724,595;26902,059;    0,007;    0,682
725,166;26636,198;    0,007;   -0,409
725,737;26250,064;    1,734;    0,227
726,308;26343,657;   -0,266;    0,318
726,879;26771,796;   -1,630;    1,227
727,450;26646,026;    0,552;   -0,045
728,021;26628,165;    3,097;    0,682
728,592;26403,304;    0,734;    0,500
729,163;26747,261;    0,643;   -0,136
729,734;26723,854;    0,188;   -0,227
730,305;27091,175;    1,734;    0,136
730,876;27474,859;    0,188;    2,955
731,447;27135,998;    2,188;    2,682
732,017;27259,318;    1,097;    1,864
732,588;26734,548;    0,734;    1,227
733,159;26915,233;    0,643;   -1,045
733,729;26756,190;    0,006;    0,409
734,300;26082,510;    0,915;    0,864
734,870;26469,831;    3,461;    0,591
735,441;27002,879;    0,370;   -0,591
736,011;26786,836;    0,643;   -1,591
736,582;26757,793;   -0,812;    0,045
737,152;26244,841;   -1,721;   -2,045
737,722;26662,071;   -0,267;   -0,682
738,293;26381,209;   -1,358;    1,318
738,863;26236,257;    2,461;    2,318
739,433;26041,214;    5,279;    0,318
740,003;26724,535;   -0,994;   -0,682
740,573;26153,583;    2,097;   -1,591
741,143;26102,722;   -1,085;    0,318
741,713;26863,043;    1,188;   -0,500
742,283;26525,363;    0,915;    1,591
742,853;26340,684;    1,915;    1,591
743,423;25795,550;    1,733;    0,045
743,993;25895,780;   -0,358;    1,500
744,563;25281,828;    0,097;   -0,864
745,133;25269,512;   -0,812;   -0,864
745,702;25940,469;   -0,267;    1,773
746,272;25133,335;   -0,176;    0,591
746,842;24928,019;   -1,358;   -0,591
747,411;25383,795;   -0,267;   -0,318
747,981;25572,661;    0,097;    0,500
748,551;25592,163;    2,278;   -1,045
749,120;25435,120;    0,642;   -0,227
749,690;25826,532;   -0,631;    2,409
750,259;26140,398;    1,369;    2,955
750,828;26029,991;    1,551;   -1,955
751,398;26360,494;    1,278;   -0,045
751,967;25838,269;    2,187;    0,409
752,536;26082,135;   -0,813;   -0,227
753,105;26471,910;    0,096;    0,227
753,675;26303,867;    0,096;    1,773
754,244;26240,824;   -0,904;    3,591
754,813;26261,691;    0,551;    1,227
755,382;25863,102;    0,460;    0,955
755,951;26323,150;    1,551;    3,682
756,520;25883,925;   -0,085;    1,864
757,089;26470,882;    0,278;    0,500
757,658;26569,294;    1,733;    1,227
758,227;26587,706;    1,096;    0,318
758,795;26890,663;    1,187;    1,136
759,364;27160,165;   -0,086;   -0,591
759,933;26170,304;   -1,176;   -0,045
760,501;25716,079;    0,733;   -1,318
761,070;26163,036;   -2,813;   -1,409
761,639;26813,630;   -1,904;    1,318
762,207;26171,587;    1,551;   -0,955
762,776;26134,998;    0,369;    0,864
763,344;26075,592;   -0,995;    0,591
763,913;25223,458;   -0,722;    1,409
764,481;25936,869;    1,005;   -0,136
765,049;25750,554;   -1,358;    1,409
765,618;25623,329;   -0,086;    0,318
766,186;25730,649;    0,278;    0,136
766,754;25882,516;    0,005;    1,864
767,322;24933,473;   -1,995;    0,409
767,890;24965,520;   -0,722;   -1,773
768,459;25329,932;   -2,177;   -0,318
769,027;25499,344;    1,641;    3,409
769,595;24482,664;    3,278;    2,591
770,163;24920,076;    3,823;    2,955
770,730;24698,306;    0,732;   -0,136
771,298;24607,444;    0,187;   -1,409
771,866;24711,220;   -1,541;    4,955
772,434;25014,722;   -0,631;   -1,864
773,002;25135,679;    0,005;    0,682
773,569;24806,727;    0,914;    1,682
774,137;24640,502;   -0,268;   -0,045
774,705;25442,005;    0,278;   -0,136
775,272;24886,780;    0,641;    0,682
775,840;24631,010;   -0,177;    2,682
776,407;24161,330;    0,277;    1,955
776,975;23832,378;   -0,632;    0,318
777,542;24830,154;   -1,086;   -0,045
778,110;24665,202;   -1,268;   -0,045
778,677;24308,977;   -2,359;   -0,864
779,244;24101,661;    2,186;    1,045
779,812;24213,164;    1,823;    0,864
780,379;24091,575;    0,005;    1,136
780,946;24366,078;    1,005;   -0,773
781,513;24642,944;   -1,450;    0,318
782,080;23996,537;   -0,086;    2,864
782,647;24742,040;   -0,268;    3,045
783,214;24304,997;   -0,177;    3,864
783,781;23903,226;   -0,723;   -0,682
784,348;23830,638;   -0,632;    1,500
784,915;24315,322;   -3,177;    0,318
785,482;24009,825;    1,368;    2,591
786,049;24476,236;    0,186;   -0,591
786,615;24651,012;    0,277;   -0,955
787,182;24327,969;    0,186;   -0,682
787,749;24100,107;   -2,814;    1,409
788,315;23395,883;   -1,632;   -0,409
788,882;23641,112;    1,550;   -1,227
789,448;24377,251;    1,732;   -0,955
790,015;24404,117;    1,095;    3,227
790,581;23945,529;    1,459;    0,227
791,148;23850,577;    0,641;    1,045
791,714;24091,988;   -0,541;    3,136
792,280;23731,400;    0,186;    1,591
792,847;23312,812;    0,550;    2,500
793,413;23898,223;   -0,269;   -0,318
793,979;23396,907;    3,459;   -1,318
794,545;23484,046;    4,459;    2,682
795,111;22864,276;    2,186;    1,318
795,678;23052,688;    0,731;   -1,682
796,244;22713,917;    3,368;    0,136
796,810;23268,147;    1,731;    0,773
797,375;22989,013;    0,549;   -2,136
797,941;23014,243;   -0,541;    0,591
798,507;23204,200;   -0,451;   -0,955
799,073;22734,157;   -0,360;    0,591
799,639;22819,569;   -2,632;    3,136
800,205;22901,889;    0,095;    2,682
800,770;22425,483;    0,640;    1,773
801,336;22529,531;    1,368;   -0,955
801,901;22234,124;    4,549;    3,136
802,467;22786,899;   -0,542;    2,045
803,033;22088,220;   -0,087;    0,864
803,598;22311,541;    1,913;   -1,045
804,163;22348,498;    1,095;   -0,318
804,729;22309,091;   -0,178;    1,136
805,294;22710,321;    0,822;    2,227
805,859;22496,278;    0,731;   -0,409
806,425;21970,417;    1,186;    2,682
806,990;21613,192;    2,186;    4,318
807,555;22077,967;   -1,451;    2,591
808,120;22004,197;    0,822;   -0,409
808,685;22069,245;    0,185;   -2,500
809,250;21567,475;    0,004;   -0,500
809,815;21857,977;    1,913;    0,682
810,380;22382,389;   -0,269;    1,591
810,945;22915,891;   -1,087;    2,045
811,510;22092,575;    2,094;    1,591
812,075;21844,260;   -0,633;   -1,409
812,640;21863,399;    2,003;    1,409
813,204;21983,628;    0,822;   -0,227
813,769;22425,404;    2,094;   -0,045
814,334;21799,724;    0,458;    0,864
814,898;21902,954;    0,367;    0,591
815,463;21774,366;    1,276;   -0,773
816,027;21700,959;   -0,724;   -2,318
816,592;21774,552;    0,640;   -2,045
817,156;21326,146;    2,094;    1,136
817,721;21170,466;    4,276;    2,318
818,285;21163,060;    2,912;    1,500
818,849;21787,562;   -1,451;    1,682
819,414;21662,156;   -0,269;    2,955
819,978;21248,840;   -1,269;    1,773
820,542;21848,252;    2,003;    0,500
821,106;21544,299;   -0,815;    0,682
821,670;21614,984;   -0,815;    2,591
822,234;21449,032;   -0,270;    1,409
822,798;20763,261;    0,003;    0,500
823,362;20709,309;   -0,633;    4,227
823,926;20045,812;    0,094;    1,136
824,490;20286,405;   -0,997;   -0,682
825,054;20748,271;   -0,088;   -1,136
825,618;20344,410;   -1,542;   -1,500
826,181;20298,095;    0,458;   -1,318
826,745;20151,597;    1,367;   -1,045
827,309;20535,918;    1,185;    1,318
827,872;19962,057;    1,367;    0,955
828,436;20917,832;    1,185;   -0,773
828,999;21003,152;   -0,997;    1,227
829,563;19820,291;   -0,179;    1,136
830,126;19638,248;   -0,179;   -0,591
830,690;19660,933;   -1,997;    2,864
831,253;19179,071;   -0,543;    2,227
831,816;19295,574;   -1,906;    0,500
832,380;19191,622;    0,185;    0,864
832,943;19433,215;   -1,361;   -0,500
833,506;18908,900;    2,639;   -1,227
834,069;19682,402;    3,912;   -0,955
834,632;19775,268;    1,730;    1,318
835,195;19710,680;    1,003;    0,955
835,758;18908,091;   -0,997;    1,955
836,321;18721,139;    0,730;   -1,045
836,884;18846,642;   -0,725;   -0,955
837,447;18902,326;   -2,816;    1,773
838,010;19127,647;    0,366;    3,227
838,573;19368,695;   -1,179;    0,773
839,135;19355,106;   -1,361;   -0,955
839,698;18830,518;    1,275;    0,409
840,261;18378,293;    1,003;   -0,227
840,823;18239,341;   -0,543;    0,864
841,386;18559,934;   -0,452;   -2,409
841,948;18383,164;   -1,361;    1,773
842,511;18154,485;    0,912;    1,682
843,073;18297,987;    1,912;    0,227
843,636;18087,944;   -0,361;   -0,227
844,198;18021,992;    0,911;    0,591
844,760;18146,495;    1,093;    1,955
845,322;17772,634;    0,548;    1,136
845,885;18242,500;    0,730;    0,591
846,447;18675,002;   -1,998;    0,227
847,009;18222,414;    1,911;   -0,682
847,571;18569,734;    0,820;   -2,045
848,133;18676,873;   -1,089;   -1,864
848,695;18478,739;   -0,543;    1,409
849,257;18075,787;   -1,089;   -1,682
849,819;18208,199;   -0,998;   -0,409
850,381;18229,338;   -0,725;   -0,864
850,942;18580,749;    1,093;   -0,591
851,504;18543,434;    1,184;    0,227
852,066;18623,845;    1,275;   -1,591
852,628;18138,620;   -0,180;    1,955
853,189;17672,123;    1,638;    2,682
853,751;17821,444;   -0,907;    1,409
854,312;17621,128;   -0,453;   -1,682
854,874;18157,539;   -2,089;   -0,773
855,435;18651,406;   -0,907;   -1,682
855,997;18835,908;   -1,816;   -0,136
856,558;18107,683;    0,366;    1,773
857,119;18184,277;    0,820;    2,864
857,681;17889,597;    0,002;    0,318
858,242;17958,736;    1,911;   -2,136
858,803;18369,602;    0,456;   -0,773
859,364;18898,650;    0,184;   -4,773
859,925;18245,153;   -2,453;   -0,955
860,486;18141,382;   -0,453;   -0,955
861,047;17881,158;   -0,544;   -1,227
861,608;17687,842;   -1,089;   -0,773
862,169;17808,799;    0,638;   -0,045
862,730;17627,392;    0,456;    1,409
863,291;17878,986;   -0,635;   -0,500
863,852;18228,397;   -0,635;    1,955
864,412;17710,627;   -0,271;   -0,864
864,973;16297,221;   -0,089;    0,500
865,534;16128,905;   -1,726;    0,227
866,094;17654,771;    1,820;    0,227
866,655;17279,001;    1,274;    3,318
867,215;17571,776;    0,274;    0,136
867,776;17414,551;    0,547;   -0,136
868,336;17510,872;   -1,453;    0,136
868,897;16987,102;    2,638;    1,682
869,457;16747,786;    1,365;    0,318
870,017;16992,743;    0,547;   -1,227
870,578;17484,518;   -0,817;    0,773
871,138;17180,202;   -2,089;   -0,955
871,698;16753,069;   -0,817;   -1,318
872,258;16630,207;   -0,453;   -2,864
872,818;16956,801;    2,729;    0,045
873,378;16915,303;    0,638;    1,045
873,938;16455,351;    0,547;    0,500
874,498;16869,854;    0,274;   -1,955
875,058;16778,356;    2,183;    1,773
875,618;16612,950;    1,910;   -2,682
876,177;16552,361;    1,274;    0,136
876,737;16156,318;   -0,090;    1,955
877,297;16147,275;    0,183;    1,955
877,856;16131,778;   -0,362;    0,318
878,416;16117,826;    1,183;   -0,136
878,976;16344,237;   -1,817;    0,409
879,535;16493,649;    0,092;    3,136
880,095;16209,515;   -0,544;    0,045
880,654;16327,926;   -1,090;    1,318
881,213;16425,338;    2,456;    1,500
881,773;16058,204;    2,637;    2,682
882,332;16362,707;    3,365;    5,136
882,891;16269,755;    3,092;    2,136
883,451;16706,439;   -1,272;    1,682
884,010;16186,578;   -2,908;   -0,409
884,569;16287,626;   -0,999;   -0,045
885,128;16393,492;    2,819;   -1,864
885,687;16457,358;    4,455;    0,682
886,246;16127,769;    1,455;    2,136
886,805;15890,817;    2,455;    2,045
887,364;16223,956;   -0,999;   -0,500
887,922;16593,095;   -1,181;    0,045
888,481;16099,234;   -1,545;    0,591
889,040;16410,373;    1,183;    2,136
889,599;17075,784;    2,455;    1,409
890,157;17169,014;    1,455;    2,409
890,716;16812,153;   -0,090;    0,227
891,274;16627,292;    0,092;   -1,136
891,833;17060,976;    1,546;    0,864
892,391;16949,206;   -0,454;    0,500
892,950;17000,527;    1,819;   -0,773
893,508;17380,029;    0,455;   -0,409
894,067;16741,350;    0,637;    0,136
894,625;16612,307;   -0,636;   -1,500
895,183;16878,446;   -0,363;   -0,682
895,741;16743,494;    1,728;   -1,773
896,299;16596,178;   -0,545;   -2,409
896,858;16790,135;    0,819;   -1,591
897,416;16878,183;    2,728;   -1,318
897,974;16636,685;    1,819;    0,318
898,532;16769,006;    6,091;    2,682
899,089;16674,508;    2,091;   -0,682
899,647;16707,829;   -1,454;    1,318
900,205;16419,059;    1,182;    1,045
900,763;16658,743;   -0,454;    0,227
901,321;16680,700;    2,364;   -1,409
901,878;16160,475;   -1,000;   -0,773
902,436;16020,614;   -1,363;    1,318
902,994;16393,935;    4,728;    3,682
903,551;15829,165;    0,728;    0,409
904,109;16209,849;    0,182;   -1,409
904,666;15826,533;    2,455;    1,045
905,224;15648,218;    0,182;   -0,409
905,781;15365,084;    0,727;   -0,318
906,338;15471,041;   -1,363;    1,045
906,895;15403,907;    0,637;    2,045
907,453;15292,682;    1,727;    1,136
908,010;15345,366;   -0,909;    0,409
908,567;15012,960;    1,273;    0,591
909,124;14553,190;    0,364;   -1,500
909,681;14628,056;   -2,909;    0,682
910,238;14771,467;    0,636;   -1,318
910,795;15105,606;   -0,273;   -1,136
911,352;14736,606;   -2,909;   -2,682
911,909;14147,970;   -1,364;   -0,864
912,466;14634,424;   -3,182;    1,500
913,022;14163,606;   -1,636;    0,500
913,579;14506,333;   -0,909;    2,045
914,136;14239,606;    1,636;    0,955
914,692;14572,606;    0,091;   -1,227
915,249;14162,242;    1,455;    0,409
915,806;14409,879;    0,182;    1,955
916,362;14153,697;    1,909;    1,864
916,918;13717,697;    2,000;    1,045
917,475;13686,333;   -1,182;    0,955
918,031;13764,970;    3,364;   -0,045
918,587;13211,606;   -0,909;   -0,318
919,144;13467,333;   -2,273;    0,227
919,700;13760,606;    1,727;    0,773
920,256;13318,970;    0,727;    0,045
920,812;12961,333;   -0,727;   -1,045
921,368;12997,152;   -1,727;   -1,045
921,924;12638,242;    0,182;   -0,136
922,480;12203,424;   -0,545;    1,227
923,036;12793,061;    1,273;    1,955
923,592;12753,152;    0,455;    0,318
924,148;12648,242;    0,455;   -0,955
924,704;11995,333;   -1,364;   -0,409
925,259;12265,333;   -0,273;    0,591
925,815;12022,970;    1,455;    0,500
926,371;11557,697;    2,909;    1,409
926,926;11438,606;    2,091;    0,591
927,482;11081,152;   -1,364;    0,773
928,037;10969,061;    0,909;    2,045
928,593;11255,515;    1,636;    1,045
929,148;11096,333;   -1,818;   -1,500
929,704;10571,879;   -1,455;   -0,500
930,259;10814,152;    0,091;   -0,136
930,814; 9890,970;   -0,818;    1,955
931,369; 9570,788;    1,091;   -0,773
931,925; 9480,333;   -0,091;    0,136
932,480; 9396,788;   -2,818;   -2,591
933,035; 9246,697;    0,545;   -0,318
933,590; 9017,970;    0,364;   -1,773
934,145; 8679,152;   -1,364;   -0,318
934,700; 9037,879;    0,455;   -0,591
935,255; 8821,879;   -0,091;    0,045
935,809; 8123,333;    3,182;    0,864
936,364; 7302,879;   -0,455;   -0,136
936,919; 7261,970;    0,455;   -1,773
937,474; 7167,697;    1,455;    0,136
938,028; 6917,333;   -1,636;    1,136
938,583; 6379,242;    1,818;    4,682
939,138; 6662,697;    2,091;    2,136
939,692; 6142,152;    1,636;   -1,136
940,247; 5826,242;   -0,727;   -1,045
940,801; 5407,152;   -0,636;    0,227
941,355; 5303,697;   -0,364;    2,591
941,910; 4949,606;   -0,273;   -2,136
942,464; 5039,061;   -0,818;   -0,318
943,018; 4850,788;    1,000;   -0,227
943,572; 4776,515;    2,545;   -0,682
944,126; 4215,970;    0,091;   -0,409
944,681; 4131,970;    3,091;    0,227
945,235; 4111,788;    1,000;   -0,591
945,789; 4053,242;    0,364;   -1,864
946,342; 4122,061;    0,455;   -0,591
946,896; 3938,606;   -2,273;    0,955
947,450; 3722,515;    1,545;   -0,227
948,004; 3906,606;    1,727;   -0,045
948,558; 3904,606;    0,273;   -0,864
949,111; 3832,970;   -0,273;   -0,318
949,665; 3874,697;    1,636;   -0,682
950,219; 3740,242;   -0,091;   -1,045
950,772; 3824,788;   -1,909;    1,864
951,326; 3737,061;    0,545;   -0,955
951,879; 3836,879;    0,727;   -2,318
952,433; 3842,152;    0,000;    2,227
952,986; 3683,879;    2,909;    0,682
953,539; 3645,879;   -0,273;    0,591
954,093; 3598,515;    0,545;   -1,318
954,646; 3705,788;    0,909;    1,318
955,199; 3521,061;    0,000;   -0,500
955,752; 3413,242;   -0,455;    1,773
956,305; 3371,242;   -0,091;    2,955
956,858; 3528,970;    0,818;   -0,318
957,411; 3677,061;   -0,545;    2,136
957,964; 3527,697;    1,364;    2,136
958,517; 3511,424;   -1,545;    3,136
959,070; 3361,879;   -0,455;    1,955
959,623; 3438,333;    1,091;    1,500
960,176; 3220,788;    1,727;    2,045
960,728; 3176,061;   -2,727;    0,773
961,281; 3256,424;    0,545;    0,500
961,834; 3292,515;   -0,909;    0,864
962,386; 3206,515;    1,727;    1,045
962,939; 3130,333;    0,364;   -0,318
963,491; 3279,606;    0,455;    1,136
964,043; 3169,061;    1,182;    2,409
964,596; 3268,879;   -1,000;    2,227
965,148; 3120,606;   -1,000;    1,773
965,700; 3046,424;    1,091;   -0,227
966,253; 3192,061;   -0,636;    0,318
966,805; 3025,515;   -2,273;    0,773
967,357; 3076,879;    1,091;   -1,500
967,909; 3034,333;    0,455;   -1,227
968,461; 3136,970;    0,545;    3,136
969,013; 3057,333;   -0,182;   -0,864
969,565; 3140,242;   -0,455;   -1,136
970,117; 3208,879;   -0,364;    1,045
970,669; 3048,242;    0,182;   -0,136
971,220; 2934,152;   -0,455;   -1,500
971,772; 2851,788;   -0,636;   -0,318
972,324; 2961,788;    0,091;   -0,500
972,876; 2900,424;    0,818;   -0,045
973,427; 3042,606;    1,909;   -1,045
973,979; 3008,879;   -0,727;   -2,500
974,530; 3031,970;    1,818;    1,318
975,082; 3056,879;   -0,545;    1,682
975,633; 2942,242;    1,091;    1,682
976,184; 3064,606;    0,909;    0,773
976,736; 2877,606;    0,091;    0,227
977,287; 2691,424;   -0,909;   -0,500
977,838; 2879,061;    0,909;   -0,318
978,389; 2924,515;   -1,000;   -0,500
978,940; 2792,788;    0,545;   -0,409
979,491; 2824,515;    0,091;   -0,500
980,042; 2790,970;    0,182;    3,045
980,593; 2847,970;   -2,545;    0,227
981,144; 2905,424;    2,545;   -0,500
981,695; 2868,879;    1,455;    1,500
982,246; 2833,152;   -0,273;    1,045
982,797; 2985,061;   -1,727;    0,682
983,347; 3075,424;    0,364;    0,591
983,898; 3246,879;    3,091;    0,409
984,449; 3072,970;    2,182;    0,773
984,999; 2976,152;    1,455;   -1,136
985,550; 2775,061;    0,182;   -0,318
986,100; 2816,424;   -0,455;   -0,318
986,651; 2844,606;   -0,818;    0,045
987,201; 2822,152;   -1,000;   -0,591
987,751; 2898,333;    0,818;    2,864
988,302; 2893,697;    2,636;    1,500
988,852; 2916,333;    0,455;   -1,136
989,402; 2949,970;    0,091;    0,682
989,952; 2871,970;   -2,182;    0,864
990,502; 2983,879;   -0,091;    0,682
991,052; 2922,333;   -0,727;    0,045
991,602; 2813,061;   -2,909;    1,318
992,152; 2810,515;    0,455;    0,682
992,702; 2788,515;    1,364;   -0,045
993,252; 2717,788;   -3,000;   -0,500
993,802; 2793,424;   -0,273;    1,318
994,352; 3031,970;   -1,545;    1,136
994,901; 3105,061;   -0,182;    3,227
995,451; 3029,697;   -0,182;    0,318
996,000; 3133,152;    1,636;    0,318
996,550; 2826,061;    2,273;    0,227
997,100; 2830,879;    1,273;   -0,045
997,649; 3115,788;    2,182;    0,955
998,198; 2763,970;    1,727;   -1,500
998,748; 2972,424;    1,091;   -2,318
999,297; 2872,242;   -0,818;   -0,409
999,846; 2931,242;    1,000;   -0,773
1000,395; 2962,879;   -0,818;    0,500
1000,945; 2919,970;    1,818;   -0,773
1001,494; 3018,515;    2,364;    0,682
1002,043; 2991,152;    4,636;    0,864
1002,592; 2865,424;   -1,091;    1,955
1003,141; 2991,242;   -0,455;   -0,682
1003,690; 2858,424;    1,727;    0,500
1004,238; 2925,879;    1,455;   -0,045
1004,787; 2577,879;    1,364;    1,227
1005,336; 2796,424;    0,364;    0,682
1005,885; 2942,970;    1,364;   -2,773
1006,433; 3084,515;    0,545;    0,955
1006,982; 3146,697;    0,455;    1,682
1007,531; 3036,879;   -1,818;   -0,227
1008,079; 3009,788;   -2,273;    0,500
1008,627; 3155,152;   -1,455;    0,409
1009,176; 2886,424;    0,000;   -1,955
1009,724; 2939,152;    1,091;    0,864
1010,273; 2992,333;    1,273;    0,500
1010,821; 3103,970;    0,091;    1,409
1011,369; 2838,061;   -1,364;    1,318
1011,917; 2833,333;   -1,364;   -0,591
1012,465; 3106,879;    1,273;   -1,591
1013,013; 3210,515;    2,091;   -1,682
1013,561; 3107,879;    0,455;   -0,773
1014,109; 3132,788;   -1,909;    1,682
1014,657; 3023,061;    0,364;    0,591
1015,205; 3155,515;    1,636;   -0,955
1015,753; 3184,697;   -0,545;   -1,409
1016,301; 3234,606;   -2,636;    3,045
1016,848; 3229,697;   -1,273;    0,409
1017,396; 3241,424;    2,545;    0,045
1017,944; 3359,606;    1,182;    1,864
1018,491; 3141,970;    0,273;    1,409
1019,039; 3287,606;    0,455;    0,591
1019,586; 3208,242;   -1,364;    1,682
1020,134; 3314,606;    0,455;    1,500
1020,681; 3329,242;    0,182;   -1,136
1021,228; 3329,061;    2,909;   -2,227
1021,776; 3167,424;    1,182;   -1,136
1022,323; 3399,515;    0,455;    0,773
1022,870; 3345,515;   -1,000;   -0,045
1023,417; 3230,970;    2,636;    1,864
1023,964; 3373,970;    2,636;    1,227
1024,511; 3197,515;    1,000;    0,773
1025,058; 2995,606;    3,182;   -0,045
1025,605; 3065,242;   -2,273;    3,136
1026,152; 3276,515;    1,727;   -0,591
1026,699; 3020,061;    1,818;    1,318
1027,245; 3170,061;   -0,091;    0,318
1027,792; 3378,697;   -1,000;    1,409
1028,339; 3261,242;    2,364;   -0,045
1028,885; 3131,152;    1,000;   -0,227
1029,432; 3054,152;   -0,091;    0,227
1029,978; 3131,152;   -1,000;   -1,591
1030,525; 3043,970;    1,000;    0,409
1031,071; 3278,333;   -1,364;    1,136
1031,618; 3371,515;    0,364;    1,682
1032,164; 3176,242;   -0,091;    3,045
1032,710; 3207,970;    1,636;   -1,500
1033,256; 3145,424;   -0,636;   -0,136
1033,803; 3127,152;   -0,545;    1,500
1034,349; 2848,333;   -1,364;    0,136
1034,895; 2995,970;    0,000;   -0,318
1035,441; 2970,970;   -0,818;    0,318
1035,987; 2980,970;   -2,364;   -0,682
1036,533; 2980,061;   -1,455;   -0,955
1037,078; 3176,697;    1,455;    1,682
1037,624; 3001,424;    2,455;   -0,955
1038,170; 3019,788;    0,455;   -0,318
1038,716; 2924,788;    1,636;   -0,409
1039,261; 2839,242;   -2,273;   -0,773
1039,807; 2804,697;   -0,091;    3,409
1040,352; 2865,424;   -1,909;   -0,318
1040,898; 2901,242;   -1,545;   -0,682
1041,443; 2805,152;   -1,455;   -2,591
1041,989; 2825,970;    1,091;    1,591
1042,534; 2737,061;   -0,364;    2,591
1043,079; 2846,970;    2,909;    0,955
1043,625; 2630,970;    1,818;    0,500
1044,170; 2668,515;   -1,364;    1,045
1044,715; 2922,970;    2,455;    0,955
1045,260; 2735,697;    2,182;   -0,955
1045,805; 2798,424;    1,182;   -0,591
1046,350; 2732,697;    1,364;   -0,409
1046,895; 2678,970;    2,909;    1,591
1047,440; 2635,697;    5,364;    0,409
1047,985; 2537,424;    2,818;   -0,955
1048,530; 2459,061;    1,545;    1,227
1049,074; 2523,788;    0,000;    0,318
1049,619; 2500,061;   -1,364;    1,955
1050,164; 2294,515;    0,455;    0,227
1050,708; 2345,424;   -0,455;    0,045
1051,253; 2696,697;    1,273;   -2,227
1051,797; 2416,879;    0,818;   -1,318
1052,342; 2437,970;   -1,182;    1,045
1052,886; 2416,424;    0,364;   -1,409
1053,430; 2309,515;   -1,364;    0,136
1053,975; 2328,515;   -0,818;   -0,318
1054,519; 2299,333;   -0,727;    3,227
1055,063; 2322,242;    0,909;    1,318
1055,607; 2203,970;   -0,182;    0,227
1056,151; 2222,061;    2,909;    1,682
1056,695; 2150,697;    2,273;   -1,136
1057,239; 2211,606;   -1,727;   -0,682
1057,783; 2217,242;    0,818;   -1,500
1058,327; 2165,970;    0,000;    1,409
1058,871; 2391,061;   -0,545;    1,318
1059,415; 2094,970;   -0,818;   -0,045
1059,958; 2360,879;    1,455;    2,591
1060,502; 2073,061;   -1,000;   -0,773
1061,046; 2006,788;    0,364;   -0,955
1061,589; 1982,152;   -3,000;   -1,136
1062,133; 1860,970;   -1,273;    1,864
1062,676; 1799,242;    1,182;    0,864
1063,220; 1796,424;    1,091;    0,500
1063,763; 1813,515;    0,909;    1,136
1064,306; 1908,788;   -0,909;    1,864
1064,849; 1786,061;   -0,909;    0,591
1065,393; 1793,970;    2,000;   -1,500
1065,936; 1922,242;    0,182;   -0,409
1066,479; 1795,333;   -1,455;    1,318
1067,022; 1814,697;   -0,273;   -0,227
1067,565; 1710,242;   -0,091;   -1,318
1068,108; 1738,242;    0,727;   -0,591
1068,651; 1717,879;   -0,636;    1,409
1069,194; 1651,242;   -0,455;   -1,682
1069,736; 1640,424;   -1,273;    0,955
1070,279; 1632,879;   -1,364;   -0,500
1070,822; 1665,333;   -2,000;   -0,318
1071,364; 1752,424;   -0,364;    1,318
1071,907; 1575,879;   -0,727;    3,227
1072,450; 1490,061;    0,000;   -0,045
1072,992; 1480,970;   -0,273;    3,136
1073,535; 1615,424;    2,091;    2,136
1074,077; 1406,424;   -0,727;    2,045
1074,619; 1400,515;   -1,364;    0,591
1075,161; 1424,515;   -1,091;    1,500
1075,704; 1578,879;    1,545;    1,227
1076,246; 1389,333;   -0,182;    0,682
1076,788; 1325,970;   -0,364;    1,773
1077,330; 1394,152;    1,273;    2,136
1077,872; 1351,879;    0,909;    0,955
1078,414; 1574,606;    2,727;    0,773
1078,956; 1313,424;    1,273;   -0,227
1079,498; 1567,242;    1,636;    0,318
1080,040; 1282,152;    1,909;   -1,318
1080,581; 1221,788;    1,636;   -0,318
1081,123; 1151,242;    0,091;   -0,773
1081,665; 1211,879;   -1,182;   -0,955
1082,206; 1500,424;    1,364;   -0,500
1082,748; 1341,879;    0,727;    2,045
1083,289; 1221,879;   -2,000;    1,318
1083,831; 1139,152;   -0,545;    0,227
1084,372; 1168,333;    0,000;    0,591
1084,913; 1170,606;    1,091;    0,864
1085,455; 1140,152;   -1,909;   -2,045
1085,996; 1112,788;   -2,273;    0,136
1086,537; 1131,606;   -0,091;    0,864
1087,078; 1169,879;   -0,909;   -2,136
1087,619; 1208,697;   -1,273;    0,227
1088,160; 1130,061;    0,000;    1,318
1088,701; 1112,697;   -1,091;    0,682
1089,242; 1062,424;    1,364;   -2,227
1089,783; 1151,879;   -0,273;    1,409
1090,324; 1113,879;    0,455;    0,682
1090,865;  995,061;    2,727;   -0,409
1091,405;  973,697;    0,727;    2,227
1091,946;  996,424;    0,182;   -0,955
1092,487;  930,242;    0,818;   -1,409
1093,027; 1076,333;   -1,364;   -1,500
1093,568;  929,970;   -0,364;    1,227
1094,108; 1020,242;    0,273;    1,773
1094,649;  968,697;   -1,182;    0,136
1095,189;  912,970;   -0,636;   -0,682
1095,729;  865,152;   -0,091;    0,955
1096,269;  868,697;    0,727;   -0,955
1096,810; 1175,515;   -1,364;    0,500
1097,350; 1006,788;    1,364;   -0,773
1097,890;  910,515;    0,364;    1,227
1098,430; 1155,788;    2,364;    2,864
1098,970; 1021,879;    2,182;    1,682
1099,510;  885,424;    0,545;   -2,318
1100,050;  816,333;    1,000;   -1,591
1100,589;  792,606;   -0,727;   -0,318
1101,129;  923,152;    0,818;   -0,955
1101,669; 1054,242;    1,727;    2,136
1102,209;  879,788;   -0,091;    2,227
1102,748;  829,970;    0,000;    0,955
1103,288;  827,788;    1,273;   -1,227
1103,827;  858,788;    3,091;   -2,227
1104,367;  747,152;   -0,091;   -2,409
1104,906;  696,697;    1,364;   -1,136
1105,445;  764,970;    0,636;   -1,136
1105,985;  717,424;   -0,727;    1,500
1106,524;  766,061;   -1,727;   -0,682
1107,063;  733,333;   -2,727;    1,409
1107,602;  702,061;   -1,909;   -1,500
1108,141;  632,333;   -1,909;    1,500
1108,680;  734,879;   -3,455;   -0,591
1109,219;  680,424;   -0,909;   -0,500
1109,758;  683,697;    0,455;    0,682
1110,297;  652,333;    1,000;   -0,682
1110,836;  592,515;   -0,727;    0,955
1111,375;  749,424;   -2,545;    0,409
1111,913;  769,061;   -1,000;    0,773
1112,452;  697,515;   -0,273;    0,136
1112,991;  589,697;    1,091;    1,955
1113,529;  549,515;   -0,818;   -0,045
1114,068;  618,697;   -0,273;    2,955
1114,606;  520,152;   -0,364;   -0,955
1115,144;  678,970;   -1,273;    1,045
1115,683;  626,424;   -0,727;    0,318
1116,221;  670,424;   -0,455;   -0,864
1116,759;  576,515;    0,636;   -0,864
1117,297;  769,242;    0,000;    1,864
1117,836;  576,242;   -2,182;   -1,227
1118,374;  585,333;    0,182;   -0,682
1118,912;  524,879;    0,909;    2,682
1119,450;  507,242;    1,000;    0,864
1119,988;  559,788;    1,545;    2,136
1120,525; 1015,333;    5,091;    3,318
1121,063;  726,879;    1,182;    1,864
1121,601;  523,242;   -0,909;   -1,227
1122,139;  486,061;   -0,727;   -2,045
1122,676;  674,697;   -0,727;    2,773
1123,214;  609,333;   -1,182;    4,409
1123,751;  427,970;    1,727;    2,227
1124,289;  559,515;   -0,091;   -0,409
1124,826;  421,515;    1,727;    0,227
1125,364;  351,879;    1,727;   -0,955
1125,901;  537,333;    1,182;    1,227
1126,438;  648,879;    0,818;    0,955
1126,975;  375,970;   -0,727;   -0,773
1127,513;  439,606;    0,273;    2,136
1128,050;  361,061;    1,636;   -0,682
1128,587;  455,697;    2,000;   -0,227
1129,124;  486,788;    0,091;    1,318
1129,661;  357,970;    0,273;    0,227
1130,198;  517,697;    1,636;    0,773
1130,734;  462,061;    0,182;    1,409
1131,271;  323,970;   -0,909;    0,864
1131,808;  497,424;    2,909;    3,045
1132,345;  361,152;    1,545;    0,318
1132,881;  242,970;   -1,545;   -1,864
1133,418;  392,879;    0,727;   -1,136
1133,954;  327,697;    2,455;   -2,682
1134,491;  388,788;    1,364;   -0,773
1135,027;  297,152;    2,364;    0,864
1135,564;  375,242;    0,273;    2,955
1136,100;  363,515;    0,364;    2,136
1136,636;  260,970;   -1,273;   -1,045
1137,172;  352,424;    0,000;   -1,045
1137,708;  272,879;   -1,364;   -1,045
1138,245;  277,879;    1,273;   -1,227
1138,781;  238,606;    1,091;   -3,318
1139,317;  301,424;    1,273;   -1,409
1139,852;  291,242;    3,091;    0,136
1140,388;  400,152;   -1,182;   -0,409
1140,924;  288,606;   -1,091;   -2,227
1141,460;  227,970;   -1,636;    0,136
1141,996;  163,606;   -1,364;    2,682
1142,531;  206,152;    1,364;    3,318
1143,067;  414,788;    1,182;    1,045
1143,602;  474,515;   -0,091;   -0,318
1144,138;  321,152;   -2,636;    1,045
1144,673;  192,333;   -1,455;    1,409
1145,209;  258,242;   -1,909;   -0,318
1145,744;  176,424;   -0,727;    0,864
1146,279;  309,515;    1,818;   -0,136
1146,815;  231,061;    1,545;   -2,682
1147,350;  265,333;   -1,364;    0,045
1147,885;  184,333;   -0,818;   -1,318
1148,420;  179,879;   -2,273;    0,773
1148,955;  165,061;   -1,727;    1,864
1149,490;  180,970;   -0,909;   -1,591
1150,025;  170,424;    0,455;   -1,773
1150,560;  275,879;    1,091;   -0,955
1151,094;  245,697;    1,455;   -0,591
1151,629;  254,697;    1,636;    0,864
1152,164;  184,242;    1,364;    1,318
1152,698;  147,788;   -0,182;   -0,136
1153,233;  109,424;    0,091;   -0,682
1153,767;  145,697;   -3,000;   -2,318
1154,302;  192,515;   -1,455;    1,773
1154,836;  195,970;   -0,455;   -2,136
1155,371;  246,788;   -1,364;    3,682
1155,905;  204,697;   -0,636;    1,682
1156,439;  172,152;   -0,636;   -0,500
1156,973;  209,788;    0,364;    0,318
1157,507;  130,697;   -0,364;    0,682
1158,042;  158,788;   -0,727;    1,045
1158,576;  207,152;    0,182;    1,773
1159,110;  195,970;   -0,818;    2,409
1159,643;  168,424;    0,636;   -0,045
1160,177;  117,697;   -1,545;    1,500

