
Integration time [ms]:   0,040
Averaging Nr. [scans]: 11
Smoothing Nr. [pixels]: 0
Data measured with spectrometer [name]: 7318044SP
Wave   ;Sample   ;Dark     ;Reference
[nm]   ;[counts] ;[counts] ;[counts] 

186,757;   19,258;   31,551;    1,318
187,357;   57,724;   22,551;    0,955
187,958;   30,514;   15,460;   -1,591
188,558;   68,711;    8,915;   -1,227
189,159;   45,181;    6,733;   -4,500
189,759;   13,967;    7,278;   -3,591
190,360;   12,088;    2,824;   -2,136
190,960;   51,420;    2,915;   -4,136
191,560;   65,471;    3,189;   -6,591
192,161;  289,266;    4,372;   -3,500
192,761;  140,220;    4,010;   -3,227
193,361;   97,601;    1,556;   -3,773
193,962;  152,164;    2,010;   -2,682
194,562;   76,377;    1,189;   -3,955
195,162;  103,649;   -2,448;   -2,227
195,762;  254,813;   -3,176;   -0,045
196,362;  214,639;    1,370;   -2,500
196,963;   81,227;    2,006;   -0,864
197,563;  146,530;    1,551;   -0,955
198,163;  105,131;    0,096;   -0,682
198,763;  120,967;    1,733;   -0,500
199,363;  218,939;    3,096;   -0,500
199,963;  180,962;    0,369;    0,409
200,563;  161,002;    2,823;   -1,409
201,163;  136,589;    3,277;   -0,227
201,763;  228,040;    3,732;    0,318
202,363;  164,198;    1,459;    1,500
202,963;  268,270;    1,459;    1,045
203,563;  378,020;    0,277;    0,500
204,162;  231,568;    2,096;   -1,864
204,762;  214,508;    0,550;    0,591
205,362;  183,829;    3,004;    1,955
205,962;  288,679;    3,096;    1,955
206,562;  282,944;    1,823;    2,318
207,161;  252,304;   -0,087;    0,318
207,761;  408,793;    1,277;    2,409
208,361;  287,933;   -0,268;    1,409
208,960;  387,002;    0,459;    1,500
209,560;  439,601;    1,277;    1,591
210,160;  429,773;    0,550;    1,864
210,759;  399,251;    4,186;    1,227
211,359;  410,066;    1,459;    1,045
211,958;  675,684;    1,277;    2,045
212,558;  759,589;    1,732;    1,864
213,157;  591,053;    1,822;    1,500
213,757; 1025,162;    3,822;   -0,227
214,356;  733,817;    1,277;   -0,409
214,956; 1064,220;    3,095;    0,409
215,555;  693,983;    2,095;    2,136
216,154;  635,014;   -2,723;   -0,591
216,754;  652,012;    0,277;    0,773
217,353;  774,967;   -0,268;   -1,045
217,952;  639,968;   -0,178;    0,318
218,552;  867,877;    1,368;   -0,773
219,151;  761,644;    0,277;    0,955
219,750;  760,264;    0,004;   -0,227
220,349;  890,396;   -0,451;    1,045
220,948;  959,497;   -1,360;    1,136
221,548;  967,237;    0,913;    1,227
222,147; 1083,991;   -0,087;   -0,409
222,746; 1358,949;   -0,451;   -0,955
223,345; 1236,044;    0,731;    0,500
223,944; 1246,363;   -0,451;    0,773
224,543; 1416,172;    1,004;   -1,409
225,142; 1518,846;    0,094;    0,136
225,741; 1413,065;   -0,814;    1,045
226,340; 1432,099;   -0,451;   -0,955
226,939; 1872,717;   -0,996;   -0,136
227,538; 1821,366;   -0,360;   -0,773
228,137; 1957,317;   -0,814;    0,864
228,735; 2098,044;   -0,541;    1,227
229,334; 1857,497;   -0,905;   -0,227
229,933; 2231,559;    0,459;    0,591
230,532; 2333,460;    1,186;   -0,409
231,131; 2380,212;    1,732;    0,318
231,729; 2503,556;   -2,450;   -2,318
232,328; 2609,069;   -0,723;   -1,500
232,927; 2660,632;    1,004;   -0,500
233,525; 2772,328;    3,640;    0,045
234,124; 2971,520;    2,368;   -1,591
234,723; 2995,071;    0,913;   -1,045
235,321; 3136,779;    2,277;    0,136
235,920; 3351,284;    1,186;   -1,227
236,518; 3602,628;    3,459;    0,318
237,117; 3766,843;    0,004;   -0,227
237,715; 3923,831;    0,640;   -0,500
238,314; 3947,189;   -0,087;   -2,318
238,912; 4044,765;   -0,723;   -1,409
239,510; 4112,853;    0,459;   -1,227
240,109; 4261,384;    0,004;    3,773
240,707; 4304,448;   -0,996;    1,227
241,305; 4655,301;    0,550;    0,136
241,904; 4867,938;   -0,178;   -2,045
242,502; 4852,667;   -0,632;   -0,227
243,100; 4798,102;   -0,087;   -0,955
243,698; 5052,453;    0,732;    1,682
244,297; 5227,770;   -0,632;    0,682
244,895; 5072,323;   -0,269;   -2,318
245,493; 5377,936;    2,186;   -0,591
246,091; 5425,267;    1,368;   -1,318
246,689; 5411,266;    1,004;    0,591
247,287; 5587,053;    0,822;   -1,136
247,885; 5869,431;   -1,451;    1,227
248,483; 5974,385;    1,822;   -0,500
249,081; 6090,596;    0,185;    1,591
249,679; 6235,987;   -0,178;    1,682
250,277; 6502,608;   -1,723;    0,864
250,875; 6486,375;   -1,087;   -1,045
251,473; 6517,693;   -1,178;    0,500
252,071; 6692,113;    1,459;    1,045
252,669; 6876,818;   -1,814;    0,318
253,267; 7129,842;   -0,087;    0,773
253,864; 7091,962;   -0,360;    0,682
254,462; 6948,792;    1,640;    1,591
255,060; 6939,607;   -0,269;    1,318
255,658; 7227,818;    0,822;   -0,136
256,255; 7633,870;    0,186;   -2,045
256,853; 7504,249;   -0,269;    1,409
257,451; 7489,299;    0,822;    1,864
258,048; 7757,022;    1,822;    1,864
258,646; 7554,337;    1,731;   -1,045
259,243; 7731,249;   -0,087;    2,227
259,841; 7772,061;   -0,814;    0,318
260,438; 7705,765;   -0,087;    0,864
261,036; 8405,711;   -1,905;    1,409
261,633; 8302,728;   -0,087;    2,227
262,231; 8045,119;    2,731;   -0,045
262,828; 8124,796;   -0,905;    1,136
263,425; 8177,021;    0,913;   -0,591
264,023; 8434,061;    0,186;    0,045
264,620; 7987,336;   -0,360;   -0,318
265,217; 8327,637;   -2,087;    3,136
265,815; 8451,958;   -1,905;    2,136
266,412; 8244,002;    0,731;    0,136
267,009; 8272,207;   -1,451;    0,773
267,606; 8169,610;    0,822;   -0,955
268,203; 8148,926;   -0,269;   -0,591
268,801; 8447,666;    1,731;    0,591
269,398; 8739,645;   -0,360;    2,500
269,995; 8722,887;    0,277;    1,591
270,592; 8481,164;   -0,632;   -0,500
271,189; 8669,767;    0,186;    0,409
271,786; 8807,325;   -0,632;    1,227
272,383; 8639,348;   -1,087;    0,227
272,980; 8841,632;    0,277;    0,318
273,577; 9284,428;    0,004;    1,227
274,174; 8853,643;    0,822;    2,591
274,771; 8832,636;   -0,814;   -0,773
275,367; 8979,336;    2,277;    1,409
275,964; 8936,406;    0,731;   -0,500
276,561; 9037,911;    1,549;   -1,045
277,158; 9235,260;    0,095;   -1,773
277,755; 9390,959;    2,185;    0,409
278,351; 8809,245;   -0,451;   -1,500
278,948; 9122,928;   -0,815;    0,045
279,545; 9114,223;   -1,360;    2,318
280,141; 9730,023;   -1,723;   -2,045
280,738; 9594,362;   -0,451;   -0,136
281,334; 9821,736;   -1,633;    0,591
281,931; 9204,275;   -0,087;   -1,318
282,528; 9305,211;    0,822;   -0,500
283,124;10004,974;   -1,087;   -0,500
283,721; 9924,726;   -0,451;    1,409
284,317; 9731,064;    0,185;    2,500
284,913;10286,606;   -1,360;    0,591
285,510;10462,424;    0,640;   -0,318
286,106;10485,203;   -2,269;   -0,955
286,703;10103,986;   -0,360;    1,955
287,299;10311,061;   -1,451;   -0,591
287,895;10527,457;    0,822;   -1,045
288,491;11086,827;    0,186;    2,136
289,088;10802,257;   -2,360;    2,409
289,684;10875,818;   -1,723;    1,500
290,280;10908,203;    0,368;    0,682
290,876;10985,850;    1,822;    5,500
291,472;10869,472;    1,276;    2,227
292,068;10945,659;    1,367;    0,227
292,665;10691,333;    2,095;    0,773
293,261;10290,586;    0,276;    2,136
293,857;10689,201;    2,913;    2,136
294,453;10665,195;    3,550;    0,955
295,049;10523,762;   -0,268;    1,955
295,644;10549,115;    0,095;    0,136
296,240;10445,255;   -0,905;   -0,136
296,836;10513,421;   -0,995;    0,318
297,432;10761,075;    1,096;   -0,500
298,028;10806,318;    0,732;    0,773
298,624;11216,059;    1,459;    1,864
299,220;11447,568;    2,368;    0,591
299,815;11136,274;    1,005;   -0,409
300,411;10964,035;    0,914;    1,773
301,007;10968,134;    1,368;    0,227
301,602;11009,119;   -0,541;   -2,318
302,198;11197,945;    0,732;   -0,773
302,794;11512,990;    1,187;   -0,500
303,389;11614,174;   -1,177;    1,045
303,985;11691,509;    0,550;    1,409
304,580;11651,989;    1,459;    1,591
305,176;11627,368;   -3,086;    0,136
305,771;11566,587;   -1,268;   -1,227
306,367;11382,743;    4,095;    0,136
306,962;11740,392;    0,641;    1,500
307,558;11480,421;   -0,450;    0,136
308,153;11409,733;    1,095;   -1,136
308,748;11624,970;   -0,814;    1,682
309,344;11582,592;   -0,632;   -1,318
309,939;11647,889;   -1,905;   -1,318
310,534;11958,649;   -0,086;   -1,682
311,130;11901,032;    0,459;   -2,500
311,725;11633,856;    1,004;   -0,500
312,320;11941,817;    2,459;    0,045
312,915;11763,468;    1,459;   -1,045
313,510;11847,160;    1,550;   -0,500
314,105;12356,773;    1,096;    1,409
314,700;11761,779;   -3,086;   -1,045
315,295;11404,443;   -0,904;    0,045
315,890;11006,572;    1,277;    0,864
316,485;11341,585;   -0,359;   -0,318
317,080;11453,575;   -3,086;    1,591
317,675;11978,818;    2,005;   -0,682
318,270;11372,403;    5,550;    3,318
318,865;11395,039;    3,278;    3,045
319,460;11259,997;   -0,904;    0,591
320,055;11484,365;   -0,541;   -1,227
320,650;11143,604;   -1,995;   -0,591
321,244;11170,278;   -0,177;   -1,409
321,839;12115,963;   -1,541;   -0,227
322,434;12038,999;   -1,086;   -1,591
323,029;11661,528;    1,732;    1,591
323,623;11475,334;    1,550;    0,773
324,218;11217,705;    2,368;    1,409
324,812;11129,081;    1,096;    1,591
325,407;10946,907;   -0,814;    2,045
326,002;10862,241;    0,277;   -0,409
326,596;11137,140;    0,914;    1,318
327,191;11339,510;    0,823;   -1,045
327,785;10949,413;   -0,813;   -0,227
328,379;11164,450;    1,368;    0,136
328,974;10949,753;    0,914;   -3,955
329,568;11185,385;    0,186;   -2,409
330,163;10981,924;    2,096;    1,045
330,757;11361,920;    2,459;    1,591
331,351;10718,397;    0,459;    0,682
331,945;11005,171;    0,914;    1,409
332,540;10619,307;   -1,723;   -0,591
333,134;10760,709;   -1,086;    0,773
333,728;10981,640;    0,005;    0,318
334,322;11332,024;   -1,177;   -0,864
334,916;10631,050;    0,277;    0,955
335,510;10959,608;   -0,450;   -0,136
336,105;11183,692;   -1,086;    1,591
336,699;10908,309;   -1,086;    0,591
337,293;10858,836;   -1,723;    0,318
337,887;10989,029;   -2,723;    1,955
338,481;11082,882;    0,459;    0,591
339,074;11241,595;   -0,359;    2,682
339,668;11112,833;   -1,632;    1,227
340,262;11333,649;    1,732;    3,227
340,856;10880,481;    1,822;   -0,682
341,450;10248,912;    1,004;    1,864
342,044;11154,291;    1,459;    0,136
342,637;10891,111;    0,913;   -2,136
343,231;10750,360;   -2,360;    0,682
343,825;10755,854;   -1,086;   -0,591
344,419;10717,266;   -1,995;    0,500
345,012;10478,563;    2,459;    4,045
345,606;10480,982;    4,641;    1,591
346,199;10345,549;   -1,813;   -0,227
346,793; 9900,242;    1,914;    2,045
347,386;10088,414;   -0,813;   -1,136
347,980;10071,083;   -0,268;   -0,045
348,573; 9865,132;    2,278;    0,409
349,167; 9542,452;    5,278;    4,773
349,760; 9879,847;    2,914;    2,682
350,354; 9858,390;   -0,813;    1,136
350,947; 9618,072;    1,096;    1,682
351,540; 9314,465;   -0,358;   -1,409
352,134; 9252,787;    1,096;    1,136
352,727; 9353,534;   -0,086;    1,136
353,320; 9140,730;    0,005;    0,591
353,913; 8970,583;   -1,995;    1,864
354,507; 9180,587;    0,823;   -1,227
355,100; 9192,219;    0,460;    0,864
355,693; 8441,556;    2,005;    2,409
356,286; 8469,968;    0,823;    2,773
356,879; 8836,758;   -0,722;    1,227
357,472; 8438,518;   -0,904;    1,500
358,065; 8656,385;   -0,722;    2,500
358,658; 8576,939;   -0,540;    2,318
359,251; 8230,850;   -1,631;   -0,591
359,844; 7714,747;   -1,904;   -1,136
360,437; 7906,463;   -2,995;    0,045
361,030; 8159,092;    1,369;   -0,682
361,623; 7732,012;    2,824;    0,318
362,215; 7789,595;   -0,086;    2,045
362,808; 7610,963;   -2,358;   -1,682
363,401; 7788,249;   -2,449;    0,136
363,994; 7551,666;   -0,631;   -1,500
364,586; 7511,040;    0,824;   -1,500
365,179; 7714,421;   -0,449;   -1,136
365,772; 7192,075;   -1,995;    2,045
366,364; 7477,004;    1,915;   -3,227
366,957; 7671,881;    2,279;   -0,045
367,549; 7689,448;    2,188;   -0,864
368,142; 7352,521;    1,825;   -1,500
368,734; 7540,971;    0,734;   -2,136
369,327; 7512,685;    1,643;   -0,500
369,919; 7401,903;   -1,538;    0,409
370,512; 7227,991;   -1,083;   -0,500
371,104; 6988,172;   -0,901;    1,591
371,696; 7152,766;    1,191;   -0,955
372,289; 7255,236;    0,373;    1,136
372,881; 7383,307;   -2,080;    1,318
373,473; 7317,604;   -2,170;    1,136
374,066; 7124,753;   -0,169;    0,500
374,658; 6972,500;    0,378;    1,136
375,250; 7313,891;    0,653;   -1,409
375,842; 7190,535;    0,473;   -0,045
376,434; 7056,275;   -0,435;   -0,409
377,026; 7588,177;    0,204;   -2,500
377,618; 7518,390;   -0,158;   -0,682
378,210; 7361,805;   -0,338;   -1,955
378,802; 7201,025;    0,754;   -0,591
379,394; 7153,598;    1,846;    0,682
379,986; 7754,680;    1,393;   -0,955
380,578; 7848,266;   -0,153;    0,773
381,170; 7195,547;   -0,972;    0,045
381,762; 7165,457;    0,755;    1,409
382,354; 7346,678;   -0,065;   -1,318
382,945; 7461,567;   -2,976;    0,318
383,537; 7603,895;   -2,705;   -1,955
384,129; 7612,464;   -2,160;   -1,136
384,721; 7806,202;   -0,252;    0,955
385,312; 7731,260;   -0,161;   -0,955
385,904; 7826,845;   -2,706;    1,591
386,496; 7229,275;   -0,979;    1,045
387,087; 7350,504;    1,022;    2,500
387,679; 7392,029;   -1,160;    0,045
388,270; 7513,376;    2,840;    2,045
388,862; 7605,964;    1,295;   -0,318
389,453; 7505,320;   -0,887;    1,045
390,045; 7761,471;   -0,705;   -2,682
390,636; 7699,422;    0,204;   -0,591
391,227; 7553,900;   -0,523;   -0,045
391,819; 7678,003;    0,204;    0,773
392,410; 7736,808;    1,022;    0,045
393,001; 7662,707;   -0,979;   -1,591
393,593; 7936,021;    1,930;   -0,045
394,184; 7785,254;    1,385;   -0,409
394,775; 7703,104;    1,839;    2,136
395,366; 7898,775;    1,385;    0,773
395,957; 7915,749;    0,113;    0,136
396,548; 8209,586;   -0,342;    2,682
397,139; 8491,012;   -2,433;    0,591
397,730; 8229,652;   -1,888;    0,955
398,321; 8307,033;   -1,252;    0,955
398,912; 8342,796;   -0,615;    0,136
399,503; 8450,371;   -3,524;   -1,409
400,094; 7864,231;    0,294;    1,682
400,685; 7719,879;   -0,433;    0,045
401,276; 7819,873;    0,930;   -0,955
401,867; 8127,614;   -0,888;    0,773
402,458; 8223,568;   -2,251;   -2,318
403,048; 8191,346;    1,112;    0,591
403,639; 7816,051;    0,840;    0,864
404,230; 8054,014;    2,476;    0,318
404,821; 7970,644;   -0,615;    0,045
405,411; 8091,050;    1,203;   -2,591
406,002; 7674,651;   -1,252;   -1,136
406,592; 7535,577;    2,294;    0,045
407,183; 7888,177;    0,566;   -1,500
407,774; 7807,592;    3,475;   -0,136
408,364; 8097,464;    0,930;    0,409
408,954; 7730,078;    0,384;    1,227
409,545; 7775,348;    1,021;    1,045
410,135; 7306,732;    1,293;    0,500
410,726; 7443,434;    1,838;    0,318
411,316; 7813,833;    0,111;    0,773
411,906; 7517,515;   -0,253;   -0,409
412,497; 7036,428;   -1,070;   -0,045
413,087; 7620,764;   -1,980;   -0,227
413,677; 7987,828;   -0,707;    3,864
414,267; 7841,068;    0,656;    1,409
414,857; 7839,981;   -2,980;    4,227
415,448; 8108,161;    0,839;    0,500
416,038; 7789,468;    0,020;   -0,591
416,628; 7792,826;   -0,889;    0,409
417,218; 7270,715;    0,565;    3,318
417,808; 7512,083;    0,202;   -0,409
418,398; 7970,114;    0,020;    2,682
418,988; 7981,360;    2,020;    0,591
419,578; 8200,075;   -0,707;    1,409
420,168; 8552,698;   -1,343;   -0,955
420,757; 8120,101;   -1,343;   -1,500
421,347; 7813,739;    0,111;   -0,227
421,937; 7991,767;    2,292;    1,409
422,527; 7925,140;    0,838;   -0,773
423,116; 7729,689;   -0,253;   -0,045
423,706; 8053,759;   -1,889;    0,318
424,296; 8042,212;    1,384;    0,682
424,885; 8440,303;   -0,071;   -3,045
425,475; 8714,404;    1,474;   -2,864
426,065; 8647,706;   -0,980;   -0,318
426,654; 8287,796;   -0,435;   -0,318
427,244; 8363,620;    0,020;    1,409
427,833; 7839,160;    1,383;   -0,500
428,423; 8297,758;   -0,526;    1,136
429,012; 9046,777;   -0,344;   -1,136
429,601; 8518,181;   -1,344;    0,136
430,191; 8738,557;    1,292;    4,318
430,780; 8415,638;   -0,344;   -0,409
431,369; 8312,637;    0,746;   -0,045
431,959; 8953,580;   -1,254;    0,500
432,548; 8723,158;   -1,163;   -0,045
433,137; 8845,985;   -1,254;   -1,318
433,726; 9356,342;    0,292;    0,500
434,315; 8747,227;   -0,526;    2,409
434,905; 8840,740;   -1,254;    1,409
435,494; 8727,393;    0,746;    0,955
436,083; 9193,042;   -0,981;   -0,955
436,672; 9037,687;    0,110;    0,500
437,261; 8624,672;    0,292;   -1,955
437,850; 8740,089;    1,383;    0,682
438,439; 8704,812;    3,291;    1,955
439,027; 8537,182;    3,655;    1,773
439,616; 8886,863;    2,927;    1,227
440,205; 8734,546;    0,200;   -2,136
440,794; 8801,048;    2,109;   -0,045
441,383; 9051,126;   -1,346;   -0,591
441,971; 8901,851;   -2,436;    0,591
442,560; 8757,444;    0,563;   -1,773
443,149; 8518,402;    0,379;   -1,318
443,737; 8647,528;   -0,074;   -2,318
444,326; 8881,446;    0,018;    0,318
444,915; 8958,836;   -1,982;    0,864
445,503; 9311,738;   -2,891;   -0,318
446,092; 8603,471;    0,382;    2,136
446,680; 9108,845;    0,382;    0,318
447,269; 9273,821;   -0,346;   -0,318
447,857; 9071,653;    0,018;   -1,773
448,445; 9174,780;    0,563;    1,318
449,034; 9380,170;   -1,528;   -1,136
449,622; 9501,988;   -1,073;    3,500
450,210; 8742,474;    2,017;    2,227
450,799; 9286,933;    0,290;   -0,591
451,387; 9208,242;    1,381;   -0,591
451,975; 8879,507;    2,654;    0,864
452,563; 8958,645;    3,472;    2,318
453,151; 9009,575;   -0,528;   -1,227
453,739; 8924,574;   -1,347;    0,136
454,328; 8763,716;    2,381;   -2,136
454,916; 8496,485;    2,562;   -0,136
455,504; 8651,050;    1,017;    1,227
456,092; 8859,981;    0,017;   -1,591
456,679; 8821,952;    1,472;    0,682
457,267; 8725,967;    4,017;    1,045
457,855; 8882,854;    1,017;    1,409
458,443; 8674,780;   -0,165;    1,682
459,031; 8800,406;    0,108;    2,409
459,619; 9231,457;   -1,801;    2,864
460,206; 9373,494;    0,835;    2,045
460,794; 9419,443;   -2,983;   -0,227
461,382; 9630,950;   -0,529;   -0,864
461,970; 9231,434;    1,198;    1,864
462,557; 9261,281;   -0,711;   -0,682
463,145; 9459,970;   -3,165;   -1,682
463,732; 9600,902;    2,016;   -1,045
464,320; 9530,222;   -0,075;   -3,045
464,907; 9168,549;    2,743;   -0,773
465,495; 9064,098;    0,743;   -1,227
466,082; 9230,342;   -1,984;   -0,045
466,670; 9152,981;   -2,529;    1,227
467,257; 9530,352;   -1,711;    2,045
467,844; 9693,298;   -0,075;    0,045
468,432; 9739,149;    0,834;    3,500
469,019; 9247,048;    0,925;   -1,773
469,606; 9692,278;    0,470;    3,682
470,193; 9501,274;   -1,439;    0,227
470,780; 9078,222;   -2,075;    0,864
471,368; 9444,175;   -1,257;   -0,773
471,955; 9224,168;    1,379;   -0,682
472,542; 8853,763;    0,652;   -1,136
473,129; 9066,779;   -0,166;    0,136
473,716; 8811,470;    1,470;    0,591
474,303; 8991,381;    0,652;   -0,864
474,890; 9270,899;   -1,439;   -0,500
475,477; 9298,969;   -1,621;    0,409
476,064; 9189,626;    1,106;   -1,591
476,650; 9095,607;    0,288;    0,318
477,237; 8938,153;   -0,258;    0,955
477,824; 9089,733;   -1,076;    0,864
478,411; 9098,367;   -1,894;   -0,318
478,997; 9292,110;    0,560;   -0,773
479,584; 9346,647;    1,196;   -0,409
480,171; 9975,093;   -0,440;   -0,773
480,757; 9673,506;    2,651;    0,773
481,344; 9948,245;    0,469;    0,409
481,931; 9439,000;    1,105;    1,045
482,517;10327,521;   -1,258;    0,318
483,104;10809,161;    1,106;    2,864
483,690;11104,345;   -1,804;    0,045
484,276;11436,573;   -0,895;    0,227
484,863;11153,201;    2,469;    1,136
485,449;11737,314;   -0,077;    0,318
486,035;11735,438;   -1,986;   -0,136
486,622;12171,696;   -0,895;    0,045
487,208;12093,766;    1,378;    1,500
487,794;11954,628;    0,741;    0,318
488,380;12051,452;    0,105;   -1,409
488,967;12116,480;   -1,168;   -0,409
489,553;12179,590;   -1,895;   -1,409
490,139;12372,652;    1,559;    0,773
490,725;11858,473;    0,741;   -0,227
491,311;11484,803;    3,287;    3,045
491,897;10892,441;   -0,986;    1,500
492,483;10762,296;    0,105;    1,227
493,069;10541,868;    3,923;    0,864
493,655;10523,730;    1,650;    0,682
494,241;10475,605;    1,377;   -0,955
494,826;10852,680;    0,287;   -1,045
495,412;10356,074;    2,559;   -0,682
495,998;10530,383;   -0,805;   -0,318
496,584;10649,223;    0,377;    1,045
497,169;10704,018;    1,014;   -0,682
497,755;10675,377;    0,650;    1,227
498,341;11211,745;    0,559;    0,318
498,926;10826,362;    1,832;    1,955
499,512;11063,994;    1,286;    2,955
500,097;11180,970;    0,195;   -0,318
500,683;11150,780;   -0,350;    2,136
501,268;11543,630;   -0,169;   -0,955
501,854;11302,335;   -0,169;    1,227
502,439;11256,264;   -0,624;   -1,773
503,024;11471,583;    0,195;    0,500
503,610;11556,975;   -0,078;   -0,682
504,195;11626,195;    0,558;    1,955
504,780;11766,178;    2,922;    1,227
505,366;11596,901;    3,013;    2,864
505,951;11381,797;    0,740;    1,045
506,536;11401,278;   -3,260;   -3,682
507,121;11418,300;    0,285;   -0,318
507,706;11966,665;    2,376;    1,045
508,291;12358,797;    2,649;    1,136
508,876;11885,867;   -0,988;    2,591
509,461;11340,034;   -0,169;   -0,773
510,046;11766,425;    0,194;    0,318
510,631;12058,504;   -0,351;   -0,773
511,216;11762,302;    2,467;   -0,500
511,801;12133,067;   -0,442;    2,591
512,386;12437,752;    0,740;    0,500
512,971;12365,317;   -2,988;    0,955
513,555;11955,364;   -0,897;   -1,500
514,140;12746,582;   -0,442;   -3,136
514,725;12744,210;   -0,715;   -1,136
515,309;12928,569;   -0,533;    0,318
515,894;12370,356;   -0,624;   -2,227
516,479;12818,091;   -0,624;   -0,955
517,063;12659,266;    0,376;    1,227
517,648;12828,542;    1,012;   -1,136
518,232;12480,971;   -0,261;   -1,409
518,817;12806,305;   -0,079;    1,682
519,401;13001,361;    2,194;    0,591
519,985;12566,719;    1,103;    1,136
520,570;12477,581;    0,830;   -1,955
521,154;12753,469;    2,102;    0,591
521,738;12900,217;   -2,352;    2,409
522,323;13476,738;   -0,170;    1,682
522,907;13208,729;    0,466;   -0,136
523,491;12925,004;    0,557;    0,955
524,075;12951,702;    2,284;    0,591
524,659;13013,266;    1,466;    0,591
525,243;12495,845;    1,739;    0,409
525,827;12740,854;    0,648;   -0,045
526,411;13578,539;   -1,989;   -0,136
526,995;13768,879;   -0,352;    1,409
527,579;13367,906;   -0,443;   -1,045
528,163;13671,402;    0,375;   -1,500
528,747;13581,126;    2,466;   -0,773
529,331;13925,789;   -0,080;   -1,409
529,915;14077,525;    1,738;    0,955
530,499;14101,858;   -0,807;    1,227
531,082;13808,086;   -0,534;    1,591
531,666;13236,178;    1,374;    0,773
532,250;13895,369;    1,284;    2,682
532,833;14245,872;    0,920;    2,773
533,417;14108,449;   -1,807;    0,864
534,001;14044,311;    1,647;   -0,318
534,584;14779,175;    0,374;    0,500
535,168;14615,810;    0,465;    1,409
535,751;14626,573;    0,647;    0,045
536,334;14061,580;   -0,898;   -0,409
536,918;14672,972;    0,011;    1,591
537,501;14775,891;   -0,899;    1,318
538,085;14794,896;   -0,444;    1,045
538,668;14949,867;    0,829;    2,409
539,251;15221,474;    1,829;    3,773
539,834;15250,835;    0,101;    0,773
540,418;15187,521;   -1,990;    4,318
541,001;15287,758;   -0,990;    1,773
541,584;15315,670;    2,101;    2,227
542,167;14999,918;    1,374;    2,955
542,750;15180,228;    1,919;   -0,773
543,333;14752,948;    0,555;    2,136
543,916;15494,327;    0,192;    2,500
544,499;16099,213;   -1,354;    0,227
545,082;16148,002;    1,374;    3,591
545,665;16264,027;    1,919;    1,500
546,248;16573,312;    1,010;   -0,318
546,830;16236,914;   -0,445;    1,955
547,413;16682,446;    1,010;   -0,773
547,996;17193,970;    0,555;    0,500
548,579;16976,497;    0,919;    0,955
549,161;16774,650;    1,828;    2,682
549,744;16551,359;   -0,809;    0,409
550,326;17061,360;   -0,809;   -1,136
550,909;16824,613;    2,737;    0,591
551,492;17232,720;   -0,263;    0,227
552,074;17013,012;   -0,173;   -1,318
552,657;17556,983;    2,373;    0,045
553,239;17283,077;   -0,173;   -0,773
553,821;17218,063;   -1,082;    1,045
554,404;16782,679;    1,282;    1,136
554,986;17139,142;    0,464;    1,045
555,568;17682,600;    1,191;   -0,955
556,151;16921,934;    1,191;   -0,227
556,733;17167,865;   -0,264;   -0,864
557,315;17611,434;    0,100;    0,500
557,897;17392,946;    0,554;   -0,500
558,479;17507,341;   -1,991;    1,318
559,061;17676,363;   -0,719;   -0,864
559,643;17978,231;   -0,264;    0,045
560,225;18312,844;    1,645;    2,864
560,807;18383,686;    0,918;    0,318
561,389;17912,296;    0,554;    2,318
561,971;18625,777;    0,463;    2,136
562,553;18414,121;   -1,628;    1,591
563,135;18500,604;   -0,537;    1,136
563,717;18086,846;    3,372;    1,136
564,298;18850,338;    3,645;   -0,045
564,880;18574,883;    0,645;   -1,409
565,462;18715,974;    0,645;    1,318
566,043;19819,072;   -0,446;    2,318
566,625;19343,526;    1,918;    1,227
567,207;19193,721;    1,099;    1,682
567,788;20311,179;   -1,264;    1,500
568,370;21110,166;    1,917;   -0,500
568,951;20931,335;    0,190;    0,227
569,533;21732,812;   -0,628;   -0,500
570,114;22169,927;   -0,446;    0,682
570,695;22664,864;   -0,174;   -1,318
571,277;23094,782;   -0,265;   -1,682
571,858;23847,532;    2,008;   -1,136
572,439;24737,493;    1,554;   -1,045
573,021;24869,015;    2,099;   -2,773
573,602;25349,552;   -1,265;    0,318
574,183;26257,167;   -2,083;    2,227
574,764;26332,770;   -1,629;    0,409
575,345;26874,142;    0,917;   -0,136
575,926;27478,851;   -0,356;    0,136
576,507;27445,551;    1,099;   -0,227
577,088;28556,611;    3,099;    1,682
577,669;28546,503;    0,735;    1,955
578,250;29236,712;    0,644;   -1,045
578,831;29850,251;   -1,356;   -2,227
579,412;30064,020;   -0,810;    0,955
579,993;31018,082;    1,008;    0,227
580,573;31360,932;   -0,629;   -0,955
581,154;30337,626;    0,735;   -0,591
581,735;31159,836;    0,644;    0,773
582,315;30616,290;   -0,629;    2,136
582,896;30968,316;   -0,174;    1,227
583,477;30487,878;    0,189;    1,227
584,057;30667,688;    0,553;    0,955
584,638;31032,082;    2,553;    2,318
585,218;30991,141;   -0,538;    2,682
585,799;31101,530;    0,281;   -0,227
586,379;31085,520;    0,372;    1,591
586,959;29936,591;    0,735;    0,318
587,540;29298,067;   -0,629;    2,227
588,120;28870,572;    1,007;   -0,045
588,700;27879,222;    2,553;    2,136
589,281;28190,052;    0,462;   -0,955
589,861;28100,814;    0,099;   -1,682
590,441;27918,690;    2,371;   -2,682
591,021;26902,718;   -0,265;   -2,591
591,601;27155,910;   -0,537;    0,500
592,181;27209,301;   -0,719;   -0,773
592,761;26483,409;    0,007;    1,409
593,341;26421,924;   -0,901;    0,045
593,921;26435,944;   -0,265;    1,591
594,501;26295,258;   -0,538;    1,318
595,081;26164,337;    0,917;   -0,318
595,661;26520,314;   -1,447;    0,955
596,240;27040,031;   -0,537;    0,136
596,820;26634,048;    0,372;    1,955
597,400;26815,797;    2,008;    0,773
597,980;27058,329;    2,008;    1,045
598,559;27108,977;    2,735;   -0,227
599,139;26803,072;   -0,174;   -1,227
599,718;26724,709;   -0,174;   -0,409
600,298;27003,735;    0,735;    0,682
600,877;27169,603;    2,917;    1,409
601,457;27454,802;    2,281;    1,136
602,036;27391,091;    0,190;    2,045
602,616;27581,692;    0,644;    1,682
603,195;27861,074;   -0,355;    3,500
603,774;27457,412;   -0,901;    2,045
604,354;27338,292;    0,826;   -0,500
604,933;26849,362;    0,463;    1,864
605,512;26989,536;    3,554;    0,591
606,091;26975,584;   -0,537;    3,773
606,671;27821,409;    0,281;    0,773
607,250;26920,592;    1,644;    3,136
607,829;27143,758;    2,372;    3,227
608,408;27021,007;    1,190;    2,591
608,987;26053,985;    1,281;    3,409
609,566;26419,406;   -1,265;   -2,500
610,145;26475,775;   -1,082;    0,682
610,723;26856,354;    4,372;    6,864
611,302;26145,342;   -0,446;    1,682
611,881;25675,620;    5,008;   11,227
612,460;26502,047;    1,645;    3,955
613,039;26917,972;   -0,082;    2,045
613,617;25647,791;    1,736;    4,773
614,196;25848,441;    1,099;    1,227
614,775;26207,213;    1,009;    2,409
615,353;26181,720;    0,736;    0,864
615,932;25901,237;    0,100;    2,409
616,510;26475,757;    0,554;    0,591
617,089;25998,390;    7,100;   17,591
617,667;25788,238;    2,372;    6,136
618,246;25603,805;   -1,537;    1,318
618,824;25813,505;   -3,355;   -0,955
619,402;25339,960;   -2,900;   -1,773
619,981;25828,132;   -0,173;   -1,045
620,559;25726,641;    0,009;    1,682
621,137;25264,069;   -0,718;    1,864
621,715;25237,284;   -1,173;   -0,682
622,293;25189,856;   -0,537;   -0,773
622,871;25689,706;   -0,718;    0,500
623,450;25298,326;    0,373;   -0,864
624,028;25164,216;    0,191;   -0,955
624,606;24783,603;   -1,718;    1,682
625,183;25217,380;   -1,536;   -1,136
625,761;24810,470;    1,009;    1,136
626,339;25080,303;    1,373;    2,591
626,917;25436,183;   -0,172;   -0,045
627,495;25501,579;   -0,354;    1,318
628,073;24970,690;   -0,263;    2,864
628,650;24642,676;    0,100;    2,136
629,228;25085,081;    0,373;    4,409
629,806;24549,587;    2,282;    1,136
630,383;24790,908;    1,464;   -0,318
630,961;24554,072;    2,555;   -0,955
631,539;24288,240;    2,464;    0,227
632,116;23641,890;   11,373;   15,409
632,694;24206,455;    2,555;    6,500
633,271;24538,190;    0,828;    2,682
633,848;24514,018;    1,828;    2,045
634,426;24472,880;   -1,081;    1,773
635,003;23641,187;    1,101;   -0,409
635,580;23971,821;    1,192;    3,682
636,158;24491,719;    3,737;    1,227
636,735;24461,675;    0,555;   -0,500
637,312;24592,082;   -0,809;   -0,682
637,889;24706,209;   -4,354;   -0,682
638,466;24201,180;   -3,990;   -0,409
639,043;24242,735;    2,101;   -1,136
639,620;24551,340;   -2,262;   -0,955
640,197;24838,747;    1,100;    1,682
640,774;24976,066;   -0,172;    1,136
641,351;25377,659;    0,737;    1,136
641,928;24783,524;   -0,627;    1,409
642,505;24435,116;    0,828;   -0,500
643,082;24597,345;   -1,718;    1,227
643,658;23619,120;   -0,718;    1,500
644,235;24367,530;    1,191;    2,500
644,812;24655,214;    1,918;    0,773
645,388;24380,079;   -0,991;    1,409
645,965;24502,580;   -0,809;    1,682
646,542;24575,900;   -1,445;   -0,227
647,118;24523,674;    1,009;   -0,955
647,695;24802,358;   -0,263;    1,136
648,271;24756,586;   -0,536;    0,500
648,848;25043,815;    0,736;    2,227
649,424;24892,953;    0,827;    1,318
650,000;24690,546;   -0,354;   -1,045
650,577;24469,229;   -0,627;   -0,955
651,153;24904,731;   -1,809;    0,955
651,729;25867,050;    1,191;    0,864
652,305;25998,552;    0,645;    2,773
652,881;29926,962;   -0,082;    1,136
653,458;36502,282;    1,100;    0,227
654,034;40266,329;    0,282;    1,591
654,610;41812,740;    0,554;    0,773
655,186;43158,423;    0,645;    3,045
655,762;42916,197;   -0,991;    0,409
656,338;42888,699;    0,100;    0,136
656,913;43840,110;   -0,082;    0,409
657,489;43104,429;    0,827;   -0,318
658,065;43103,658;   -0,173;   -1,591
658,641;43807,342;   -0,900;   -0,864
659,217;43144,207;   -0,991;    0,409
659,792;42479,072;    0,645;   -0,409
660,368;42728,028;   -2,173;   -0,682
660,944;42497,984;   -2,082;    1,227
661,519;38400,031;   -0,628;    0,409
662,095;32768,805;   -1,719;    0,591
662,670;28204,034;    1,281;   -0,136
663,246;26941,990;    1,009;   -0,409
663,821;26200,856;    0,281;    1,682
664,396;25686,539;    0,009;    1,864
664,972;25920,768;    0,009;   -0,500
665,547;26177,633;    1,372;    0,136
666,122;26247,953;   -1,082;    0,318
666,698;26489,636;   -0,173;    0,318
667,273;25851,865;   -0,173;    0,136
667,848;26680,366;    2,372;    1,500
668,423;26462,595;    2,190;    2,318
668,998;27044,915;    2,827;   -0,682
669,573;27572,144;   -3,264;   -1,500
670,148;27358,373;   -1,446;   -0,682
670,723;27203,965;   -1,810;    0,318
671,298;27627,012;    2,372;    1,045
671,873;27724,150;   -0,082;   -0,136
672,448;27653,015;    0,645;    0,136
673,023;28015,153;   -1,992;   -0,227
673,597;28332,655;    0,827;    2,318
674,172;28141,156;   -0,355;    0,318
674,747;27658,294;    0,372;   -1,045
675,321;27428,159;   -0,628;    3,318
675,896;26977,024;    0,645;    1,045
676,471;27982,890;    2,645;    1,591
677,045;27835,391;   -1,264;    0,682
677,620;27888,711;    0,190;    1,136
678,194;28171,940;   -2,628;    1,136
678,769;27703,168;   -1,083;   -0,318
679,343;27948,943;   -0,628;    1,773
679,917;27793,353;   -1,446;    1,955
680,492;27944,309;    0,826;    3,227
681,066;28049,720;    3,372;    0,409
681,640;28057,767;    1,463;   -0,318
682,214;28827,087;    0,735;    0,500
682,788;28398,588;   -1,356;   -0,773
683,363;28341,544;   -1,810;    1,682
683,937;28019,682;   -1,719;   -0,318
684,511;28812,911;    0,463;   -0,591
685,085;28502,504;   -1,356;    0,318
685,659;28306,460;   -2,538;    0,864
686,232;28521,961;   -0,356;   -0,318
686,806;28223,281;   -0,901;    0,409
687,380;28917,692;   -0,174;    0,591
687,954;29150,102;   -1,174;    1,136
688,528;28782,513;   -0,719;    1,955
689,101;29550,378;   -3,992;    1,045
689,675;29129,243;   -0,356;   -0,136
690,249;28547,290;   -0,719;    0,409
690,822;28864,610;    0,280;    0,318
691,396;28929,748;   -0,265;    1,227
691,969;28404,340;    1,280;    0,136
692,543;28934,387;   -0,447;   -1,955
693,116;28527,344;   -0,265;   -1,409
693,690;28404,118;    0,099;    0,500
694,263;28985,347;   -1,083;    2,955
694,836;29026,121;    1,371;    3,591
695,410;27661,804;   -0,265;    1,773
695,983;28089,851;    0,189;    0,591
696,556;28064,535;   -0,447;   -1,045
697,129;28521,491;   -0,356;    1,409
697,703;28104,810;   -1,629;    1,955
698,276;28154,039;    1,462;   -0,773
698,849;27978,450;    1,280;    1,409
699,422;28315,224;   -1,083;    0,591
699,995;27963,362;    0,007;    0,136
700,568;28490,591;   -0,629;    3,045
701,140;28527,002;   -2,811;    1,682
701,713;28206,685;   -0,174;    2,409
702,286;27995,914;   -0,538;    0,864
702,859;27916,870;   -0,902;   -0,591
703,432;27063,735;    0,825;    0,682
704,004;27527,237;    0,462;    0,318
704,577;27420,284;   -0,629;    0,136
705,150;27963,240;    0,189;    2,500
705,722;27745,287;   -0,356;   -3,227
706,295;27527,061;   -0,175;   -0,591
706,867;27360,381;   -0,175;    1,955
707,440;27594,337;   -1,720;   -0,409
708,012;27819,111;    0,462;    0,591
708,584;27770,249;    2,462;    0,227
709,157;28081,478;    1,825;   -0,591
709,729;27717,707;    2,280;    2,045
710,301;28575,935;    0,734;    0,045
710,874;28592,346;   -1,447;   -0,227
711,446;27523,029;    0,371;    0,864
712,018;27356,895;    0,098;    0,500
712,590;27096,760;   -1,993;    1,682
713,162;27603,898;    0,825;    1,318
713,734;27930,036;    1,825;   -2,045
714,306;27810,083;   -1,902;   -0,409
714,878;26510,130;    0,825;    0,864
715,450;27335,995;    0,643;    0,864
716,022;27554,496;    1,552;    1,318
716,593;27727,907;    0,189;    0,591
717,165;27615,318;   -3,175;   -1,227
717,737;27310,183;    0,280;    0,409
718,309;27026,684;    0,280;   -0,045
718,880;27000,731;   -0,539;   -1,409
719,452;27257,960;   -0,175;   -1,591
720,024;26804,553;    0,734;   -0,591
720,595;27380,327;   -2,902;    0,955
721,167;26922,556;    0,370;   -2,045
721,738;26418,239;   -0,812;   -1,045
722,309;26417,832;   -0,993;   -1,227
722,881;26177,969;   -1,357;    0,773
723,452;26816,471;   -2,630;    2,864
724,023;26981,427;   -0,721;    2,682
724,595;26778,292;    0,007;    0,682
725,166;26505,612;    0,007;   -0,409
725,737;26183,568;    1,734;    0,227
726,308;26332,524;   -0,266;    0,318
726,879;26634,389;   -1,630;    1,227
727,450;26460,800;    0,552;   -0,045
728,021;26492,574;    3,097;    0,682
728,592;26286,712;    0,734;    0,500
729,163;26581,668;    0,643;   -0,136
729,734;26614,261;    0,188;   -0,227
730,305;26954,944;    1,734;    0,136
730,876;27308,809;    0,188;    2,955
731,447;27005,038;    2,188;    2,682
732,017;27130,812;    1,097;    1,864
732,588;26638,041;    0,734;    1,227
733,159;26798,725;    0,643;   -1,045
733,729;26608,863;    0,006;    0,409
734,300;25882,637;    0,915;    0,864
734,870;26321,775;    3,461;    0,591
735,441;26902,640;    0,370;   -0,591
736,011;26709,505;    0,643;   -1,591
736,582;26627,825;   -0,812;    0,045
737,152;26124,690;   -1,721;   -2,045
737,722;26545,919;   -0,267;   -0,682
738,293;26243,602;   -1,358;    1,318
738,863;26154,013;    2,461;    2,318
739,433;25967,969;    5,279;    0,318
740,003;26620,107;   -0,994;   -0,682
740,573;25978,336;    2,097;   -1,591
741,143;25982,474;   -1,085;    0,318
741,713;26723,248;    1,188;   -0,500
742,283;26419,840;    0,915;    1,591
742,853;26235,524;    1,915;    1,591
743,423;25708,116;    1,733;    0,045
743,993;25797,254;   -0,358;    1,500
744,563;25240,483;    0,097;   -0,864
745,133;25184,803;   -0,812;   -0,864
745,702;25833,668;   -0,267;    1,773
746,272;25031,715;   -0,176;    0,591
746,842;24835,307;   -1,358;   -0,591
747,411;25282,081;   -0,267;   -0,318
747,981;25478,947;    0,097;    0,500
748,551;25507,630;    2,278;   -1,045
749,120;25350,859;    0,642;   -0,227
749,690;25739,542;   -0,631;    2,409
750,259;26076,135;    1,369;    2,955
750,828;25982,273;    1,551;   -1,955
751,398;26215,774;    1,278;   -0,045
751,967;25691,185;    2,187;    0,409
752,536;25967,141;   -0,813;   -0,227
753,105;26381,097;    0,096;    0,227
753,675;26135,053;    0,096;    1,773
754,244;26119,736;   -0,904;    3,591
754,813;26148,602;    0,551;    1,227
755,382;25744,740;    0,460;    0,955
755,951;26250,332;    1,551;    3,682
756,520;25789,379;   -0,085;    1,864
757,089;26325,699;    0,278;    0,500
757,658;26494,200;    1,733;    1,227
758,227;26505,884;    1,096;    0,318
758,795;26822,658;    1,187;    1,136
759,364;27015,341;   -0,086;   -0,591
759,933;26038,116;   -1,176;   -0,045
760,501;25592,799;    0,733;   -1,318
761,070;26020,119;   -2,813;   -1,409
761,639;26718,802;   -1,904;    1,318
762,207;26024,213;    1,551;   -0,955
762,776;25954,896;    0,369;    0,864
763,344;25964,579;   -0,995;    0,591
763,913;25095,717;   -0,722;    1,409
764,481;25848,492;    1,005;   -0,136
765,049;25642,448;   -1,358;    1,409
765,618;25524,404;   -0,086;    0,318
766,186;25595,633;    0,278;    0,136
766,754;25791,134;    0,005;    1,864
767,322;24877,454;   -1,995;    0,409
767,890;24900,228;   -0,722;   -1,773
768,459;25236,911;   -2,177;   -0,318
769,027;25364,686;    1,641;    3,409
769,595;24388,460;    3,278;    2,591
770,163;24808,871;    3,823;    2,955
770,730;24617,463;    0,732;   -0,136
771,298;24468,692;    0,187;   -1,409
771,866;24602,375;   -1,541;    4,955
772,434;24910,240;   -0,631;   -1,864
773,002;25022,106;    0,005;    0,682
773,569;24706,971;    0,914;    1,682
774,137;24535,472;   -0,268;   -0,045
774,705;25317,065;    0,278;   -0,136
775,272;24795,203;    0,641;    0,682
775,840;24541,432;   -0,177;    2,682
776,407;24098,660;    0,277;    1,955
776,975;23671,616;   -0,632;    0,318
777,542;24700,118;   -1,086;   -0,045
778,110;24566,892;   -1,268;   -0,045
778,677;24227,667;   -2,359;   -0,864
779,244;23996,986;    2,186;    1,045
779,812;24106,579;    1,823;    0,864
780,379;23994,989;    0,005;    1,136
780,946;24237,855;    1,005;   -0,773
781,513;24534,083;   -1,450;    0,318
782,080;23927,403;   -0,086;    2,864
782,647;24613,996;   -0,268;    3,045
783,214;24254,861;   -0,177;    3,864
783,781;23895,181;   -0,723;   -0,682
784,348;23732,046;   -0,632;    1,500
784,915;24185,365;   -3,177;    0,318
785,482;23986,140;    1,368;    2,591
786,049;24395,096;    0,186;   -0,591
786,615;24510,234;    0,277;   -0,955
787,182;24262,099;    0,186;   -0,682
787,749;23963,600;   -2,814;    1,409
788,315;23292,284;   -1,632;   -0,409
788,882;23561,694;    1,550;   -1,227
789,448;24253,014;    1,732;   -0,955
790,015;24302,152;    1,095;    3,227
790,581;23884,926;    1,459;    0,227
791,148;23732,610;    0,641;    1,045
791,714;24000,293;   -0,541;    3,136
792,280;23672,158;    0,186;    1,591
792,847;23224,387;    0,550;    2,500
793,413;23784,434;   -0,269;   -0,318
793,979;23325,117;    3,459;   -1,318
794,545;23407,346;    4,459;    2,682
795,111;22797,211;    2,186;    1,318
795,678;22976,168;    0,731;   -1,682
796,244;22591,578;    3,368;    0,136
796,810;23180,625;    1,731;    0,773
797,375;22932,945;    0,549;   -2,136
797,941;22938,628;   -0,541;    0,591
798,507;23085,221;   -0,451;   -0,955
799,073;22646,450;   -0,360;    0,591
799,639;22719,860;   -2,632;    3,136
800,205;22810,634;    0,095;    2,682
800,770;22367,136;    0,640;    1,773
801,336;22389,638;    1,368;   -0,955
801,901;22082,230;    4,549;    3,136
802,467;22678,004;   -0,542;    2,045
803,033;22018,960;   -0,087;    0,864
803,598;22187,098;    1,913;   -1,045
804,163;22240,236;    1,095;   -0,318
804,729;22172,011;   -0,178;    1,136
805,294;22585,876;    0,822;    2,227
805,859;22361,014;    0,731;   -0,409
806,425;21843,242;    1,186;    2,682
806,990;21532,017;    2,186;    4,318
807,555;22085,246;   -1,451;    2,591
808,120;21897,565;    0,822;   -0,409
808,685;21955,067;    0,185;   -2,500
809,250;21490,932;    0,004;   -0,500
809,815;21759,797;    1,913;    0,682
810,380;22253,571;   -0,269;    1,591
810,945;22817,255;   -1,087;    2,045
811,510;22027,575;    2,094;    1,591
812,075;21753,985;   -0,633;   -1,409
812,640;21728,669;    2,003;    1,409
813,204;21827,352;    0,822;   -0,227
813,769;22292,217;    2,094;   -0,045
814,334;21735,446;    0,458;    0,864
814,898;21810,220;    0,367;    0,591
815,463;21661,267;    1,276;   -0,773
816,027;21638,405;   -0,724;   -2,318
816,592;21755,634;    0,640;   -2,045
817,156;21257,408;    2,094;    1,136
817,721;21080,546;    4,276;    2,318
818,285;21054,048;    2,912;    1,500
818,849;21705,913;   -1,451;    1,682
819,414;21600,596;   -0,269;    2,955
819,978;21194,734;   -1,269;    1,773
820,542;21757,872;    2,003;    0,500
821,106;21482,737;   -0,815;    0,682
821,670;21572,693;   -0,815;    2,591
822,234;21323,013;   -0,270;    1,409
822,798;20701,787;    0,003;    0,500
823,362;20636,016;   -0,633;    4,227
823,926;19962,154;    0,094;    1,136
824,490;20154,837;   -0,997;   -0,682
825,054;20613,430;   -0,088;   -1,136
825,618;20234,022;   -1,542;   -1,500
826,181;20203,706;    0,458;   -1,318
826,745;20081,935;    1,367;   -1,045
827,309;20442,618;    1,185;    1,318
827,872;19861,483;    1,367;    0,955
828,436;20826,803;    1,185;   -0,773
828,999;20915,850;   -0,997;    1,227
829,563;19717,806;   -0,179;    1,136
830,126;19554,126;   -0,179;   -0,591
830,690;19585,264;   -1,997;    2,864
831,253;19112,674;   -0,543;    2,227
831,816;19232,903;   -1,906;    0,500
832,380;19110,041;    0,185;    0,864
832,943;19366,997;   -1,361;   -0,500
833,506;18826,317;    2,639;   -1,227
834,069;19625,818;    3,912;   -0,955
834,632;19721,593;    1,730;    1,318
835,195;19604,458;    1,003;    0,955
835,758;18800,050;   -0,997;    1,955
836,321;18705,188;    0,730;   -1,045
836,884;18797,690;   -0,725;   -0,955
837,447;18802,646;   -2,816;    1,773
838,010;19042,511;    0,366;    3,227
838,573;19347,922;   -1,179;    0,773
839,135;19295,241;   -1,361;   -0,955
839,698;18759,470;    1,275;    0,409
840,261;18319,335;    1,003;   -0,227
840,823;18175,019;   -0,543;    0,864
841,386;18427,702;   -0,452;   -2,409
841,948;18317,022;   -1,361;    1,773
842,511;18079,614;    0,912;    1,682
843,073;18173,570;    1,912;    0,227
843,636;17998,345;   -0,361;   -0,227
844,198;17935,482;    0,911;    0,591
844,760;18023,802;    1,093;    1,955
845,322;17682,486;    0,548;    1,136
845,885;18115,623;    0,730;    0,591
846,447;18570,943;   -1,998;    0,227
847,009;18143,172;    1,911;   -0,682
847,571;18493,037;    0,820;   -2,045
848,133;18545,630;   -1,089;   -1,864
848,695;18387,313;   -0,543;    1,409
849,257;17947,815;   -1,089;   -1,682
849,819;18130,316;   -0,998;   -0,409
850,381;18168,636;   -0,725;   -0,864
850,942;18549,047;    1,093;   -0,591
851,504;18473,003;    1,184;    0,227
852,066;18485,050;    1,275;   -1,591
852,628;18033,642;   -0,180;    1,955
853,189;17649,962;    1,638;    2,682
853,751;17718,827;   -0,907;    1,409
854,312;17539,419;   -0,453;   -1,682
854,874;18019,194;   -2,089;   -0,773
855,435;18564,968;   -0,907;   -1,682
855,997;18736,288;   -1,816;   -0,136
856,558;17978,244;    0,366;    1,773
857,119;18087,745;    0,820;    2,864
857,681;17821,520;    0,002;    0,318
858,242;17857,748;    1,911;   -2,136
858,803;18298,068;    0,456;   -0,773
859,364;18863,933;    0,184;   -4,773
859,925;18185,889;   -2,453;   -0,955
860,486;18087,118;   -0,453;   -0,955
861,047;17850,256;   -0,544;   -1,227
861,608;17646,940;   -1,089;   -0,773
862,169;17773,259;    0,638;   -0,045
862,730;17545,579;    0,456;    1,409
863,291;17805,808;   -0,635;   -0,500
863,852;18207,128;   -0,635;    1,955
864,412;17621,538;   -0,271;   -0,864
864,973;16211,494;   -0,089;    0,500
865,534;16097,723;   -1,726;    0,227
866,094;17599,770;    1,820;    0,227
866,655;17201,181;    1,274;    3,318
867,215;17519,410;    0,274;    0,136
867,776;17366,366;    0,547;   -0,136
868,336;17463,867;   -1,453;    0,136
868,897;16927,369;    2,638;    1,682
869,457;16633,961;    1,365;    0,318
870,017;16895,008;    0,547;   -1,227
870,578;17430,146;   -0,817;    0,773
871,138;17116,284;   -2,089;   -0,955
871,698;16719,058;   -0,817;   -1,318
872,258;16571,287;   -0,453;   -2,864
872,818;16893,061;    2,729;    0,045
873,378;16885,836;    0,638;    1,045
873,938;16428,337;    0,547;    0,500
874,498;16758,475;    0,274;   -1,955
875,058;16653,249;    2,183;    1,773
875,618;16505,660;    1,910;   -2,682
876,177;16423,434;    1,274;    0,136
876,737;16037,845;   -0,090;    1,955
877,297;15996,074;    0,183;    1,955
877,856;16022,484;   -0,362;    0,318
878,416;16020,622;    1,183;   -0,136
878,976;16219,488;   -1,817;    0,409
879,535;16401,444;    0,092;    3,136
880,095;16138,491;   -0,544;    0,045
880,654;16265,810;   -1,090;    1,318
881,213;16348,857;    2,456;    1,500
881,773;15998,359;    2,637;    2,682
882,332;16308,679;    3,365;    5,136
882,891;16163,089;    3,092;    2,136
883,451;16617,045;   -1,272;    1,682
884,010;16137,547;   -2,908;   -0,409
884,569;16210,503;   -0,999;   -0,045
885,128;16332,368;    2,819;   -1,864
885,687;16407,233;    4,455;    0,682
886,246;16098,099;    1,455;    2,136
886,805;15865,691;    2,455;    2,045
887,364;16171,374;   -0,999;   -0,500
887,922;16538,058;   -1,181;    0,045
888,481;16062,377;   -1,545;    0,591
889,040;16383,788;    1,183;    2,136
889,599;17017,562;    2,455;    1,409
890,157;17082,064;    1,455;    2,409
890,716;16748,384;   -0,090;    0,227
891,274;16538,067;    0,092;   -1,136
891,833;16991,205;    1,546;    0,864
892,391;16901,616;   -0,454;    0,500
892,950;16914,481;    1,819;   -0,773
893,508;17278,255;    0,455;   -0,409
894,067;16651,757;    0,637;    0,136
894,625;16585,622;   -0,636;   -1,500
895,183;16799,305;   -0,363;   -0,682
895,741;16642,261;    1,728;   -1,773
896,299;16553,308;   -0,545;   -2,409
896,858;16708,083;    0,819;   -1,591
897,416;16803,675;    2,728;   -1,318
897,974;16561,631;    1,819;    0,318
898,532;16703,496;    6,091;    2,682
899,089;16589,271;    2,091;   -0,682
899,647;16658,227;   -1,454;    1,318
900,205;16381,910;    1,182;    1,045
900,763;16613,866;   -0,454;    0,227
901,321;16606,095;    2,364;   -1,409
901,878;16039,596;   -1,000;   -0,773
902,436;15939,462;   -1,363;    1,318
902,994;16305,145;    4,728;    3,682
903,551;15744,465;    0,728;    0,409
904,109;16124,057;    0,182;   -1,409
904,666;15739,559;    2,455;    1,045
905,224;15608,060;    0,182;   -0,409
905,781;15350,198;    0,727;   -0,318
906,338;15408,518;   -1,363;    1,045
906,895;15350,656;    0,637;    2,045
907,453;15256,976;    1,727;    1,136
908,010;15353,477;   -0,909;    0,409
908,567;14961,342;    1,273;    0,591
909,124;14481,480;    0,364;   -1,500
909,681;14540,709;   -2,909;    0,682
910,238;14689,938;    0,636;   -1,318
910,795;15026,348;   -0,273;   -1,136
911,352;14646,348;   -2,909;   -2,682
911,909;14085,076;   -1,364;   -0,864
912,466;14588,894;   -3,182;    1,500
913,022;14132,712;   -1,636;    0,500
913,579;14440,439;   -0,909;    2,045
914,136;14179,530;    1,636;    0,955
914,692;14535,803;    0,091;   -1,227
915,249;14116,894;    1,455;    0,409
915,806;14334,258;    0,182;    1,955
916,362;14128,712;    1,909;    1,864
916,918;13674,803;    2,000;    1,045
917,475;13587,076;   -1,182;    0,955
918,031;13664,894;    3,364;   -0,045
918,587;13173,258;   -0,909;   -0,318
919,144;13442,439;   -2,273;    0,227
919,700;13733,621;    1,727;    0,773
920,256;13327,167;    0,727;    0,045
920,812;12938,530;   -0,727;   -1,045
921,368;12904,348;   -1,727;   -1,045
921,924;12554,985;    0,182;   -0,136
922,480;12138,530;   -0,545;    1,227
923,036;12755,530;    1,273;    1,955
923,592;12687,258;    0,455;    0,318
924,148;12591,712;    0,455;   -0,955
924,704;11963,985;   -1,364;   -0,409
925,259;12194,258;   -0,273;    0,591
925,815;11945,712;    1,455;    0,500
926,371;11508,621;    2,909;    1,409
926,926;11404,894;    2,091;    0,591
927,482;11058,258;   -1,364;    0,773
928,037;10920,530;    0,909;    2,045
928,593;11194,712;    1,636;    1,045
929,148;11060,076;   -1,818;   -1,500
929,704;10536,076;   -1,455;   -0,500
930,259;10738,985;    0,091;   -0,136
930,814; 9813,712;   -0,818;    1,955
931,369; 9517,621;    1,091;   -0,773
931,925; 9426,348;   -0,091;    0,136
932,480; 9339,348;   -2,818;   -2,591
933,035; 9179,167;    0,545;   -0,318
933,590; 8970,530;    0,364;   -1,773
934,145; 8647,803;   -1,364;   -0,318
934,700; 9028,076;    0,455;   -0,591
935,255; 8817,167;   -0,091;    0,045
935,809; 8089,076;    3,182;    0,864
936,364; 7257,076;   -0,455;   -0,136
936,919; 7205,803;    0,455;   -1,773
937,474; 7114,348;    1,455;    0,136
938,028; 6880,076;   -1,636;    1,136
938,583; 6347,439;    1,818;    4,682
939,138; 6635,167;    2,091;    2,136
939,692; 6098,167;    1,636;   -1,136
940,247; 5828,258;   -0,727;   -1,045
940,801; 5381,985;   -0,636;    0,227
941,355; 5266,803;   -0,364;    2,591
941,910; 4939,985;   -0,273;   -2,136
942,464; 5018,076;   -0,818;   -0,318
943,018; 4826,530;    1,000;   -0,227
943,572; 4788,348;    2,545;   -0,682
944,126; 4201,985;    0,091;   -0,409
944,681; 4097,530;    3,091;    0,227
945,235; 4074,803;    1,000;   -0,591
945,789; 4020,530;    0,364;   -1,864
946,342; 4115,621;    0,455;   -0,591
946,896; 3936,167;   -2,273;    0,955
947,450; 3698,439;    1,545;   -0,227
948,004; 3877,348;    1,727;   -0,045
948,558; 3905,621;    0,273;   -0,864
949,111; 3818,076;   -0,273;   -0,318
949,665; 3861,894;    1,636;   -0,682
950,219; 3735,439;   -0,091;   -1,045
950,772; 3815,258;   -1,909;    1,864
951,326; 3726,167;    0,545;   -0,955
951,879; 3808,803;    0,727;   -2,318
952,433; 3831,167;    0,000;    2,227
952,986; 3667,712;    2,909;    0,682
953,539; 3626,530;   -0,273;    0,591
954,093; 3577,258;    0,545;   -1,318
954,646; 3698,348;    0,909;    1,318
955,199; 3523,258;    0,000;   -0,500
955,752; 3400,621;   -0,455;    1,773
956,305; 3353,985;   -0,091;    2,955
956,858; 3517,985;    0,818;   -0,318
957,411; 3680,076;   -0,545;    2,136
957,964; 3517,621;    1,364;    2,136
958,517; 3517,348;   -1,545;    3,136
959,070; 3361,712;   -0,455;    1,955
959,623; 3423,530;    1,091;    1,500
960,176; 3214,985;    1,727;    2,045
960,728; 3168,621;   -2,727;    0,773
961,281; 3239,621;    0,545;    0,500
961,834; 3277,348;   -0,909;    0,864
962,386; 3218,985;    1,727;    1,045
962,939; 3120,348;    0,364;   -0,318
963,491; 3250,258;    0,455;    1,136
964,043; 3130,621;    1,182;    2,409
964,596; 3261,439;   -1,000;    2,227
965,148; 3110,348;   -1,000;    1,773
965,700; 3045,712;    1,091;   -0,227
966,253; 3170,894;   -0,636;    0,318
966,805; 3023,258;   -2,273;    0,773
967,357; 3067,167;    1,091;   -1,500
967,909; 3028,076;    0,455;   -1,227
968,461; 3137,258;    0,545;    3,136
969,013; 3077,439;   -0,182;   -0,864
969,565; 3144,076;   -0,455;   -1,136
970,117; 3201,894;   -0,364;    1,045
970,669; 3038,803;    0,182;   -0,136
971,220; 2902,348;   -0,455;   -1,500
971,772; 2834,803;   -0,636;   -0,318
972,324; 2950,258;    0,091;   -0,500
972,876; 2900,894;    0,818;   -0,045
973,427; 3037,985;    1,909;   -1,045
973,979; 3002,621;   -0,727;   -2,500
974,530; 3035,712;    1,818;    1,318
975,082; 3048,076;   -0,545;    1,682
975,633; 2941,803;    1,091;    1,682
976,184; 3086,076;    0,909;    0,773
976,736; 2877,167;    0,091;    0,227
977,287; 2688,439;   -0,909;   -0,500
977,838; 2877,985;    0,909;   -0,318
978,389; 2920,076;   -1,000;   -0,500
978,940; 2798,712;    0,545;   -0,409
979,491; 2831,076;    0,091;   -0,500
980,042; 2803,803;    0,182;    3,045
980,593; 2855,621;   -2,545;    0,227
981,144; 2892,348;    2,545;   -0,500
981,695; 2856,439;    1,455;    1,500
982,246; 2829,712;   -0,273;    1,045
982,797; 3000,076;   -1,727;    0,682
983,347; 3072,712;    0,364;    0,591
983,898; 3221,167;    3,091;    0,409
984,449; 3053,803;    2,182;    0,773
984,999; 2989,985;    1,455;   -1,136
985,550; 2777,803;    0,182;   -0,318
986,100; 2788,258;   -0,455;   -0,318
986,651; 2844,439;   -0,818;    0,045
987,201; 2801,712;   -1,000;   -0,591
987,751; 2883,439;    0,818;    2,864
988,302; 2863,803;    2,636;    1,500
988,852; 2882,621;    0,455;   -1,136
989,402; 2934,348;    0,091;    0,682
989,952; 2856,803;   -2,182;    0,864
990,502; 2957,894;   -0,091;    0,682
991,052; 2930,712;   -0,727;    0,045
991,602; 2791,621;   -2,909;    1,318
992,152; 2782,985;    0,455;    0,682
992,702; 2769,621;    1,364;   -0,045
993,252; 2715,712;   -3,000;   -0,500
993,802; 2814,712;   -0,273;    1,318
994,352; 3015,621;   -1,545;    1,136
994,901; 3107,076;   -0,182;    3,227
995,451; 3031,076;   -0,182;    0,318
996,000; 3111,076;    1,636;    0,318
996,550; 2824,621;    2,273;    0,227
997,100; 2827,348;    1,273;   -0,045
997,649; 3100,076;    2,182;    0,955
998,198; 2765,530;    1,727;   -1,500
998,748; 2939,439;    1,091;   -2,318
999,297; 2866,621;   -0,818;   -0,409
999,846; 2924,621;    1,000;   -0,773
1000,395; 2960,348;   -0,818;    0,500
1000,945; 2920,167;    1,818;   -0,773
1001,494; 3001,439;    2,364;    0,682
1002,043; 2997,258;    4,636;    0,864
1002,592; 2828,530;   -1,091;    1,955
1003,141; 2980,439;   -0,455;   -0,682
1003,690; 2832,167;    1,727;    0,500
1004,238; 2916,803;    1,455;   -0,045
1004,787; 2569,530;    1,364;    1,227
1005,336; 2798,985;    0,364;    0,682
1005,885; 2937,712;    1,364;   -2,773
1006,433; 3058,712;    0,545;    0,955
1006,982; 3125,712;    0,455;    1,682
1007,531; 3025,621;   -1,818;   -0,227
1008,079; 2996,258;   -2,273;    0,500
1008,627; 3150,985;   -1,455;    0,409
1009,176; 2883,985;    0,000;   -1,955
1009,724; 2931,258;    1,091;    0,864
1010,273; 2987,712;    1,273;    0,500
1010,821; 3095,439;    0,091;    1,409
1011,369; 2824,894;   -1,364;    1,318
1011,917; 2802,258;   -1,364;   -0,591
1012,465; 3113,348;    1,273;   -1,591
1013,013; 3208,621;    2,091;   -1,682
1013,561; 3078,258;    0,455;   -0,773
1014,109; 3131,803;   -1,909;    1,682
1014,657; 2998,894;    0,364;    0,591
1015,205; 3127,348;    1,636;   -0,955
1015,753; 3162,985;   -0,545;   -1,409
1016,301; 3187,803;   -2,636;    3,045
1016,848; 3207,712;   -1,273;    0,409
1017,396; 3234,894;    2,545;    0,045
1017,944; 3363,894;    1,182;    1,864
1018,491; 3129,985;    0,273;    1,409
1019,039; 3260,439;    0,455;    0,591
1019,586; 3182,530;   -1,364;    1,682
1020,134; 3297,894;    0,455;    1,500
1020,681; 3318,167;    0,182;   -1,136
1021,228; 3330,712;    2,909;   -2,227
1021,776; 3160,348;    1,182;   -1,136
1022,323; 3380,348;    0,455;    0,773
1022,870; 3307,167;   -1,000;   -0,045
1023,417; 3222,348;    2,636;    1,864
1023,964; 3357,894;    2,636;    1,227
1024,511; 3202,621;    1,000;    0,773
1025,058; 2998,348;    3,182;   -0,045
1025,605; 3039,985;   -2,273;    3,136
1026,152; 3250,712;    1,727;   -0,591
1026,699; 3004,894;    1,818;    1,318
1027,245; 3169,894;   -0,091;    0,318
1027,792; 3393,985;   -1,000;    1,409
1028,339; 3275,712;    2,364;   -0,045
1028,885; 3122,712;    1,000;   -0,227
1029,432; 3056,712;   -0,091;    0,227
1029,978; 3100,439;   -1,000;   -1,591
1030,525; 3012,803;    1,000;    0,409
1031,071; 3262,621;   -1,364;    1,136
1031,618; 3363,985;    0,364;    1,682
1032,164; 3164,076;   -0,091;    3,045
1032,710; 3206,439;    1,636;   -1,500
1033,256; 3114,894;   -0,636;   -0,136
1033,803; 3114,530;   -0,545;    1,500
1034,349; 2852,076;   -1,364;    0,136
1034,895; 2990,803;    0,000;   -0,318
1035,441; 2949,258;   -0,818;    0,318
1035,987; 2971,985;   -2,364;   -0,682
1036,533; 2968,712;   -1,455;   -0,955
1037,078; 3177,621;    1,455;    1,682
1037,624; 2989,621;    2,455;   -0,955
1038,170; 3017,803;    0,455;   -0,318
1038,716; 2915,530;    1,636;   -0,409
1039,261; 2847,076;   -2,273;   -0,773
1039,807; 2784,348;   -0,091;    3,409
1040,352; 2847,530;   -1,909;   -0,318
1040,898; 2881,621;   -1,545;   -0,682
1041,443; 2795,439;   -1,455;   -2,591
1041,989; 2831,258;    1,091;    1,591
1042,534; 2724,439;   -0,364;    2,591
1043,079; 2846,439;    2,909;    0,955
1043,625; 2612,076;    1,818;    0,500
1044,170; 2669,167;   -1,364;    1,045
1044,715; 2895,803;    2,455;    0,955
1045,260; 2718,076;    2,182;   -0,955
1045,805; 2779,076;    1,182;   -0,591
1046,350; 2718,167;    1,364;   -0,409
1046,895; 2674,894;    2,909;    1,591
1047,440; 2622,530;    5,364;    0,409
1047,985; 2533,167;    2,818;   -0,955
1048,530; 2451,894;    1,545;    1,227
1049,074; 2515,530;    0,000;    0,318
1049,619; 2490,076;   -1,364;    1,955
1050,164; 2299,076;    0,455;    0,227
1050,708; 2347,894;   -0,455;    0,045
1051,253; 2694,348;    1,273;   -2,227
1051,797; 2410,894;    0,818;   -1,318
1052,342; 2418,530;   -1,182;    1,045
1052,886; 2414,712;    0,364;   -1,409
1053,430; 2308,712;   -1,364;    0,136
1053,975; 2318,348;   -0,818;   -0,318
1054,519; 2309,803;   -0,727;    3,227
1055,063; 2309,712;    0,909;    1,318
1055,607; 2192,530;   -0,182;    0,227
1056,151; 2217,712;    2,909;    1,682
1056,695; 2138,167;    2,273;   -1,136
1057,239; 2218,167;   -1,727;   -0,682
1057,783; 2228,712;    0,818;   -1,500
1058,327; 2155,712;    0,000;    1,409
1058,871; 2382,621;   -0,545;    1,318
1059,415; 2099,894;   -0,818;   -0,045
1059,958; 2347,894;    1,455;    2,591
1060,502; 2076,985;   -1,000;   -0,773
1061,046; 1990,985;    0,364;   -0,955
1061,589; 1980,621;   -3,000;   -1,136
1062,133; 1857,803;   -1,273;    1,864
1062,676; 1803,167;    1,182;    0,864
1063,220; 1801,167;    1,091;    0,500
1063,763; 1816,712;    0,909;    1,136
1064,306; 1896,167;   -0,909;    1,864
1064,849; 1788,258;   -0,909;    0,591
1065,393; 1795,894;    2,000;   -1,500
1065,936; 1902,985;    0,182;   -0,409
1066,479; 1790,712;   -1,455;    1,318
1067,022; 1817,803;   -0,273;   -0,227
1067,565; 1709,712;   -0,091;   -1,318
1068,108; 1741,076;    0,727;   -0,591
1068,651; 1710,439;   -0,636;    1,409
1069,194; 1639,076;   -0,455;   -1,682
1069,736; 1641,258;   -1,273;    0,955
1070,279; 1627,712;   -1,364;   -0,500
1070,822; 1672,167;   -2,000;   -0,318
1071,364; 1752,621;   -0,364;    1,318
1071,907; 1588,621;   -0,727;    3,227
1072,450; 1487,530;    0,000;   -0,045
1072,992; 1464,258;   -0,273;    3,136
1073,535; 1620,530;    2,091;    2,136
1074,077; 1417,258;   -0,727;    2,045
1074,619; 1383,803;   -1,364;    0,591
1075,161; 1416,167;   -1,091;    1,500
1075,704; 1582,894;    1,545;    1,227
1076,246; 1387,530;   -0,182;    0,682
1076,788; 1314,167;   -0,364;    1,773
1077,330; 1400,894;    1,273;    2,136
1077,872; 1361,985;    0,909;    0,955
1078,414; 1575,894;    2,727;    0,773
1078,956; 1318,894;    1,273;   -0,227
1079,498; 1559,985;    1,636;    0,318
1080,040; 1275,803;    1,909;   -1,318
1080,581; 1227,439;    1,636;   -0,318
1081,123; 1150,076;    0,091;   -0,773
1081,665; 1198,712;   -1,182;   -0,955
1082,206; 1482,167;    1,364;   -0,500
1082,748; 1344,803;    0,727;    2,045
1083,289; 1226,803;   -2,000;    1,318
1083,831; 1129,985;   -0,545;    0,227
1084,372; 1175,621;    0,000;    0,591
1084,913; 1176,803;    1,091;    0,864
1085,455; 1157,439;   -1,909;   -2,045
1085,996; 1110,439;   -2,273;    0,136
1086,537; 1129,621;   -0,091;    0,864
1087,078; 1161,985;   -0,909;   -2,136
1087,619; 1207,439;   -1,273;    0,227
1088,160; 1129,439;    0,000;    1,318
1088,701; 1114,258;   -1,091;    0,682
1089,242; 1055,530;    1,364;   -2,227
1089,783; 1150,348;   -0,273;    1,409
1090,324; 1113,167;    0,455;    0,682
1090,865;  998,530;    2,727;   -0,409
1091,405;  960,348;    0,727;    2,227
1091,946;  990,167;    0,182;   -0,955
1092,487;  916,439;    0,818;   -1,409
1093,027; 1087,348;   -1,364;   -1,500
1093,568;  940,258;   -0,364;    1,227
1094,108; 1038,348;    0,273;    1,773
1094,649;  970,712;   -1,182;    0,136
1095,189;  906,258;   -0,636;   -0,682
1095,729;  857,621;   -0,091;    0,955
1096,269;  868,985;    0,727;   -0,955
1096,810; 1162,530;   -1,364;    0,500
1097,350; 1008,439;    1,364;   -0,773
1097,890;  906,348;    0,364;    1,227
1098,430; 1145,439;    2,364;    2,864
1098,970; 1025,258;    2,182;    1,682
1099,510;  898,258;    0,545;   -2,318
1100,050;  825,439;    1,000;   -1,591
1100,589;  791,258;   -0,727;   -0,318
1101,129;  905,439;    0,818;   -0,955
1101,669; 1067,530;    1,727;    2,136
1102,209;  898,894;   -0,091;    2,227
1102,748;  852,258;    0,000;    0,955
1103,288;  829,985;    1,273;   -1,227
1103,827;  854,621;    3,091;   -2,227
1104,367;  738,894;   -0,091;   -2,409
1104,906;  706,894;    1,364;   -1,136
1105,445;  781,530;    0,636;   -1,136
1105,985;  714,167;   -0,727;    1,500
1106,524;  765,803;   -1,727;   -0,682
1107,063;  741,348;   -2,727;    1,409
1107,602;  708,712;   -1,909;   -1,500
1108,141;  635,258;   -1,909;    1,500
1108,680;  735,621;   -3,455;   -0,591
1109,219;  676,712;   -0,909;   -0,500
1109,758;  677,530;    0,455;    0,682
1110,297;  651,258;    1,000;   -0,682
1110,836;  591,894;   -0,727;    0,955
1111,375;  750,076;   -2,545;    0,409
1111,913;  768,348;   -1,000;    0,773
1112,452;  704,439;   -0,273;    0,136
1112,991;  588,985;    1,091;    1,955
1113,529;  559,348;   -0,818;   -0,045
1114,068;  612,712;   -0,273;    2,955
1114,606;  521,076;   -0,364;   -0,955
1115,144;  671,076;   -1,273;    1,045
1115,683;  612,076;   -0,727;    0,318
1116,221;  666,803;   -0,455;   -0,864
1116,759;  574,258;    0,636;   -0,864
1117,297;  763,985;    0,000;    1,864
1117,836;  574,258;   -2,182;   -1,227
1118,374;  583,985;    0,182;   -0,682
1118,912;  533,348;    0,909;    2,682
1119,450;  508,712;    1,000;    0,864
1119,988;  567,258;    1,545;    2,136
1120,525; 1018,348;    5,091;    3,318
1121,063;  714,348;    1,182;    1,864
1121,601;  533,985;   -0,909;   -1,227
1122,139;  485,439;   -0,727;   -2,045
1122,676;  678,258;   -0,727;    2,773
1123,214;  609,348;   -1,182;    4,409
1123,751;  425,348;    1,727;    2,227
1124,289;  546,712;   -0,091;   -0,409
1124,826;  420,894;    1,727;    0,227
1125,364;  349,439;    1,727;   -0,955
1125,901;  534,530;    1,182;    1,227
1126,438;  631,348;    0,818;    0,955
1126,975;  380,348;   -0,727;   -0,773
1127,513;  443,621;    0,273;    2,136
1128,050;  356,348;    1,636;   -0,682
1128,587;  465,076;    2,000;   -0,227
1129,124;  484,985;    0,091;    1,318
1129,661;  356,167;    0,273;    0,227
1130,198;  531,894;    1,636;    0,773
1130,734;  466,894;    0,182;    1,409
1131,271;  327,439;   -0,909;    0,864
1131,808;  499,803;    2,909;    3,045
1132,345;  373,167;    1,545;    0,318
1132,881;  255,076;   -1,545;   -1,864
1133,418;  390,985;    0,727;   -1,136
1133,954;  324,076;    2,455;   -2,682
1134,491;  394,167;    1,364;   -0,773
1135,027;  297,167;    2,364;    0,864
1135,564;  386,894;    0,273;    2,955
1136,100;  362,076;    0,364;    2,136
1136,636;  260,712;   -1,273;   -1,045
1137,172;  353,985;    0,000;   -1,045
1137,708;  281,985;   -1,364;   -1,045
1138,245;  287,348;    1,273;   -1,227
1138,781;  239,076;    1,091;   -3,318
1139,317;  309,530;    1,273;   -1,409
1139,852;  288,258;    3,091;    0,136
1140,388;  400,712;   -1,182;   -0,409
1140,924;  289,348;   -1,091;   -2,227
1141,460;  232,894;   -1,636;    0,136
1141,996;  168,894;   -1,364;    2,682
1142,531;  209,803;    1,364;    3,318
1143,067;  424,803;    1,182;    1,045
1143,602;  480,258;   -0,091;   -0,318
1144,138;  320,621;   -2,636;    1,045
1144,673;  193,348;   -1,455;    1,409
1145,209;  258,076;   -1,909;   -0,318
1145,744;  181,348;   -0,727;    0,864
1146,279;  312,076;    1,818;   -0,136
1146,815;  232,985;    1,545;   -2,682
1147,350;  272,621;   -1,364;    0,045
1147,885;  186,530;   -0,818;   -1,318
1148,420;  177,985;   -2,273;    0,773
1148,955;  168,894;   -1,727;    1,864
1149,490;  183,894;   -0,909;   -1,591
1150,025;  173,348;    0,455;   -1,773
1150,560;  286,530;    1,091;   -0,955
1151,094;  255,621;    1,455;   -0,591
1151,629;  256,803;    1,636;    0,864
1152,164;  175,894;    1,364;    1,318
1152,698;  145,894;   -0,182;   -0,136
1153,233;  108,076;    0,091;   -0,682
1153,767;  154,985;   -3,000;   -2,318
1154,302;  198,167;   -1,455;    1,773
1154,836;  197,803;   -0,455;   -2,136
1155,371;  246,621;   -1,364;    3,682
1155,905;  207,258;   -0,636;    1,682
1156,439;  169,803;   -0,636;   -0,500
1156,973;  202,258;    0,364;    0,318
1157,507;  141,348;   -0,364;    0,682
1158,042;  163,985;   -0,727;    1,045
1158,576;  211,803;    0,182;    1,773
1159,110;  205,712;   -0,818;    2,409
1159,643;  175,439;    0,636;   -0,045
1160,177;  106,621;   -1,545;    1,500

