
Integration time [ms]:   0,040
Averaging Nr. [scans]: 11
Smoothing Nr. [pixels]: 0
Data measured with spectrometer [name]: 7318044SP
Wave   ;Sample   ;Dark     ;Reference
[nm]   ;[counts] ;[counts] ;[counts] 

186,757;   26,284;   31,551;    1,318
187,357;   48,293;   22,551;    0,955
187,958;   27,629;   15,460;   -1,591
188,558;   67,010;    8,915;   -1,227
189,159;   35,841;    6,733;   -4,500
189,759;   -2,372;    7,278;   -3,591
190,360;   -0,073;    2,824;   -2,136
190,960;   32,618;    2,915;   -4,136
191,560;   44,388;    3,189;   -6,591
192,161;  239,529;    4,372;   -3,500
192,761;  100,375;    4,010;   -3,227
193,361;   56,209;    1,556;   -3,773
193,962;  106,145;    2,010;   -2,682
194,562;   29,835;    1,189;   -3,955
195,162;   43,209;   -2,448;   -2,227
195,762;  174,469;   -3,176;   -0,045
196,362;  119,842;    1,370;   -2,500
196,963;   27,341;    2,006;   -0,864
197,563;   75,556;    1,551;   -0,955
198,163;   21,706;    0,096;   -0,682
198,763;   41,177;    1,733;   -0,500
199,363;  101,149;    3,096;   -0,500
199,963;   70,084;    0,369;    0,409
200,563;   62,397;    2,823;   -1,409
201,163;   41,259;    3,277;   -0,227
201,763;   94,164;    3,732;    0,318
202,363;   42,141;    1,459;    1,500
202,963;  105,760;    1,459;    1,045
203,563;  185,782;    0,277;    0,500
204,162;   82,058;    2,096;   -1,864
204,762;   79,456;    0,550;    0,591
205,362;   53,866;    3,004;    1,955
205,962;  112,713;    3,096;    1,955
206,562;  110,253;    1,823;    2,318
207,161;   88,070;   -0,087;    0,318
207,761;  210,738;    1,277;    2,409
208,361;  112,150;   -0,268;    1,409
208,960;  166,765;    0,459;    1,500
209,560;  200,458;    1,277;    1,591
210,160;  202,901;    0,550;    1,864
210,759;  154,015;    4,186;    1,227
211,359;  156,743;    1,459;    1,045
211,958;  351,540;    1,277;    2,045
212,558;  398,172;    1,732;    1,864
213,157;  277,273;    1,822;    1,500
213,757;  584,475;    3,822;   -0,227
214,356;  354,038;    1,277;   -0,409
214,956;  602,530;    3,095;    0,409
215,555;  315,752;    2,095;    2,136
216,154;  275,873;   -2,723;   -0,591
216,754;  266,871;    0,277;    0,773
217,353;  346,460;   -0,268;   -1,045
217,952;  227,465;   -0,178;    0,318
218,552;  410,193;    1,368;   -0,773
219,151;  301,051;    0,277;    0,955
219,750;  308,946;    0,004;   -0,227
220,349;  300,894;   -0,451;    1,045
220,948;  433,360;   -1,360;    1,136
221,548;  340,734;    0,913;    1,227
222,147;  428,215;   -0,087;   -0,409
222,746;  655,448;   -0,451;   -0,955
223,345;  508,634;    0,731;    0,500
223,944;  506,770;   -0,451;    0,773
224,543;  562,669;    1,004;   -1,409
225,142;  635,801;    0,094;    0,136
225,741;  552,836;   -0,814;    1,045
226,340;  522,689;   -0,451;   -0,955
226,939;  780,395;   -0,996;   -0,136
227,538;  570,137;   -0,360;   -0,773
228,137;  753,176;   -0,814;    0,864
228,735;  685,085;   -0,541;    1,227
229,334;  527,628;   -0,905;   -0,227
229,933;  829,964;    0,459;    0,591
230,532;  868,136;    1,186;   -0,409
231,131;  947,251;    1,732;    0,318
231,729;  807,233;   -2,450;   -2,318
232,328;  710,200;   -0,723;   -1,500
232,927;  713,761;    1,004;   -0,500
233,525;  695,280;    3,640;    0,045
234,124;  798,287;    2,368;   -1,591
234,723;  698,294;    0,913;   -1,045
235,321;  716,821;    2,277;    0,136
235,920;  799,688;    1,186;   -1,227
236,518; 1042,670;    3,459;    0,318
237,117;  870,886;    0,004;   -0,227
237,715;  908,508;    0,640;   -0,500
238,314; 1005,866;   -0,087;   -2,318
238,912; 1237,987;   -0,723;   -1,409
239,510; 1083,166;    0,459;   -1,227
240,109; 1293,422;    0,004;    3,773
240,707; 1259,941;   -0,996;    1,227
241,305; 1203,886;    0,550;    0,136
241,904; 1396,886;   -0,178;   -2,045
242,502; 1521,525;   -0,632;   -0,227
243,100; 1435,415;   -0,087;   -0,955
243,698; 1524,583;    0,732;    1,682
244,297; 1621,720;   -0,632;    0,682
244,895; 1660,002;   -0,269;   -2,318
245,493; 1950,888;    2,186;   -0,591
246,091; 1952,491;    1,368;   -1,318
246,689; 1919,490;    1,004;    0,591
247,287; 1984,640;    0,822;   -1,136
247,885; 2161,929;   -1,451;    1,227
248,483; 2212,427;    1,822;   -0,500
249,081; 2322,914;    0,185;    1,591
249,679; 2466,123;   -0,178;    1,682
250,277; 2621,014;   -1,723;    0,864
250,875; 2647,780;   -1,087;   -1,045
251,473; 2662,735;   -1,178;    0,500
252,071; 2829,155;    1,459;    1,045
252,669; 2938,224;   -1,814;    0,318
253,267; 3057,070;   -0,087;    0,773
253,864; 3020,004;   -0,360;    0,682
254,462; 3159,200;    1,640;    1,591
255,060; 3037,196;   -0,269;    1,318
255,658; 3188,406;    0,822;   -0,136
256,255; 3528,367;    0,186;   -2,045
256,853; 3503,384;   -0,269;    1,409
257,451; 3498,614;    0,822;    1,864
258,048; 3919,610;    1,822;    1,864
258,646; 3579,381;    1,731;   -1,045
259,243; 3725,838;   -0,087;    2,227
259,841; 3752,104;   -0,814;    0,318
260,438; 3701,809;   -0,087;    0,864
261,036; 4144,115;   -1,905;    1,409
261,633; 4162,681;   -0,087;    2,227
262,231; 4011,616;    2,731;   -0,045
262,828; 4088,564;   -0,905;    1,136
263,425; 4119,245;    0,913;   -0,591
264,023; 4318,286;    0,186;    0,045
264,620; 4060,197;   -0,360;   -0,318
265,217; 4296,771;   -2,087;    3,136
265,815; 4357,367;   -1,905;    2,136
266,412; 4310,681;    0,731;    0,136
267,009; 4308,522;   -1,451;    0,773
267,606; 4352,290;    0,822;   -0,955
268,203; 4256,240;   -0,269;   -0,591
268,801; 4433,072;    1,731;    0,591
269,398; 4630,962;   -0,360;    2,500
269,995; 4634,564;    0,277;    1,591
270,592; 4465,023;   -0,632;   -0,500
271,189; 4587,902;    0,186;    0,409
271,786; 4681,094;   -0,632;    1,227
272,383; 4694,935;   -1,087;    0,227
272,980; 4715,402;    0,277;    0,318
273,577; 5015,013;    0,004;    1,227
274,174; 4645,138;    0,822;    2,591
274,771; 4647,497;   -0,814;   -0,773
275,367; 4888,649;    2,277;    1,409
275,964; 4860,810;    0,731;   -0,500
276,561; 4931,045;    1,549;   -1,045
277,158; 5006,305;    0,095;   -1,773
277,755; 5198,550;    2,185;    0,409
278,351; 4739,925;   -0,451;   -1,500
278,948; 4999,155;   -0,815;    0,045
279,545; 5003,085;   -1,360;    2,318
280,141; 5574,429;   -1,723;   -2,045
280,738; 5448,496;   -0,451;   -0,136
281,334; 5559,144;   -1,633;    0,591
281,931; 5168,231;   -0,087;   -1,318
282,528; 5356,439;    0,822;   -0,500
283,124; 5927,745;   -1,087;   -0,500
283,721; 5842,046;   -0,451;    1,409
284,317; 5774,202;    0,185;    2,500
284,913; 6282,017;   -1,360;    0,591
285,510; 6535,380;    0,640;   -0,318
286,106; 6578,248;   -2,269;   -0,955
286,703; 6228,304;   -0,360;    1,955
287,299; 6436,922;   -1,451;   -0,591
287,895; 6693,046;    0,822;   -1,045
288,491; 7159,780;    0,186;    2,136
289,088; 7077,939;   -2,360;    2,409
289,684; 7157,679;   -1,723;    1,500
290,280; 7231,154;    0,368;    0,682
290,876; 7340,984;    1,822;    5,500
291,472; 7286,881;    1,276;    2,227
292,068; 7442,068;    1,367;    0,227
292,665; 7246,922;    2,095;    0,773
293,261; 7069,540;    0,276;    2,136
293,857; 7428,879;    2,913;    2,136
294,453; 7402,418;    3,550;    0,955
295,049; 7373,617;   -0,268;    1,955
295,644; 7469,154;    0,095;    0,136
296,240; 7448,655;   -0,905;   -0,136
296,836; 7576,092;   -0,995;    0,318
297,432; 7826,108;    1,096;   -0,500
298,028; 7913,442;    0,732;    0,773
298,624; 8288,549;    1,459;    1,864
299,220; 8517,420;    2,368;    0,591
299,815; 8243,309;    1,005;   -0,409
300,411; 8137,889;    0,914;    1,773
301,007; 8193,985;    1,368;    0,227
301,602; 8216,972;   -0,541;   -2,318
302,198; 8374,250;    0,732;   -0,773
302,794; 8722,660;    1,187;   -0,500
303,389; 8811,208;   -1,177;    1,045
303,985; 8880,725;    0,550;    1,409
304,580; 8895,023;    1,459;    1,591
305,176; 8855,404;   -3,086;    0,136
305,771; 8809,078;   -1,268;   -1,227
306,367; 8717,599;    4,095;    0,136
306,962; 8973,881;    0,641;    1,500
307,558; 8693,729;   -0,450;    0,136
308,153; 8586,223;    1,095;   -1,136
308,748; 8805,552;   -0,814;    1,682
309,344; 8780,993;   -0,632;   -1,318
309,939; 8883,107;   -1,905;   -1,318
310,534; 9063,505;   -0,086;   -1,682
311,130; 8941,432;    0,459;   -2,500
311,725; 8712,620;    1,004;   -0,500
312,320; 9009,489;    2,459;    0,045
312,915; 8898,869;    1,459;   -1,045
313,510; 8918,469;    1,550;   -0,500
314,105; 9324,079;    1,096;    1,409
314,700; 8760,813;   -3,086;   -1,045
315,295; 8468,114;   -0,904;    0,045
315,890; 8065,425;    1,277;    0,864
316,485; 8351,349;   -0,359;   -0,318
317,080; 8433,065;   -3,086;    1,591
317,675; 8898,126;    2,005;   -0,682
318,270; 8426,618;    5,550;    3,318
318,865; 8435,344;    3,278;    3,045
319,460; 8246,396;   -0,904;    0,591
320,055; 8459,306;   -0,541;   -1,227
320,650; 8146,817;   -1,995;   -0,591
321,244; 8212,401;   -0,177;   -1,409
321,839; 9005,815;   -1,541;   -0,227
322,434; 8843,489;   -1,086;   -1,591
323,029; 8584,107;    1,732;    1,591
323,623; 8437,552;    1,550;    0,773
324,218; 8245,374;    2,368;    1,409
324,812; 8165,661;    1,096;    1,591
325,407; 8029,305;   -0,814;    2,045
326,002; 7961,458;    0,277;   -0,409
326,596; 8272,538;    0,914;    1,318
327,191; 8448,909;    0,823;   -1,045
327,785; 8127,174;   -0,813;   -0,227
328,379; 8389,939;    1,368;    0,136
328,974; 8188,606;    0,914;   -3,955
329,568; 8460,874;    0,186;   -2,409
330,163; 8366,048;    2,096;    1,045
330,757; 8722,684;    2,459;    1,591
331,351; 8156,433;    0,459;    0,682
331,945; 8490,659;    0,914;    1,409
332,540; 8183,434;   -1,723;   -0,591
333,134; 8347,473;   -1,086;    0,773
333,728; 8558,949;    0,005;    0,318
334,322; 8915,696;   -1,177;   -0,864
334,916; 8334,361;    0,277;    0,955
335,510; 8682,008;   -0,450;   -0,136
336,105; 8941,091;   -1,086;    1,591
336,699; 8697,709;   -1,086;    0,591
337,293; 8687,692;   -1,723;    0,318
337,887; 8844,792;   -2,723;    1,955
338,481; 8968,464;    0,459;    0,591
339,074; 9188,269;   -0,359;    2,682
339,668; 9094,689;   -1,632;    1,227
340,262; 9385,141;    1,732;    3,227
340,856; 8915,338;    1,822;   -0,682
341,450; 8426,042;    1,004;    1,864
342,044; 9238,874;    1,459;    0,136
342,637; 9087,058;    0,913;   -2,136
343,231; 8973,130;   -2,360;    0,682
343,825; 8936,163;   -1,086;   -0,591
344,419; 8958,482;   -1,995;    0,500
345,012; 8847,779;    2,459;    4,045
345,606; 8855,380;    4,641;    1,591
346,199; 8720,400;   -1,813;   -0,227
346,793; 8341,274;    1,914;    2,045
347,386; 8520,539;   -0,813;   -1,136
347,980; 8529,750;   -0,268;   -0,045
348,573; 8363,252;    2,278;    0,409
349,167; 8107,480;    5,278;    4,773
349,760; 8450,239;    2,914;    2,682
350,354; 8426,596;   -0,813;    1,136
350,947; 8178,734;    1,096;    1,682
351,540; 7898,945;   -0,358;   -1,409
352,134; 7857,542;    1,096;    1,136
352,727; 7922,200;   -0,086;    1,136
353,320; 7762,304;    0,005;    0,591
353,913; 7594,612;   -1,995;    1,864
354,507; 7786,889;    0,823;   -1,227
355,100; 7805,521;    0,460;    0,864
355,693; 7153,582;    2,005;    2,409
356,286; 7143,905;    0,823;    2,773
356,879; 7463,513;   -0,722;    1,227
357,472; 7090,546;   -0,904;    1,500
358,065; 7256,867;   -0,722;    2,500
358,658; 7185,967;   -0,540;    2,318
359,251; 6887,060;   -1,631;   -0,591
359,844; 6454,592;   -1,904;   -1,136
360,437; 6605,855;   -2,995;    0,045
361,030; 6819,756;    1,369;   -0,682
361,623; 6447,856;    2,824;    0,318
362,215; 6469,895;   -0,086;    2,045
362,808; 6314,627;   -2,358;   -1,682
363,401; 6486,001;   -2,449;    0,136
363,994; 6288,600;   -0,631;   -1,500
364,586; 6180,243;    0,824;   -1,500
365,179; 6337,987;   -0,449;   -1,136
365,772; 5843,829;   -1,995;    2,045
366,364; 6102,844;    1,915;   -3,227
366,957; 6304,261;    2,279;   -0,045
367,549; 6258,464;    2,188;   -0,864
368,142; 5968,535;    1,825;   -1,500
368,734; 6131,980;    0,734;   -2,136
369,327; 6095,056;    1,643;   -0,500
369,919; 6007,545;   -1,538;    0,409
370,512; 5861,264;   -1,083;   -0,500
371,104; 5646,892;   -0,901;    1,591
371,696; 5807,659;    1,191;   -0,955
372,289; 5847,578;    0,373;    1,136
372,881; 5953,912;   -2,080;    1,318
373,473; 5855,929;   -2,170;    1,136
374,066; 5709,153;   -0,169;    0,500
374,658; 5588,971;    0,378;    1,136
375,250; 5875,343;    0,653;   -1,409
375,842; 5728,692;    0,473;   -0,045
376,434; 5605,688;   -0,435;   -0,409
377,026; 6111,657;    0,204;   -2,500
377,618; 6000,666;   -0,158;   -0,682
378,210; 5839,970;   -0,338;   -1,955
378,802; 5678,449;    0,754;   -0,591
379,394; 5664,193;    1,846;    0,682
379,986; 6175,812;    1,393;   -0,955
380,578; 6240,304;   -0,153;    0,773
381,170; 5699,594;   -0,972;    0,045
381,762; 5650,879;    0,755;    1,409
382,354; 5808,934;   -0,065;   -1,318
382,945; 5883,203;   -2,976;    0,318
383,537; 5994,821;   -2,705;   -1,955
384,129; 6017,951;   -2,160;   -1,136
384,721; 6161,875;   -0,252;    0,955
385,312; 6083,209;   -0,161;   -0,955
385,904; 6183,155;   -2,706;    1,591
386,496; 5607,127;   -0,979;    1,045
387,087; 5760,079;    1,022;    2,500
387,679; 5765,783;   -1,160;    0,045
388,270; 5919,492;    2,840;    2,045
388,862; 5995,171;    1,295;   -0,318
389,453; 5856,254;   -0,887;    1,045
390,045; 6071,497;   -0,705;   -2,682
390,636; 6034,717;    0,204;   -0,591
391,227; 5906,562;   -0,523;   -0,045
391,819; 6033,485;    0,204;    0,773
392,410; 6037,746;    1,022;    0,045
393,001; 5995,379;   -0,979;   -1,591
393,593; 6232,967;    1,930;   -0,045
394,184; 6072,744;    1,385;   -0,409
394,775; 5975,867;    1,839;    2,136
395,366; 6218,262;    1,385;    0,773
395,957; 6180,324;    0,113;    0,136
396,548; 6428,799;   -0,342;    2,682
397,139; 6694,495;   -2,433;    0,591
397,730; 6446,593;   -1,888;    0,955
398,321; 6485,249;   -1,252;    0,955
398,912; 6508,468;   -0,615;    0,136
399,503; 6601,769;   -3,524;   -1,409
400,094; 6107,631;    0,294;    1,682
400,685; 5996,367;   -0,433;    0,045
401,276; 6052,997;    0,930;   -0,955
401,867; 6315,012;   -0,888;    0,773
402,458; 6376,238;   -2,251;   -2,318
403,048; 6375,200;    1,112;    0,591
403,639; 6020,993;    0,840;    0,864
404,230; 6270,050;    2,476;    0,318
404,821; 6207,769;   -0,615;    0,045
405,411; 6303,087;    1,203;   -2,591
406,002; 5914,959;   -1,252;   -1,136
406,592; 5816,797;    2,294;    0,045
407,183; 6005,491;    0,566;   -1,500
407,774; 5927,450;    3,475;   -0,136
408,364; 6182,503;    0,930;    0,409
408,954; 5845,118;    0,384;    1,227
409,545; 5843,751;    1,021;    1,045
410,135; 5431,047;    1,293;    0,500
410,726; 5530,663;    1,838;    0,318
411,316; 5814,240;    0,111;    0,773
411,906; 5512,742;   -0,253;   -0,409
412,497; 5086,107;   -1,070;   -0,045
413,087; 5544,988;   -1,980;   -0,227
413,677; 5820,693;   -0,707;    3,864
414,267; 5622,750;    0,656;    1,409
414,857; 5543,391;   -2,980;    4,227
415,448; 5771,022;    0,839;    0,500
416,038; 5493,966;    0,020;   -0,591
416,628; 5382,873;   -0,889;    0,409
417,218; 4998,126;    0,565;    3,318
417,808; 5152,494;    0,202;   -0,409
418,398; 5388,889;    0,020;    2,682
418,988; 5335,317;    2,020;    0,591
419,578; 5448,304;   -0,707;    1,409
420,168; 5682,108;   -1,343;   -0,955
420,757; 5318,508;   -1,343;   -1,500
421,347; 4991,880;    0,111;   -0,227
421,937; 5059,727;    2,292;    1,409
422,527; 5002,464;    0,838;   -0,773
423,116; 4853,010;   -0,253;   -0,045
423,706; 5023,717;   -1,889;    0,318
424,296; 4897,625;    1,384;    0,682
424,885; 5208,897;   -0,071;   -3,045
425,475; 5350,000;    1,474;   -2,864
426,065; 5202,756;   -0,980;   -0,318
426,654; 4921,487;   -0,435;   -0,318
427,244; 5001,489;    0,020;    1,409
427,833; 4573,392;    1,383;   -0,500
428,423; 4756,084;   -0,526;    1,136
429,012; 5253,742;   -0,344;   -1,136
429,601; 4839,147;   -1,344;    0,136
430,191; 4930,521;    1,292;    4,318
430,780; 4575,964;   -0,344;   -0,409
431,369; 4589,602;    0,746;   -0,045
431,959; 4958,546;   -1,254;    0,500
432,548; 4697,670;   -1,163;   -0,045
433,137; 4701,407;   -1,254;   -1,318
433,726; 5044,036;    0,292;    0,500
434,315; 4577,467;   -0,526;    2,409
434,905; 4589,348;   -1,254;    1,409
435,494; 4550,453;    0,746;    0,955
436,083; 4725,737;   -0,981;   -0,955
436,672; 4527,837;    0,110;    0,500
437,261; 4290,188;    0,292;   -1,955
437,850; 4384,513;    1,383;    0,682
438,439; 4280,239;    3,291;    1,955
439,027; 4166,700;    3,655;    1,773
439,616; 4271,656;    2,927;    1,227
440,205; 4028,428;    0,200;   -2,136
440,794; 3883,932;    2,109;   -0,045
441,383; 3909,104;   -1,346;   -0,591
441,971; 3742,191;   -2,436;    0,591
442,560; 3592,514;    0,563;   -1,773
443,149; 3349,224;    0,379;   -1,318
443,737; 3404,787;   -0,074;   -2,318
444,326; 3474,425;    0,018;    0,318
444,915; 3407,179;   -1,982;    0,864
445,503; 3527,170;   -2,891;   -0,318
446,092; 3307,177;    0,382;    2,136
446,680; 3467,371;    0,382;    0,318
447,269; 3440,438;   -0,346;   -0,318
447,857; 3209,181;    0,018;   -1,773
448,445; 3205,945;    0,563;    1,318
449,034; 3272,789;   -1,528;   -1,136
449,622; 3214,517;   -1,073;    3,500
450,210; 3162,642;    2,017;    2,227
450,799; 3244,102;    0,290;   -0,591
451,387; 3039,776;    1,381;   -0,591
451,975; 2889,676;    2,654;    0,864
452,563; 3025,358;    3,472;    2,318
453,151; 2828,200;   -0,528;   -1,227
453,739; 2719,656;   -1,347;    0,136
454,328; 2799,070;    2,381;   -2,136
454,916; 2589,295;    2,562;   -0,136
455,504; 2596,677;    1,017;    1,227
456,092; 2612,788;    0,017;   -1,591
456,679; 2470,033;    1,472;    0,682
457,267; 2953,503;    4,017;    1,045
457,855; 2601,937;    1,017;    1,409
458,443; 2264,047;   -0,165;    1,682
459,031; 2578,672;    0,108;    2,409
459,619; 2604,358;   -1,801;    2,864
460,206; 2462,032;    0,835;    2,045
460,794; 2514,710;   -2,983;   -0,227
461,382; 2589,128;   -0,529;   -0,864
461,970; 2372,522;    1,198;    1,864
462,557; 2367,732;   -0,711;   -0,682
463,145; 2543,511;   -3,165;   -1,682
463,732; 2731,810;    2,016;   -1,045
464,320; 2455,587;   -0,075;   -3,045
464,907; 2506,822;    2,743;   -0,773
465,495; 2340,102;    0,743;   -1,227
466,082; 2248,251;   -1,984;   -0,045
466,670; 2126,163;   -2,529;    1,227
467,257; 2216,171;   -1,711;    2,045
467,844; 2368,209;   -0,075;    0,045
468,432; 2356,516;    0,834;    3,500
469,019; 2168,417;    0,925;   -1,773
469,606; 2255,828;    0,470;    3,682
470,193; 2246,008;   -1,439;    0,227
470,780; 2133,136;   -2,075;    0,864
471,368; 2098,635;   -1,257;   -0,773
471,955; 2085,446;    1,379;   -0,682
472,542; 1911,043;    0,652;   -1,136
473,129; 1820,966;   -0,166;    0,136
473,716; 1705,839;    1,470;    0,591
474,303; 1725,386;    0,652;   -0,864
474,890; 1764,909;   -1,439;   -0,500
475,477; 1885,798;   -1,621;    0,409
476,064; 1716,821;    1,106;   -1,591
476,650; 1722,073;    0,288;    0,318
477,237; 1608,436;   -0,258;    0,955
477,824; 1571,017;   -1,076;    0,864
478,411; 1398,469;   -1,894;   -0,318
478,997; 1404,396;    0,560;   -0,773
479,584; 1311,935;    1,196;   -0,409
480,171; 1679,016;   -0,440;   -0,773
480,757; 1712,250;    2,651;    0,773
481,344; 1510,260;    0,469;    0,409
481,931; 1241,021;    1,105;    1,045
482,517; 1574,721;   -1,258;    0,318
483,104; 1671,450;    1,106;    2,864
483,690; 1523,543;   -1,804;    0,045
484,276; 1488,773;   -0,895;    0,227
484,863; 1789,126;    2,469;    1,136
485,449; 1564,515;   -0,077;    0,318
486,035; 1437,185;   -1,986;   -0,136
486,622; 1650,532;   -0,895;    0,045
487,208; 1509,876;    1,378;    1,500
487,794; 1392,285;    0,741;    0,318
488,380; 1431,564;    0,105;   -1,409
488,967; 1389,868;   -1,168;   -0,409
489,553; 1425,977;   -1,895;   -1,409
490,139; 1581,493;    1,559;    0,773
490,725; 1419,134;    0,741;   -0,227
491,311; 1437,372;    3,287;    3,045
491,897; 1275,465;   -0,986;    1,500
492,483; 1335,230;    0,105;    1,227
493,069; 2137,529;    3,923;    0,864
493,655; 1651,393;    1,650;    0,682
494,241; 1515,904;    1,377;   -0,955
494,826; 1693,976;    0,287;   -1,045
495,412; 1720,461;    2,559;   -0,682
495,998; 1739,411;   -0,805;   -0,318
496,584; 1833,795;    0,377;    1,045
497,169; 1845,591;    1,014;   -0,682
497,755; 1850,953;    0,650;    1,227
498,341; 2402,500;    0,559;    0,318
498,926; 2507,391;    1,832;    1,955
499,512; 2439,576;    1,286;    2,955
500,097; 2446,276;    0,195;   -0,318
500,683; 2656,266;   -0,350;    2,136
501,268; 2962,026;   -0,169;   -0,955
501,854; 3112,641;   -0,169;    1,227
502,439; 3244,118;   -0,624;   -1,773
503,024; 3529,162;    0,195;    0,500
503,610; 3818,281;   -0,078;   -0,682
504,195; 3995,775;    0,558;    1,955
504,780; 4398,574;    2,922;    1,227
505,366; 4673,206;    3,013;    2,864
505,951; 4728,835;    0,740;    1,045
506,536; 5020,769;   -3,260;   -3,682
507,121; 5282,972;    0,285;   -0,318
507,706; 5941,793;    2,376;    1,045
508,291; 6412,744;    2,649;    1,136
508,876; 6369,819;   -0,988;    2,591
509,461; 6298,348;   -0,169;   -0,773
510,046; 6921,830;    0,194;    0,318
510,631; 7382,634;   -0,351;   -0,773
511,216; 7433,069;    2,467;   -0,500
511,801; 8027,559;   -0,442;    2,591
512,386; 8530,337;    0,740;    0,500
512,971; 8731,451;   -2,988;    0,955
513,555; 8643,314;   -0,897;   -1,500
514,140; 9580,077;   -0,442;   -3,136
514,725; 9789,072;   -0,715;   -1,136
515,309;10138,977;   -0,533;    0,318
515,894; 9916,672;   -0,624;   -2,227
516,479;10529,590;   -0,624;   -0,955
517,063;10540,219;    0,376;    1,227
517,648;10831,495;    1,012;   -1,136
518,232;10646,383;   -0,261;   -1,409
518,817;11122,081;   -0,079;    1,682
519,401;11508,500;    2,194;    0,591
519,985;11145,675;    1,103;    1,136
520,570;11185,902;    0,830;   -1,955
521,154;11593,247;    2,102;    0,591
521,738;11833,996;   -2,352;    2,409
522,323;12470,969;   -0,170;    1,682
522,907;12320,145;    0,466;   -0,136
523,491;12140,966;    0,557;    0,955
524,075;12187,209;    2,284;    0,591
524,659;12347,317;    1,466;    0,591
525,243;11906,351;    1,739;    0,409
525,827;12197,361;    0,648;   -0,045
526,411;13040,499;   -1,989;   -0,136
526,995;13299,113;   -0,352;    1,409
527,579;12942,961;   -0,443;   -1,045
528,163;13300,731;    0,375;   -1,500
528,747;13229,727;    2,466;   -0,773
529,331;13572,845;   -0,080;   -1,409
529,915;13785,945;    1,738;    0,955
530,499;13769,824;   -0,807;    1,227
531,082;13527,686;   -0,534;    1,591
531,666;12998,055;    1,374;    0,773
532,250;13664,698;    1,284;    2,682
532,833;14008,748;    0,920;    2,773
533,417;13875,962;   -1,807;    0,864
534,001;13841,462;    1,647;   -0,318
534,584;14559,146;    0,374;    0,500
535,168;14406,781;    0,465;    1,409
535,751;14490,268;    0,647;    0,045
536,334;14016,003;   -0,898;   -0,409
536,918;14564,304;    0,011;    1,591
537,501;14664,042;   -0,899;    1,318
538,085;14693,593;   -0,444;    1,045
538,668;14837,928;    0,829;    2,409
539,251;15112,717;    1,829;    3,773
539,834;15174,805;    0,101;    0,773
540,418;15132,312;   -1,990;    4,318
541,001;15250,548;   -0,990;    1,773
541,584;15216,464;    2,101;    2,227
542,167;14914,892;    1,374;    2,955
542,750;15074,657;    1,919;   -0,773
543,333;14667,016;    0,555;    2,136
543,916;15444,393;    0,192;    2,500
544,499;16070,279;   -1,354;    0,227
545,082;16042,433;    1,374;    3,591
545,665;16186,093;    1,919;    1,500
546,248;16534,380;    1,010;   -0,318
546,830;16166,345;   -0,445;    1,955
547,413;16611,333;    1,010;   -0,773
547,996;17184,586;    0,555;    0,500
548,579;16926,023;    0,919;    0,955
549,161;16732,177;    1,828;    2,682
549,744;16538,705;   -0,809;    0,409
550,326;16981,525;   -0,809;   -1,136
550,909;16820,687;    2,737;    0,591
551,492;17180,975;   -0,263;    0,227
552,074;16962,906;   -0,173;   -1,318
552,657;17489,695;    2,373;    0,045
553,239;17319,517;   -0,173;   -0,773
553,821;17242,683;   -1,082;    1,045
554,404;16727,481;    1,282;    1,136
554,986;17144,582;    0,464;    1,045
555,568;17699,222;    1,191;   -0,955
556,151;16914,284;    1,191;   -0,227
556,733;17136,396;   -0,264;   -0,864
557,315;17558,967;    0,100;    0,500
557,897;17348,661;    0,554;   -0,500
558,479;17480,875;   -1,991;    1,318
559,061;17651,444;   -0,719;   -0,864
559,643;17953,948;   -0,264;    0,045
560,225;18312,103;    1,645;    2,864
560,807;18334,402;    0,918;    0,318
561,389;17819,013;    0,554;    2,318
561,971;18529,225;    0,463;    2,136
562,553;18356,657;   -1,628;    1,591
563,135;18532,685;   -0,537;    1,136
563,717;18109,927;    3,372;    1,136
564,298;18811,420;    3,645;   -0,045
564,880;18567,606;    0,645;   -1,409
565,462;18757,060;    0,645;    1,318
566,043;19847,155;   -0,446;    2,318
566,625;19376,427;    1,918;    1,227
567,207;19177,169;    1,099;    1,682
567,788;20258,536;   -1,264;    1,500
568,370;21128,799;    1,917;   -0,500
568,951;20932,602;    0,190;    0,227
569,533;21746,628;   -0,628;   -0,500
570,114;22182,920;   -0,446;    0,682
570,695;22671,951;   -0,174;   -1,318
571,277;23138,234;   -0,265;   -1,682
571,858;23844,711;    2,008;   -1,136
572,439;24723,943;    1,554;   -1,045
573,021;24858,925;    2,099;   -2,773
573,602;25323,278;   -1,265;    0,318
574,183;26220,621;   -2,083;    2,227
574,764;26299,952;   -1,629;    0,409
575,345;26862,143;    0,917;   -0,136
575,926;27459,577;   -0,356;    0,136
576,507;27472,095;    1,099;   -0,227
577,088;28553,428;    3,099;    1,682
577,669;28548,595;    0,735;    1,955
578,250;29238,349;    0,644;   -1,045
578,831;29834,436;   -1,356;   -2,227
579,412;30109,020;   -0,810;    0,955
579,993;31012,719;    1,008;    0,227
580,573;31397,569;   -0,629;   -0,955
581,154;30361,808;    0,735;   -0,591
581,735;31222,018;    0,644;    0,773
582,315;30718,654;   -0,629;    2,136
582,896;31018,316;   -0,174;    1,227
583,477;30509,153;    0,189;    1,227
584,057;30723,507;    0,553;    0,955
584,638;31025,083;    2,553;    2,318
585,218;30959,778;   -0,538;    2,682
585,799;31139,348;    0,281;   -0,227
586,379;31180,337;    0,372;    1,591
586,959;29964,319;    0,735;    0,318
587,540;29301,887;   -0,629;    2,227
588,120;28888,759;    1,007;   -0,045
588,700;27853,225;    2,553;    2,136
589,281;28158,417;    0,462;   -0,955
589,861;28116,998;    0,099;   -1,682
590,441;27961,146;    2,371;   -2,682
591,021;26970,719;   -0,265;   -2,591
591,601;27204,817;   -0,537;    0,500
592,181;27234,390;   -0,719;   -0,773
592,761;26499,958;    0,007;    1,409
593,341;26449,742;   -0,901;    0,045
593,921;26445,852;   -0,265;    1,591
594,501;26337,440;   -0,538;    1,318
595,081;26211,154;    0,917;   -0,318
595,661;26561,496;   -1,447;    0,955
596,240;27035,847;   -0,537;    0,136
596,820;26649,136;    0,372;    1,955
597,400;26842,160;    2,008;    0,773
597,980;27098,963;    2,008;    1,045
598,559;27144,522;    2,735;   -0,227
599,139;26856,526;   -0,174;   -1,227
599,718;26734,617;   -0,174;   -0,409
600,298;26968,734;    0,735;    0,682
600,877;27187,329;    2,917;    1,409
601,457;27485,435;    2,281;    1,136
602,036;27361,362;    0,190;    2,045
602,616;27580,871;    0,644;    1,682
603,195;27912,707;   -0,355;    3,500
603,774;27379,772;   -0,901;    2,045
604,354;27277,288;    0,826;   -0,500
604,933;26794,724;    0,463;    1,864
605,512;26942,624;    3,554;    0,591
606,091;27030,762;   -0,537;    3,773
606,671;27864,496;    0,281;    0,773
607,250;26932,679;    1,644;    3,136
607,829;27182,570;    2,372;    3,227
608,408;27021,820;    1,190;    2,591
608,987;26094,341;    1,281;    3,409
609,566;26417,042;   -1,265;   -2,500
610,145;26458,314;   -1,082;    0,682
610,723;26912,438;    4,372;    6,864
611,302;26179,425;   -0,446;    1,682
611,881;25688,522;    5,008;   11,227
612,460;26478,585;    1,645;    3,955
613,039;26894,418;   -0,082;    2,045
613,617;25698,058;    1,736;    4,773
614,196;25904,979;    1,099;    1,227
614,775;26228,476;    1,009;    2,409
615,353;26156,982;    0,736;    0,864
615,932;25900,681;    0,100;    2,409
616,510;26493,385;    0,554;    0,591
617,089;26029,926;    7,100;   17,591
617,667;25792,591;    2,372;    6,136
618,246;25704,703;   -1,537;    1,318
618,824;25867,039;   -3,355;   -0,955
619,402;25401,586;   -2,900;   -1,773
619,981;25871,848;   -0,173;   -1,045
620,559;25761,810;    0,009;    1,682
621,137;25310,785;   -0,718;    1,864
621,715;25333,637;   -1,173;   -0,682
622,293;25221,753;   -0,537;   -0,773
622,871;25680,604;   -0,718;    0,500
623,450;25291,949;    0,373;   -0,864
624,028;25194,749;    0,191;   -0,955
624,606;24781,771;   -1,718;    1,682
625,183;25220,093;   -1,536;   -1,136
625,761;24818,819;    1,009;    1,136
626,339;25112,653;    1,373;    2,591
626,917;25492,075;   -0,172;   -0,045
627,495;25550,563;   -0,354;    1,318
628,073;24996,309;   -0,263;    2,864
628,650;24672,752;    0,100;    2,136
629,228;25111,249;    0,373;    4,409
629,806;24519,299;    2,282;    1,136
630,383;24816,800;    1,464;   -0,318
630,961;24604,511;    2,555;   -0,955
631,539;24307,313;    2,464;    0,227
632,116;23624,966;   11,373;   15,409
632,694;24231,620;    2,555;    6,500
633,271;24548,443;    0,828;    2,682
633,848;24456,182;    1,828;    2,045
634,426;24479,405;   -1,081;    1,773
635,003;23706,072;    1,101;   -0,409
635,580;23981,342;    1,192;    3,682
636,158;24551,607;    3,737;    1,227
636,735;24527,565;    0,555;   -0,500
637,312;24634,882;   -0,809;   -0,682
637,889;24689,006;   -4,354;   -0,682
638,466;24204,974;   -3,990;   -0,409
639,043;24219,981;    2,101;   -1,136
639,620;24545,768;   -2,262;   -0,955
640,197;24836,910;    1,100;    1,682
640,774;24956,048;   -0,172;    1,136
641,351;25386,641;    0,737;    1,136
641,928;24813,597;   -0,627;    1,409
642,505;24433,826;    0,828;   -0,500
643,082;24625,328;   -1,718;    1,227
643,658;23651,102;   -0,718;    1,500
644,235;24405,968;    1,191;    2,500
644,812;24702,106;    1,918;    0,773
645,388;24425,335;   -0,991;    1,409
645,965;24474,473;   -0,809;    1,682
646,542;24576,429;   -1,445;   -0,227
647,118;24505,295;    1,009;   -0,955
647,695;24840,887;   -0,263;    1,136
648,271;24768,207;   -0,536;    0,500
648,848;25043,800;    0,736;    2,227
649,424;24898,211;    0,827;    1,318
650,000;24693,531;   -0,354;   -1,045
650,577;24496,669;   -0,627;   -0,955
651,153;24905,625;   -1,809;    0,955
651,729;25911,036;    1,191;    0,864
652,305;26027,356;    0,645;    2,773
652,881;30072,312;   -0,082;    1,136
653,458;36592,178;    1,100;    0,227
654,034;40380,316;    0,282;    1,591
654,610;41891,454;    0,554;    0,773
655,186;43189,683;    0,645;    3,045
655,762;42902,185;   -0,991;    0,409
656,338;42944,777;    0,100;    0,136
656,913;43902,643;   -0,082;    0,409
657,489;43169,963;    0,827;   -0,318
658,065;43172,101;   -0,173;   -1,591
658,641;43869,603;   -0,900;   -0,864
659,217;43178,286;   -0,991;    0,409
659,792;42572,152;    0,645;   -0,409
660,368;42793,926;   -2,173;   -0,682
660,944;42565,610;   -2,082;    1,227
661,519;38455,566;   -0,628;    0,409
662,095;32763,068;   -1,719;    0,591
662,670;28194,570;    1,281;   -0,136
663,246;26948,980;    1,009;   -0,409
663,821;26180,846;    0,281;    1,682
664,396;25690,984;    0,009;    1,864
664,972;25935,122;    0,009;   -0,500
665,547;26270,169;    1,372;    0,136
666,122;26285,307;   -1,082;    0,318
666,698;26578,173;   -0,173;    0,318
667,273;25930,493;   -0,173;    0,136
667,848;26762,631;    2,372;    1,500
668,423;26533,496;    2,190;    2,318
668,998;27053,089;    2,827;   -0,682
669,573;27567,045;   -3,264;   -1,500
670,148;27408,092;   -1,446;   -0,682
670,723;27204,958;   -1,810;    0,318
671,298;27619,096;    2,372;    1,045
671,873;27754,052;   -0,082;   -0,136
672,448;27676,827;    0,645;    0,136
673,023;28025,329;   -1,992;   -0,227
673,597;28358,830;    0,827;    2,318
674,172;28104,332;   -0,355;    0,318
674,747;27633,288;    0,372;   -1,045
675,321;27501,790;   -0,628;    3,318
675,896;27062,201;    0,645;    1,045
676,471;28062,976;    2,645;    1,591
677,045;27844,205;   -1,264;    0,682
677,620;27836,252;    0,190;    1,136
678,194;28149,026;   -2,628;    1,136
678,769;27710,437;   -1,083;   -0,318
679,343;27962,030;   -0,628;    1,773
679,917;27865,168;   -1,446;    1,955
680,492;27938,124;    0,826;    3,227
681,066;28092,444;    3,372;    0,409
681,640;28101,855;    1,463;   -0,318
682,214;28864,084;    0,735;    0,500
682,788;28398,677;   -1,356;   -0,773
683,363;28361,451;   -1,810;    1,682
683,937;28052,135;   -1,719;   -0,318
684,511;28803,637;    0,463;   -0,591
685,085;28507,048;   -1,356;    0,318
685,659;28336,822;   -2,538;    0,864
686,232;28565,142;   -0,356;   -0,318
686,806;28297,462;   -0,901;    0,409
687,380;28944,782;   -0,174;    0,591
687,954;29145,102;   -1,174;    1,136
688,528;28857,694;   -0,719;    1,955
689,101;29609,287;   -3,992;    1,045
689,675;29228,971;   -0,356;   -0,136
690,249;28604,109;   -0,719;    0,409
690,822;28918,338;    0,280;    0,318
691,396;28999,749;   -0,265;    1,227
691,969;28430,523;    1,280;    0,136
692,543;28899,843;   -0,447;   -1,955
693,116;28580,890;   -0,265;   -1,409
693,690;28442,665;    0,099;    0,500
694,263;28992,712;   -1,083;    2,955
694,836;29012,850;    1,371;    3,591
695,410;27619,352;   -0,265;    1,773
695,983;28157,490;    0,189;    0,591
696,556;28116,901;   -0,447;   -1,045
697,129;28563,312;   -0,356;    1,409
697,703;28129,723;   -1,629;    1,955
698,276;28105,315;    1,462;   -0,773
698,849;27928,544;    1,280;    1,409
699,422;28333,046;   -1,083;    0,591
699,995;27986,366;    0,007;    0,136
700,568;28503,686;   -0,629;    3,045
701,140;28561,006;   -2,811;    1,682
701,713;28238,417;   -0,174;    2,409
702,286;28050,373;   -0,538;    0,864
702,859;27889,602;   -0,902;   -0,591
703,432;27011,013;    0,825;    0,682
704,004;27605,151;    0,462;    0,318
704,577;27453,744;   -0,629;    0,136
705,150;28028,700;    0,189;    2,500
705,722;27796,384;   -0,356;   -3,227
706,295;27542,522;   -0,175;   -0,591
706,867;27416,296;   -0,175;    1,955
707,440;27640,435;   -1,720;   -0,409
708,012;27845,664;    0,462;    0,591
708,584;27796,165;    2,462;    0,227
709,157;28132,304;    1,825;   -0,591
709,729;27808,987;    2,280;    2,045
710,301;28628,034;    0,734;    0,045
710,874;28585,172;   -1,447;   -0,227
711,446;27442,220;    0,371;    0,864
712,018;27337,085;    0,098;    0,500
712,590;27062,678;   -1,993;    1,682
713,162;27622,452;    0,825;    1,318
713,734;27940,045;    1,825;   -2,045
714,306;27823,910;   -1,902;   -0,409
714,878;26543,958;    0,825;    0,864
715,450;27338,914;    0,643;    0,864
716,022;27593,325;    1,552;    1,318
716,593;27724,190;    0,189;    0,591
717,165;27705,510;   -3,175;   -1,227
717,737;27334,466;    0,280;    0,409
718,309;27004,877;    0,280;   -0,045
718,880;27040,106;   -0,539;   -1,409
719,452;27265,699;   -0,175;   -1,591
720,024;26818,837;    0,734;   -0,591
720,595;27350,157;   -2,902;    0,955
721,167;26964,841;    0,370;   -2,045
721,738;26464,342;   -0,812;   -1,045
722,309;26416,571;   -0,993;   -1,227
722,881;26187,982;   -1,357;    0,773
723,452;26827,211;   -2,630;    2,864
724,023;27055,895;   -0,721;    2,682
724,595;26806,397;    0,007;    0,682
725,166;26603,444;    0,007;   -0,409
725,737;26185,582;    1,734;    0,227
726,308;26297,447;   -0,266;    0,318
726,879;26713,313;   -1,630;    1,227
727,450;26627,996;    0,552;   -0,045
728,021;26576,226;    3,097;    0,682
728,592;26338,182;    0,734;    0,500
729,163;26709,593;    0,643;   -0,136
729,734;26701,094;    0,188;   -0,227
730,305;27032,051;    1,734;    0,136
730,876;27348,643;    0,188;    2,955
731,447;27059,600;    2,188;    2,682
732,017;27124,829;    1,097;    1,864
732,588;26630,876;    0,734;    1,227
733,159;26875,378;    0,643;   -1,045
733,729;26706,516;    0,006;    0,409
734,300;25979,654;    0,915;    0,864
734,870;26408,338;    3,461;    0,591
735,441;26970,021;    0,370;   -0,591
736,011;26727,614;    0,643;   -1,591
736,582;26656,934;   -0,812;    0,045
737,152;26155,708;   -1,721;   -2,045
737,722;26551,574;   -0,267;   -0,682
738,293;26265,894;   -1,358;    1,318
738,863;26161,123;    2,461;    2,318
739,433;25994,534;    5,279;    0,318
740,003;26690,217;   -0,994;   -0,682
740,573;26045,719;    2,097;   -1,591
741,143;25999,766;   -1,085;    0,318
741,713;26786,632;    1,188;   -0,500
742,283;26448,770;    0,915;    1,591
742,853;26225,726;    1,915;    1,591
743,423;25714,591;    1,733;    0,045
743,993;25858,820;   -0,358;    1,500
744,563;25224,595;    0,097;   -0,864
745,133;25208,369;   -0,812;   -0,864
745,702;25902,871;   -0,267;    1,773
746,272;25095,555;   -0,176;    0,591
746,842;24892,238;   -1,358;   -0,591
747,411;25330,195;   -0,267;   -0,318
747,981;25466,060;    0,097;    0,500
748,551;25483,925;    2,278;   -1,045
749,120;25317,245;    0,642;   -0,227
749,690;25723,293;   -0,631;    2,409
750,259;26052,340;    1,369;    2,955
750,828;25969,660;    1,551;   -1,955
751,398;26276,071;    1,278;   -0,045
751,967;25755,845;    2,187;    0,409
752,536;25951,165;   -0,813;   -0,227
753,105;26391,758;    0,096;    0,227
753,675;26172,623;    0,096;    1,773
754,244;26148,670;   -0,904;    3,591
754,813;26205,990;    0,551;    1,227
755,382;25770,947;    0,460;    0,955
755,951;26294,448;    1,551;    3,682
756,520;25774,677;   -0,085;    1,864
757,089;26331,179;    0,278;    0,500
757,658;26520,045;    1,733;    1,227
758,227;26503,274;    1,096;    0,318
758,795;26809,321;    1,187;    1,136
759,364;26982,732;   -0,086;   -0,591
759,933;26037,688;   -1,176;   -0,045
760,501;25645,099;    0,733;   -1,318
761,070;26110,055;   -2,813;   -1,409
761,639;26764,921;   -1,904;    1,318
762,207;26054,059;    1,551;   -0,955
762,776;26001,561;    0,369;    0,864
763,344;26008,971;   -0,995;    0,591
763,913;25117,655;   -0,722;    1,409
764,481;25803,702;    1,005;   -0,136
765,049;25621,022;   -1,358;    1,409
765,618;25515,251;   -0,086;    0,318
766,186;25598,844;    0,278;    0,136
766,754;25830,618;    0,005;    1,864
767,322;24865,757;   -1,995;    0,409
767,890;24879,531;   -0,722;   -1,773
768,459;25260,396;   -2,177;   -0,318
769,027;25425,171;    1,641;    3,409
769,595;24490,945;    3,278;    2,591
770,163;24885,447;    3,823;    2,955
770,730;24574,676;    0,732;   -0,136
771,298;24472,905;    0,187;   -1,409
771,866;24568,862;   -1,541;    4,955
772,434;24888,545;   -0,631;   -1,864
773,002;25075,047;    0,005;    0,682
773,569;24703,185;    0,914;    1,682
774,137;24519,869;   -0,268;   -0,045
774,705;25342,461;    0,278;   -0,136
775,272;24824,963;    0,641;    0,682
775,840;24588,101;   -0,177;    2,682
776,407;24115,239;    0,277;    1,955
776,975;23745,468;   -0,632;    0,318
777,542;24781,061;   -1,086;   -0,045
778,110;24609,290;   -1,268;   -0,045
778,677;24280,701;   -2,359;   -0,864
779,244;24033,839;    2,186;    1,045
779,812;24123,068;    1,823;    0,864
780,379;23976,024;    0,005;    1,136
780,946;24272,526;    1,005;   -0,773
781,513;24605,119;   -1,450;    0,318
782,080;23938,530;   -0,086;    2,864
782,647;24689,122;   -0,268;    3,045
783,214;24218,261;   -0,177;    3,864
783,781;23877,490;   -0,723;   -0,682
784,348;23757,082;   -0,632;    1,500
784,915;24233,675;   -3,177;    0,318
785,482;24020,995;    1,368;    2,591
786,049;24405,588;    0,186;   -0,591
786,615;24529,998;    0,277;   -0,955
787,182;24266,591;    0,186;   -0,682
787,749;23993,729;   -2,814;    1,409
788,315;23280,958;   -1,632;   -0,409
788,882;23564,369;    1,550;   -1,227
789,448;24235,416;    1,732;   -0,955
790,015;24316,554;    1,095;    3,227
790,581;23874,511;    1,459;    0,227
791,148;23770,467;    0,641;    1,045
791,714;24006,060;   -0,541;    3,136
792,280;23707,562;    0,186;    1,591
792,847;23282,791;    0,550;    2,500
793,413;23830,565;   -0,269;   -0,318
793,979;23343,340;    3,459;   -1,318
794,545;23377,205;    4,459;    2,682
795,111;22823,070;    2,186;    1,318
795,678;23035,663;    0,731;   -1,682
796,244;22630,256;    3,368;    0,136
796,810;23147,939;    1,731;    0,773
797,375;22949,805;    0,549;   -2,136
797,941;23018,579;   -0,541;    0,591
798,507;23118,263;   -0,451;   -0,955
799,073;22661,128;   -0,360;    0,591
799,639;22748,448;   -2,632;    3,136
800,205;22771,404;    0,095;    2,682
800,770;22319,997;    0,640;    1,773
801,336;22440,135;    1,368;   -0,955
801,901;22108,728;    4,549;    3,136
802,467;22693,957;   -0,542;    2,045
803,033;22008,550;   -0,087;    0,864
803,598;22259,051;    1,913;   -1,045
804,163;22240,190;    1,095;   -0,318
804,729;22204,964;   -0,178;    1,136
805,294;22644,466;    0,822;    2,227
805,859;22448,786;    0,731;   -0,409
806,425;21894,742;    1,186;    2,682
806,990;21554,062;    2,186;    4,318
807,555;22036,291;   -1,451;    2,591
808,120;21948,247;    0,822;   -0,409
808,685;21983,113;    0,185;   -2,500
809,250;21476,160;    0,004;   -0,500
809,815;21804,207;    1,913;    0,682
810,380;22321,254;   -0,269;    1,591
810,945;22877,483;   -1,087;    2,045
811,510;22077,167;    2,094;    1,591
812,075;21745,760;   -0,633;   -1,409
812,640;21762,171;    2,003;    1,409
813,204;21852,036;    0,822;   -0,227
813,769;22343,174;    2,094;   -0,045
814,334;21770,130;    0,458;    0,864
814,898;21852,359;    0,367;    0,591
815,463;21694,407;    1,276;   -0,773
816,027;21634,454;   -0,724;   -2,318
816,592;21746,956;    0,640;   -2,045
817,156;21275,185;    2,094;    1,136
817,721;21143,777;    4,276;    2,318
818,285;21095,825;    2,912;    1,500
818,849;21753,690;   -1,451;    1,682
819,414;21605,374;   -0,269;    2,955
819,978;21204,512;   -1,269;    1,773
820,542;21762,468;    2,003;    0,500
821,106;21542,243;   -0,815;    0,682
821,670;21616,381;   -0,815;    2,591
822,234;21383,246;   -0,270;    1,409
822,798;20724,566;    0,003;    0,500
823,362;20668,159;   -0,633;    4,227
823,926;20015,115;    0,094;    1,136
824,490;20181,344;   -0,997;   -0,682
825,054;20650,300;   -0,088;   -1,136
825,618;20273,348;   -1,542;   -1,500
826,181;20205,395;    0,458;   -1,318
826,745;20122,715;    1,367;   -1,045
827,309;20484,126;    1,185;    1,318
827,872;19881,991;    1,367;    0,955
828,436;20861,766;    1,185;   -0,773
828,999;20941,449;   -0,997;    1,227
829,563;19779,678;   -0,179;    1,136
830,126;19544,271;   -0,179;   -0,591
830,690;19530,409;   -1,997;    2,864
831,253;19067,183;   -0,543;    2,227
831,816;19220,503;   -1,906;    0,500
832,380;19144,369;    0,185;    0,864
832,943;19352,052;   -1,361;   -0,500
833,506;18878,100;    2,639;   -1,227
834,069;19651,692;    3,912;   -0,955
834,632;19715,103;    1,730;    1,318
835,195;19639,059;    1,003;    0,955
835,758;18868,198;   -0,997;    1,955
836,321;18710,063;    0,730;   -1,045
836,884;18771,565;   -0,725;   -0,955
837,447;18812,612;   -2,816;    1,773
838,010;19088,477;    0,366;    3,227
838,573;19390,434;   -1,179;    0,773
839,135;19347,390;   -1,361;   -0,955
839,698;18781,892;    1,275;    0,409
840,261;18318,484;    1,003;   -0,227
840,823;18163,168;   -0,543;    0,864
841,386;18444,670;   -0,452;   -2,409
841,948;18341,990;   -1,361;    1,773
842,511;18085,310;    0,912;    1,682
843,073;18233,266;    1,912;    0,227
843,636;18033,950;   -0,361;   -0,227
844,198;17989,270;    0,911;    0,591
844,760;18060,589;    1,093;    1,955
845,322;17697,728;    0,548;    1,136
845,885;18123,411;    0,730;    0,591
846,447;18595,640;   -1,998;    0,227
847,009;18174,051;    1,911;   -0,682
847,571;18503,098;    0,820;   -2,045
848,133;18575,782;   -1,089;   -1,864
848,695;18434,375;   -0,543;    1,409
849,257;17976,149;   -1,089;   -1,682
849,819;18138,924;   -0,998;   -0,409
850,381;18189,789;   -0,725;   -0,864
850,942;18592,109;    1,093;   -0,591
851,504;18503,793;    1,184;    0,227
852,066;18533,840;    1,275;   -1,591
852,628;18078,705;   -0,180;    1,955
853,189;17640,934;    1,638;    2,682
853,751;17769,436;   -0,907;    1,409
854,312;17615,665;   -0,453;   -1,682
854,874;18055,349;   -2,089;   -0,773
855,435;18600,941;   -0,907;   -1,682
855,997;18801,534;   -1,816;   -0,136
856,558;18027,763;    0,366;    1,773
857,119;18122,537;    0,820;    2,864
857,681;17810,948;    0,002;    0,318
858,242;17834,359;    1,911;   -2,136
858,803;18310,679;    0,456;   -0,773
859,364;18901,817;    0,184;   -4,773
859,925;18210,410;   -2,453;   -0,955
860,486;18110,912;   -0,453;   -0,955
861,047;17815,777;   -0,544;   -1,227
861,608;17643,461;   -1,089;   -0,773
862,169;17795,781;    0,638;   -0,045
862,730;17555,919;    0,456;    1,409
863,291;17811,421;   -0,635;   -0,500
863,852;18170,922;   -0,635;    1,955
864,412;17627,333;   -0,271;   -0,864
864,973;16241,835;   -0,089;    0,500
865,534;16098,155;   -1,726;    0,227
866,094;17615,020;    1,820;    0,227
866,655;17243,704;    1,274;    3,318
867,215;17504,024;    0,274;    0,136
867,776;17375,071;    0,547;   -0,136
868,336;17472,936;   -1,453;    0,136
868,897;16974,893;    2,638;    1,682
869,457;16724,213;    1,365;    0,318
870,017;16945,078;    0,547;   -1,227
870,578;17439,943;   -0,817;    0,773
871,138;17131,627;   -2,089;   -0,955
871,698;16711,311;   -0,817;   -1,318
872,258;16561,994;   -0,453;   -2,864
872,818;16925,860;    2,729;    0,045
873,378;16880,907;    0,638;    1,045
873,938;16413,409;    0,547;    0,500
874,498;16808,819;    0,274;   -1,955
875,058;16680,230;    2,183;    1,773
875,618;16519,005;    1,910;   -2,682
876,177;16449,325;    1,274;    0,136
876,737;16055,190;   -0,090;    1,955
877,297;16090,237;    0,183;    1,955
877,856;16066,285;   -0,362;    0,318
878,416;16037,514;    1,183;   -0,136
878,976;16295,743;   -1,817;    0,409
879,535;16439,063;    0,092;    3,136
880,095;16166,655;   -0,544;    0,045
880,654;16305,703;   -1,090;    1,318
881,213;16377,659;    2,456;    1,500
881,773;16039,615;    2,637;    2,682
882,332;16348,481;    3,365;    5,136
882,891;16192,073;    3,092;    2,136
883,451;16652,211;   -1,272;    1,682
884,010;16178,895;   -2,908;   -0,409
884,569;16244,397;   -0,999;   -0,045
885,128;16362,080;    2,819;   -1,864
885,687;16421,309;    4,455;    0,682
886,246;16104,720;    1,455;    2,136
886,805;15895,677;    2,455;    2,045
887,364;16211,815;   -0,999;   -0,500
887,922;16554,771;   -1,181;    0,045
888,481;16066,727;   -1,545;    0,591
889,040;16378,684;    1,183;    2,136
889,599;17022,458;    2,455;    1,409
890,157;17092,869;    1,455;    2,409
890,716;16728,007;   -0,090;    0,227
891,274;16557,418;    0,092;   -1,136
891,833;17018,374;    1,546;    0,864
892,391;16894,967;   -0,454;    0,500
892,950;16944,832;    1,819;   -0,773
893,508;17277,970;    0,455;   -0,409
894,067;16666,745;    0,637;    0,136
894,625;16582,156;   -0,636;   -1,500
895,183;16825,021;   -0,363;   -0,682
895,741;16721,250;    1,728;   -1,773
896,299;16559,479;   -0,545;   -2,409
896,858;16734,981;    0,819;   -1,591
897,416;16881,665;    2,728;   -1,318
897,974;16588,621;    1,819;    0,318
898,532;16684,941;    6,091;    2,682
899,089;16616,625;    2,091;   -0,682
899,647;16711,126;   -1,454;    1,318
900,205;16430,264;    1,182;    1,045
900,763;16594,403;   -0,454;    0,227
901,321;16636,541;    2,364;   -1,409
901,878;16105,497;   -1,000;   -0,773
902,436;15964,726;   -1,363;    1,318
902,994;16340,682;    4,728;    3,682
903,551;15793,366;    0,728;    0,409
904,109;16164,959;    0,182;   -1,409
904,666;15727,824;    2,455;    1,045
905,224;15597,598;    0,182;   -0,409
905,781;15327,191;    0,727;   -0,318
906,338;15405,420;   -1,363;    1,045
906,895;15375,195;    0,637;    2,045
907,453;15279,151;    1,727;    1,136
908,010;15317,744;   -0,909;    0,409
908,567;14926,609;    1,273;    0,591
909,124;14513,565;    0,364;   -1,500
909,681;14601,249;   -2,909;    0,682
910,238;14717,478;    0,636;   -1,318
910,795;15041,162;   -0,273;   -1,136
911,352;14666,525;   -2,909;   -2,682
911,909;14081,253;   -1,364;   -0,864
912,466;14613,525;   -3,182;    1,500
913,022;14147,434;   -1,636;    0,500
913,579;14498,253;   -0,909;    2,045
914,136;14202,434;    1,636;    0,955
914,692;14550,798;    0,091;   -1,227
915,249;14137,616;    1,455;    0,409
915,806;14325,889;    0,182;    1,955
916,362;14115,253;    1,909;    1,864
916,918;13681,889;    2,000;    1,045
917,475;13622,616;   -1,182;    0,955
918,031;13695,525;    3,364;   -0,045
918,587;13191,616;   -0,909;   -0,318
919,144;13405,162;   -2,273;    0,227
919,700;13695,162;    1,727;    0,773
920,256;13308,525;    0,727;    0,045
920,812;12930,162;   -0,727;   -1,045
921,368;12942,707;   -1,727;   -1,045
921,924;12593,889;    0,182;   -0,136
922,480;12166,525;   -0,545;    1,227
923,036;12784,162;    1,273;    1,955
923,592;12722,071;    0,455;    0,318
924,148;12613,707;    0,455;   -0,955
924,704;11927,889;   -1,364;   -0,409
925,259;12202,980;   -0,273;    0,591
925,815;11978,162;    1,455;    0,500
926,371;11533,343;    2,909;    1,409
926,926;11433,525;    2,091;    0,591
927,482;11050,889;   -1,364;    0,773
928,037;10937,980;    0,909;    2,045
928,593;11205,343;    1,636;    1,045
929,148;11028,798;   -1,818;   -1,500
929,704;10536,798;   -1,455;   -0,500
930,259;10776,434;    0,091;   -0,136
930,814; 9840,434;   -0,818;    1,955
931,369; 9517,798;    1,091;   -0,773
931,925; 9404,616;   -0,091;    0,136
932,480; 9316,707;   -2,818;   -2,591
933,035; 9206,798;    0,545;   -0,318
933,590; 8990,616;    0,364;   -1,773
934,145; 8672,525;   -1,364;   -0,318
934,700; 9027,162;    0,455;   -0,591
935,255; 8809,525;   -0,091;    0,045
935,809; 8080,434;    3,182;    0,864
936,364; 7243,162;   -0,455;   -0,136
936,919; 7215,980;    0,455;   -1,773
937,474; 7124,162;    1,455;    0,136
938,028; 6892,071;   -1,636;    1,136
938,583; 6370,980;    1,818;    4,682
939,138; 6651,889;    2,091;    2,136
939,692; 6088,889;    1,636;   -1,136
940,247; 5812,162;   -0,727;   -1,045
940,801; 5380,162;   -0,636;    0,227
941,355; 5268,798;   -0,364;    2,591
941,910; 4951,707;   -0,273;   -2,136
942,464; 5045,253;   -0,818;   -0,318
943,018; 4844,707;    1,000;   -0,227
943,572; 4768,889;    2,545;   -0,682
944,126; 4217,071;    0,091;   -0,409
944,681; 4092,343;    3,091;    0,227
945,235; 4067,980;    1,000;   -0,591
945,789; 4040,343;    0,364;   -1,864
946,342; 4146,616;    0,455;   -0,591
946,896; 3928,798;   -2,273;    0,955
947,450; 3704,343;    1,545;   -0,227
948,004; 3898,071;    1,727;   -0,045
948,558; 3897,071;    0,273;   -0,864
949,111; 3812,525;   -0,273;   -0,318
949,665; 3847,525;    1,636;   -0,682
950,219; 3723,525;   -0,091;   -1,045
950,772; 3802,616;   -1,909;    1,864
951,326; 3712,980;    0,545;   -0,955
951,879; 3827,616;    0,727;   -2,318
952,433; 3838,525;    0,000;    2,227
952,986; 3692,616;    2,909;    0,682
953,539; 3652,253;   -0,273;    0,591
954,093; 3585,980;    0,545;   -1,318
954,646; 3687,434;    0,909;    1,318
955,199; 3509,253;    0,000;   -0,500
955,752; 3409,343;   -0,455;    1,773
956,305; 3371,434;   -0,091;    2,955
956,858; 3518,343;    0,818;   -0,318
957,411; 3684,616;   -0,545;    2,136
957,964; 3515,707;    1,364;    2,136
958,517; 3515,616;   -1,545;    3,136
959,070; 3363,343;   -0,455;    1,955
959,623; 3420,980;    1,091;    1,500
960,176; 3213,162;    1,727;    2,045
960,728; 3184,434;   -2,727;    0,773
961,281; 3250,616;    0,545;    0,500
961,834; 3286,707;   -0,909;    0,864
962,386; 3204,889;    1,727;    1,045
962,939; 3137,707;    0,364;   -0,318
963,491; 3271,798;    0,455;    1,136
964,043; 3137,253;    1,182;    2,409
964,596; 3253,707;   -1,000;    2,227
965,148; 3108,434;   -1,000;    1,773
965,700; 3040,162;    1,091;   -0,227
966,253; 3178,071;   -0,636;    0,318
966,805; 3022,071;   -2,273;    0,773
967,357; 3065,343;    1,091;   -1,500
967,909; 3027,980;    0,455;   -1,227
968,461; 3129,707;    0,545;    3,136
969,013; 3059,616;   -0,182;   -0,864
969,565; 3126,434;   -0,455;   -1,136
970,117; 3201,343;   -0,364;    1,045
970,669; 3042,707;    0,182;   -0,136
971,220; 2910,525;   -0,455;   -1,500
971,772; 2825,253;   -0,636;   -0,318
972,324; 2942,798;    0,091;   -0,500
972,876; 2899,434;    0,818;   -0,045
973,427; 3025,343;    1,909;   -1,045
973,979; 3003,616;   -0,727;   -2,500
974,530; 3042,343;    1,818;    1,318
975,082; 3047,162;   -0,545;    1,682
975,633; 2953,071;    1,091;    1,682
976,184; 3083,434;    0,909;    0,773
976,736; 2883,707;    0,091;    0,227
977,287; 2702,253;   -0,909;   -0,500
977,838; 2863,525;    0,909;   -0,318
978,389; 2922,980;   -1,000;   -0,500
978,940; 2793,889;    0,545;   -0,409
979,491; 2826,707;    0,091;   -0,500
980,042; 2786,253;    0,182;    3,045
980,593; 2834,980;   -2,545;    0,227
981,144; 2882,525;    2,545;   -0,500
981,695; 2860,071;    1,455;    1,500
982,246; 2826,071;   -0,273;    1,045
982,797; 2964,071;   -1,727;    0,682
983,347; 3074,071;    0,364;    0,591
983,898; 3226,343;    3,091;    0,409
984,449; 3064,889;    2,182;    0,773
984,999; 2961,616;    1,455;   -1,136
985,550; 2772,616;    0,182;   -0,318
986,100; 2793,980;   -0,455;   -0,318
986,651; 2836,162;   -0,818;    0,045
987,201; 2808,434;   -1,000;   -0,591
987,751; 2881,253;    0,818;    2,864
988,302; 2876,798;    2,636;    1,500
988,852; 2901,798;    0,455;   -1,136
989,402; 2945,980;    0,091;    0,682
989,952; 2850,889;   -2,182;    0,864
990,502; 2953,616;   -0,091;    0,682
991,052; 2923,253;   -0,727;    0,045
991,602; 2798,616;   -2,909;    1,318
992,152; 2778,707;    0,455;    0,682
992,702; 2775,071;    1,364;   -0,045
993,252; 2700,616;   -3,000;   -0,500
993,802; 2791,253;   -0,273;    1,318
994,352; 3015,253;   -1,545;    1,136
994,901; 3124,798;   -0,182;    3,227
995,451; 3030,071;   -0,182;    0,318
996,000; 3108,616;    1,636;    0,318
996,550; 2834,798;    2,273;    0,227
997,100; 2834,253;    1,273;   -0,045
997,649; 3101,071;    2,182;    0,955
998,198; 2757,525;    1,727;   -1,500
998,748; 2938,798;    1,091;   -2,318
999,297; 2836,434;   -0,818;   -0,409
999,846; 2903,162;    1,000;   -0,773
1000,395; 2960,253;   -0,818;    0,500
1000,945; 2923,071;    1,818;   -0,773
1001,494; 2993,343;    2,364;    0,682
1002,043; 2977,162;    4,636;    0,864
1002,592; 2836,071;   -1,091;    1,955
1003,141; 2965,798;   -0,455;   -0,682
1003,690; 2822,434;    1,727;    0,500
1004,238; 2900,889;    1,455;   -0,045
1004,787; 2567,980;    1,364;    1,227
1005,336; 2792,343;    0,364;    0,682
1005,885; 2930,798;    1,364;   -2,773
1006,433; 3071,343;    0,545;    0,955
1006,982; 3124,616;    0,455;    1,682
1007,531; 3028,980;   -1,818;   -0,227
1008,079; 2976,616;   -2,273;    0,500
1008,627; 3130,889;   -1,455;    0,409
1009,176; 2875,253;    0,000;   -1,955
1009,724; 2929,616;    1,091;    0,864
1010,273; 2977,798;    1,273;    0,500
1010,821; 3099,798;    0,091;    1,409
1011,369; 2838,980;   -1,364;    1,318
1011,917; 2817,889;   -1,364;   -0,591
1012,465; 3098,889;    1,273;   -1,591
1013,013; 3198,525;    2,091;   -1,682
1013,561; 3075,071;    0,455;   -0,773
1014,109; 3129,434;   -1,909;    1,682
1014,657; 3006,343;    0,364;    0,591
1015,205; 3136,525;    1,636;   -0,955
1015,753; 3157,343;   -0,545;   -1,409
1016,301; 3195,980;   -2,636;    3,045
1016,848; 3198,162;   -1,273;    0,409
1017,396; 3224,162;    2,545;    0,045
1017,944; 3347,616;    1,182;    1,864
1018,491; 3138,525;    0,273;    1,409
1019,039; 3273,434;    0,455;    0,591
1019,586; 3205,253;   -1,364;    1,682
1020,134; 3291,889;    0,455;    1,500
1020,681; 3319,798;    0,182;   -1,136
1021,228; 3336,707;    2,909;   -2,227
1021,776; 3169,980;    1,182;   -1,136
1022,323; 3387,434;    0,455;    0,773
1022,870; 3315,707;   -1,000;   -0,045
1023,417; 3210,707;    2,636;    1,864
1023,964; 3355,162;    2,636;    1,227
1024,511; 3198,889;    1,000;    0,773
1025,058; 2983,343;    3,182;   -0,045
1025,605; 3045,980;   -2,273;    3,136
1026,152; 3276,162;    1,727;   -0,591
1026,699; 2991,434;    1,818;    1,318
1027,245; 3167,434;   -0,091;    0,318
1027,792; 3373,253;   -1,000;    1,409
1028,339; 3252,253;    2,364;   -0,045
1028,885; 3111,616;    1,000;   -0,227
1029,432; 3063,253;   -0,091;    0,227
1029,978; 3101,616;   -1,000;   -1,591
1030,525; 3026,162;    1,000;    0,409
1031,071; 3254,707;   -1,364;    1,136
1031,618; 3367,525;    0,364;    1,682
1032,164; 3140,707;   -0,091;    3,045
1032,710; 3193,071;    1,636;   -1,500
1033,256; 3111,707;   -0,636;   -0,136
1033,803; 3107,798;   -0,545;    1,500
1034,349; 2824,434;   -1,364;    0,136
1034,895; 2992,071;    0,000;   -0,318
1035,441; 2962,343;   -0,818;    0,318
1035,987; 2968,798;   -2,364;   -0,682
1036,533; 2981,525;   -1,455;   -0,955
1037,078; 3160,071;    1,455;    1,682
1037,624; 3009,980;    2,455;   -0,955
1038,170; 3018,525;    0,455;   -0,318
1038,716; 2906,343;    1,636;   -0,409
1039,261; 2843,980;   -2,273;   -0,773
1039,807; 2802,889;   -0,091;    3,409
1040,352; 2854,525;   -1,909;   -0,318
1040,898; 2892,434;   -1,545;   -0,682
1041,443; 2807,616;   -1,455;   -2,591
1041,989; 2819,889;    1,091;    1,591
1042,534; 2696,980;   -0,364;    2,591
1043,079; 2813,434;    2,909;    0,955
1043,625; 2612,253;    1,818;    0,500
1044,170; 2654,889;   -1,364;    1,045
1044,715; 2904,798;    2,455;    0,955
1045,260; 2722,798;    2,182;   -0,955
1045,805; 2770,162;    1,182;   -0,591
1046,350; 2704,071;    1,364;   -0,409
1046,895; 2665,525;    2,909;    1,591
1047,440; 2628,343;    5,364;    0,409
1047,985; 2525,889;    2,818;   -0,955
1048,530; 2430,707;    1,545;    1,227
1049,074; 2512,889;    0,000;    0,318
1049,619; 2480,525;   -1,364;    1,955
1050,164; 2301,889;    0,455;    0,227
1050,708; 2336,253;   -0,455;    0,045
1051,253; 2693,343;    1,273;   -2,227
1051,797; 2395,889;    0,818;   -1,318
1052,342; 2420,889;   -1,182;    1,045
1052,886; 2403,343;    0,364;   -1,409
1053,430; 2300,616;   -1,364;    0,136
1053,975; 2312,071;   -0,818;   -0,318
1054,519; 2291,980;   -0,727;    3,227
1055,063; 2313,162;    0,909;    1,318
1055,607; 2194,253;   -0,182;    0,227
1056,151; 2210,707;    2,909;    1,682
1056,695; 2143,889;    2,273;   -1,136
1057,239; 2208,162;   -1,727;   -0,682
1057,783; 2214,343;    0,818;   -1,500
1058,327; 2159,071;    0,000;    1,409
1058,871; 2395,980;   -0,545;    1,318
1059,415; 2099,798;   -0,818;   -0,045
1059,958; 2348,889;    1,455;    2,591
1060,502; 2065,616;   -1,000;   -0,773
1061,046; 1982,253;    0,364;   -0,955
1061,589; 1981,343;   -3,000;   -1,136
1062,133; 1863,071;   -1,273;    1,864
1062,676; 1782,889;    1,182;    0,864
1063,220; 1793,253;    1,091;    0,500
1063,763; 1816,434;    0,909;    1,136
1064,306; 1896,707;   -0,909;    1,864
1064,849; 1781,798;   -0,909;    0,591
1065,393; 1790,525;    2,000;   -1,500
1065,936; 1899,434;    0,182;   -0,409
1066,479; 1799,980;   -1,455;    1,318
1067,022; 1808,707;   -0,273;   -0,227
1067,565; 1711,253;   -0,091;   -1,318
1068,108; 1737,616;    0,727;   -0,591
1068,651; 1718,707;   -0,636;    1,409
1069,194; 1636,616;   -0,455;   -1,682
1069,736; 1647,707;   -1,273;    0,955
1070,279; 1616,071;   -1,364;   -0,500
1070,822; 1675,071;   -2,000;   -0,318
1071,364; 1746,707;   -0,364;    1,318
1071,907; 1567,162;   -0,727;    3,227
1072,450; 1475,798;    0,000;   -0,045
1072,992; 1482,343;   -0,273;    3,136
1073,535; 1616,343;    2,091;    2,136
1074,077; 1408,616;   -0,727;    2,045
1074,619; 1382,616;   -1,364;    0,591
1075,161; 1415,525;   -1,091;    1,500
1075,704; 1581,707;    1,545;    1,227
1076,246; 1387,798;   -0,182;    0,682
1076,788; 1327,162;   -0,364;    1,773
1077,330; 1392,707;    1,273;    2,136
1077,872; 1359,798;    0,909;    0,955
1078,414; 1568,434;    2,727;    0,773
1078,956; 1318,343;    1,273;   -0,227
1079,498; 1567,343;    1,636;    0,318
1080,040; 1286,707;    1,909;   -1,318
1080,581; 1221,162;    1,636;   -0,318
1081,123; 1149,343;    0,091;   -0,773
1081,665; 1203,434;   -1,182;   -0,955
1082,206; 1489,343;    1,364;   -0,500
1082,748; 1344,889;    0,727;    2,045
1083,289; 1229,162;   -2,000;    1,318
1083,831; 1127,798;   -0,545;    0,227
1084,372; 1165,434;    0,000;    0,591
1084,913; 1171,343;    1,091;    0,864
1085,455; 1146,253;   -1,909;   -2,045
1085,996; 1113,980;   -2,273;    0,136
1086,537; 1129,889;   -0,091;    0,864
1087,078; 1151,071;   -0,909;   -2,136
1087,619; 1212,889;   -1,273;    0,227
1088,160; 1130,525;    0,000;    1,318
1088,701; 1110,162;   -1,091;    0,682
1089,242; 1058,071;    1,364;   -2,227
1089,783; 1147,434;   -0,273;    1,409
1090,324; 1113,616;    0,455;    0,682
1090,865; 1001,980;    2,727;   -0,409
1091,405;  977,071;    0,727;    2,227
1091,946;  991,980;    0,182;   -0,955
1092,487;  923,616;    0,818;   -1,409
1093,027; 1086,162;   -1,364;   -1,500
1093,568;  934,616;   -0,364;    1,227
1094,108; 1028,071;    0,273;    1,773
1094,649;  979,343;   -1,182;    0,136
1095,189;  914,071;   -0,636;   -0,682
1095,729;  850,071;   -0,091;    0,955
1096,269;  856,162;    0,727;   -0,955
1096,810; 1162,071;   -1,364;    0,500
1097,350; 1008,343;    1,364;   -0,773
1097,890;  914,253;    0,364;    1,227
1098,430; 1152,616;    2,364;    2,864
1098,970; 1022,434;    2,182;    1,682
1099,510;  892,798;    0,545;   -2,318
1100,050;  823,889;    1,000;   -1,591
1100,589;  790,889;   -0,727;   -0,318
1101,129;  910,616;    0,818;   -0,955
1101,669; 1054,253;    1,727;    2,136
1102,209;  887,798;   -0,091;    2,227
1102,748;  842,434;    0,000;    0,955
1103,288;  842,162;    1,273;   -1,227
1103,827;  860,071;    3,091;   -2,227
1104,367;  737,980;   -0,091;   -2,409
1104,906;  692,616;    1,364;   -1,136
1105,445;  768,434;    0,636;   -1,136
1105,985;  711,525;   -0,727;    1,500
1106,524;  759,889;   -1,727;   -0,682
1107,063;  742,343;   -2,727;    1,409
1107,602;  709,616;   -1,909;   -1,500
1108,141;  638,162;   -1,909;    1,500
1108,680;  731,162;   -3,455;   -0,591
1109,219;  662,343;   -0,909;   -0,500
1109,758;  661,343;    0,455;    0,682
1110,297;  649,071;    1,000;   -0,682
1110,836;  598,616;   -0,727;    0,955
1111,375;  754,434;   -2,545;    0,409
1111,913;  768,616;   -1,000;    0,773
1112,452;  701,434;   -0,273;    0,136
1112,991;  588,707;    1,091;    1,955
1113,529;  544,434;   -0,818;   -0,045
1114,068;  609,071;   -0,273;    2,955
1114,606;  517,889;   -0,364;   -0,955
1115,144;  669,525;   -1,273;    1,045
1115,683;  615,253;   -0,727;    0,318
1116,221;  664,162;   -0,455;   -0,864
1116,759;  569,343;    0,636;   -0,864
1117,297;  762,343;    0,000;    1,864
1117,836;  582,434;   -2,182;   -1,227
1118,374;  587,707;    0,182;   -0,682
1118,912;  527,343;    0,909;    2,682
1119,450;  511,071;    1,000;    0,864
1119,988;  564,980;    1,545;    2,136
1120,525; 1011,798;    5,091;    3,318
1121,063;  720,525;    1,182;    1,864
1121,601;  525,798;   -0,909;   -1,227
1122,139;  486,343;   -0,727;   -2,045
1122,676;  684,525;   -0,727;    2,773
1123,214;  605,525;   -1,182;    4,409
1123,751;  425,071;    1,727;    2,227
1124,289;  550,707;   -0,091;   -0,409
1124,826;  422,889;    1,727;    0,227
1125,364;  355,162;    1,727;   -0,955
1125,901;  537,798;    1,182;    1,227
1126,438;  654,162;    0,818;    0,955
1126,975;  377,253;   -0,727;   -0,773
1127,513;  441,889;    0,273;    2,136
1128,050;  344,616;    1,636;   -0,682
1128,587;  440,525;    2,000;   -0,227
1129,124;  481,980;    0,091;    1,318
1129,661;  359,162;    0,273;    0,227
1130,198;  523,889;    1,636;    0,773
1130,734;  470,616;    0,182;    1,409
1131,271;  332,980;   -0,909;    0,864
1131,808;  494,707;    2,909;    3,045
1132,345;  367,889;    1,545;    0,318
1132,881;  242,889;   -1,545;   -1,864
1133,418;  388,616;    0,727;   -1,136
1133,954;  316,889;    2,455;   -2,682
1134,491;  407,434;    1,364;   -0,773
1135,027;  304,616;    2,364;    0,864
1135,564;  390,343;    0,273;    2,955
1136,100;  363,980;    0,364;    2,136
1136,636;  263,162;   -1,273;   -1,045
1137,172;  360,798;    0,000;   -1,045
1137,708;  287,980;   -1,364;   -1,045
1138,245;  287,343;    1,273;   -1,227
1138,781;  234,343;    1,091;   -3,318
1139,317;  299,162;    1,273;   -1,409
1139,852;  286,162;    3,091;    0,136
1140,388;  401,253;   -1,182;   -0,409
1140,924;  285,616;   -1,091;   -2,227
1141,460;  225,253;   -1,636;    0,136
1141,996;  158,343;   -1,364;    2,682
1142,531;  214,253;    1,364;    3,318
1143,067;  419,616;    1,182;    1,045
1143,602;  473,889;   -0,091;   -0,318
1144,138;  318,616;   -2,636;    1,045
1144,673;  191,980;   -1,455;    1,409
1145,209;  261,434;   -1,909;   -0,318
1145,744;  181,980;   -0,727;    0,864
1146,279;  313,253;    1,818;   -0,136
1146,815;  227,980;    1,545;   -2,682
1147,350;  271,798;   -1,364;    0,045
1147,885;  181,798;   -0,818;   -1,318
1148,420;  175,525;   -2,273;    0,773
1148,955;  162,889;   -1,727;    1,864
1149,490;  189,434;   -0,909;   -1,591
1150,025;  179,798;    0,455;   -1,773
1150,560;  278,162;    1,091;   -0,955
1151,094;  243,980;    1,455;   -0,591
1151,629;  250,616;    1,636;    0,864
1152,164;  188,343;    1,364;    1,318
1152,698;  145,889;   -0,182;   -0,136
1153,233;  111,707;    0,091;   -0,682
1153,767;  150,889;   -3,000;   -2,318
1154,302;  191,162;   -1,455;    1,773
1154,836;  196,798;   -0,455;   -2,136
1155,371;  249,707;   -1,364;    3,682
1155,905;  207,798;   -0,636;    1,682
1156,439;  172,980;   -0,636;   -0,500
1156,973;  204,343;    0,364;    0,318
1157,507;  136,162;   -0,364;    0,682
1158,042;  158,434;   -0,727;    1,045
1158,576;  209,162;    0,182;    1,773
1159,110;  205,071;   -0,818;    2,409
1159,643;  174,343;    0,636;   -0,045
1160,177;  107,616;   -1,545;    1,500

