
Integration time [ms]:   0,040
Averaging Nr. [scans]: 11
Smoothing Nr. [pixels]: 0
Data measured with spectrometer [name]: 7318044SP
Wave   ;Sample   ;Dark     ;Reference
[nm]   ;[counts] ;[counts] ;[counts] 

186,757;   16,977;   31,551;    1,318
187,357;   34,801;   22,551;    0,955
187,958;   19,047;   15,460;   -1,591
188,558;   49,611;    8,915;   -1,227
189,159;   14,440;    6,733;   -4,500
189,759;   -8,500;    7,278;   -3,591
190,360;  -12,387;    2,824;   -2,136
190,960;   12,481;    2,915;   -4,136
191,560;   27,152;    3,189;   -6,591
192,161;  223,181;    4,372;   -3,500
192,761;   89,555;    4,010;   -3,227
193,361;   40,660;    1,556;   -3,773
193,962;   89,516;    2,010;   -2,682
194,562;   21,776;    1,189;   -3,955
195,162;   21,617;   -2,448;   -2,227
195,762;  131,245;   -3,176;   -0,045
196,362;   89,438;    1,370;   -2,500
196,963;    4,302;    2,006;   -0,864
197,563;   42,067;    1,551;   -0,955
198,163;   -2,962;    0,096;   -0,682
198,763;   11,871;    1,733;   -0,500
199,363;   55,480;    3,096;   -0,500
199,963;   26,418;    0,369;    0,409
200,563;   24,096;    2,823;   -1,409
201,163;    5,596;    3,277;   -0,227
201,763;   33,228;    3,732;    0,318
202,363;    2,750;    1,459;    1,500
202,963;   32,190;    1,459;    1,045
203,563;   81,665;    0,277;    0,500
204,162;   15,214;    2,096;   -1,864
204,762;    9,252;    0,550;    0,591
205,362;    0,843;    3,004;    1,955
205,962;   22,413;    3,096;    1,955
206,562;   14,502;    1,823;    2,318
207,161;   -6,314;   -0,087;    0,318
207,761;   72,442;    1,277;    2,409
208,361;   13,488;   -0,268;    1,409
208,960;   41,104;    0,459;    1,500
209,560;   31,346;    1,277;    1,591
210,160;   34,152;    0,550;    1,864
210,759;   10,082;    4,186;    1,227
211,359;    3,632;    1,459;    1,045
211,958;  102,791;    1,277;    2,045
212,558;  102,240;    1,732;    1,864
213,157;   42,342;    1,822;    1,500
213,757;  182,728;    3,822;   -0,227
214,356;   61,381;    1,277;   -0,409
214,956;  142,870;    3,095;    0,409
215,555;   44,551;    2,095;    2,136
216,154;   19,309;   -2,723;   -0,591
216,754;   13,398;    0,277;    0,773
217,353;   32,621;   -0,268;   -1,045
217,952;  -25,188;   -0,178;    0,318
218,552;   49,995;    1,368;   -0,773
219,151;   15,945;    0,277;    0,955
219,750;    4,932;    0,004;   -0,227
220,349;   -8,395;   -0,451;    1,045
220,948;   49,799;   -1,360;    1,136
221,548;    0,444;    0,913;    1,227
222,147;   15,925;   -0,087;   -0,409
222,746;   94,706;   -0,451;   -0,955
223,345;   37,437;    0,731;    0,500
223,944;   30,572;   -0,451;    0,773
224,543;   33,651;    1,004;   -1,409
225,142;   28,152;    0,094;    0,136
225,741;   35,366;   -0,814;    1,045
226,340;   19,673;   -0,451;   -0,955
226,939;   65,923;   -0,996;   -0,136
227,538;    9,393;   -0,360;   -0,773
228,137;   84,612;   -0,814;    0,864
228,735;   51,793;   -0,541;    1,227
229,334;  -13,027;   -0,905;   -0,227
229,933;   80,854;    0,459;    0,591
230,532;   72,026;    1,186;   -0,409
231,131;  113,685;    1,732;    0,318
231,729;   53,304;   -2,450;   -2,318
232,328;   21,453;   -0,723;   -1,500
232,927;   23,740;    1,004;   -0,500
233,525;   17,536;    3,640;    0,045
234,124;   31,177;    2,368;   -1,591
234,723;    5,638;    0,913;   -1,045
235,321;   -1,105;    2,277;    0,136
235,920;    9,487;    1,186;   -1,227
236,518;   76,925;    3,459;    0,318
237,117;    8,687;    0,004;   -0,227
237,715;   28,125;    0,640;   -0,500
238,314;   32,119;   -0,087;   -2,318
238,912;   85,059;   -0,723;   -1,409
239,510;   40,328;    0,459;   -1,227
240,109;   89,127;    0,004;    3,773
240,707;   74,101;   -0,996;    1,227
241,305;    6,593;    0,550;    0,136
241,904;   43,774;   -0,178;   -2,045
242,502;  106,050;   -0,632;   -0,227
243,100;   53,669;   -0,087;   -0,955
243,698;    9,744;    0,732;    1,682
244,297;   27,247;   -0,632;    0,682
244,895;   18,075;   -0,269;   -2,318
245,493;   97,962;    2,186;   -0,591
246,091;  118,019;    1,368;   -1,318
246,689;   70,200;    1,004;    0,591
247,287;   62,623;    0,822;   -1,136
247,885;   38,823;   -1,451;    1,227
248,483;   20,228;    1,822;   -0,500
249,081;   70,718;    0,185;    1,591
249,679;   83,200;   -0,178;    1,682
250,277;   39,271;   -1,723;    0,864
250,875;   88,579;   -1,087;   -1,045
251,473;   40,900;   -1,178;    0,500
252,071;   98,592;    1,459;    1,045
252,669;   56,935;   -1,814;    0,318
253,267;   40,784;   -0,087;    0,773
253,864;   72,168;   -0,360;    0,682
254,462;  152,911;    1,640;    1,591
255,060;   49,270;   -0,269;    1,318
255,658;   46,935;    0,822;   -0,136
256,255;   77,531;    0,186;   -2,045
256,853;  119,459;   -0,269;    1,409
257,451;   90,233;    0,822;    1,864
258,048;  353,320;    1,822;    1,864
258,646;  188,728;    1,731;   -1,045
259,243;  253,277;   -0,087;    2,227
259,841;  175,178;   -0,814;    0,318
260,438;   86,520;   -0,087;    0,864
261,036;  162,187;   -1,905;    1,409
261,633;   91,755;   -0,087;    2,227
262,231;   75,872;    2,731;   -0,045
262,828;   82,727;   -0,905;    1,136
263,425;  121,954;    0,913;   -0,591
264,023;  124,997;    0,186;    0,045
264,620;  244,181;   -0,360;   -0,318
265,217;  349,936;   -2,087;    3,136
265,815;  165,353;   -1,905;    2,136
266,412;  252,847;    0,731;    0,136
267,009;  268,414;   -1,451;    0,773
267,606;  338,092;    0,822;   -0,955
268,203;  195,040;   -0,269;   -0,591
268,801;  229,147;    1,731;    0,591
269,398;  170,856;   -0,360;    2,500
269,995;  289,454;    0,277;    1,591
270,592;  243,549;   -0,632;   -0,500
271,189;  169,250;    0,186;    0,409
271,786;  146,259;   -0,632;    1,227
272,383;  347,462;   -1,087;    0,227
272,980;  235,840;    0,277;    0,318
273,577;  189,993;    0,004;    1,227
274,174;  166,300;    0,822;    2,591
274,771;  279,299;   -0,814;   -0,773
275,367;  599,174;    2,277;    1,409
275,964;  434,791;    0,731;   -0,500
276,561;  261,120;    1,549;   -1,045
277,158;  175,654;    0,095;   -1,773
277,755;  385,900;    2,185;    0,409
278,351;  307,273;   -0,451;   -1,500
278,948;  365,596;   -0,815;    0,045
279,545;  314,161;   -1,360;    2,318
280,141;  461,866;   -1,723;   -2,045
280,738;  429,843;   -0,451;   -0,136
281,334;  253,856;   -1,633;    0,591
281,931;  280,764;   -0,087;   -1,318
282,528;  374,336;    0,822;   -0,500
283,124;  445,093;   -1,087;   -0,500
283,721;  450,215;   -0,451;    1,409
284,317;  330,099;    0,185;    2,500
284,913;  493,641;   -1,360;    0,591
285,510;  721,277;    0,640;   -0,318
286,106;  551,962;   -2,269;   -0,955
286,703;  383,017;   -0,360;    1,955
287,299;  338,178;   -1,451;   -0,591
287,895;  326,393;    0,822;   -1,045
288,491;  324,947;    0,186;    2,136
289,088;  463,652;   -2,360;    2,409
289,684;  530,026;   -1,723;    1,500
290,280;  698,500;    0,368;    0,682
290,876;  685,513;    1,822;    5,500
291,472;  614,594;    1,276;    2,227
292,068;  662,328;    1,367;    0,227
292,665;  550,724;    2,095;    0,773
293,261;  454,434;    0,276;    2,136
293,857;  705,134;    2,913;    2,136
294,453;  651,217;    3,550;    0,955
295,049;  918,502;   -0,268;    1,955
295,644;  756,042;    0,095;    0,136
296,240;  655,087;   -0,905;   -0,136
296,836;  861,885;   -0,995;    0,318
297,432; 1068,445;    1,096;   -0,500
298,028; 1166,143;    0,732;    0,773
298,624; 1027,797;    1,459;    1,864
299,220; 1040,759;    2,368;    0,591
299,815; 1039,467;    1,005;   -0,409
300,411; 1196,866;    0,914;    1,773
301,007; 1375,231;    1,368;    0,227
301,602; 1215,311;   -0,541;   -2,318
302,198; 1381,040;    0,732;   -0,773
302,794; 1280,180;    1,187;   -0,500
303,389; 1307,092;   -1,177;    1,045
303,985; 1409,609;    0,550;    1,409
304,580; 1510,361;    1,459;    1,591
305,176; 1415,017;   -3,086;    0,136
305,771; 1310,055;   -1,268;   -1,227
306,367; 1747,758;    4,095;    0,136
306,962; 1545,857;    0,641;    1,500
307,558; 1471,432;   -0,450;    0,136
308,153; 1590,018;    1,095;   -1,136
308,748; 1402,527;   -0,814;    1,682
309,344; 1800,516;   -0,632;   -1,318
309,939; 1843,448;   -1,905;   -1,318
310,534; 1511,027;   -0,086;   -1,682
311,130; 1401,862;    0,459;   -2,500
311,725; 1277,051;    1,004;   -0,500
312,320; 1371,646;    2,459;    0,045
312,915; 1500,847;    1,459;   -1,045
313,510; 1686,992;    1,550;   -0,500
314,105; 1476,417;    1,096;    1,409
314,700; 1186,515;   -3,086;   -1,045
315,295; 1192,452;   -0,904;    0,045
315,890; 1054,128;    1,277;    0,864
316,485; 1160,325;   -0,359;   -0,318
317,080; 1089,677;   -3,086;    1,591
317,675; 1408,920;    2,005;   -0,682
318,270; 1562,408;    5,550;    3,318
318,865; 1456,226;    3,278;    3,045
319,460; 1204,917;   -0,904;    0,591
320,055; 1045,733;   -0,541;   -1,227
320,650;  992,697;   -1,995;   -0,591
321,244;  987,192;   -0,177;   -1,409
321,839; 1098,245;   -1,541;   -0,227
322,434; 1126,010;   -1,086;   -1,591
323,029;  991,444;    1,732;    1,591
323,623;  917,163;    1,550;    0,773
324,218; 1085,165;    2,368;    1,409
324,812; 1021,272;    1,096;    1,591
325,407; 1043,735;   -0,814;    2,045
326,002; 1170,434;    0,277;   -0,409
326,596; 1116,966;    0,914;    1,318
327,191;  986,065;    0,823;   -1,045
327,785;  934,512;   -0,813;   -0,227
328,379; 1049,551;    1,368;    0,136
328,974; 1093,672;    0,914;   -3,955
329,568; 1176,939;    0,186;   -2,409
330,163; 1265,567;    2,096;    1,045
330,757; 1193,207;    2,459;    1,591
331,351; 1139,682;    0,459;    0,682
331,945; 1217,906;    0,914;    1,409
332,540; 1389,137;   -1,723;   -0,591
333,134; 1407,360;   -1,086;    0,773
333,728; 1436,470;    0,005;    0,318
334,322; 1491,943;   -1,177;   -0,864
334,916; 1408,157;    0,277;    0,955
335,510; 1696,893;   -0,450;   -0,136
336,105; 1828,884;   -1,086;    1,591
336,699; 1713,867;   -1,086;    0,591
337,293; 1815,488;   -1,723;    0,318
337,887; 1868,586;   -2,723;    1,955
338,481; 2110,258;    0,459;    0,591
339,074; 2359,611;   -0,359;    2,682
339,668; 2393,848;   -1,632;    1,227
340,262; 3077,300;    1,732;    3,227
340,856; 2661,681;    1,822;   -0,682
341,450; 2318,658;    1,004;    1,864
342,044; 2703,761;    1,459;    0,136
342,637; 2857,764;    0,913;   -2,136
343,231; 2921,658;   -2,360;    0,682
343,825; 2837,594;   -1,086;   -0,591
344,419; 2965,548;   -1,995;    0,500
345,012; 3411,389;    2,459;    4,045
345,606; 3339,989;    4,641;    1,591
346,199; 3201,008;   -1,813;   -0,227
346,793; 3199,609;    1,914;    2,045
347,386; 3284,149;   -0,813;   -1,136
347,980; 3262,811;   -0,268;   -0,045
348,573; 3339,584;    2,278;    0,409
349,167; 3416,356;    5,278;    4,773
349,760; 3671,297;    2,914;    2,682
350,354; 3603,286;   -0,813;    1,136
350,947; 3569,517;    1,096;    1,682
351,540; 3376,728;   -0,358;   -1,409
352,134; 3316,237;    1,096;    1,136
352,727; 3420,261;   -0,086;    1,136
353,320; 3400,545;    0,005;    0,591
353,913; 3245,308;   -1,995;    1,864
354,507; 3463,312;    0,823;   -1,227
355,100; 3498,852;    0,460;    0,864
355,693; 3369,910;    2,005;    2,409
356,286; 3243,781;    0,823;    2,773
356,879; 3343,208;   -0,722;    1,227
357,472; 3125,969;   -0,904;    1,500
358,065; 3269,469;   -0,722;    2,500
358,658; 3190,843;   -0,540;    2,318
359,251; 2972,027;   -1,631;   -0,591
359,844; 2841,376;   -1,904;   -1,136
360,437; 2973,460;   -2,995;    0,045
361,030; 3042,997;    1,369;   -0,682
361,623; 2797,094;    2,824;    0,318
362,215; 2883,315;   -0,086;    2,045
362,808; 2728,048;   -2,358;   -1,682
363,401; 2775,511;   -2,449;    0,136
363,994; 2828,381;   -0,631;   -1,500
364,586; 2637,022;    0,824;   -1,500
365,179; 2652,127;   -0,449;   -1,136
365,772; 2330,521;   -1,995;    2,045
366,364; 2447,712;    1,915;   -3,227
366,957; 2636,490;    2,279;   -0,045
367,549; 2510,055;    2,188;   -0,864
368,142; 2381,032;    1,825;   -1,500
368,734; 2436,018;    0,734;   -2,136
369,327; 2361,365;    1,643;   -0,500
369,919; 2325,214;   -1,538;    0,409
370,512; 2328,929;   -1,083;   -0,500
371,104; 2331,003;   -0,901;    1,591
371,696; 2426,942;    1,191;   -0,955
372,289; 2341,401;    0,373;    1,136
372,881; 2315,178;   -2,080;    1,318
373,473; 2189,277;   -2,170;    1,136
374,066; 2184,667;   -0,169;    0,500
374,658; 2120,281;    0,378;    1,136
375,250; 2186,905;    0,653;   -1,409
375,842; 2144,866;    0,473;   -0,045
376,434; 2049,753;   -0,435;   -0,409
377,026; 2282,970;    0,204;   -2,500
377,618; 2210,499;   -0,158;   -0,682
378,210; 2095,691;   -0,338;   -1,955
378,802; 1961,882;    0,754;   -0,591
379,394; 2285,614;    1,846;    0,682
379,986; 2296,132;    1,393;   -0,955
380,578; 2245,894;   -0,153;    0,773
381,170; 2185,557;   -0,972;    0,045
381,762; 2071,582;    0,755;    1,409
382,354; 2080,653;   -0,065;   -1,318
382,945; 2067,213;   -2,976;    0,318
383,537; 2111,397;   -2,705;   -1,955
384,129; 2142,996;   -2,160;   -1,136
384,721; 2236,108;   -0,252;    0,955
385,312; 2114,355;   -0,161;   -0,955
385,904; 2247,025;   -2,706;    1,591
386,496; 1942,994;   -0,979;    1,045
387,087; 2086,212;    1,022;    2,500
387,679; 2032,277;   -1,160;    0,045
388,270; 2109,711;    2,840;    2,045
388,862; 2097,393;    1,295;   -0,318
389,453; 1932,202;   -0,887;    1,045
390,045; 2104,080;   -0,705;   -2,682
390,636; 2069,571;    0,204;   -0,591
391,227; 1991,965;   -0,523;   -0,045
391,819; 2073,071;    0,204;    0,773
392,410; 2242,971;    1,022;    0,045
393,001; 2107,793;   -0,979;   -1,591
393,593; 2230,655;    1,930;   -0,045
394,184; 2214,158;    1,385;   -0,409
394,775; 2011,371;    1,839;    2,136
395,366; 2136,672;    1,385;    0,773
395,957; 2194,822;    0,113;    0,136
396,548; 2236,300;   -0,342;    2,682
397,139; 2427,355;   -2,433;    0,591
397,730; 2263,731;   -1,888;    0,955
398,321; 2282,025;   -1,252;    0,955
398,912; 2209,608;   -0,615;    0,136
399,503; 2314,364;   -3,524;   -1,409
400,094; 2096,864;    0,294;    1,682
400,685; 2067,779;   -0,433;    0,045
401,276; 1991,590;    0,930;   -0,955
401,867; 2105,971;   -0,888;    0,773
402,458; 2129,376;   -2,251;   -2,318
403,048; 2203,704;    1,112;    0,591
403,639; 1963,313;    0,840;    0,864
404,230; 2231,373;    2,476;    0,318
404,821; 2212,273;   -0,615;    0,045
405,411; 2133,138;    1,203;   -2,591
406,002; 1904,100;   -1,252;   -1,136
406,592; 2104,759;    2,294;    0,045
407,183; 2012,728;    0,566;   -1,500
407,774; 1886,959;    3,475;   -0,136
408,364; 1925,466;    0,930;    0,409
408,954; 1908,627;    0,384;    1,227
409,545; 1874,715;    1,021;    1,045
410,135; 1649,195;    1,293;    0,500
410,726; 1629,270;    1,838;    0,318
411,316; 1848,116;    0,111;    0,773
411,906; 1582,712;   -0,253;   -0,409
412,497; 1436,437;   -1,070;   -0,045
413,087; 1488,772;   -1,980;   -0,227
413,677; 1495,846;   -0,707;    3,864
414,267; 1402,630;    0,656;    1,409
414,857; 1305,817;   -2,980;    4,227
415,448; 1322,262;    0,839;    0,500
416,038; 1240,843;    0,020;   -0,591
416,628; 1228,207;   -0,889;    0,409
417,218; 1250,552;    0,565;    3,318
417,808; 1387,921;    0,202;   -0,409
418,398; 1204,498;    0,020;    2,682
418,988; 1027,654;    2,020;    0,591
419,578; 1072,366;   -0,707;    1,409
420,168; 1070,805;   -1,343;   -0,955
420,757; 1167,020;   -1,343;   -1,500
421,347;  948,219;    0,111;   -0,227
421,937;  871,065;    2,292;    1,409
422,527;  992,168;    0,838;   -0,773
423,116; 1126,892;   -0,253;   -0,045
423,706;  760,327;   -1,889;    0,318
424,296;  646,416;    1,384;    0,682
424,885;  849,689;   -0,071;   -3,045
425,475;  777,884;    1,474;   -2,864
426,065;  589,822;   -0,980;   -0,318
426,654;  523,738;   -0,435;   -0,318
427,244;  874,191;    0,020;    1,409
427,833;  802,185;    1,383;   -0,500
428,423;  592,334;   -0,526;    1,136
429,012;  602,449;   -0,344;   -1,136
429,601;  722,583;   -1,344;    0,136
430,191;  545,318;    1,292;    4,318
430,780;  374,851;   -0,344;   -0,409
431,369;  640,857;    0,746;   -0,045
431,959;  499,256;   -1,254;    0,500
432,548;  356,380;   -1,163;   -0,045
433,137;  261,663;   -1,254;   -1,318
433,726;  360,019;    0,292;    0,500
434,315;  366,269;   -0,526;    2,409
434,905;  490,517;   -1,254;    1,409
435,494;  499,257;    0,746;    0,955
436,083;  295,357;   -0,981;   -0,955
436,672;  357,549;    0,110;    0,500
437,261;  290,084;    0,292;   -1,955
437,850;  583,044;    1,383;    0,682
438,439;  611,592;    3,291;    1,955
439,027;  718,508;    3,655;    1,773
439,616;  621,739;    2,927;    1,227
440,205;  333,691;    0,200;   -2,136
440,794;  247,016;    2,109;   -0,045
441,383;  144,280;   -1,346;   -0,591
441,971;   94,459;   -2,436;    0,591
442,560;  105,965;    0,563;   -1,773
443,149;   -8,388;    0,379;   -1,318
443,737;   46,246;   -0,074;   -2,318
444,326;   56,786;    0,018;    0,318
444,915;  112,630;   -1,982;    0,864
445,503;  107,257;   -2,891;   -0,318
446,092;  375,628;    0,382;    2,136
446,680;  295,641;    0,382;    0,318
447,269;  198,619;   -0,346;   -0,318
447,857;  169,636;    0,018;   -1,773
448,445;  109,128;    0,563;    1,318
449,034;   47,062;   -1,528;   -1,136
449,622;   51,154;   -1,073;    3,500
450,210;  337,647;    2,017;    2,227
450,799;  236,562;    0,290;   -0,591
451,387;  185,509;    1,381;   -0,591
451,975;  173,136;    2,654;    0,864
452,563;  251,816;    3,472;    2,318
453,151;   67,206;   -0,528;   -1,227
453,739;  109,666;   -1,347;    0,136
454,328;  219,988;    2,381;   -2,136
454,916;  146,124;    2,562;   -0,136
455,504;  157,686;    1,017;    1,227
456,092;   52,160;    0,017;   -1,591
456,679;   10,950;    1,472;    0,682
457,267;  411,423;    4,017;    1,045
457,855;  100,039;    1,017;    1,409
458,443;  -38,849;   -0,165;    1,682
459,031;  114,411;    0,108;    2,409
459,619;   73,187;   -1,801;    2,864
460,206;  -13,956;    0,835;    2,045
460,794;  -26,004;   -2,983;   -0,227
461,382;   26,053;   -0,529;   -0,864
461,970;   35,083;    1,198;    1,864
462,557;  -37,979;   -0,711;   -0,682
463,145;   75,162;   -3,165;   -1,682
463,732;  306,645;    2,016;   -1,045
464,320;   85,334;   -0,075;   -3,045
464,907;  215,295;    2,743;   -0,773
465,495;  123,489;    0,743;   -1,227
466,082;   54,089;   -1,984;   -0,045
466,670;   85,002;   -2,529;    1,227
467,257;  -15,444;   -1,711;    2,045
467,844;   81,140;   -0,075;    0,045
468,432;   53,447;    0,834;    3,500
469,019;   11,078;    0,925;   -1,773
469,606;   93,488;    0,470;    3,682
470,193;  124,398;   -1,439;    0,227
470,780;   73,251;   -2,075;    0,864
471,368;   12,207;   -1,257;   -0,773
471,955;  109,017;    1,379;   -0,682
472,542;   62,434;    0,652;   -1,136
473,129;  -29,008;   -0,166;    0,136
473,716;  -20,954;    1,470;    0,591
474,303;    9,684;    0,652;   -0,864
474,890;   15,120;   -1,439;   -0,500
475,477;  108,192;   -1,621;    0,409
476,064;   16,763;    1,106;   -1,591
476,650;  136,376;    0,288;    0,318
477,237;   48,831;   -0,258;    0,955
477,824;   35,685;   -1,076;    0,864
478,411;  -45,864;   -1,894;   -0,318
478,997;  -56,934;    0,560;   -0,773
479,584; -104,574;    1,196;   -0,409
480,171;   55,688;   -0,440;   -0,773
480,757;  127,379;    2,651;    0,773
481,344;   15,477;    0,469;    0,409
481,931;  -68,572;    1,105;    1,045
482,517;   44,216;   -1,258;    0,318
483,104;  135,486;    1,106;    2,864
483,690;   -1,784;   -1,804;    0,045
484,276;  -22,825;   -0,895;    0,227
484,863;  174,436;    2,469;    1,136
485,449;   39,464;   -0,077;    0,318
486,035;   -0,956;   -1,986;   -0,136
486,622;   80,389;   -0,895;    0,045
487,208;   13,189;    1,378;    1,500
487,794;  -69,582;    0,741;    0,318
488,380;  -59,120;    0,105;   -1,409
488,967;  -56,631;   -1,168;   -0,409
489,553;  -41,069;   -1,895;   -1,409
490,139;   30,175;    1,559;    0,773
490,725;  -43,821;    0,741;   -0,227
491,311;   -0,856;    3,287;    3,045
491,897;  -19,489;   -0,986;    1,500
492,483;   -8,815;    0,105;    1,227
493,069;  415,756;    3,923;    0,864
493,655;  144,895;    1,650;    0,682
494,241;   20,314;    1,377;   -0,955
494,826;   28,021;    0,287;   -1,045
495,412;   88,779;    2,559;   -0,682
495,998;   -0,721;   -0,805;   -0,318
496,584;   56,298;    0,377;    1,045
497,169;   80,459;    1,014;   -0,682
497,755;    9,552;    0,650;    1,227
498,341;  133,458;    0,559;    0,318
498,926;  255,351;    1,832;    1,955
499,512;   10,271;    1,286;    2,955
500,097;   15,967;    0,195;   -0,318
500,683;   32,138;   -0,350;    2,136
501,268;  -19,375;   -0,169;   -0,955
501,854;   13,696;   -0,169;    1,227
502,439;    2,449;   -0,624;   -1,773
503,024;   27,582;    0,195;    0,500
503,610;   58,792;   -0,078;   -0,682
504,195;    8,650;    0,558;    1,955
504,780;  109,174;    2,922;    1,227
505,366;  195,442;    3,013;    2,864
505,951;  135,895;    0,740;    1,045
506,536;   62,920;   -3,260;   -3,682
507,121;  144,213;    0,285;   -0,318
507,706;  110,761;    2,376;    1,045
508,291;   71,078;    2,649;    1,136
508,876;   96,885;   -0,988;    2,591
509,461;  213,502;   -0,169;   -0,773
510,046;  304,257;    0,194;    0,318
510,631;  363,605;   -0,351;   -0,773
511,216;  309,042;    2,467;   -0,500
511,801;  481,438;   -0,442;    2,591
512,386;  600,218;    0,740;    0,500
512,971;  737,607;   -2,988;    0,955
513,555;  940,923;   -0,897;   -1,500
514,140; 1063,142;   -0,442;   -3,136
514,725; 1351,685;   -0,715;   -1,136
515,309; 1440,589;   -0,533;    0,318
515,894; 1512,194;   -0,624;   -2,227
516,479; 1866,475;   -0,624;   -0,955
517,063; 2070,558;    0,376;    1,227
517,648; 2461,471;    1,012;   -1,136
518,232; 2551,909;   -0,261;   -1,409
518,817; 3120,516;   -0,079;    1,682
519,401; 3713,844;    2,194;    0,591
519,985; 3756,382;    1,103;    1,136
520,570; 4098,975;    0,830;   -1,955
521,154; 4729,956;    2,102;    0,591
521,738; 5296,072;   -2,352;    2,409
522,323; 6123,224;   -0,170;    1,682
522,907; 6317,039;    0,466;   -0,136
523,491; 6576,405;    0,557;    0,955
524,075; 6938,831;    2,284;    0,591
524,659; 7434,392;    1,466;    0,591
525,243; 7444,335;    1,739;    0,409
525,827; 7993,438;    0,648;   -0,045
526,411; 9016,756;   -1,989;   -0,136
526,995; 9526,007;   -0,352;    1,409
527,579; 9476,676;   -0,443;   -1,045
528,163;10077,903;    0,375;   -1,500
528,747;10283,080;    2,466;   -0,773
529,331;10790,106;   -0,080;   -1,409
529,915;11189,844;    1,738;    0,955
530,499;11379,450;   -0,807;    1,227
531,082;11311,674;   -0,534;    1,591
531,666;11019,775;    1,374;    0,773
532,250;11829,870;    1,284;    2,682
532,833;12272,467;    0,920;    2,773
533,417;12291,136;   -1,807;    0,864
534,001;12420,547;    1,647;   -0,318
534,584;13213,688;    0,374;    0,500
535,168;13198,504;    0,465;    1,409
535,751;13338,079;    0,647;    0,045
536,334;12901,178;   -0,898;   -0,409
536,918;13525,933;    0,011;    1,591
537,501;13720,037;   -0,899;    1,318
538,085;13767,589;   -0,444;    1,045
538,668;13994,651;    0,829;    2,409
539,251;14363,076;    1,829;    3,773
539,834;14470,800;    0,101;    0,773
540,418;14429,038;   -1,990;    4,318
541,001;14606,182;   -0,990;    1,773
541,584;14648,284;    2,101;    2,227
542,167;14423,163;    1,374;    2,955
542,750;14616,747;    1,919;   -0,773
543,333;14234,382;    0,555;    2,136
543,916;15004,938;    0,192;    2,500
544,499;15601,735;   -1,354;    0,227
545,082;15607,343;    1,374;    3,591
545,665;15799,912;    1,919;    1,500
546,248;16158,291;    1,010;   -0,318
546,830;15836,983;   -0,445;    1,955
547,413;16258,882;    1,010;   -0,773
547,996;16805,500;    0,555;    0,500
548,579;16628,939;    0,919;    0,955
549,161;16456,184;    1,828;    2,682
549,744;16278,896;   -0,809;    0,409
550,326;16789,807;   -0,809;   -1,136
550,909;16555,879;    2,737;    0,591
551,492;16997,165;   -0,263;    0,227
552,074;16778,281;   -0,173;   -1,318
552,657;17320,069;    2,373;    0,045
553,239;17095,165;   -0,173;   -0,773
553,821;17045,056;   -1,082;    1,045
554,404;16550,947;    1,282;    1,136
554,986;16916,412;    0,464;    1,045
555,568;17474,326;    1,191;   -0,955
556,151;16728,933;    1,191;   -0,227
556,733;16988,590;   -0,264;   -0,864
557,315;17442,618;    0,100;    0,500
557,897;17245,220;    0,554;   -0,500
558,479;17359,253;   -1,991;    1,318
559,061;17482,552;   -0,719;   -0,864
559,643;17801,509;   -0,264;    0,045
560,225;18186,843;    1,645;    2,864
560,807;18190,146;    0,918;    0,318
561,389;17728,484;    0,554;    2,318
561,971;18481,336;    0,463;    2,136
562,553;18259,493;   -1,628;    1,591
563,135;18396,884;   -0,537;    1,136
563,717;18018,489;    3,372;    1,136
564,298;18701,347;    3,645;   -0,045
564,880;18455,809;    0,645;   -1,409
565,462;18657,809;    0,645;    1,318
566,043;19775,720;   -0,446;    2,318
566,625;19290,446;    1,918;    1,227
567,207;19180,189;    1,099;    1,682
567,788;20210,648;   -1,264;    1,500
568,370;20970,277;    1,917;   -0,500
568,951;20810,170;    0,190;    0,227
569,533;21656,107;   -0,628;   -0,500
570,114;22113,849;   -0,446;    0,682
570,695;22568,339;   -0,174;   -1,318
571,277;23010,713;   -0,265;   -1,682
571,858;23722,189;    2,008;   -1,136
572,439;24660,420;    1,554;   -1,045
573,021;24809,316;    2,099;   -2,773
573,602;25269,941;   -1,265;    0,318
574,183;26178,013;   -2,083;    2,227
574,764;26295,343;   -1,629;    0,409
575,345;26762,807;    0,917;   -0,136
575,926;27376,421;   -0,356;    0,136
576,507;27387,031;    1,099;   -0,227
577,088;28493,000;    3,099;    1,682
577,669;28436,350;    0,735;    1,955
578,250;29119,103;    0,644;   -1,045
578,831;29833,103;   -1,356;   -2,227
579,412;30040,139;   -0,810;    0,955
579,993;31002,293;    1,008;    0,227
580,573;31312,052;   -0,629;   -0,955
581,154;30315,382;    0,735;   -0,591
581,735;31105,682;    0,644;    0,773
582,315;30613,500;   -0,629;    2,136
582,896;30930,888;   -0,174;    1,227
583,477;30462,364;    0,189;    1,227
584,057;30660,354;    0,553;    0,955
584,638;30912,293;    2,553;    2,318
585,218;30909,534;   -0,538;    2,682
585,799;31111,103;    0,281;   -0,227
586,379;31140,546;    0,372;    1,591
586,959;29956,256;    0,735;    0,318
587,540;29319,282;   -0,629;    2,227
588,120;28854,701;    1,007;   -0,045
588,700;27852,893;    2,553;    2,136
589,281;28103,082;    0,462;   -0,955
589,861;28044,118;    0,099;   -1,682
590,441;27930,902;    2,371;   -2,682
591,021;26933,838;   -0,265;   -2,591
591,601;27193,388;   -0,537;    0,500
592,181;27158,870;   -0,719;   -0,773
592,761;26518,353;    0,007;    1,409
593,341;26404,951;   -0,901;    0,045
593,921;26413,697;   -0,265;    1,591
594,501;26308,741;   -0,538;    1,318
595,081;26182,089;    0,917;   -0,318
595,661;26492,159;   -1,447;    0,955
596,240;27019,964;   -0,537;    0,136
596,820;26587,614;    0,372;    1,955
597,400;26786,187;    2,008;    0,773
597,980;27029,169;    2,008;    1,045
598,559;27090,912;    2,735;   -0,227
599,139;26848,826;   -0,174;   -1,227
599,718;26699,735;   -0,174;   -0,409
600,298;26947,306;    0,735;    0,682
600,877;27136,445;    2,917;    1,409
601,457;27446,367;    2,281;    1,136
602,036;27345,296;    0,190;    2,045
602,616;27579,987;    0,644;    1,682
603,195;27863,003;   -0,355;    3,500
603,774;27410,978;   -0,901;    2,045
604,354;27330,222;    0,826;   -0,500
604,933;26892,385;    0,463;    1,864
605,512;27003,466;    3,554;    0,591
606,091;27075,421;   -0,537;    3,773
606,671;27845,610;    0,281;    0,773
607,250;26943,249;    1,644;    3,136
607,829;27158,501;    2,372;    3,227
608,408;27089,570;    1,190;    2,591
608,987;26086,088;    1,281;    3,409
609,566;26374,978;   -1,265;   -2,500
610,145;26515,424;   -1,082;    0,682
610,723;26905,368;    4,372;    6,864
611,302;26185,534;   -0,446;    1,682
611,881;25682,269;    5,008;   11,227
612,460;26547,604;    1,645;    3,955
613,039;26953,617;   -0,082;    2,045
613,617;25676,444;    1,736;    4,773
614,196;25919,544;    1,099;    1,227
614,775;26233,676;    1,009;    2,409
615,353;26160,272;    0,736;    0,864
615,932;25902,971;    0,100;    2,409
616,510;26468,220;    0,554;    0,591
617,089;25969,125;    7,100;   17,591
617,667;25773,881;    2,372;    6,136
618,246;25662,264;   -1,537;    1,318
618,824;25796,692;   -3,355;   -0,955
619,402;25377,056;   -2,900;   -1,773
619,981;25895,499;   -0,173;   -1,045
620,559;25762,188;    0,009;    1,682
621,137;25344,617;   -0,718;    1,864
621,715;25302,379;   -1,173;   -0,682
622,293;25235,131;   -0,537;   -0,773
622,871;25676,982;   -0,718;    0,500
623,450;25256,143;    0,373;   -0,864
624,028;25156,309;    0,191;   -0,955
624,606;24754,057;   -1,718;    1,682
625,183;25217,832;   -1,536;   -1,136
625,761;24822,558;    1,009;    1,136
626,339;25039,667;    1,373;    2,591
626,917;25477,357;   -0,172;   -0,045
627,495;25552,482;   -0,354;    1,318
628,073;24949,499;   -0,263;    2,864
628,650;24706,126;    0,100;    2,136
629,228;25120,806;    0,373;    4,409
629,806;24560,673;    2,282;    1,136
630,383;24785,446;    1,464;   -0,318
630,961;24598,795;    2,555;   -0,955
631,539;24375,959;    2,464;    0,227
632,116;23696,249;   11,373;   15,409
632,694;24245,720;    2,555;    6,500
633,271;24544,358;    0,828;    2,682
633,848;24486,916;    1,828;    2,045
634,426;24536,864;   -1,081;    1,773
635,003;23710,983;    1,101;   -0,409
635,580;24009,616;    1,192;    3,682
636,158;24512,792;    3,737;    1,227
636,735;24499,753;    0,555;   -0,500
637,312;24654,618;   -0,809;   -0,682
637,889;24752,375;   -4,354;   -0,682
638,466;24267,974;   -3,990;   -0,409
639,043;24247,070;    2,101;   -1,136
639,620;24584,129;   -2,262;   -0,955
640,197;24860,008;    1,100;    1,682
640,774;25019,510;   -0,172;    1,136
641,351;25369,194;    0,737;    1,136
641,928;24813,605;   -0,627;    1,409
642,505;24444,743;    0,828;   -0,500
643,082;24584,427;   -1,718;    1,227
643,658;23652,929;   -0,718;    1,500
644,235;24384,704;    1,191;    2,500
644,812;24693,842;    1,918;    0,773
645,388;24424,889;   -0,991;    1,409
645,965;24448,664;   -0,809;    1,682
646,542;24587,530;   -1,445;   -0,227
647,118;24532,486;    1,009;   -0,955
647,695;24829,988;   -0,263;    1,136
648,271;24759,581;   -0,536;    0,500
648,848;25034,811;    0,736;    2,227
649,424;24887,313;    0,827;    1,318
650,000;24703,905;   -0,354;   -1,045
650,577;24437,044;   -0,627;   -0,955
651,153;24937,182;   -1,809;    0,955
651,729;25903,866;    1,191;    0,864
652,305;26038,368;    0,645;    2,773
652,881;30047,597;   -0,082;    1,136
653,458;36552,099;    1,100;    0,227
654,034;40409,783;    0,282;    1,591
654,610;41935,467;    0,554;    0,773
655,186;43290,787;    0,645;    3,045
655,762;42944,471;   -0,991;    0,409
656,338;42971,609;    0,100;    0,136
656,913;43938,930;   -0,082;    0,409
657,489;43267,250;    0,827;   -0,318
658,065;43266,843;   -0,173;   -1,591
658,641;43875,072;   -0,900;   -0,864
659,217;43257,574;   -0,991;    0,409
659,792;42633,076;    0,645;   -0,409
660,368;42930,942;   -2,173;   -0,682
660,944;42655,262;   -2,082;    1,227
661,519;38459,037;   -0,628;    0,409
662,095;32795,902;   -1,719;    0,591
662,670;28216,041;    1,281;   -0,136
663,246;26963,724;    1,009;   -0,409
663,821;26267,772;    0,281;    1,682
664,396;25707,456;    0,009;    1,864
664,972;25977,867;    0,009;   -0,500
665,547;26230,005;    1,372;    0,136
666,122;26317,143;   -1,082;    0,318
666,698;26583,191;   -0,173;    0,318
667,273;25892,511;   -0,173;    0,136
667,848;26742,922;    2,372;    1,500
668,423;26523,424;    2,190;    2,318
668,998;27095,290;    2,827;   -0,682
669,573;27542,792;   -3,264;   -1,500
670,148;27450,567;   -1,446;   -0,682
670,723;27286,978;   -1,810;    0,318
671,298;27633,480;    2,372;    1,045
671,873;27743,982;   -0,082;   -0,136
672,448;27738,120;    0,645;    0,136
673,023;28084,986;   -1,992;   -0,227
673,597;28323,306;    0,827;    2,318
674,172;28185,444;   -0,355;    0,318
674,747;27636,037;    0,372;   -1,045
675,321;27434,539;   -0,628;    3,318
675,896;27035,768;    0,645;    1,045
676,471;28079,634;    2,645;    1,591
677,045;27814,136;   -1,264;    0,682
677,620;27937,729;    0,190;    1,136
678,194;28246,322;   -2,628;    1,136
678,769;27701,369;   -1,083;   -0,318
679,343;27953,871;   -0,628;    1,773
679,917;27862,192;   -1,446;    1,955
680,492;27895,966;    0,826;    3,227
681,066;28060,196;    3,372;    0,409
681,640;28144,243;    1,463;   -0,318
682,214;28957,200;    0,735;    0,500
682,788;28454,156;   -1,356;   -0,773
683,363;28297,567;   -1,810;    1,682
683,937;28079,797;   -1,719;   -0,318
684,511;28862,935;    0,463;   -0,591
685,085;28570,982;   -1,356;    0,318
685,659;28335,939;   -2,538;    0,864
686,232;28595,259;   -0,356;   -0,318
686,806;28340,125;   -0,901;    0,409
687,380;28967,445;   -0,174;    0,591
687,954;29174,947;   -1,174;    1,136
688,528;28849,631;   -0,719;    1,955
689,101;29625,406;   -3,992;    1,045
689,675;29211,998;   -0,356;   -0,136
690,249;28583,410;   -0,719;    0,409
690,822;28881,093;    0,280;    0,318
691,396;28953,414;   -0,265;    1,227
691,969;28451,461;    1,280;    0,136
692,543;28945,508;   -0,447;   -1,955
693,116;28612,010;   -0,265;   -1,409
693,690;28476,967;    0,099;    0,500
694,263;29010,651;   -1,083;    2,955
694,836;29068,244;    1,371;    3,591
695,410;27711,019;   -0,265;    1,773
695,983;28117,702;    0,189;    0,591
696,556;28123,750;   -0,447;   -1,045
697,129;28556,343;   -0,356;    1,409
697,703;28174,390;   -1,629;    1,955
698,276;28138,529;    1,462;   -0,773
698,849;27945,303;    1,280;    1,409
699,422;28344,442;   -1,083;    0,591
699,995;28058,125;    0,007;    0,136
700,568;28507,718;   -0,629;    3,045
701,140;28524,129;   -2,811;    1,682
701,713;28283,086;   -0,174;    2,409
702,286;28042,497;   -0,538;    0,864
702,859;27954,999;   -0,902;   -0,591
703,432;27076,047;    0,825;    0,682
704,004;27609,821;    0,462;    0,318
704,577;27502,687;   -0,629;    0,136
705,150;28029,916;    0,189;    2,500
705,722;27834,146;   -0,356;   -3,227
706,295;27616,920;   -0,175;   -0,591
706,867;27452,422;   -0,175;    1,955
707,440;27649,561;   -1,720;   -0,409
708,012;27942,154;    0,462;    0,591
708,584;27895,746;    2,462;    0,227
709,157;28132,430;    1,825;   -0,591
709,729;27754,205;    2,280;    2,045
710,301;28651,525;    0,734;    0,045
710,874;28648,754;   -1,447;   -0,227
711,446;27542,438;    0,371;    0,864
712,018;27424,940;    0,098;    0,500
712,590;27116,533;   -1,993;    1,682
713,162;27652,217;    0,825;    1,318
713,734;27874,719;    1,825;   -2,045
714,306;27823,585;   -1,902;   -0,409
714,878;26576,087;    0,825;    0,864
715,450;27363,134;    0,643;    0,864
716,022;27620,909;    1,552;    1,318
716,593;27752,775;    0,189;    0,591
717,165;27716,822;   -3,175;   -1,227
717,737;27401,506;    0,280;    0,409
718,309;27103,462;    0,280;   -0,045
718,880;27044,601;   -0,539;   -1,409
719,452;27271,739;   -0,175;   -1,591
720,024;26846,787;    0,734;   -0,591
720,595;27417,470;   -2,902;    0,955
721,167;26940,791;    0,370;   -2,045
721,738;26480,111;   -0,812;   -1,045
722,309;26481,522;   -0,993;   -1,227
722,881;26183,388;   -1,357;    0,773
723,452;26868,253;   -2,630;    2,864
724,023;27018,937;   -0,721;    2,682
724,595;26811,166;    0,007;    0,682
725,166;26575,486;    0,007;   -0,409
725,737;26231,443;    1,734;    0,227
726,308;26272,400;   -0,266;    0,318
726,879;26747,992;   -1,630;    1,227
727,450;26566,131;    0,552;   -0,045
728,021;26578,815;    3,097;    0,682
728,592;26390,953;    0,734;    0,500
729,163;26737,091;    0,643;   -0,136
729,734;26721,775;    0,188;   -0,227
730,305;27045,095;    1,734;    0,136
730,876;27414,597;    0,188;    2,955
731,447;27081,918;    2,188;    2,682
732,017;27192,511;    1,097;    1,864
732,588;26655,376;    0,734;    1,227
733,159;26862,787;    0,643;   -1,045
733,729;26653,562;    0,006;    0,409
734,300;26011,519;    0,915;    0,864
734,870;26464,839;    3,461;    0,591
735,441;27016,523;    0,370;   -0,591
736,011;26720,752;    0,643;   -1,591
736,582;26686,254;   -0,812;    0,045
737,152;26158,665;   -1,721;   -2,045
737,722;26595,167;   -0,267;   -0,682
738,293;26319,942;   -1,358;    1,318
738,863;26181,898;    2,461;    2,318
739,433;25994,673;    5,279;    0,318
740,003;26607,448;   -0,994;   -0,682
740,573;26024,768;    2,097;   -1,591
741,143;26030,997;   -1,085;    0,318
741,713;26790,590;    1,188;   -0,500
742,283;26452,910;    0,915;    1,591
742,853;26239,867;    1,915;    1,591
743,423;25754,278;    1,733;    0,045
743,993;25863,507;   -0,358;    1,500
744,563;25233,464;    0,097;   -0,864
745,133;25239,966;   -0,812;   -0,864
745,702;25898,650;   -0,267;    1,773
746,272;25097,152;   -0,176;    0,591
746,842;24839,472;   -1,358;   -0,591
747,411;25341,701;   -0,267;   -0,318
747,981;25531,385;    0,097;    0,500
748,551;25552,251;    2,278;   -1,045
749,120;25396,298;    0,642;   -0,227
749,690;25770,982;   -0,631;    2,409
750,259;26104,484;    1,369;    2,955
750,828;26030,349;    1,551;   -1,955
751,398;26332,579;    1,278;   -0,045
751,967;25807,353;    2,187;    0,409
752,536;26022,674;   -0,813;   -0,227
753,105;26461,448;    0,096;    0,227
753,675;26249,587;    0,096;    1,773
754,244;26153,180;   -0,904;    3,591
754,813;26166,500;    0,551;    1,227
755,382;25818,547;    0,460;    0,955
755,951;26317,413;    1,551;    3,682
756,520;25833,006;   -0,085;    1,864
757,089;26373,508;    0,278;    0,500
757,658;26520,919;    1,733;    1,227
758,227;26575,785;    1,096;    0,318
758,795;26871,832;    1,187;    1,136
759,364;27095,334;   -0,086;   -0,591
759,933;26117,200;   -1,176;   -0,045
760,501;25633,974;    0,733;   -1,318
761,070;26111,476;   -2,813;   -1,409
761,639;26829,888;   -1,904;    1,318
762,207;26123,753;    1,551;   -0,955
762,776;26055,164;    0,369;    0,864
763,344;26028,757;   -0,995;    0,591
763,913;25208,259;   -0,722;    1,409
764,481;25887,761;    1,005;   -0,136
765,049;25714,718;   -1,358;    1,409
765,618;25616,493;   -0,086;    0,318
766,186;25676,267;    0,278;    0,136
766,754;25827,678;    0,005;    1,864
767,322;24863,999;   -1,995;    0,409
767,890;24928,864;   -0,722;   -1,773
768,459;25339,821;   -2,177;   -0,318
769,027;25466,050;    1,641;    3,409
769,595;24468,279;    3,278;    2,591
770,163;24895,963;    3,823;    2,955
770,730;24682,011;    0,732;   -0,136
771,298;24542,149;    0,187;   -1,409
771,866;24610,015;   -1,541;    4,955
772,434;24939,517;   -0,631;   -1,864
773,002;25114,110;    0,005;    0,682
773,569;24785,793;    0,914;    1,682
774,137;24570,568;   -0,268;   -0,045
774,705;25354,706;    0,278;   -0,136
775,272;24853,754;    0,641;    0,682
775,840;24603,983;   -0,177;    2,682
776,407;24127,394;    0,277;    1,955
776,975;23772,533;   -0,632;    0,318
777,542;24793,762;   -1,086;   -0,045
778,110;24621,264;   -1,268;   -0,045
778,677;24322,039;   -2,359;   -0,864
779,244;24069,632;    2,186;    1,045
779,812;24156,225;    1,823;    0,864
780,379;24022,454;    0,005;    1,136
780,946;24274,683;    1,005;   -0,773
781,513;24567,731;   -1,450;    0,318
782,080;23959,323;   -0,086;    2,864
782,647;24698,462;   -0,268;    3,045
783,214;24260,509;   -0,177;    3,864
783,781;23912,102;   -0,723;   -0,682
784,348;23810,331;   -0,632;    1,500
784,915;24261,015;   -3,177;    0,318
785,482;23995,972;    1,368;    2,591
786,049;24420,837;    0,186;   -0,591
786,615;24561,885;    0,277;   -0,955
787,182;24323,114;    0,186;   -0,682
787,749;23993,707;   -2,814;    1,409
788,315;23342,391;   -1,632;   -0,409
788,882;23657,984;    1,550;   -1,227
789,448;24258,759;    1,732;   -0,955
790,015;24357,170;    1,095;    3,227
790,581;23858,763;    1,459;    0,227
791,148;23747,901;    0,641;    1,045
791,714;24019,039;   -0,541;    3,136
792,280;23673,996;    0,186;    1,591
792,847;23283,589;    0,550;    2,500
793,413;23871,545;   -0,269;   -0,318
793,979;23354,411;    3,459;   -1,318
794,545;23441,004;    4,459;    2,682
795,111;22855,051;    2,186;    1,318
795,678;23025,372;    0,731;   -1,682
796,244;22654,510;    3,368;    0,136
796,810;23266,467;    1,731;    0,773
797,375;22925,059;    0,549;   -2,136
797,941;22986,380;   -0,541;    0,591
798,507;23161,518;   -0,451;   -0,955
799,073;22688,656;   -0,360;    0,591
799,639;22803,431;   -2,632;    3,136
800,205;22815,569;    0,095;    2,682
800,770;22352,344;    0,640;    1,773
801,336;22462,846;    1,368;   -0,955
801,901;22116,166;    4,549;    3,136
802,467;22719,941;   -0,542;    2,045
803,033;22068,989;   -0,087;    0,864
803,598;22242,309;    1,913;   -1,045
804,163;22295,447;    1,095;   -0,318
804,729;22274,858;   -0,178;    1,136
805,294;22694,178;    0,822;    2,227
805,859;22463,226;    0,731;   -0,409
806,425;21894,819;    1,186;    2,682
806,990;21576,957;    2,186;    4,318
807,555;22053,550;   -1,451;    2,591
808,120;21920,961;    0,822;   -0,409
808,685;22000,736;    0,185;   -2,500
809,250;21502,329;    0,004;   -0,500
809,815;21846,831;    1,913;    0,682
810,380;22339,515;   -0,269;    1,591
810,945;22843,198;   -1,087;    2,045
811,510;22043,882;    2,094;    1,591
812,075;21778,930;   -0,633;   -1,409
812,640;21818,250;    2,003;    1,409
813,204;21877,934;    0,822;   -0,227
813,769;22307,618;    2,094;   -0,045
814,334;21752,574;    0,458;    0,864
814,898;21837,803;    0,367;    0,591
815,463;21724,487;    1,276;   -0,773
816,027;21718,626;   -0,724;   -2,318
816,592;21747,764;    0,640;   -2,045
817,156;21253,993;    2,094;    1,136
817,721;21081,859;    4,276;    2,318
818,285;21075,179;    2,912;    1,500
818,849;21705,136;   -1,451;    1,682
819,414;21645,092;   -0,269;    2,955
819,978;21253,049;   -1,269;    1,773
820,542;21774,369;    2,003;    0,500
821,106;21475,689;   -0,815;    0,682
821,670;21599,464;   -0,815;    2,591
822,234;21344,875;   -0,270;    1,409
822,798;20726,377;    0,003;    0,500
823,362;20681,515;   -0,633;    4,227
823,926;20035,472;    0,094;    1,136
824,490;20235,156;   -0,997;   -0,682
825,054;20658,112;   -0,088;   -1,136
825,618;20301,342;   -1,542;   -1,500
826,181;20213,844;    0,458;   -1,318
826,745;20121,618;    1,367;   -1,045
827,309;20508,029;    1,185;    1,318
827,872;19927,077;    1,367;    0,955
828,436;20865,033;    1,185;   -0,773
828,999;20929,717;   -0,997;    1,227
829,563;19789,674;   -0,179;    1,136
830,126;19618,448;   -0,179;   -0,591
830,690;19576,041;   -1,997;    2,864
831,253;19098,907;   -0,543;    2,227
831,816;19239,955;   -1,906;    0,500
832,380;19161,002;    0,185;    0,864
832,943;19387,322;   -1,361;   -0,500
833,506;18866,915;    2,639;   -1,227
834,069;19644,872;    3,912;   -0,955
834,632;19727,828;    1,730;    1,318
835,195;19657,330;    1,003;    0,955
835,758;18853,196;   -0,997;    1,955
836,321;18716,425;    0,730;   -1,045
836,884;18805,473;   -0,725;   -0,955
837,447;18811,884;   -2,816;    1,773
838,010;19084,840;    0,366;    3,227
838,573;19387,979;   -1,179;    0,773
839,135;19313,117;   -1,361;   -0,955
839,698;18821,528;    1,275;    0,409
840,261;18352,394;    1,003;   -0,227
840,823;18191,350;   -0,543;    0,864
841,386;18476,216;   -0,452;   -2,409
841,948;18345,263;   -1,361;    1,773
842,511;18102,311;    0,912;    1,682
843,073;18234,904;    1,912;    0,227
843,636;18054,406;   -0,361;   -0,227
844,198;17963,817;    0,911;    0,591
844,760;18073,046;    1,093;    1,955
845,322;17773,912;    0,548;    1,136
845,885;18190,141;    0,730;    0,591
846,447;18600,461;   -1,998;    0,227
847,009;18157,145;    1,911;   -0,682
847,571;18527,920;    0,820;   -2,045
848,133;18605,058;   -1,089;   -1,864
848,695;18436,106;   -0,543;    1,409
849,257;17968,517;   -1,089;   -1,682
849,819;18135,837;   -0,998;   -0,409
850,381;18195,521;   -0,725;   -0,864
850,942;18572,750;    1,093;   -0,591
851,504;18536,070;    1,184;    0,227
852,066;18565,299;    1,275;   -1,591
852,628;18100,529;   -0,180;    1,955
853,189;17644,303;    1,638;    2,682
853,751;17809,351;   -0,907;    1,409
854,312;17622,126;   -0,453;   -1,682
854,874;18122,082;   -2,089;   -0,773
855,435;18632,221;   -0,907;   -1,682
855,997;18736,541;   -1,816;   -0,136
856,558;18075,679;    0,366;    1,773
857,119;18160,999;    0,820;    2,864
857,681;17866,047;    0,002;    0,318
858,242;17899,276;    1,911;   -2,136
858,803;18342,869;    0,456;   -0,773
859,364;18945,826;    0,184;   -4,773
859,925;18215,418;   -2,453;   -0,955
860,486;18109,739;   -0,453;   -0,955
861,047;17840,241;   -0,544;   -1,227
861,608;17617,470;   -1,089;   -0,773
862,169;17782,426;    0,638;   -0,045
862,730;17596,201;    0,456;    1,409
863,291;17821,976;   -0,635;   -0,500
863,852;18169,660;   -0,635;    1,955
864,412;17682,616;   -0,271;   -0,864
864,973;16253,755;   -0,089;    0,500
865,534;16143,166;   -1,726;    0,227
866,094;17593,031;    1,820;    0,227
866,655;17278,079;    1,274;    3,318
867,215;17578,308;    0,274;    0,136
867,776;17442,265;    0,547;   -0,136
868,336;17470,676;   -1,453;    0,136
868,897;16924,632;    2,638;    1,682
869,457;16685,225;    1,365;    0,318
870,017;16904,818;    0,547;   -1,227
870,578;17450,229;   -0,817;    0,773
871,138;17143,277;   -2,089;   -0,955
871,698;16697,233;   -0,817;   -1,318
872,258;16568,190;   -0,453;   -2,864
872,818;16980,510;    2,729;    0,045
873,378;16901,285;    0,638;    1,045
873,938;16469,696;    0,547;    0,500
874,498;16834,652;    0,274;   -1,955
875,058;16688,609;    2,183;    1,773
875,618;16569,111;    1,910;   -2,682
876,177;16481,613;    1,274;    0,136
876,737;16088,570;   -0,090;    1,955
877,297;16095,799;    0,183;    1,955
877,856;16123,210;   -0,362;    0,318
878,416;16097,076;    1,183;   -0,136
878,976;16324,123;   -1,817;    0,409
879,535;16478,534;    0,092;    3,136
880,095;16184,309;   -0,544;    0,045
880,654;16300,175;   -1,090;    1,318
881,213;16374,949;    2,456;    1,500
881,773;16048,997;    2,637;    2,682
882,332;16360,317;    3,365;    5,136
882,891;16224,819;    3,092;    2,136
883,451;16688,594;   -1,272;    1,682
884,010;16160,187;   -2,908;   -0,409
884,569;16250,598;   -0,999;   -0,045
885,128;16356,554;    2,819;   -1,864
885,687;16410,693;    4,455;    0,682
886,246;16085,013;    1,455;    2,136
886,805;15867,060;    2,455;    2,045
887,364;16186,471;   -0,999;   -0,500
887,922;16559,791;   -1,181;    0,045
888,481;16098,657;   -1,545;    0,591
889,040;16369,796;    1,183;    2,136
889,599;17012,843;    2,455;    1,409
890,157;17114,254;    1,455;    2,409
890,716;16767,120;   -0,090;    0,227
891,274;16577,440;    0,092;   -1,136
891,833;17049,578;    1,546;    0,864
892,391;16910,080;   -0,454;    0,500
892,950;16976,219;    1,819;   -0,773
893,508;17366,902;    0,455;   -0,409
894,067;16698,677;    0,637;    0,136
894,625;16591,543;   -0,636;   -1,500
895,183;16839,136;   -0,363;   -0,682
895,741;16709,001;    1,728;   -1,773
896,299;16536,412;   -0,545;   -2,409
896,858;16721,460;    0,819;   -1,591
897,416;16857,780;    2,728;   -1,318
897,974;16620,646;    1,819;    0,318
898,532;16763,693;    6,091;    2,682
899,089;16666,104;    2,091;   -0,682
899,647;16716,061;   -1,454;    1,318
900,205;16433,563;    1,182;    1,045
900,763;16632,156;   -0,454;    0,227
901,321;16659,476;    2,364;   -1,409
901,878;16115,796;   -1,000;   -0,773
902,436;15986,935;   -1,363;    1,318
902,994;16358,255;    4,728;    3,682
903,551;15771,302;    0,728;    0,409
904,109;16186,077;    0,182;   -1,409
904,666;15788,943;    2,455;    1,045
905,224;15612,445;    0,182;   -0,409
905,781;15317,401;    0,727;   -0,318
906,338;15421,812;   -1,363;    1,045
906,895;15371,769;    0,637;    2,045
907,453;15259,634;    1,727;    1,136
908,010;15340,773;   -0,909;    0,409
908,567;15014,275;    1,273;    0,591
909,124;14538,959;    0,364;   -1,500
909,681;14604,188;   -2,909;    0,682
910,238;14730,872;    0,636;   -1,318
910,795;15040,101;   -0,273;   -1,136
911,352;14711,283;   -2,909;   -2,682
911,909;14123,919;   -1,364;   -0,864
912,466;14625,646;   -3,182;    1,500
913,022;14127,828;   -1,636;    0,500
913,579;14509,737;   -0,909;    2,045
914,136;14216,010;    1,636;    0,955
914,692;14540,737;    0,091;   -1,227
915,249;14133,646;    1,455;    0,409
915,806;14360,465;    0,182;    1,955
916,362;14126,737;    1,909;    1,864
916,918;13695,374;    2,000;    1,045
917,475;13622,010;   -1,182;    0,955
918,031;13712,192;    3,364;   -0,045
918,587;13193,828;   -0,909;   -0,318
919,144;13434,010;   -2,273;    0,227
919,700;13734,556;    1,727;    0,773
920,256;13317,919;    0,727;    0,045
920,812;12951,283;   -0,727;   -1,045
921,368;12939,374;   -1,727;   -1,045
921,924;12601,828;    0,182;   -0,136
922,480;12183,010;   -0,545;    1,227
923,036;12794,010;    1,273;    1,955
923,592;12684,556;    0,455;    0,318
924,148;12639,556;    0,455;   -0,955
924,704;11939,828;   -1,364;   -0,409
925,259;12235,919;   -0,273;    0,591
925,815;11972,828;    1,455;    0,500
926,371;11523,101;    2,909;    1,409
926,926;11429,101;    2,091;    0,591
927,482;11047,556;   -1,364;    0,773
928,037;10940,646;    0,909;    2,045
928,593;11221,737;    1,636;    1,045
929,148;11050,465;   -1,818;   -1,500
929,704;10545,646;   -1,455;   -0,500
930,259;10752,737;    0,091;   -0,136
930,814; 9862,465;   -0,818;    1,955
931,369; 9531,919;    1,091;   -0,773
931,925; 9436,283;   -0,091;    0,136
932,480; 9353,646;   -2,818;   -2,591
933,035; 9242,919;    0,545;   -0,318
933,590; 9011,828;    0,364;   -1,773
934,145; 8664,556;   -1,364;   -0,318
934,700; 9019,828;    0,455;   -0,591
935,255; 8820,192;   -0,091;    0,045
935,809; 8093,919;    3,182;    0,864
936,364; 7272,192;   -0,455;   -0,136
936,919; 7235,374;    0,455;   -1,773
937,474; 7119,465;    1,455;    0,136
938,028; 6884,556;   -1,636;    1,136
938,583; 6350,828;    1,818;    4,682
939,138; 6654,919;    2,091;    2,136
939,692; 6121,283;    1,636;   -1,136
940,247; 5807,192;   -0,727;   -1,045
940,801; 5354,192;   -0,636;    0,227
941,355; 5254,828;   -0,364;    2,591
941,910; 4956,465;   -0,273;   -2,136
942,464; 5056,465;   -0,818;   -0,318
943,018; 4822,828;    1,000;   -0,227
943,572; 4759,374;    2,545;   -0,682
944,126; 4221,465;    0,091;   -0,409
944,681; 4116,646;    3,091;    0,227
945,235; 4110,828;    1,000;   -0,591
945,789; 4045,374;    0,364;   -1,864
946,342; 4134,737;    0,455;   -0,591
946,896; 3927,646;   -2,273;    0,955
947,450; 3712,828;    1,545;   -0,227
948,004; 3898,737;    1,727;   -0,045
948,558; 3903,556;    0,273;   -0,864
949,111; 3825,465;   -0,273;   -0,318
949,665; 3860,010;    1,636;   -0,682
950,219; 3731,010;   -0,091;   -1,045
950,772; 3809,737;   -1,909;    1,864
951,326; 3726,737;    0,545;   -0,955
951,879; 3835,828;    0,727;   -2,318
952,433; 3829,192;    0,000;    2,227
952,986; 3654,556;    2,909;    0,682
953,539; 3620,192;   -0,273;    0,591
954,093; 3555,101;    0,545;   -1,318
954,646; 3703,010;    0,909;    1,318
955,199; 3511,828;    0,000;   -0,500
955,752; 3419,374;   -0,455;    1,773
956,305; 3366,283;   -0,091;    2,955
956,858; 3512,556;    0,818;   -0,318
957,411; 3685,192;   -0,545;    2,136
957,964; 3505,101;    1,364;    2,136
958,517; 3516,556;   -1,545;    3,136
959,070; 3355,283;   -0,455;    1,955
959,623; 3412,737;    1,091;    1,500
960,176; 3205,646;    1,727;    2,045
960,728; 3188,192;   -2,727;    0,773
961,281; 3233,101;    0,545;    0,500
961,834; 3282,010;   -0,909;    0,864
962,386; 3196,283;    1,727;    1,045
962,939; 3131,465;    0,364;   -0,318
963,491; 3275,556;    0,455;    1,136
964,043; 3133,646;    1,182;    2,409
964,596; 3252,010;   -1,000;    2,227
965,148; 3104,828;   -1,000;    1,773
965,700; 3032,192;    1,091;   -0,227
966,253; 3179,010;   -0,636;    0,318
966,805; 3022,556;   -2,273;    0,773
967,357; 3075,010;    1,091;   -1,500
967,909; 3041,283;    0,455;   -1,227
968,461; 3142,919;    0,545;    3,136
969,013; 3070,374;   -0,182;   -0,864
969,565; 3134,465;   -0,455;   -1,136
970,117; 3203,283;   -0,364;    1,045
970,669; 3046,646;    0,182;   -0,136
971,220; 2919,101;   -0,455;   -1,500
971,772; 2846,737;   -0,636;   -0,318
972,324; 2962,919;    0,091;   -0,500
972,876; 2905,283;    0,818;   -0,045
973,427; 3044,192;    1,909;   -1,045
973,979; 3017,556;   -0,727;   -2,500
974,530; 3052,646;    1,818;    1,318
975,082; 3040,192;   -0,545;    1,682
975,633; 2957,010;    1,091;    1,682
976,184; 3099,192;    0,909;    0,773
976,736; 2889,192;    0,091;    0,227
977,287; 2699,828;   -0,909;   -0,500
977,838; 2872,919;    0,909;   -0,318
978,389; 2933,192;   -1,000;   -0,500
978,940; 2809,737;    0,545;   -0,409
979,491; 2838,101;    0,091;   -0,500
980,042; 2801,101;    0,182;    3,045
980,593; 2855,828;   -2,545;    0,227
981,144; 2880,919;    2,545;   -0,500
981,695; 2863,465;    1,455;    1,500
982,246; 2828,101;   -0,273;    1,045
982,797; 2965,192;   -1,727;    0,682
983,347; 3063,828;    0,364;    0,591
983,898; 3229,556;    3,091;    0,409
984,449; 3066,828;    2,182;    0,773
984,999; 2978,010;    1,455;   -1,136
985,550; 2773,465;    0,182;   -0,318
986,100; 2803,828;   -0,455;   -0,318
986,651; 2849,010;   -0,818;    0,045
987,201; 2817,737;   -1,000;   -0,591
987,751; 2900,192;    0,818;    2,864
988,302; 2871,465;    2,636;    1,500
988,852; 2907,556;    0,455;   -1,136
989,402; 2958,010;    0,091;    0,682
989,952; 2861,828;   -2,182;    0,864
990,502; 2969,646;   -0,091;    0,682
991,052; 2938,646;   -0,727;    0,045
991,602; 2813,283;   -2,909;    1,318
992,152; 2812,283;    0,455;    0,682
992,702; 2789,828;    1,364;   -0,045
993,252; 2707,737;   -3,000;   -0,500
993,802; 2793,646;   -0,273;    1,318
994,352; 3025,919;   -1,545;    1,136
994,901; 3114,283;   -0,182;    3,227
995,451; 3029,192;   -0,182;    0,318
996,000; 3130,556;    1,636;    0,318
996,550; 2845,828;    2,273;    0,227
997,100; 2842,010;    1,273;   -0,045
997,649; 3095,556;    2,182;    0,955
998,198; 2756,919;    1,727;   -1,500
998,748; 2957,465;    1,091;   -2,318
999,297; 2864,374;   -0,818;   -0,409
999,846; 2915,283;    1,000;   -0,773
1000,395; 2958,465;   -0,818;    0,500
1000,945; 2921,010;    1,818;   -0,773
1001,494; 3005,737;    2,364;    0,682
1002,043; 2993,101;    4,636;    0,864
1002,592; 2855,283;   -1,091;    1,955
1003,141; 3006,283;   -0,455;   -0,682
1003,690; 2843,192;    1,727;    0,500
1004,238; 2905,465;    1,455;   -0,045
1004,787; 2570,101;    1,364;    1,227
1005,336; 2803,465;    0,364;    0,682
1005,885; 2929,828;    1,364;   -2,773
1006,433; 3071,919;    0,545;    0,955
1006,982; 3137,465;    0,455;    1,682
1007,531; 3039,101;   -1,818;   -0,227
1008,079; 2980,646;   -2,273;    0,500
1008,627; 3137,828;   -1,455;    0,409
1009,176; 2894,192;    0,000;   -1,955
1009,724; 2942,737;    1,091;    0,864
1010,273; 2992,737;    1,273;    0,500
1010,821; 3087,192;    0,091;    1,409
1011,369; 2832,101;   -1,364;    1,318
1011,917; 2800,737;   -1,364;   -0,591
1012,465; 3076,919;    1,273;   -1,591
1013,013; 3189,919;    2,091;   -1,682
1013,561; 3073,192;    0,455;   -0,773
1014,109; 3133,919;   -1,909;    1,682
1014,657; 3005,737;    0,364;    0,591
1015,205; 3139,646;    1,636;   -0,955
1015,753; 3182,101;   -0,545;   -1,409
1016,301; 3213,374;   -2,636;    3,045
1016,848; 3199,010;   -1,273;    0,409
1017,396; 3244,101;    2,545;    0,045
1017,944; 3355,646;    1,182;    1,864
1018,491; 3147,374;    0,273;    1,409
1019,039; 3283,010;    0,455;    0,591
1019,586; 3200,192;   -1,364;    1,682
1020,134; 3293,646;    0,455;    1,500
1020,681; 3299,192;    0,182;   -1,136
1021,228; 3326,646;    2,909;   -2,227
1021,776; 3158,374;    1,182;   -1,136
1022,323; 3377,374;    0,455;    0,773
1022,870; 3317,646;   -1,000;   -0,045
1023,417; 3213,283;    2,636;    1,864
1023,964; 3362,374;    2,636;    1,227
1024,511; 3206,192;    1,000;    0,773
1025,058; 2993,374;    3,182;   -0,045
1025,605; 3055,646;   -2,273;    3,136
1026,152; 3280,283;    1,727;   -0,591
1026,699; 3013,010;    1,818;    1,318
1027,245; 3169,010;   -0,091;    0,318
1027,792; 3379,646;   -1,000;    1,409
1028,339; 3260,101;    2,364;   -0,045
1028,885; 3109,556;    1,000;   -0,227
1029,432; 3031,828;   -0,091;    0,227
1029,978; 3106,101;   -1,000;   -1,591
1030,525; 3028,556;    1,000;    0,409
1031,071; 3267,374;   -1,364;    1,136
1031,618; 3356,101;    0,364;    1,682
1032,164; 3159,283;   -0,091;    3,045
1032,710; 3198,374;    1,636;   -1,500
1033,256; 3129,283;   -0,636;   -0,136
1033,803; 3096,556;   -0,545;    1,500
1034,349; 2855,101;   -1,364;    0,136
1034,895; 3006,737;    0,000;   -0,318
1035,441; 2972,919;   -0,818;    0,318
1035,987; 2952,374;   -2,364;   -0,682
1036,533; 2957,919;   -1,455;   -0,955
1037,078; 3174,919;    1,455;    1,682
1037,624; 2996,010;    2,455;   -0,955
1038,170; 3015,737;    0,455;   -0,318
1038,716; 2931,465;    1,636;   -0,409
1039,261; 2850,374;   -2,273;   -0,773
1039,807; 2785,646;   -0,091;    3,409
1040,352; 2861,101;   -1,909;   -0,318
1040,898; 2894,010;   -1,545;   -0,682
1041,443; 2793,283;   -1,455;   -2,591
1041,989; 2825,737;    1,091;    1,591
1042,534; 2718,101;   -0,364;    2,591
1043,079; 2829,465;    2,909;    0,955
1043,625; 2608,192;    1,818;    0,500
1044,170; 2661,010;   -1,364;    1,045
1044,715; 2914,283;    2,455;    0,955
1045,260; 2728,192;    2,182;   -0,955
1045,805; 2774,010;    1,182;   -0,591
1046,350; 2714,283;    1,364;   -0,409
1046,895; 2684,828;    2,909;    1,591
1047,440; 2626,919;    5,364;    0,409
1047,985; 2538,919;    2,818;   -0,955
1048,530; 2438,919;    1,545;    1,227
1049,074; 2513,737;    0,000;    0,318
1049,619; 2498,374;   -1,364;    1,955
1050,164; 2300,646;    0,455;    0,227
1050,708; 2357,556;   -0,455;    0,045
1051,253; 2707,646;    1,273;   -2,227
1051,797; 2410,646;    0,818;   -1,318
1052,342; 2427,374;   -1,182;    1,045
1052,886; 2413,737;    0,364;   -1,409
1053,430; 2313,919;   -1,364;    0,136
1053,975; 2325,101;   -0,818;   -0,318
1054,519; 2304,646;   -0,727;    3,227
1055,063; 2303,101;    0,909;    1,318
1055,607; 2184,919;   -0,182;    0,227
1056,151; 2216,192;    2,909;    1,682
1056,695; 2142,192;    2,273;   -1,136
1057,239; 2208,556;   -1,727;   -0,682
1057,783; 2214,737;    0,818;   -1,500
1058,327; 2160,919;    0,000;    1,409
1058,871; 2380,646;   -0,545;    1,318
1059,415; 2101,010;   -0,818;   -0,045
1059,958; 2353,374;    1,455;    2,591
1060,502; 2076,101;   -1,000;   -0,773
1061,046; 1998,010;    0,364;   -0,955
1061,589; 1980,192;   -3,000;   -1,136
1062,133; 1861,101;   -1,273;    1,864
1062,676; 1798,828;    1,182;    0,864
1063,220; 1806,374;    1,091;    0,500
1063,763; 1823,374;    0,909;    1,136
1064,306; 1899,646;   -0,909;    1,864
1064,849; 1778,556;   -0,909;    0,591
1065,393; 1792,283;    2,000;   -1,500
1065,936; 1904,374;    0,182;   -0,409
1066,479; 1788,919;   -1,455;    1,318
1067,022; 1803,192;   -0,273;   -0,227
1067,565; 1721,828;   -0,091;   -1,318
1068,108; 1749,646;    0,727;   -0,591
1068,651; 1725,101;   -0,636;    1,409
1069,194; 1650,192;   -0,455;   -1,682
1069,736; 1654,192;   -1,273;    0,955
1070,279; 1626,374;   -1,364;   -0,500
1070,822; 1664,192;   -2,000;   -0,318
1071,364; 1737,283;   -0,364;    1,318
1071,907; 1570,646;   -0,727;    3,227
1072,450; 1492,010;    0,000;   -0,045
1072,992; 1463,556;   -0,273;    3,136
1073,535; 1620,556;    2,091;    2,136
1074,077; 1419,010;   -0,727;    2,045
1074,619; 1376,010;   -1,364;    0,591
1075,161; 1417,646;   -1,091;    1,500
1075,704; 1586,828;    1,545;    1,227
1076,246; 1380,101;   -0,182;    0,682
1076,788; 1313,556;   -0,364;    1,773
1077,330; 1381,737;    1,273;    2,136
1077,872; 1351,828;    0,909;    0,955
1078,414; 1574,828;    2,727;    0,773
1078,956; 1311,556;    1,273;   -0,227
1079,498; 1576,828;    1,636;    0,318
1080,040; 1283,374;    1,909;   -1,318
1080,581; 1228,374;    1,636;   -0,318
1081,123; 1157,465;    0,091;   -0,773
1081,665; 1200,465;   -1,182;   -0,955
1082,206; 1492,828;    1,364;   -0,500
1082,748; 1344,283;    0,727;    2,045
1083,289; 1227,192;   -2,000;    1,318
1083,831; 1138,283;   -0,545;    0,227
1084,372; 1177,283;    0,000;    0,591
1084,913; 1177,646;    1,091;    0,864
1085,455; 1144,646;   -1,909;   -2,045
1085,996; 1128,101;   -2,273;    0,136
1086,537; 1137,828;   -0,091;    0,864
1087,078; 1154,465;   -0,909;   -2,136
1087,619; 1201,010;   -1,273;    0,227
1088,160; 1127,101;    0,000;    1,318
1088,701; 1114,737;   -1,091;    0,682
1089,242; 1053,010;    1,364;   -2,227
1089,783; 1146,646;   -0,273;    1,409
1090,324; 1115,101;    0,455;    0,682
1090,865; 1005,556;    2,727;   -0,409
1091,405;  969,919;    0,727;    2,227
1091,946;  991,192;    0,182;   -0,955
1092,487;  914,828;    0,818;   -1,409
1093,027; 1074,646;   -1,364;   -1,500
1093,568;  932,465;   -0,364;    1,227
1094,108; 1023,101;    0,273;    1,773
1094,649;  964,192;   -1,182;    0,136
1095,189;  904,556;   -0,636;   -0,682
1095,729;  859,010;   -0,091;    0,955
1096,269;  879,465;    0,727;   -0,955
1096,810; 1178,465;   -1,364;    0,500
1097,350; 1000,101;    1,364;   -0,773
1097,890;  904,010;    0,364;    1,227
1098,430; 1163,374;    2,364;    2,864
1098,970; 1026,101;    2,182;    1,682
1099,510;  888,101;    0,545;   -2,318
1100,050;  823,556;    1,000;   -1,591
1100,589;  792,283;   -0,727;   -0,318
1101,129;  914,737;    0,818;   -0,955
1101,669; 1065,101;    1,727;    2,136
1102,209;  882,828;   -0,091;    2,227
1102,748;  845,192;    0,000;    0,955
1103,288;  820,737;    1,273;   -1,227
1103,827;  856,465;    3,091;   -2,227
1104,367;  735,374;   -0,091;   -2,409
1104,906;  700,465;    1,364;   -1,136
1105,445;  764,010;    0,636;   -1,136
1105,985;  711,556;   -0,727;    1,500
1106,524;  763,556;   -1,727;   -0,682
1107,063;  745,010;   -2,727;    1,409
1107,602;  716,192;   -1,909;   -1,500
1108,141;  637,556;   -1,909;    1,500
1108,680;  731,646;   -3,455;   -0,591
1109,219;  675,101;   -0,909;   -0,500
1109,758;  669,283;    0,455;    0,682
1110,297;  653,283;    1,000;   -0,682
1110,836;  585,737;   -0,727;    0,955
1111,375;  744,828;   -2,545;    0,409
1111,913;  763,556;   -1,000;    0,773
1112,452;  700,283;   -0,273;    0,136
1112,991;  583,101;    1,091;    1,955
1113,529;  539,828;   -0,818;   -0,045
1114,068;  610,465;   -0,273;    2,955
1114,606;  516,283;   -0,364;   -0,955
1115,144;  675,556;   -1,273;    1,045
1115,683;  609,556;   -0,727;    0,318
1116,221;  657,101;   -0,455;   -0,864
1116,759;  577,101;    0,636;   -0,864
1117,297;  773,828;    0,000;    1,864
1117,836;  579,283;   -2,182;   -1,227
1118,374;  580,465;    0,182;   -0,682
1118,912;  519,010;    0,909;    2,682
1119,450;  520,465;    1,000;    0,864
1119,988;  574,374;    1,545;    2,136
1120,525; 1025,737;    5,091;    3,318
1121,063;  719,010;    1,182;    1,864
1121,601;  523,556;   -0,909;   -1,227
1122,139;  474,374;   -0,727;   -2,045
1122,676;  677,737;   -0,727;    2,773
1123,214;  608,283;   -1,182;    4,409
1123,751;  427,646;    1,727;    2,227
1124,289;  548,556;   -0,091;   -0,409
1124,826;  422,646;    1,727;    0,227
1125,364;  354,283;    1,727;   -0,955
1125,901;  533,556;    1,182;    1,227
1126,438;  641,919;    0,818;    0,955
1126,975;  375,737;   -0,727;   -0,773
1127,513;  439,556;    0,273;    2,136
1128,050;  355,283;    1,636;   -0,682
1128,587;  452,283;    2,000;   -0,227
1129,124;  495,556;    0,091;    1,318
1129,661;  366,828;    0,273;    0,227
1130,198;  522,283;    1,636;    0,773
1130,734;  466,192;    0,182;    1,409
1131,271;  332,374;   -0,909;    0,864
1131,808;  508,101;    2,909;    3,045
1132,345;  374,010;    1,545;    0,318
1132,881;  245,737;   -1,545;   -1,864
1133,418;  376,828;    0,727;   -1,136
1133,954;  317,828;    2,455;   -2,682
1134,491;  391,101;    1,364;   -0,773
1135,027;  299,919;    2,364;    0,864
1135,564;  388,828;    0,273;    2,955
1136,100;  369,919;    0,364;    2,136
1136,636;  268,737;   -1,273;   -1,045
1137,172;  350,465;    0,000;   -1,045
1137,708;  285,010;   -1,364;   -1,045
1138,245;  287,646;    1,273;   -1,227
1138,781;  231,192;    1,091;   -3,318
1139,317;  307,737;    1,273;   -1,409
1139,852;  290,919;    3,091;    0,136
1140,388;  401,010;   -1,182;   -0,409
1140,924;  285,556;   -1,091;   -2,227
1141,460;  226,556;   -1,636;    0,136
1141,996;  163,646;   -1,364;    2,682
1142,531;  212,101;    1,364;    3,318
1143,067;  420,374;    1,182;    1,045
1143,602;  471,828;   -0,091;   -0,318
1144,138;  324,828;   -2,636;    1,045
1144,673;  195,374;   -1,455;    1,409
1145,209;  261,010;   -1,909;   -0,318
1145,744;  171,283;   -0,727;    0,864
1146,279;  310,556;    1,818;   -0,136
1146,815;  231,556;    1,545;   -2,682
1147,350;  267,919;   -1,364;    0,045
1147,885;  182,828;   -0,818;   -1,318
1148,420;  190,465;   -2,273;    0,773
1148,955;  167,646;   -1,727;    1,864
1149,490;  195,828;   -0,909;   -1,591
1150,025;  174,919;    0,455;   -1,773
1150,560;  289,283;    1,091;   -0,955
1151,094;  255,556;    1,455;   -0,591
1151,629;  260,374;    1,636;    0,864
1152,164;  180,192;    1,364;    1,318
1152,698;  143,374;   -0,182;   -0,136
1153,233;  109,465;    0,091;   -0,682
1153,767;  162,465;   -3,000;   -2,318
1154,302;  193,465;   -1,455;    1,773
1154,836;  195,919;   -0,455;   -2,136
1155,371;  248,192;   -1,364;    3,682
1155,905;  208,828;   -0,636;    1,682
1156,439;  167,919;   -0,636;   -0,500
1156,973;  197,192;    0,364;    0,318
1157,507;  139,737;   -0,364;    0,682
1158,042;  162,465;   -0,727;    1,045
1158,576;  209,556;    0,182;    1,773
1159,110;  201,010;   -0,818;    2,409
1159,643;  174,465;    0,636;   -0,045
1160,177;  113,828;   -1,545;    1,500

