
Integration time [ms]:   0,040
Averaging Nr. [scans]: 11
Smoothing Nr. [pixels]: 0
Data measured with spectrometer [name]: 7318044SP
Wave   ;Sample   ;Dark     ;Reference
[nm]   ;[counts] ;[counts] ;[counts] 

186,757;   27,074;   31,551;    1,318
187,357;   59,084;   22,551;    0,955
187,958;   37,966;   15,460;   -1,591
188,558;   76,345;    8,915;   -1,227
189,159;   47,450;    6,733;   -4,500
189,759;   12,328;    7,278;   -3,591
190,360;    7,719;    2,824;   -2,136
190,960;   46,412;    2,915;   -4,136
191,560;   60,732;    3,189;   -6,591
192,161;  291,971;    4,372;   -3,500
192,761;  138,007;    4,010;   -3,227
193,361;   92,478;    1,556;   -3,773
193,962;  139,865;    2,010;   -2,682
194,562;   65,908;    1,189;   -3,955
195,162;   95,095;   -2,448;   -2,227
195,762;  250,989;   -3,176;   -0,045
196,362;  198,907;    1,370;   -2,500
196,963;   71,769;    2,006;   -0,864
197,563;  149,255;    1,551;   -0,955
198,163;   90,676;    0,096;   -0,682
198,763;  112,512;    1,733;   -0,500
199,363;  211,483;    3,096;   -0,500
199,963;  172,962;    0,369;    0,409
200,563;  150,275;    2,823;   -1,409
201,163;  127,954;    3,277;   -0,227
201,763;  210,405;    3,732;    0,318
202,363;  150,745;    1,459;    1,500
202,963;  251,636;    1,459;    1,045
203,563;  348,204;    0,277;    0,500
204,162;  216,207;    2,096;   -1,864
204,762;  205,513;    0,550;    0,591
205,362;  174,105;    3,004;    1,955
205,962;  274,135;    3,096;    1,955
206,562;  270,402;    1,823;    2,318
207,161;  236,127;   -0,087;    0,318
207,761;  390,796;    1,277;    2,409
208,361;  264,936;   -0,268;    1,409
208,960;  361,550;    0,459;    1,500
209,560;  426,969;    1,277;    1,591
210,160;  420,322;    0,550;    1,864
210,759;  379,073;    4,186;    1,227
211,359;  386,617;    1,459;    1,045
211,958;  641,870;    1,277;    2,045
212,558;  723,866;    1,732;    1,864
213,157;  560,330;    1,822;    1,500
213,757;  989,167;    3,822;   -0,227
214,356;  701,913;    1,277;   -0,409
214,956; 1022,678;    3,095;    0,409
215,555;  665,898;    2,095;    2,136
216,154;  601,292;   -2,723;   -0,591
216,754;  593,291;    0,277;    0,773
217,353;  720,790;   -0,268;   -1,045
217,952;  593,975;   -0,178;    0,318
218,552;  821,884;    1,368;   -0,773
219,151;  720,560;    0,277;    0,955
219,750;  726,090;    0,004;   -0,227
220,349;  838,676;   -0,451;    1,045
220,948;  902,868;   -1,360;    1,136
221,548;  902,153;    0,913;    1,227
222,147; 1005,997;   -0,087;   -0,409
222,746; 1287,411;   -0,451;   -0,955
223,345; 1162,779;    0,731;    0,500
223,944; 1152,643;   -0,451;    0,773
224,543; 1320,906;    1,004;   -1,409
225,142; 1429,036;    0,094;    0,136
225,741; 1331,800;   -0,814;    1,045
226,340; 1339,834;   -0,451;   -0,955
226,939; 1757,087;   -0,996;   -0,136
227,538; 1679,464;   -0,360;   -0,773
228,137; 1825,777;   -0,814;    0,864
228,735; 1922,595;   -0,541;    1,227
229,334; 1692,684;   -0,905;   -0,227
229,933; 2051,292;    0,459;    0,591
230,532; 2152,465;    1,186;   -0,409
231,131; 2213,762;    1,732;    0,318
231,729; 2290,925;   -2,450;   -2,318
232,328; 2357,710;   -0,723;   -1,500
232,927; 2404,182;    1,004;   -0,500
233,525; 2509,062;    3,640;    0,045
234,124; 2695,525;    2,368;   -1,591
234,723; 2712,168;    0,913;   -1,045
235,321; 2824,513;    2,277;    0,136
235,920; 3012,562;    1,186;   -1,227
236,518; 3282,816;    3,459;    0,318
237,117; 3409,486;    0,004;   -0,227
237,715; 3559,200;    0,640;   -0,500
238,314; 3601,376;   -0,087;   -2,318
238,912; 3717,225;   -0,723;   -1,409
239,510; 3746,768;    0,459;   -1,227
240,109; 3941,297;    0,004;    3,773
240,707; 3957,907;   -0,996;    1,227
241,305; 4268,761;    0,550;    0,136
241,904; 4481,761;   -0,178;   -2,045
242,502; 4459,763;   -0,632;   -0,227
243,100; 4408,108;   -0,087;   -0,955
243,698; 4648,185;    0,732;    1,682
244,297; 4848,140;   -0,632;    0,682
244,895; 4714,784;   -0,269;   -2,318
245,493; 5029,489;    2,186;   -0,591
246,091; 5085,455;    1,368;   -1,318
246,689; 5042,000;    1,004;    0,591
247,287; 5202,150;    0,822;   -1,136
247,885; 5486,620;   -1,451;    1,227
248,483; 5631,664;    1,822;   -0,500
249,081; 5715,877;    0,185;    1,591
249,679; 5865,359;   -0,178;    1,682
250,277; 6113,706;   -1,723;    0,864
250,875; 6117,017;   -1,087;   -1,045
251,473; 6143,609;   -1,178;    0,500
252,071; 6337,119;    1,459;    1,045
252,669; 6494,916;   -1,814;    0,318
253,267; 6735,578;   -0,087;    0,773
253,864; 6669,150;   -0,360;    0,682
254,462; 6598,254;    1,640;    1,591
255,060; 6553,978;   -0,269;    1,318
255,658; 6886,643;    0,822;   -0,136
256,255; 7269,149;    0,186;   -2,045
256,853; 7129,893;   -0,269;    1,409
257,451; 7126,578;    0,822;    1,864
258,048; 7393,302;    1,822;    1,864
258,646; 7177,435;    1,731;   -1,045
259,243; 7379,165;   -0,087;    2,227
259,841; 7395,704;   -0,814;    0,318
260,438; 7296,408;   -0,087;    0,864
261,036; 8005,625;   -1,905;    1,409
261,633; 7913,281;   -0,087;    2,227
262,231; 7695,126;    2,731;   -0,045
262,828; 7789,257;   -0,905;    1,136
263,425; 7802,482;    0,913;   -0,591
264,023; 8075,432;    0,186;    0,045
264,620; 7644,615;   -0,360;   -0,318
265,217; 7959,735;   -2,087;    3,136
265,815; 8087,602;   -1,905;    2,136
266,412; 7884,918;    0,731;    0,136
267,009; 7936,123;   -1,451;    0,773
267,606; 7851,435;    0,822;   -0,955
268,203; 7850,295;   -0,269;   -0,591
268,801; 8097,309;    1,731;    0,591
269,398; 8380,198;   -0,360;    2,500
269,995; 8342,438;    0,277;    1,591
270,592; 8131,351;   -0,632;   -0,500
271,189; 8322,411;    0,186;    0,409
271,786; 8449,786;   -0,632;    1,227
272,383; 8304,718;   -1,087;    0,227
272,980; 8438,003;    0,277;    0,318
273,577; 8916,160;    0,004;    1,227
274,174; 8492,739;    0,822;    2,591
274,771; 8454,825;   -0,814;   -0,773
275,367; 8598,250;    2,277;    1,409
275,964; 8560,593;    0,731;   -0,500
276,561; 8668,100;    1,549;   -1,045
277,158; 8861,904;    0,095;   -1,773
277,755; 9019,695;    2,185;    0,409
278,351; 8417,525;   -0,451;   -1,500
278,948; 8708,391;   -0,815;    0,045
279,545; 8723,321;   -1,360;    2,318
280,141; 9360,757;   -1,723;   -2,045
280,738; 9223,823;   -0,451;   -0,136
281,334; 9486,198;   -1,633;    0,591
281,931; 8867,375;   -0,087;   -1,318
282,528; 9000,129;    0,822;   -0,500
283,124; 9675,890;   -1,087;   -0,500
283,721; 9578,553;   -0,451;    1,409
284,317; 9410,255;    0,185;    2,500
284,913; 9955,888;   -1,360;    0,591
285,510;10137,615;    0,640;   -0,318
286,106;10169,211;   -2,269;   -0,955
286,703; 9801,358;   -0,360;    1,955
287,299;10020,522;   -1,451;   -0,591
287,895;10229,646;    0,822;   -1,045
288,491;10775,744;    0,186;    2,136
289,088;10527,265;   -2,360;    2,409
289,684;10593,825;   -1,723;    1,500
290,280;10584,391;    0,368;    0,682
290,876;10685,402;    1,822;    5,500
291,472;10600,571;    1,276;    2,227
292,068;10695,395;    1,367;    0,227
292,665;10455,613;    2,095;    0,773
293,261;10042,412;    0,276;    2,136
293,857;10453,935;    2,913;    2,136
294,453;10425,110;    3,550;    0,955
295,049;10284,856;   -0,268;    1,955
295,644;10315,938;    0,095;    0,136
296,240;10219,076;   -0,905;   -0,136
296,836;10297,696;   -0,995;    0,318
297,432;10571,349;    1,096;   -0,500
298,028;10609,956;    0,732;    0,773
298,624;11008,971;    1,459;    1,864
299,220;11226,661;    2,368;    0,591
299,815;10912,549;    1,005;   -0,409
300,411;10730,129;    0,914;    1,773
301,007;10744,408;    1,368;    0,227
301,602;10828,394;   -0,541;   -2,318
302,198;10948,491;    0,732;   -0,773
302,794;11305,628;    1,187;   -0,500
303,389;11416,812;   -1,177;    1,045
303,985;11494,329;    0,550;    1,409
304,580;11456,264;    1,459;    1,591
305,176;11421,917;   -3,086;    0,136
305,771;11337,772;   -1,268;   -1,227
306,367;11203,383;    4,095;    0,136
306,962;11547,485;    0,641;    1,500
307,558;11245,060;   -0,450;    0,136
308,153;11192,736;    1,095;   -1,136
308,748;11403,973;   -0,814;    1,682
309,344;11376,414;   -0,632;   -1,318
309,939;11472,529;   -1,905;   -1,318
310,534;11750,471;   -0,086;   -1,682
311,130;11619,944;    0,459;   -2,500
311,725;11384,132;    1,004;   -0,500
312,320;11694,002;    2,459;    0,045
312,915;11573,472;    1,459;   -1,045
313,510;11613,709;    1,550;   -0,500
314,105;12111,684;    1,096;    1,409
314,700;11530,599;   -3,086;   -1,045
315,295;11152,536;   -0,904;    0,045
315,890;10772,575;    1,277;    0,864
316,485;11102,316;   -0,359;   -0,318
317,080;11244,396;   -3,086;    1,591
317,675;11794,548;    2,005;   -0,682
318,270;11187,677;    5,550;    3,318
318,865;11219,767;    3,278;    3,045
319,460;11039,727;   -0,904;    0,591
320,055;11288,366;   -0,541;   -1,227
320,650;10935,696;   -1,995;   -0,591
321,244;11010,006;   -0,177;   -1,409
321,839;11941,510;   -1,541;   -0,227
322,434;11768,002;   -1,086;   -1,591
323,029;11396,802;    1,732;    1,591
323,623;11214,701;    1,550;    0,773
324,218;10991,161;    2,368;    1,409
324,812;10908,083;    1,096;    1,591
325,407;10692,182;   -0,814;    2,045
326,002;10610,517;    0,277;   -0,409
326,596;10954,324;    0,914;    1,318
327,191;11113,513;    0,823;   -1,045
327,785;10714,051;   -0,813;   -0,227
328,379;10951,089;    1,368;    0,136
328,974;10749,847;    0,914;   -3,955
329,568;11006,206;    0,186;   -2,409
330,163;10821,653;    2,096;    1,045
330,757;11184,833;    2,459;    1,591
331,351;10531,491;    0,459;    0,682
331,945;10828,264;    0,914;    1,409
332,540;10420,856;   -1,723;   -0,591
333,134;10567,349;   -1,086;    0,773
333,728;10852,734;    0,005;    0,318
334,322;11172,936;   -1,177;   -0,864
334,916;10468,327;    0,277;    0,955
335,510;10812,702;   -0,450;   -0,136
336,105;11033,967;   -1,086;    1,591
336,699;10737,585;   -1,086;    0,591
337,293;10741,386;   -1,723;    0,318
337,887;10839,487;   -2,723;    1,955
338,481;10926,249;    0,459;    0,591
339,074;11115,235;   -0,359;    2,682
339,668;10937,655;   -1,632;    1,227
340,262;11188,926;    1,732;    3,227
340,856;10736,668;    1,822;   -0,682
341,450;10101,189;    1,004;    1,864
342,044;10988,113;    1,459;    0,136
342,637;10779,843;    0,913;   -2,136
343,231;10643,548;   -2,360;    0,682
343,825;10593,039;   -1,086;   -0,591
344,419;10560,359;   -1,995;    0,500
345,012;10347,019;    2,459;    4,045
345,606;10368,711;    4,641;    1,591
346,199;10217,459;   -1,813;   -0,227
346,793; 9747,334;    1,914;    2,045
347,386; 9965,779;   -0,813;   -1,136
347,980; 9958,174;   -0,268;   -0,045
348,573; 9766,313;    2,278;    0,409
349,167; 9451,723;    5,278;    4,773
349,760; 9791,664;    2,914;    2,682
350,354; 9762,296;   -0,813;    1,136
350,947; 9522,342;    1,096;    1,682
351,540; 9196,462;   -0,358;   -1,409
352,134; 9165,240;    1,096;    1,136
352,727; 9236,079;   -0,086;    1,136
353,320; 9055,457;    0,005;    0,591
353,913; 8868,492;   -1,995;    1,864
354,507; 9034,768;    0,823;   -1,227
355,100; 9078,673;    0,460;    0,864
355,693; 8325,099;    2,005;    2,409
356,286; 8377,331;    0,823;    2,773
356,879; 8739,484;   -0,722;    1,227
357,472; 8325,971;   -0,904;    1,500
358,065; 8515,201;   -0,722;    2,500
358,658; 8456,574;   -0,540;    2,318
359,251; 8127,939;   -1,631;   -0,591
359,844; 7640,836;   -1,904;   -1,136
360,437; 7788,553;   -2,995;    0,045
361,030; 8064,818;    1,369;   -0,682
361,623; 7658,192;    2,824;    0,318
362,215; 7672,230;   -0,086;    2,045
362,808; 7515,325;   -2,358;   -1,682
363,401; 7723,337;   -2,449;    0,136
363,994; 7481,481;   -0,631;   -1,500
364,586; 7427,853;    0,824;   -1,500
365,179; 7597,325;   -0,449;   -1,136
365,772; 7073,982;   -1,995;    2,045
366,364; 7378,999;    1,915;   -3,227
366,957; 7592,237;    2,279;   -0,045
367,549; 7596,168;    2,188;   -0,864
368,142; 7266,785;    1,825;   -1,500
368,734; 7430,141;    0,734;   -2,136
369,327; 7410,218;    1,643;   -0,500
369,919; 7339,708;   -1,538;    0,409
370,512; 7129,156;   -1,083;   -0,500
371,104; 6889,060;   -0,901;    1,591
371,696; 7047,468;    1,191;   -0,955
372,289; 7142,572;    0,373;    1,136
372,881; 7261,910;   -2,080;    1,318
373,473; 7197,112;   -2,170;    1,136
374,066; 7007,343;   -0,169;    0,500
374,658; 6856,807;    0,378;    1,136
375,250; 7199,278;    0,653;   -1,409
375,842; 7038,637;    0,473;   -0,045
376,434; 6933,186;   -0,435;   -0,409
377,026; 7493,984;    0,204;   -2,500
377,618; 7375,458;   -0,158;   -0,682
378,210; 7223,317;   -0,338;   -1,955
378,802; 7057,529;    0,754;   -0,591
379,394; 7031,006;    1,846;    0,682
379,986; 7615,537;    1,393;   -0,955
380,578; 7703,394;   -0,153;    0,773
381,170; 7063,044;   -0,972;    0,045
381,762; 7030,687;    0,755;    1,409
382,354; 7232,098;   -0,065;   -1,318
382,945; 7340,178;   -2,976;    0,318
383,537; 7477,879;   -2,705;   -1,955
384,129; 7487,366;   -2,160;   -1,136
384,721; 7677,561;   -0,252;    0,955
385,312; 7585,166;   -0,161;   -0,955
385,904; 7686,022;   -2,706;    1,591
386,496; 7081,633;   -0,979;    1,045
387,087; 7207,041;    1,022;    2,500
387,679; 7242,655;   -1,160;    0,045
388,270; 7374,729;    2,840;    2,045
388,862; 7493,317;    1,295;   -0,318
389,453; 7370,036;   -0,887;    1,045
390,045; 7637,006;   -0,705;   -2,682
390,636; 7577,773;    0,204;   -0,591
391,227; 7432,162;   -0,523;   -0,045
391,819; 7540,448;    0,204;    0,773
392,410; 7601,527;    1,022;    0,045
393,001; 7520,611;   -0,979;   -1,591
393,593; 7803,471;    1,930;   -0,045
394,184; 7679,249;    1,385;   -0,409
394,775; 7555,917;    1,839;    2,136
395,366; 7755,222;    1,385;    0,773
395,957; 7767,377;    0,113;    0,136
396,548; 8036,033;   -0,342;    2,682
397,139; 8341,639;   -2,433;    0,591
397,730; 8079,918;   -1,888;    0,955
398,321; 8131,209;   -1,252;    0,955
398,912; 8168,882;   -0,615;    0,136
399,503; 8255,911;   -3,524;   -1,409
400,094; 7728,953;    0,294;    1,682
400,685; 7569,236;   -0,433;    0,045
401,276; 7651,230;    0,930;   -0,955
401,867; 7980,972;   -0,888;    0,773
402,458; 8066,471;   -2,251;   -2,318
403,048; 8053,159;    1,112;    0,591
403,639; 7661,681;    0,840;    0,864
404,230; 7931,282;    2,476;    0,318
404,821; 7843,365;   -0,615;    0,045
405,411; 7954,500;    1,203;   -2,591
406,002; 7566,555;   -1,252;   -1,136
406,592; 7426,846;    2,294;    0,045
407,183; 7716,356;    0,566;   -1,500
407,774; 7610,589;    3,475;   -0,136
408,364; 7927,006;    0,930;    0,409
408,954; 7566,347;    0,384;    1,227
409,545; 7602,072;    1,021;    1,045
410,135; 7171,548;    1,293;    0,500
410,726; 7305,798;    1,838;    0,318
411,316; 7666,104;    0,111;    0,773
411,906; 7353,879;   -0,253;   -0,409
412,497; 6842,790;   -1,070;   -0,045
413,087; 7425,035;   -1,980;   -0,227
413,677; 7801,920;   -0,707;    3,864
414,267; 7667,250;    0,656;    1,409
414,857; 7631,982;   -2,980;    4,227
415,448; 7919,978;    0,839;    0,500
416,038; 7614,831;    0,020;   -0,591
416,628; 7598,099;   -0,889;    0,409
417,218; 7073,625;    0,565;    3,318
417,808; 7292,720;    0,202;   -0,409
418,398; 7738,752;    0,020;    2,682
418,988; 7734,361;    2,020;    0,591
419,578; 7944,439;   -0,707;    1,409
420,168; 8285,335;   -1,343;   -0,955
420,757; 7872,554;   -1,343;   -1,500
421,347; 7548,651;    0,111;   -0,227
421,937; 7707,406;    2,292;    1,409
422,527; 7628,871;    0,838;   -0,773
423,116; 7454,872;   -0,253;   -0,045
423,706; 7803,124;   -1,889;    0,318
424,296; 7745,305;    1,384;    0,682
424,885; 8157,396;   -0,071;   -3,045
425,475; 8416,134;    1,474;   -2,864
426,065; 8332,982;   -0,980;   -0,318
426,654; 7983,801;   -0,435;   -0,318
427,244; 8051,622;    0,020;    1,409
427,833; 7526,072;    1,383;   -0,500
428,423; 7944,671;   -0,526;    1,136
429,012; 8683,510;   -0,344;   -1,136
429,601; 8179,915;   -1,344;    0,136
430,191; 8416,198;    1,292;    4,318
430,780; 8052,279;   -0,344;   -0,409
431,369; 7959,825;    0,746;   -0,045
431,959; 8585,404;   -1,254;    0,500
432,548; 8345,437;   -1,163;   -0,045
433,137; 8459,810;   -1,254;   -1,318
433,726; 8946,621;    0,292;    0,500
434,315; 8332,234;   -0,526;    2,409
434,905; 8430,022;   -1,254;    1,409
435,494; 8330,401;    0,746;    0,955
436,083; 8738,413;   -0,981;   -0,955
436,672; 8593,058;    0,110;    0,500
437,261; 8158,681;    0,292;   -1,955
437,850; 8254,734;    1,383;    0,682
438,439; 8266,458;    3,291;    1,955
439,027; 8093,828;    3,655;    1,773
439,616; 8403,147;    2,927;    1,227
440,205; 8261,829;    0,200;   -2,136
440,794; 8296,696;    2,109;   -0,045
441,383; 8520,230;   -1,346;   -0,591
441,971; 8389,681;   -2,436;    0,591
442,560; 8211,184;    0,563;   -1,773
443,149; 7949,247;    0,379;   -1,318
443,737; 8095,455;   -0,074;   -2,318
444,326; 8339,096;    0,018;    0,318
444,915; 8366,668;   -1,982;    0,864
445,503; 8705,660;   -2,891;   -0,318
446,092; 8027,029;    0,382;    2,136
446,680; 8504,768;    0,382;    0,318
447,269; 8645,926;   -0,346;   -0,318
447,857; 8403,123;    0,018;   -1,773
448,445; 8529,886;    0,563;    1,318
449,034; 8742,367;   -1,528;   -1,136
449,622; 8837,549;   -1,073;    3,500
450,210; 8111,309;    2,017;    2,227
450,799; 8573,224;    0,290;   -0,591
451,387; 8498,897;    1,381;   -0,591
451,975; 8175,525;    2,654;    0,864
452,563; 8265,390;    3,472;    2,318
453,151; 8275,957;   -0,528;   -1,227
453,739; 8192,412;   -1,347;    0,136
454,328; 8046,645;    2,381;   -2,136
454,916; 7793,142;    2,562;   -0,136
455,504; 7965,706;    1,017;    1,227
456,092; 8142,818;    0,017;   -1,591
456,679; 8089,426;    1,472;    0,682
457,267; 8030,169;    4,017;    1,045
457,855; 8168,965;    1,017;    1,409
458,443; 7922,711;   -0,165;    1,682
459,031; 8046,063;    0,108;    2,409
459,619; 8450,023;   -1,801;    2,864
460,206; 8549,696;    0,835;    2,045
460,794; 8634,738;   -2,983;   -0,227
461,382; 8811,518;   -0,529;   -0,864
461,970; 8413,912;    1,198;    1,864
462,557; 8456,486;   -0,711;   -0,682
463,145; 8636,993;   -3,165;   -1,682
463,732; 8747,926;    2,016;   -1,045
464,320; 8672,975;   -0,075;   -3,045
464,907; 8372,756;    2,743;   -0,773
465,495; 8245,671;    0,743;   -1,227
466,082; 8393,548;   -1,984;   -0,045
466,670; 8306,642;   -2,529;    1,227
467,257; 8671,650;   -1,711;    2,045
467,844; 8838,778;   -0,075;    0,045
468,432; 8830,630;    0,834;    3,500
469,019; 8374,530;    0,925;   -1,773
469,606; 8798,669;    0,470;    3,682
470,193; 8614,302;   -1,439;    0,227
470,780; 8190,522;   -2,075;    0,864
471,368; 8501,203;   -1,257;   -0,773
471,955; 8314,560;    1,379;   -0,682
472,542; 7998,701;    0,652;   -1,136
473,129; 8180,079;   -0,166;    0,136
473,716; 7918,498;    1,470;    0,591
474,303; 8087,318;    0,652;   -0,864
474,890; 8328,384;   -1,439;   -0,500
475,477; 8313,272;   -1,621;    0,409
476,064; 8193,840;    1,106;   -1,591
476,650; 8105,093;    0,288;    0,318
477,237; 7945,274;   -0,258;    0,955
477,824; 8102,582;   -1,076;    0,864
478,411; 8107,125;   -1,894;   -0,318
478,997; 8253,779;    0,560;   -0,773
479,584; 8261,680;    1,196;   -0,409
480,171; 8857,943;   -0,440;   -0,773
480,757; 8537,995;    2,651;    0,773
481,344; 8789,369;    0,469;    0,409
481,931; 8307,036;    1,105;    1,045
482,517; 9133,465;   -1,258;    0,318
483,104; 9557,195;    1,106;    2,864
483,690; 9780,742;   -1,804;    0,045
484,276;10060,608;   -0,895;    0,227
484,863; 9796,053;    2,469;    1,136
485,449;10322,531;   -0,077;    0,318
486,035;10307,473;   -1,986;   -0,136
486,622;10662,094;   -0,895;    0,045
487,208;10607,710;    1,378;    1,500
487,794;10495,119;    0,741;    0,318
488,380;10581,216;    0,105;   -1,409
488,967;10634,155;   -1,168;   -0,409
489,553;10692,264;   -1,895;   -1,409
490,139;10893,689;    1,559;    0,773
490,725;10433,511;    0,741;   -0,227
491,311;10104,568;    3,287;    3,045
491,897; 9595,116;   -0,986;    1,500
492,483; 9511,516;    0,105;    1,227
493,069; 9380,361;    3,923;    0,864
493,655; 9320,951;    1,650;    0,682
494,241; 9320,826;    1,377;   -0,955
494,826; 9687,081;    0,287;   -1,045
495,412; 9204,930;    2,559;   -0,682
495,998; 9435,151;   -0,805;   -0,318
496,584; 9581,535;    0,377;    1,045
497,169; 9606,513;    1,014;   -0,682
497,755; 9616,328;    0,650;    1,227
498,341;10225,603;    0,559;    0,318
498,926; 9848,857;    1,832;    1,955
499,512;10080,584;    1,286;    2,955
500,097;10246,740;    0,195;   -0,318
500,683;10291,549;   -0,350;    2,136
501,268;10703,127;   -0,169;   -0,955
501,854;10490,651;   -0,169;    1,227
502,439;10491,854;   -0,624;   -1,773
503,024;10724,717;    0,195;    0,500
503,610;10846,473;   -0,078;   -0,682
504,195;10916,966;    0,558;    1,955
504,780;11089,221;    2,922;    1,227
505,366;11009,489;    3,013;    2,864
505,951;10804,388;    0,740;    1,045
506,536;10884,777;   -3,260;   -3,682
507,121;10909,708;    0,285;   -0,318
507,706;11496,346;    2,376;    1,045
508,291;11906,297;    2,649;    1,136
508,876;11436,915;   -0,988;    2,591
509,461;10970,990;   -0,169;   -0,773
510,046;11416,654;    0,194;    0,318
510,631;11699,732;   -0,351;   -0,773
511,216;11428,894;    2,467;   -0,500
511,801;11814,113;   -0,442;    2,591
512,386;12180,617;    0,740;    0,500
512,971;12149,274;   -2,988;    0,955
513,555;11706,593;   -0,897;   -1,500
514,140;12482,356;   -0,442;   -3,136
514,725;12571,350;   -0,715;   -1,136
515,309;12711,527;   -0,533;    0,318
515,894;12195,587;   -0,624;   -2,227
516,479;12658,503;   -0,624;   -0,955
517,063;12530,678;    0,376;    1,227
517,648;12715,318;    1,012;   -1,136
518,232;12347,476;   -0,261;   -1,409
518,817;12691,084;   -0,079;    1,682
519,401;12912,958;    2,194;    0,591
519,985;12458,315;    1,103;    1,136
520,570;12332,632;    0,830;   -1,955
521,154;12631,430;    2,102;    0,591
521,738;12821,906;   -2,352;    2,409
522,323;13412,153;   -0,170;    1,682
522,907;13165,237;    0,466;   -0,136
523,491;12887,785;    0,557;    0,955
524,075;12862,483;    2,284;    0,591
524,659;12977,683;    1,466;    0,591
525,243;12474,171;    1,739;    0,409
525,827;12695,726;    0,648;   -0,045
526,411;13529,592;   -1,989;   -0,136
526,995;13762,023;   -0,352;    1,409
527,579;13355,869;   -0,443;   -1,045
528,163;13646,912;    0,375;   -1,500
528,747;13576,363;    2,466;   -0,773
529,331;13896,117;   -0,080;   -1,409
529,915;14094,035;    1,738;    0,955
530,499;14051,368;   -0,807;    1,227
531,082;13753,232;   -0,534;    1,591
531,666;13197,144;    1,374;    0,773
532,250;13864,243;    1,284;    2,682
532,833;14217,474;    0,920;    2,773
533,417;14075,051;   -1,807;    0,864
534,001;14078,642;    1,647;   -0,318
534,584;14746,870;    0,374;    0,500
535,168;14597,141;    0,465;    1,409
535,751;14603,994;    0,647;    0,045
536,334;14122,092;   -0,898;   -0,409
536,918;14696,393;    0,011;    1,591
537,501;14800,949;   -0,899;    1,318
538,085;14761,045;   -0,444;    1,045
538,668;14932,289;    0,829;    2,409
539,251;15230,259;    1,829;    3,773
539,834;15300,438;    0,101;    0,773
540,418;15216,763;   -1,990;    4,318
541,001;15319,544;   -0,990;    1,773
541,584;15308,731;    2,101;    2,227
542,167;15015,433;    1,374;    2,955
542,750;15136,470;    1,919;   -0,773
543,333;14736,010;    0,555;    2,136
543,916;15498,206;    0,192;    2,500
544,499;16115,183;   -1,354;    0,227
545,082;16116,791;    1,374;    3,591
545,665;16240,088;    1,919;    1,500
546,248;16535,465;    1,010;   -0,318
546,830;16232,249;   -0,445;    1,955
547,413;16647,144;    1,010;   -0,773
547,996;17200,760;    0,555;    0,500
548,579;16971,924;    0,919;    0,955
549,161;16734,260;    1,828;    2,682
549,744;16541,424;   -0,809;    0,409
550,326;17064,880;   -0,809;   -1,136
550,909;16846,042;    2,737;    0,591
551,492;17213,875;   -0,263;    0,227
552,074;17039,897;   -0,173;   -1,318
552,657;17564,230;    2,373;    0,045
553,239;17334,507;   -0,173;   -0,773
553,821;17268,492;   -1,082;    1,045
554,404;16768,108;    1,282;    1,136
554,986;17132,936;    0,464;    1,045
555,568;17736,121;    1,191;   -0,955
556,151;16955,910;    1,191;   -0,227
556,733;17159,114;   -0,264;   -0,864
557,315;17635,683;    0,100;    0,500
557,897;17406,013;    0,554;   -0,500
558,479;17538,409;   -1,991;    1,318
559,061;17684,432;   -0,719;   -0,864
559,643;18002,209;   -0,264;    0,045
560,225;18316,184;    1,645;    2,864
560,807;18406,027;    0,918;    0,318
561,389;17912,910;    0,554;    2,318
561,971;18599,939;    0,463;    2,136
562,553;18385,554;   -1,628;    1,591
563,135;18514,582;   -0,537;    1,136
563,717;18083,733;    3,372;    1,136
564,298;18812,135;    3,645;   -0,045
564,880;18555,773;    0,645;   -1,409
565,462;18687,500;    0,645;    1,318
566,043;19781,960;   -0,446;    2,318
566,625;19390,869;    1,918;    1,227
567,207;19270,337;    1,099;    1,682
567,788;20281,341;   -1,264;    1,500
568,370;21105,056;    1,917;   -0,500
568,951;20968,134;    0,190;    0,227
569,533;21774,794;   -0,628;   -0,500
570,114;22189,361;   -0,446;    0,682
570,695;22666,664;   -0,174;   -1,318
571,277;23180,309;   -0,265;   -1,682
571,858;23871,332;    2,008;   -1,136
572,439;24758,110;    1,554;   -1,045
573,021;24890,726;    2,099;   -2,773
573,602;25339,989;   -1,265;    0,318
574,183;26269,423;   -2,083;    2,227
574,764;26350,390;   -1,629;    0,409
575,345;26862,308;    0,917;   -0,136
575,926;27505,652;   -0,356;    0,136
576,507;27491,443;    1,099;   -0,227
577,088;28556,049;    3,099;    1,682
577,669;28513,760;    0,735;    1,955
578,250;29238,605;    0,644;   -1,045
578,831;29853,600;   -1,356;   -2,227
579,412;30108,094;   -0,810;    0,955
579,993;31060,793;    1,008;    0,227
580,573;31410,734;   -0,629;   -0,955
581,154;30384,700;    0,735;   -0,591
581,735;31231,547;    0,644;    0,773
582,315;30730,365;   -0,629;    2,136
582,896;31028,663;   -0,174;    1,227
583,477;30508,681;    0,189;    1,227
584,057;30681,036;    0,553;    0,955
584,638;30967,884;    2,553;    2,318
585,218;30925,670;   -0,538;    2,682
585,799;31130,149;    0,281;   -0,227
586,379;31147,412;    0,372;    1,591
586,959;29954,666;    0,735;    0,318
587,540;29388,324;   -0,629;    2,227
588,120;28907,285;    1,007;   -0,045
588,700;27907,844;    2,553;    2,136
589,281;28200,764;    0,462;   -0,955
589,861;28122,435;    0,099;   -1,682
590,441;27928,220;    2,371;   -2,682
591,021;26927,702;   -0,265;   -2,591
591,601;27203,619;   -0,537;    0,500
592,181;27230,374;   -0,719;   -0,773
592,761;26483,849;    0,007;    1,409
593,341;26359,725;   -0,901;    0,045
593,921;26403,836;   -0,265;    1,591
594,501;26346,878;   -0,538;    1,318
595,081;26204,229;    0,917;   -0,318
595,661;26546,025;   -1,447;    0,955
596,240;27094,832;   -0,537;    0,136
596,820;26655,393;    0,372;    1,955
597,400;26830,962;    2,008;    0,773
597,980;27073,584;    2,008;    1,045
598,559;27071,869;    2,735;   -0,227
599,139;26804,601;   -0,174;   -1,227
599,718;26773,056;   -0,174;   -0,409
600,298;26988,900;    0,735;    0,682
600,877;27205,858;    2,917;    1,409
601,457;27512,966;    2,281;    1,136
602,036;27396,891;    0,190;    2,045
602,616;27554,128;    0,644;    1,682
603,195;27931,692;   -0,355;    3,500
603,774;27432,848;   -0,901;    2,045
604,354;27353,910;    0,826;   -0,500
604,933;26827,072;    0,463;    1,864
605,512;26963,609;    3,554;    0,591
606,091;27029,293;   -0,537;    3,773
606,671;27855,027;    0,281;    0,773
607,250;26907,665;    1,644;    3,136
607,829;27185,374;    2,372;    3,227
608,408;27057,988;    1,190;    2,591
608,987;26076,964;    1,281;    3,409
609,566;26423,298;   -1,265;   -2,500
610,145;26484,028;   -1,082;    0,682
610,723;26929,788;    4,372;    6,864
611,302;26159,776;   -0,446;    1,682
611,881;25672,509;    5,008;   11,227
612,460;26543,026;    1,645;    3,955
613,039;26907,951;   -0,082;    2,045
613,617;25683,408;    1,736;    4,773
614,196;25906,693;    1,099;    1,227
614,775;26220,373;    1,009;    2,409
615,353;26159,970;    0,736;    0,864
615,932;25970,033;    0,100;    2,409
616,510;26485,645;    0,554;    0,591
617,089;26041,823;    7,100;   17,591
617,667;25827,216;    2,372;    6,136
618,246;25698,328;   -1,537;    1,318
618,824;25836,391;   -3,355;   -0,955
619,402;25398,029;   -2,900;   -1,773
619,981;25919,019;   -0,173;   -1,045
620,559;25715,527;    0,009;    1,682
621,137;25278,046;   -0,718;    1,864
621,715;25324,716;   -1,173;   -0,682
622,293;25234,015;   -0,537;   -0,773
622,871;25666,502;   -0,718;    0,500
623,450;25274,302;    0,373;   -0,864
624,028;25158,829;    0,191;   -0,955
624,606;24773,579;   -1,718;    1,682
625,183;25194,083;   -1,536;   -1,136
625,761;24805,173;    1,009;    1,136
626,339;25100,643;    1,373;    2,591
626,917;25467,248;   -0,172;   -0,045
627,495;25574,645;   -0,354;    1,318
628,073;24996,391;   -0,263;    2,864
628,650;24710,379;    0,100;    2,136
629,228;25146,057;    0,373;    4,409
629,806;24478,744;    2,282;    1,136
630,383;24778,155;    1,464;   -0,318
630,961;24605,593;    2,555;   -0,955
631,539;24372,759;    2,464;    0,227
632,116;23676,138;   11,373;   15,409
632,694;24273,247;    2,555;    6,500
633,271;24596,163;    0,828;    2,682
633,848;24464,719;    1,828;    2,045
634,426;24513,579;   -1,081;    1,773
635,003;23644,067;    1,101;   -0,409
635,580;23931,973;    1,192;    3,682
636,158;24520,145;    3,737;    1,227
636,735;24506,921;    0,555;   -0,500
637,312;24671,874;   -0,809;   -0,682
637,889;24758,090;   -4,354;   -0,682
638,466;24207,332;   -3,990;   -0,409
639,043;24202,522;    2,101;   -1,136
639,620;24548,036;   -2,262;   -0,955
640,197;24863,811;    1,100;    1,682
640,774;25019,767;   -0,172;    1,136
641,351;25396,996;    0,737;    1,136
641,928;24801,225;   -0,627;    1,409
642,505;24457,999;    0,828;   -0,500
643,082;24612,046;   -1,718;    1,227
643,658;23627,912;   -0,718;    1,500
644,235;24398,777;    1,191;    2,500
644,812;24658,733;    1,918;    0,773
645,388;24393,326;   -0,991;    1,409
645,965;24521,737;   -0,809;    1,682
646,542;24554,693;   -1,445;   -0,227
647,118;24503,013;    1,009;   -0,955
647,695;24781,696;   -0,263;    1,136
648,271;24711,198;   -0,536;    0,500
648,848;25063,881;    0,736;    2,227
649,424;24859,928;    0,827;    1,318
650,000;24629,248;   -0,354;   -1,045
650,577;24449,204;   -0,627;   -0,955
651,153;24970,252;   -1,809;    0,955
651,729;25894,208;    1,191;    0,864
652,305;25999,437;    0,645;    2,773
652,881;30044,847;   -0,082;    1,136
653,458;36569,440;    1,100;    0,227
654,034;40352,214;    0,282;    1,591
654,610;41900,443;    0,554;    0,773
655,186;43226,672;    0,645;    3,045
655,762;42856,810;   -0,991;    0,409
656,338;42929,767;    0,100;    0,136
656,913;43823,723;   -0,082;    0,409
657,489;43130,224;    0,827;   -0,318
658,065;43146,817;   -0,173;   -1,591
658,641;43808,410;   -0,900;   -0,864
659,217;43173,275;   -0,991;    0,409
659,792;42490,595;    0,645;   -0,409
660,368;42798,551;   -2,173;   -0,682
660,944;42489,780;   -2,082;    1,227
661,519;38389,554;   -0,628;    0,409
662,095;32808,329;   -1,719;    0,591
662,670;28215,558;    1,281;   -0,136
663,246;26946,877;    1,009;   -0,409
663,821;26163,470;    0,281;    1,682
664,396;25700,426;    0,009;    1,864
664,972;25960,564;    0,009;   -0,500
665,547;26223,430;    1,372;    0,136
666,122;26264,568;   -1,082;    0,318
666,698;26567,433;   -0,173;    0,318
667,273;25925,480;   -0,173;    0,136
667,848;26713,527;    2,372;    1,500
668,423;26498,665;    2,190;    2,318
668,998;27050,894;    2,827;   -0,682
669,573;27572,214;   -3,264;   -1,500
670,148;27382,807;   -1,446;   -0,682
670,723;27196,308;   -1,810;    0,318
671,298;27595,628;    2,372;    1,045
671,873;27734,857;   -0,082;   -0,136
672,448;27674,631;    0,645;    0,136
673,023;28038,406;   -1,992;   -0,227
673,597;28355,635;    0,827;    2,318
674,172;28122,500;   -0,355;    0,318
674,747;27620,274;    0,372;   -1,045
675,321;27449,412;   -0,628;    3,318
675,896;27018,641;    0,645;    1,045
676,471;28040,143;    2,645;    1,591
677,045;27815,281;   -1,264;    0,682
677,620;27869,328;    0,190;    1,136
678,194;28191,648;   -2,628;    1,136
678,769;27727,332;   -1,083;   -0,318
679,343;27967,106;   -0,628;    1,773
679,917;27836,517;   -1,446;    1,955
680,492;27901,927;    0,826;    3,227
681,066;28041,066;    3,372;    0,409
681,640;28088,204;    1,463;   -0,318
682,214;28890,887;    0,735;    0,500
682,788;28387,207;   -1,356;   -0,773
683,363;28351,618;   -1,810;    1,682
683,937;28052,301;   -1,719;   -0,318
684,511;28874,348;    0,463;   -0,591
685,085;28516,486;   -1,356;    0,318
685,659;28282,261;   -2,538;    0,864
686,232;28575,399;   -0,356;   -0,318
686,806;28292,900;   -0,901;    0,409
687,380;28903,947;   -0,174;    0,591
687,954;29164,540;   -1,174;    1,136
688,528;28815,769;   -0,719;    1,955
689,101;29596,452;   -3,992;    1,045
689,675;29154,227;   -0,356;   -0,136
690,249;28552,729;   -0,719;    0,409
690,822;28877,776;    0,280;    0,318
691,396;28944,459;   -0,265;    1,227
691,969;28393,234;    1,280;    0,136
692,543;28880,826;   -0,447;   -1,955
693,116;28551,419;   -0,265;   -1,409
693,690;28407,375;    0,099;    0,500
694,263;28973,604;   -1,083;    2,955
694,836;28953,015;    1,371;    3,591
695,410;27649,880;   -0,265;    1,773
695,983;28140,200;    0,189;    0,591
696,556;28098,065;   -0,447;   -1,045
697,129;28459,385;   -0,356;    1,409
697,703;28153,705;   -1,629;    1,955
698,276;28164,297;    1,462;   -0,773
698,849;27910,435;    1,280;    1,409
699,422;28290,210;   -1,083;    0,591
699,995;27994,621;    0,007;    0,136
700,568;28484,849;   -0,629;    3,045
701,140;28509,169;   -2,811;    1,682
701,713;28262,307;   -0,174;    2,409
702,286;28015,536;   -0,538;    0,864
702,859;27885,402;   -0,902;   -0,591
703,432;27060,903;    0,825;    0,682
704,004;27560,678;    0,462;    0,318
704,577;27438,452;   -0,629;    0,136
705,150;28012,408;    0,189;    2,500
705,722;27764,819;   -0,356;   -3,227
706,295;27608,684;   -0,175;   -0,591
706,867;27375,822;   -0,175;    1,955
707,440;27592,779;   -1,720;   -0,409
708,012;27821,462;    0,462;    0,591
708,584;27798,600;    2,462;    0,227
709,157;28091,829;    1,825;   -0,591
709,729;27770,876;    2,280;    2,045
710,301;28598,196;    0,734;    0,045
710,874;28576,607;   -1,447;   -0,227
711,446;27513,290;    0,371;    0,864
712,018;27361,792;    0,098;    0,500
712,590;27113,657;   -1,993;    1,682
713,162;27628,341;    0,825;    1,318
713,734;27929,661;    1,825;   -2,045
714,306;27826,071;   -1,902;   -0,409
714,878;26543,937;    0,825;    0,864
715,450;27355,802;    0,643;    0,864
716,022;27615,576;    1,552;    1,318
716,593;27791,078;    0,189;    0,591
717,165;27680,398;   -3,175;   -1,227
717,737;27366,445;    0,280;    0,409
718,309;27007,674;    0,280;   -0,045
718,880;27005,357;   -0,539;   -1,409
719,452;27256,677;   -0,175;   -1,591
720,024;26793,815;    0,734;   -0,591
720,595;27377,135;   -2,902;    0,955
721,167;26931,000;    0,370;   -2,045
721,738;26433,684;   -0,812;   -1,045
722,309;26433,913;   -0,993;   -1,227
722,881;26238,505;   -1,357;    0,773
723,452;26849,734;   -2,630;    2,864
724,023;26974,418;   -0,721;    2,682
724,595;26798,010;    0,007;    0,682
725,166;26556,330;    0,007;   -0,409
725,737;26197,650;    1,734;    0,227
726,308;26294,879;   -0,266;    0,318
726,879;26718,835;   -1,630;    1,227
727,450;26572,155;    0,552;   -0,045
728,021;26538,748;    3,097;    0,682
728,592;26307,977;    0,734;    0,500
729,163;26633,296;    0,643;   -0,136
729,734;26674,435;    0,188;   -0,227
730,305;27040,573;    1,734;    0,136
730,876;27350,256;    0,188;    2,955
731,447;27030,940;    2,188;    2,682
732,017;27149,078;    1,097;    1,864
732,588;26635,488;    0,734;    1,227
733,159;26797,263;    0,643;   -1,045
733,729;26640,492;    0,006;    0,409
734,300;25936,539;    0,915;    0,864
734,870;26362,404;    3,461;    0,591
735,441;26857,633;    0,370;   -0,591
736,011;26642,044;    0,643;   -1,591
736,582;26635,636;   -0,812;    0,045
737,152;26142,138;   -1,721;   -2,045
737,722;26510,549;   -0,267;   -0,682
738,293;26271,869;   -1,358;    1,318
738,863;26163,552;    2,461;    2,318
739,433;25932,781;    5,279;    0,318
740,003;26610,101;   -0,994;   -0,682
740,573;26024,693;    2,097;   -1,591
741,143;25996,013;   -1,085;    0,318
741,713;26781,788;    1,188;   -0,500
742,283;26421,926;    0,915;    1,591
742,853;26237,791;    1,915;    1,591
743,423;25689,111;    1,733;    0,045
743,993;25843,976;   -0,358;    1,500
744,563;25222,932;    0,097;   -0,864
745,133;25195,980;   -0,812;   -0,864
745,702;25860,754;   -0,267;    1,773
746,272;25041,528;   -0,176;    0,591
746,842;24839,303;   -1,358;   -0,591
747,411;25247,986;   -0,267;   -0,318
747,981;25452,397;    0,097;    0,500
748,551;25531,899;    2,278;   -1,045
749,120;25358,128;    0,642;   -0,227
749,690;25700,538;   -0,631;    2,409
750,259;26059,495;    1,369;    2,955
750,828;25969,360;    1,551;   -1,955
751,398;26230,771;    1,278;   -0,045
751,967;25728,727;    2,187;    0,409
752,536;25938,047;   -0,813;   -0,227
753,105;26393,730;    0,096;    0,227
753,675;26177,232;    0,096;    1,773
754,244;26086,643;   -0,904;    3,591
754,813;26172,599;    0,551;    1,227
755,382;25762,555;    0,460;    0,955
755,951;26246,602;    1,551;    3,682
756,520;25795,104;   -0,085;    1,864
757,089;26351,696;    0,278;    0,500
757,658;26504,653;    1,733;    1,227
758,227;26473,882;    1,096;    0,318
758,795;26799,747;    1,187;    1,136
759,364;27054,612;   -0,086;   -0,591
759,933;26063,477;   -1,176;   -0,045
760,501;25544,343;    0,733;   -1,318
761,070;25995,935;   -2,813;   -1,409
761,639;26753,437;   -1,904;    1,318
762,207;26104,939;    1,551;   -0,955
762,776;26012,440;    0,369;    0,864
763,344;25983,669;   -0,995;    0,591
763,913;25093,262;   -0,722;    1,409
764,481;25815,582;    1,005;   -0,136
765,049;25624,174;   -1,358;    1,409
765,618;25524,221;   -0,086;    0,318
766,186;25637,450;    0,278;    0,136
766,754;25820,316;    0,005;    1,864
767,322;24841,726;   -1,995;    0,409
767,890;24918,955;   -0,722;   -1,773
768,459;25267,002;   -2,177;   -0,318
769,027;25405,686;    1,641;    3,409
769,595;24437,097;    3,278;    2,591
770,163;24860,598;    3,823;    2,955
770,730;24624,918;    0,732;   -0,136
771,298;24464,238;    0,187;   -1,409
771,866;24543,285;   -1,541;    4,955
772,434;24863,878;   -0,631;   -1,864
773,002;25049,288;    0,005;    0,682
773,569;24698,245;    0,914;    1,682
774,137;24499,292;   -0,268;   -0,045
774,705;25322,430;    0,278;   -0,136
775,272;24856,841;    0,641;    0,682
775,840;24606,706;   -0,177;    2,682
776,407;24122,026;    0,277;    1,955
776,975;23730,346;   -0,632;    0,318
777,542;24764,029;   -1,086;   -0,045
778,110;24581,167;   -1,268;   -0,045
778,677;24295,396;   -2,359;   -0,864
779,244;24035,352;    2,186;    1,045
779,812;24142,854;    1,823;    0,864
780,379;23992,356;    0,005;    1,136
780,946;24223,585;    1,005;   -0,773
781,513;24577,723;   -1,450;    0,318
782,080;23930,952;   -0,086;    2,864
782,647;24643,908;   -0,268;    3,045
783,214;24221,319;   -0,177;    3,864
783,781;23850,729;   -0,723;   -0,682
784,348;23746,049;   -0,632;    1,500
784,915;24221,642;   -3,177;    0,318
785,482;23942,143;    1,368;    2,591
786,049;24377,827;    0,186;   -0,591
786,615;24503,874;    0,277;   -0,955
787,182;24246,376;    0,186;   -0,682
787,749;23963,605;   -2,814;    1,409
788,315;23340,106;   -1,632;   -0,409
788,882;23596,062;    1,550;   -1,227
789,448;24198,382;    1,732;   -0,955
790,015;24306,884;    1,095;    3,227
790,581;23844,386;    1,459;    0,227
791,148;23747,433;    0,641;    1,045
791,714;23967,116;   -0,541;    3,136
792,280;23661,163;    0,186;    1,591
792,847;23264,756;    0,550;    2,500
793,413;23835,076;   -0,269;   -0,318
793,979;23338,123;    3,459;   -1,318
794,545;23390,625;    4,459;    2,682
795,111;22831,944;    2,186;    1,318
795,678;23015,082;    0,731;   -1,682
796,244;22636,220;    3,368;    0,136
796,810;23171,631;    1,731;    0,773
797,375;22901,678;    0,549;   -2,136
797,941;22919,362;   -0,541;    0,591
798,507;23090,682;   -0,451;   -0,955
799,073;22660,183;   -0,360;    0,591
799,639;22705,685;   -2,632;    3,136
800,205;22776,550;    0,095;    2,682
800,770;22333,870;    0,640;    1,773
801,336;22419,281;    1,368;   -0,955
801,901;22088,055;    4,549;    3,136
802,467;22683,375;   -0,542;    2,045
803,033;22073,150;   -0,087;    0,864
803,598;22249,015;    1,913;   -1,045
804,163;22275,880;    1,095;   -0,318
804,729;22255,382;   -0,178;    1,136
805,294;22621,338;    0,822;    2,227
805,859;22408,840;    0,731;   -0,409
806,425;21829,978;    1,186;    2,682
806,990;21504,298;    2,186;    4,318
807,555;22048,436;   -1,451;    2,591
808,120;21916,119;    0,822;   -0,409
808,685;22006,075;    0,185;   -2,500
809,250;21510,304;    0,004;   -0,500
809,815;21796,897;    1,913;    0,682
810,380;22331,671;   -0,269;    1,591
810,945;22852,355;   -1,087;    2,045
811,510;22056,220;    2,094;    1,591
812,075;21709,449;   -0,633;   -1,409
812,640;21765,496;    2,003;    1,409
813,204;21819,180;    0,822;   -0,227
813,769;22317,772;    2,094;   -0,045
814,334;21716,274;    0,458;    0,864
814,898;21837,685;    0,367;    0,591
815,463;21653,186;    1,276;   -0,773
816,027;21630,324;   -0,724;   -2,318
816,592;21665,099;    0,640;   -2,045
817,156;21215,782;    2,094;    1,136
817,721;21108,738;    4,276;    2,318
818,285;21067,876;    2,912;    1,500
818,849;21733,378;   -1,451;    1,682
819,414;21661,516;   -0,269;    2,955
819,978;21210,381;   -1,269;    1,773
820,542;21776,883;    2,003;    0,500
821,106;21476,748;   -0,815;    0,682
821,670;21585,432;   -0,815;    2,591
822,234;21320,570;   -0,270;    1,409
822,798;20654,253;    0,003;    0,500
823,362;20619,482;   -0,633;    4,227
823,926;19973,439;    0,094;    1,136
824,490;20205,940;   -0,997;   -0,682
825,054;20669,533;   -0,088;   -1,136
825,618;20256,216;   -1,542;   -1,500
826,181;20233,172;    0,458;   -1,318
826,745;20133,038;    1,367;   -1,045
827,309;20480,994;    1,185;    1,318
827,872;19893,587;    1,367;    0,955
828,436;20870,179;    1,185;   -0,773
828,999;20925,863;   -0,997;    1,227
829,563;19740,819;   -0,179;    1,136
830,126;19558,775;   -0,179;   -0,591
830,690;19595,822;   -1,997;    2,864
831,253;19098,142;   -0,543;    2,227
831,816;19240,189;   -1,906;    0,500
832,380;19141,145;    0,185;    0,864
832,943;19395,374;   -1,361;   -0,500
833,506;18843,058;    2,639;   -1,227
834,069;19625,832;    3,912;   -0,955
834,632;19754,334;    1,730;    1,318
835,195;19636,563;    1,003;    0,955
835,758;18832,064;   -0,997;    1,955
836,321;18679,839;    0,730;   -1,045
836,884;18769,795;   -0,725;   -0,955
837,447;18800,115;   -2,816;    1,773
838,010;19090,526;    0,366;    3,227
838,573;19364,118;   -1,179;    0,773
839,135;19319,802;   -1,361;   -0,955
839,698;18817,576;    1,275;    0,409
840,261;18310,078;    1,003;   -0,227
840,823;18134,034;   -0,543;    0,864
841,386;18448,899;   -0,452;   -2,409
841,948;18321,492;   -1,361;    1,773
842,511;18077,721;    0,912;    1,682
843,073;18191,404;    1,912;    0,227
843,636;18054,088;   -0,361;   -0,227
844,198;17988,680;    0,911;    0,591
844,760;18067,000;    1,093;    1,955
845,322;17712,138;    0,548;    1,136
845,885;18128,004;    0,730;    0,591
846,447;18594,414;   -1,998;    0,227
847,009;18166,007;    1,911;   -0,682
847,571;18451,599;    0,820;   -2,045
848,133;18577,010;   -1,089;   -1,864
848,695;18419,876;   -0,543;    1,409
849,257;17950,923;   -1,089;   -1,682
849,819;18153,152;   -0,998;   -0,409
850,381;18209,835;   -0,725;   -0,864
850,942;18549,155;    1,093;   -0,591
851,504;18462,657;    1,184;    0,227
852,066;18539,704;    1,275;   -1,591
852,628;18091,933;   -0,180;    1,955
853,189;17647,889;    1,638;    2,682
853,751;17732,663;   -0,907;    1,409
854,312;17559,710;   -0,453;   -1,682
854,874;18064,303;   -2,089;   -0,773
855,435;18604,623;   -0,907;   -1,682
855,997;18751,306;   -1,816;   -0,136
856,558;18040,263;    0,366;    1,773
857,119;18155,401;    0,820;    2,864
857,681;17870,175;    0,002;    0,318
858,242;17885,313;    1,911;   -2,136
858,803;18343,360;    0,456;   -0,773
859,364;18847,407;    0,184;   -4,773
859,925;18167,182;   -2,453;   -0,955
860,486;18096,411;   -0,453;   -0,955
861,047;17866,094;   -0,544;   -1,227
861,608;17646,596;   -1,089;   -0,773
862,169;17781,461;    0,638;   -0,045
862,730;17571,508;    0,456;    1,409
863,291;17774,101;   -0,635;   -0,500
863,852;18121,966;   -0,635;    1,955
864,412;17607,740;   -0,271;   -0,864
864,973;16236,697;   -0,089;    0,500
865,534;16077,016;   -1,726;    0,227
866,094;17582,427;    1,820;    0,227
866,655;17208,020;    1,274;    3,318
867,215;17510,340;    0,274;    0,136
867,776;17362,750;    0,547;   -0,136
868,336;17464,252;   -1,453;    0,136
868,897;16916,845;    2,638;    1,682
869,457;16676,619;    1,365;    0,318
870,017;16910,939;    0,547;   -1,227
870,578;17426,259;   -0,817;    0,773
871,138;17126,942;   -2,089;   -0,955
871,698;16662,808;   -0,817;   -1,318
872,258;16547,764;   -0,453;   -2,864
872,818;16914,629;    2,729;    0,045
873,378;16836,222;    0,638;    1,045
873,938;16406,632;    0,547;    0,500
874,498;16790,316;    0,274;   -1,955
875,058;16698,908;    2,183;    1,773
875,618;16512,137;    1,910;   -2,682
876,177;16451,457;    1,274;    0,136
876,737;16055,050;   -0,090;    1,955
877,297;16071,370;    0,183;    1,955
877,856;16022,962;   -0,362;    0,318
878,416;16023,555;    1,183;   -0,136
878,976;16252,056;   -1,817;    0,409
879,535;16459,922;    0,092;    3,136
880,095;16208,514;   -0,544;    0,045
880,654;16298,743;   -1,090;    1,318
881,213;16351,881;    2,456;    1,500
881,773;15969,201;    2,637;    2,682
882,332;16321,339;    3,365;    5,136
882,891;16214,477;    3,092;    2,136
883,451;16662,252;   -1,272;    1,682
884,010;16122,481;   -2,908;   -0,409
884,569;16214,073;   -0,999;   -0,045
885,128;16340,211;    2,819;   -1,864
885,687;16396,167;    4,455;    0,682
886,246;16083,578;    1,455;    2,136
886,805;15842,353;    2,455;    2,045
887,364;16168,763;   -0,999;   -0,500
887,922;16519,992;   -1,181;    0,045
888,481;16026,494;   -1,545;    0,591
889,040;16326,996;    1,183;    2,136
889,599;17007,134;    2,455;    1,409
890,157;17074,181;    1,455;    2,409
890,716;16727,682;   -0,090;    0,227
891,274;16543,911;    0,092;   -1,136
891,833;16970,049;    1,546;    0,864
892,391;16848,642;   -0,454;    0,500
892,950;16971,780;    1,819;   -0,773
893,508;17300,100;    0,455;   -0,409
894,067;16671,965;    0,637;    0,136
894,625;16590,376;   -0,636;   -1,500
895,183;16852,514;   -0,363;   -0,682
895,741;16686,288;    1,728;   -1,773
896,299;16497,972;   -0,545;   -2,409
896,858;16704,746;    0,819;   -1,591
897,416;16825,430;    2,728;   -1,318
897,974;16580,750;    1,819;    0,318
898,532;16733,433;    6,091;    2,682
899,089;16622,117;    2,091;   -0,682
899,647;16675,345;   -1,454;    1,318
900,205;16452,574;    1,182;    1,045
900,763;16649,712;   -0,454;    0,227
901,321;16631,850;    2,364;   -1,409
901,878;16065,443;   -1,000;   -0,773
902,436;15931,763;   -1,363;    1,318
902,994;16336,083;    4,728;    3,682
903,551;15784,493;    0,728;    0,409
904,109;16191,450;    0,182;   -1,409
904,666;15761,951;    2,455;    1,045
905,224;15604,453;    0,182;   -0,409
905,781;15321,591;    0,727;   -0,318
906,338;15409,093;   -1,363;    1,045
906,895;15361,594;    0,637;    2,045
907,453;15299,914;    1,727;    1,136
908,010;15322,689;   -0,909;    0,409
908,567;14948,008;    1,273;    0,591
909,124;14474,056;    0,364;   -1,500
909,681;14512,557;   -2,909;    0,682
910,238;14710,059;    0,636;   -1,318
910,795;15029,015;   -0,273;   -1,136
911,352;14696,833;   -2,909;   -2,682
911,909;14111,652;   -1,364;   -0,864
912,466;14589,924;   -3,182;    1,500
913,022;14117,833;   -1,636;    0,500
913,579;14490,470;   -0,909;    2,045
914,136;14240,379;    1,636;    0,955
914,692;14550,106;    0,091;   -1,227
915,249;14118,561;    1,455;    0,409
915,806;14343,924;    0,182;    1,955
916,362;14094,652;    1,909;    1,864
916,918;13644,197;    2,000;    1,045
917,475;13631,015;   -1,182;    0,955
918,031;13721,470;    3,364;   -0,045
918,587;13188,561;   -0,909;   -0,318
919,144;13392,652;   -2,273;    0,227
919,700;13711,197;    1,727;    0,773
920,256;13276,288;    0,727;    0,045
920,812;12912,833;   -0,727;   -1,045
921,368;12947,379;   -1,727;   -1,045
921,924;12574,288;    0,182;   -0,136
922,480;12155,652;   -0,545;    1,227
923,036;12754,288;    1,273;    1,955
923,592;12676,106;    0,455;    0,318
924,148;12640,197;    0,455;   -0,955
924,704;11930,379;   -1,364;   -0,409
925,259;12201,288;   -0,273;    0,591
925,815;11984,833;    1,455;    0,500
926,371;11523,197;    2,909;    1,409
926,926;11437,197;    2,091;    0,591
927,482;11043,742;   -1,364;    0,773
928,037;10902,561;    0,909;    2,045
928,593;11163,742;    1,636;    1,045
929,148;11049,561;   -1,818;   -1,500
929,704;10563,561;   -1,455;   -0,500
930,259;10780,742;    0,091;   -0,136
930,814; 9835,561;   -0,818;    1,955
931,369; 9525,652;    1,091;   -0,773
931,925; 9435,652;   -0,091;    0,136
932,480; 9322,106;   -2,818;   -2,591
933,035; 9207,470;    0,545;   -0,318
933,590; 8995,742;    0,364;   -1,773
934,145; 8660,561;   -1,364;   -0,318
934,700; 9010,379;    0,455;   -0,591
935,255; 8816,742;   -0,091;    0,045
935,809; 8083,015;    3,182;    0,864
936,364; 7231,742;   -0,455;   -0,136
936,919; 7193,742;    0,455;   -1,773
937,474; 7129,833;    1,455;    0,136
938,028; 6894,015;   -1,636;    1,136
938,583; 6371,470;    1,818;    4,682
939,138; 6644,652;    2,091;    2,136
939,692; 6112,742;    1,636;   -1,136
940,247; 5814,379;   -0,727;   -1,045
940,801; 5372,652;   -0,636;    0,227
941,355; 5259,742;   -0,364;    2,591
941,910; 4911,106;   -0,273;   -2,136
942,464; 5053,379;   -0,818;   -0,318
943,018; 4829,379;    1,000;   -0,227
943,572; 4774,561;    2,545;   -0,682
944,126; 4204,924;    0,091;   -0,409
944,681; 4101,833;    3,091;    0,227
945,235; 4100,742;    1,000;   -0,591
945,789; 4046,470;    0,364;   -1,864
946,342; 4133,197;    0,455;   -0,591
946,896; 3935,561;   -2,273;    0,955
947,450; 3688,379;    1,545;   -0,227
948,004; 3892,288;    1,727;   -0,045
948,558; 3896,015;    0,273;   -0,864
949,111; 3819,106;   -0,273;   -0,318
949,665; 3865,197;    1,636;   -0,682
950,219; 3727,833;   -0,091;   -1,045
950,772; 3815,742;   -1,909;    1,864
951,326; 3715,106;    0,545;   -0,955
951,879; 3809,561;    0,727;   -2,318
952,433; 3849,561;    0,000;    2,227
952,986; 3666,470;    2,909;    0,682
953,539; 3616,288;   -0,273;    0,591
954,093; 3575,197;    0,545;   -1,318
954,646; 3692,652;    0,909;    1,318
955,199; 3518,561;    0,000;   -0,500
955,752; 3405,197;   -0,455;    1,773
956,305; 3356,833;   -0,091;    2,955
956,858; 3504,833;    0,818;   -0,318
957,411; 3665,833;   -0,545;    2,136
957,964; 3512,106;    1,364;    2,136
958,517; 3495,561;   -1,545;    3,136
959,070; 3348,742;   -0,455;    1,955
959,623; 3427,924;    1,091;    1,500
960,176; 3208,924;    1,727;    2,045
960,728; 3176,833;   -2,727;    0,773
961,281; 3254,379;    0,545;    0,500
961,834; 3285,652;   -0,909;    0,864
962,386; 3201,106;    1,727;    1,045
962,939; 3131,561;    0,364;   -0,318
963,491; 3262,015;    0,455;    1,136
964,043; 3145,561;    1,182;    2,409
964,596; 3263,015;   -1,000;    2,227
965,148; 3114,379;   -1,000;    1,773
965,700; 3027,197;    1,091;   -0,227
966,253; 3174,015;   -0,636;    0,318
966,805; 3026,288;   -2,273;    0,773
967,357; 3067,833;    1,091;   -1,500
967,909; 3024,379;    0,455;   -1,227
968,461; 3122,288;    0,545;    3,136
969,013; 3083,561;   -0,182;   -0,864
969,565; 3144,742;   -0,455;   -1,136
970,117; 3201,742;   -0,364;    1,045
970,669; 3054,924;    0,182;   -0,136
971,220; 2908,924;   -0,455;   -1,500
971,772; 2829,561;   -0,636;   -0,318
972,324; 2947,742;    0,091;   -0,500
972,876; 2899,379;    0,818;   -0,045
973,427; 3039,197;    1,909;   -1,045
973,979; 3012,288;   -0,727;   -2,500
974,530; 3038,924;    1,818;    1,318
975,082; 3042,561;   -0,545;    1,682
975,633; 2955,652;    1,091;    1,682
976,184; 3098,015;    0,909;    0,773
976,736; 2888,833;    0,091;    0,227
977,287; 2700,924;   -0,909;   -0,500
977,838; 2881,470;    0,909;   -0,318
978,389; 2929,652;   -1,000;   -0,500
978,940; 2802,379;    0,545;   -0,409
979,491; 2820,015;    0,091;   -0,500
980,042; 2785,652;    0,182;    3,045
980,593; 2832,924;   -2,545;    0,227
981,144; 2880,652;    2,545;   -0,500
981,695; 2856,924;    1,455;    1,500
982,246; 2831,924;   -0,273;    1,045
982,797; 2973,924;   -1,727;    0,682
983,347; 3075,742;    0,364;    0,591
983,898; 3228,106;    3,091;    0,409
984,449; 3060,652;    2,182;    0,773
984,999; 2970,015;    1,455;   -1,136
985,550; 2775,106;    0,182;   -0,318
986,100; 2811,106;   -0,455;   -0,318
986,651; 2843,924;   -0,818;    0,045
987,201; 2821,652;   -1,000;   -0,591
987,751; 2895,652;    0,818;    2,864
988,302; 2889,561;    2,636;    1,500
988,852; 2919,924;    0,455;   -1,136
989,402; 2943,379;    0,091;    0,682
989,952; 2864,288;   -2,182;    0,864
990,502; 2976,652;   -0,091;    0,682
991,052; 2946,470;   -0,727;    0,045
991,602; 2810,197;   -2,909;    1,318
992,152; 2821,652;    0,455;    0,682
992,702; 2788,742;    1,364;   -0,045
993,252; 2692,924;   -3,000;   -0,500
993,802; 2786,924;   -0,273;    1,318
994,352; 3021,833;   -1,545;    1,136
994,901; 3104,742;   -0,182;    3,227
995,451; 3015,379;   -0,182;    0,318
996,000; 3114,015;    1,636;    0,318
996,550; 2827,652;    2,273;    0,227
997,100; 2826,288;    1,273;   -0,045
997,649; 3106,924;    2,182;    0,955
998,198; 2752,197;    1,727;   -1,500
998,748; 2934,742;    1,091;   -2,318
999,297; 2862,197;   -0,818;   -0,409
999,846; 2915,924;    1,000;   -0,773
1000,395; 2956,742;   -0,818;    0,500
1000,945; 2922,015;    1,818;   -0,773
1001,494; 3017,742;    2,364;    0,682
1002,043; 2985,470;    4,636;    0,864
1002,592; 2838,470;   -1,091;    1,955
1003,141; 2981,197;   -0,455;   -0,682
1003,690; 2836,197;    1,727;    0,500
1004,238; 2905,924;    1,455;   -0,045
1004,787; 2565,288;    1,364;    1,227
1005,336; 2790,833;    0,364;    0,682
1005,885; 2941,742;    1,364;   -2,773
1006,433; 3062,288;    0,545;    0,955
1006,982; 3123,652;    0,455;    1,682
1007,531; 3035,833;   -1,818;   -0,227
1008,079; 3000,379;   -2,273;    0,500
1008,627; 3142,197;   -1,455;    0,409
1009,176; 2885,833;    0,000;   -1,955
1009,724; 2913,652;    1,091;    0,864
1010,273; 2974,561;    1,273;    0,500
1010,821; 3098,924;    0,091;    1,409
1011,369; 2833,833;   -1,364;    1,318
1011,917; 2824,288;   -1,364;   -0,591
1012,465; 3110,106;    1,273;   -1,591
1013,013; 3194,652;    2,091;   -1,682
1013,561; 3078,924;    0,455;   -0,773
1014,109; 3136,742;   -1,909;    1,682
1014,657; 3022,652;    0,364;    0,591
1015,205; 3111,288;    1,636;   -0,955
1015,753; 3173,561;   -0,545;   -1,409
1016,301; 3196,379;   -2,636;    3,045
1016,848; 3192,288;   -1,273;    0,409
1017,396; 3235,015;    2,545;    0,045
1017,944; 3362,015;    1,182;    1,864
1018,491; 3134,106;    0,273;    1,409
1019,039; 3283,106;    0,455;    0,591
1019,586; 3199,742;   -1,364;    1,682
1020,134; 3300,288;    0,455;    1,500
1020,681; 3313,106;    0,182;   -1,136
1021,228; 3327,470;    2,909;   -2,227
1021,776; 3157,833;    1,182;   -1,136
1022,323; 3386,197;    0,455;    0,773
1022,870; 3316,470;   -1,000;   -0,045
1023,417; 3216,015;    2,636;    1,864
1023,964; 3364,924;    2,636;    1,227
1024,511; 3204,106;    1,000;    0,773
1025,058; 2994,288;    3,182;   -0,045
1025,605; 3058,652;   -2,273;    3,136
1026,152; 3277,561;    1,727;   -0,591
1026,699; 2997,561;    1,818;    1,318
1027,245; 3158,470;   -0,091;    0,318
1027,792; 3385,106;   -1,000;    1,409
1028,339; 3268,015;    2,364;   -0,045
1028,885; 3113,833;    1,000;   -0,227
1029,432; 3058,742;   -0,091;    0,227
1029,978; 3112,379;   -1,000;   -1,591
1030,525; 3012,288;    1,000;    0,409
1031,071; 3267,379;   -1,364;    1,136
1031,618; 3372,924;    0,364;    1,682
1032,164; 3166,015;   -0,091;    3,045
1032,710; 3217,652;    1,636;   -1,500
1033,256; 3119,288;   -0,636;   -0,136
1033,803; 3094,015;   -0,545;    1,500
1034,349; 2828,742;   -1,364;    0,136
1034,895; 2996,924;    0,000;   -0,318
1035,441; 2976,652;   -0,818;    0,318
1035,987; 2979,833;   -2,364;   -0,682
1036,533; 2964,379;   -1,455;   -0,955
1037,078; 3167,561;    1,455;    1,682
1037,624; 2995,106;    2,455;   -0,955
1038,170; 3013,470;    0,455;   -0,318
1038,716; 2915,561;    1,636;   -0,409
1039,261; 2836,288;   -2,273;   -0,773
1039,807; 2775,288;   -0,091;    3,409
1040,352; 2849,833;   -1,909;   -0,318
1040,898; 2894,924;   -1,545;   -0,682
1041,443; 2803,197;   -1,455;   -2,591
1041,989; 2814,106;    1,091;    1,591
1042,534; 2707,924;   -0,364;    2,591
1043,079; 2820,652;    2,909;    0,955
1043,625; 2614,288;    1,818;    0,500
1044,170; 2671,833;   -1,364;    1,045
1044,715; 2910,561;    2,455;    0,955
1045,260; 2744,197;    2,182;   -0,955
1045,805; 2797,106;    1,182;   -0,591
1046,350; 2714,470;    1,364;   -0,409
1046,895; 2678,833;    2,909;    1,591
1047,440; 2624,470;    5,364;    0,409
1047,985; 2530,197;    2,818;   -0,955
1048,530; 2441,197;    1,545;    1,227
1049,074; 2512,197;    0,000;    0,318
1049,619; 2499,470;   -1,364;    1,955
1050,164; 2308,833;    0,455;    0,227
1050,708; 2339,561;   -0,455;    0,045
1051,253; 2704,742;    1,273;   -2,227
1051,797; 2415,561;    0,818;   -1,318
1052,342; 2442,470;   -1,182;    1,045
1052,886; 2429,197;    0,364;   -1,409
1053,430; 2319,197;   -1,364;    0,136
1053,975; 2315,924;   -0,818;   -0,318
1054,519; 2287,470;   -0,727;    3,227
1055,063; 2295,924;    0,909;    1,318
1055,607; 2186,652;   -0,182;    0,227
1056,151; 2223,288;    2,909;    1,682
1056,695; 2143,288;    2,273;   -1,136
1057,239; 2216,197;   -1,727;   -0,682
1057,783; 2200,742;    0,818;   -1,500
1058,327; 2166,833;    0,000;    1,409
1058,871; 2384,652;   -0,545;    1,318
1059,415; 2095,288;   -0,818;   -0,045
1059,958; 2361,197;    1,455;    2,591
1060,502; 2085,742;   -1,000;   -0,773
1061,046; 1999,288;    0,364;   -0,955
1061,589; 1972,652;   -3,000;   -1,136
1062,133; 1848,470;   -1,273;    1,864
1062,676; 1785,561;    1,182;    0,864
1063,220; 1784,561;    1,091;    0,500
1063,763; 1817,742;    0,909;    1,136
1064,306; 1897,197;   -0,909;    1,864
1064,849; 1786,106;   -0,909;    0,591
1065,393; 1786,924;    2,000;   -1,500
1065,936; 1896,197;    0,182;   -0,409
1066,479; 1793,652;   -1,455;    1,318
1067,022; 1815,561;   -0,273;   -0,227
1067,565; 1703,470;   -0,091;   -1,318
1068,108; 1738,106;    0,727;   -0,591
1068,651; 1721,833;   -0,636;    1,409
1069,194; 1650,015;   -0,455;   -1,682
1069,736; 1645,561;   -1,273;    0,955
1070,279; 1630,742;   -1,364;   -0,500
1070,822; 1674,288;   -2,000;   -0,318
1071,364; 1748,015;   -0,364;    1,318
1071,907; 1570,652;   -0,727;    3,227
1072,450; 1482,833;    0,000;   -0,045
1072,992; 1486,106;   -0,273;    3,136
1073,535; 1619,197;    2,091;    2,136
1074,077; 1403,470;   -0,727;    2,045
1074,619; 1368,106;   -1,364;    0,591
1075,161; 1413,561;   -1,091;    1,500
1075,704; 1580,833;    1,545;    1,227
1076,246; 1395,379;   -0,182;    0,682
1076,788; 1315,561;   -0,364;    1,773
1077,330; 1403,561;    1,273;    2,136
1077,872; 1371,106;    0,909;    0,955
1078,414; 1568,924;    2,727;    0,773
1078,956; 1317,379;    1,273;   -0,227
1079,498; 1565,106;    1,636;    0,318
1080,040; 1283,288;    1,909;   -1,318
1080,581; 1219,015;    1,636;   -0,318
1081,123; 1154,833;    0,091;   -0,773
1081,665; 1198,379;   -1,182;   -0,955
1082,206; 1481,833;    1,364;   -0,500
1082,748; 1344,470;    0,727;    2,045
1083,289; 1236,106;   -2,000;    1,318
1083,831; 1140,833;   -0,545;    0,227
1084,372; 1174,288;    0,000;    0,591
1084,913; 1166,833;    1,091;    0,864
1085,455; 1142,924;   -1,909;   -2,045
1085,996; 1112,470;   -2,273;    0,136
1086,537; 1135,652;   -0,091;    0,864
1087,078; 1169,561;   -0,909;   -2,136
1087,619; 1212,470;   -1,273;    0,227
1088,160; 1135,106;    0,000;    1,318
1088,701; 1113,197;   -1,091;    0,682
1089,242; 1054,106;    1,364;   -2,227
1089,783; 1148,652;   -0,273;    1,409
1090,324; 1118,833;    0,455;    0,682
1090,865;  989,470;    2,727;   -0,409
1091,405;  966,197;    0,727;    2,227
1091,946;  992,833;    0,182;   -0,955
1092,487;  916,561;    0,818;   -1,409
1093,027; 1078,652;   -1,364;   -1,500
1093,568;  934,742;   -0,364;    1,227
1094,108; 1038,470;    0,273;    1,773
1094,649;  970,288;   -1,182;    0,136
1095,189;  917,288;   -0,636;   -0,682
1095,729;  854,833;   -0,091;    0,955
1096,269;  863,106;    0,727;   -0,955
1096,810; 1179,924;   -1,364;    0,500
1097,350; 1008,833;    1,364;   -0,773
1097,890;  915,742;    0,364;    1,227
1098,430; 1152,106;    2,364;    2,864
1098,970; 1034,015;    2,182;    1,682
1099,510;  901,015;    0,545;   -2,318
1100,050;  828,742;    1,000;   -1,591
1100,589;  784,833;   -0,727;   -0,318
1101,129;  907,924;    0,818;   -0,955
1101,669; 1072,015;    1,727;    2,136
1102,209;  893,561;   -0,091;    2,227
1102,748;  843,470;    0,000;    0,955
1103,288;  830,561;    1,273;   -1,227
1103,827;  859,561;    3,091;   -2,227
1104,367;  738,197;   -0,091;   -2,409
1104,906;  713,561;    1,364;   -1,136
1105,445;  769,742;    0,636;   -1,136
1105,985;  711,470;   -0,727;    1,500
1106,524;  757,561;   -1,727;   -0,682
1107,063;  737,379;   -2,727;    1,409
1107,602;  715,015;   -1,909;   -1,500
1108,141;  634,470;   -1,909;    1,500
1108,680;  744,561;   -3,455;   -0,591
1109,219;  669,742;   -0,909;   -0,500
1109,758;  672,742;    0,455;    0,682
1110,297;  656,288;    1,000;   -0,682
1110,836;  597,379;   -0,727;    0,955
1111,375;  766,015;   -2,545;    0,409
1111,913;  778,015;   -1,000;    0,773
1112,452;  707,652;   -0,273;    0,136
1112,991;  593,561;    1,091;    1,955
1113,529;  554,924;   -0,818;   -0,045
1114,068;  611,015;   -0,273;    2,955
1114,606;  522,470;   -0,364;   -0,955
1115,144;  680,379;   -1,273;    1,045
1115,683;  618,833;   -0,727;    0,318
1116,221;  669,197;   -0,455;   -0,864
1116,759;  572,652;    0,636;   -0,864
1117,297;  761,742;    0,000;    1,864
1117,836;  573,561;   -2,182;   -1,227
1118,374;  581,833;    0,182;   -0,682
1118,912;  525,197;    0,909;    2,682
1119,450;  505,197;    1,000;    0,864
1119,988;  554,288;    1,545;    2,136
1120,525; 1007,924;    5,091;    3,318
1121,063;  716,379;    1,182;    1,864
1121,601;  523,288;   -0,909;   -1,227
1122,139;  486,288;   -0,727;   -2,045
1122,676;  673,833;   -0,727;    2,773
1123,214;  611,833;   -1,182;    4,409
1123,751;  430,924;    1,727;    2,227
1124,289;  550,379;   -0,091;   -0,409
1124,826;  426,652;    1,727;    0,227
1125,364;  359,561;    1,727;   -0,955
1125,901;  532,197;    1,182;    1,227
1126,438;  642,742;    0,818;    0,955
1126,975;  377,106;   -0,727;   -0,773
1127,513;  435,561;    0,273;    2,136
1128,050;  349,288;    1,636;   -0,682
1128,587;  456,924;    2,000;   -0,227
1129,124;  503,379;    0,091;    1,318
1129,661;  360,197;    0,273;    0,227
1130,198;  527,106;    1,636;    0,773
1130,734;  473,015;    0,182;    1,409
1131,271;  333,924;   -0,909;    0,864
1131,808;  503,288;    2,909;    3,045
1132,345;  375,652;    1,545;    0,318
1132,881;  249,833;   -1,545;   -1,864
1133,418;  383,379;    0,727;   -1,136
1133,954;  319,833;    2,455;   -2,682
1134,491;  390,379;    1,364;   -0,773
1135,027;  306,561;    2,364;    0,864
1135,564;  381,288;    0,273;    2,955
1136,100;  356,561;    0,364;    2,136
1136,636;  257,561;   -1,273;   -1,045
1137,172;  347,833;    0,000;   -1,045
1137,708;  275,106;   -1,364;   -1,045
1138,245;  275,470;    1,273;   -1,227
1138,781;  224,833;    1,091;   -3,318
1139,317;  300,561;    1,273;   -1,409
1139,852;  285,924;    3,091;    0,136
1140,388;  404,652;   -1,182;   -0,409
1140,924;  280,652;   -1,091;   -2,227
1141,460;  225,833;   -1,636;    0,136
1141,996;  168,742;   -1,364;    2,682
1142,531;  221,652;    1,364;    3,318
1143,067;  418,833;    1,182;    1,045
1143,602;  472,106;   -0,091;   -0,318
1144,138;  325,742;   -2,636;    1,045
1144,673;  195,288;   -1,455;    1,409
1145,209;  260,197;   -1,909;   -0,318
1145,744;  186,561;   -0,727;    0,864
1146,279;  313,924;    1,818;   -0,136
1146,815;  233,561;    1,545;   -2,682
1147,350;  271,924;   -1,364;    0,045
1147,885;  187,106;   -0,818;   -1,318
1148,420;  185,924;   -2,273;    0,773
1148,955;  165,197;   -1,727;    1,864
1149,490;  194,561;   -0,909;   -1,591
1150,025;  176,015;    0,455;   -1,773
1150,560;  283,288;    1,091;   -0,955
1151,094;  243,470;    1,455;   -0,591
1151,629;  258,197;    1,636;    0,864
1152,164;  183,106;    1,364;    1,318
1152,698;  140,561;   -0,182;   -0,136
1153,233;  103,288;    0,091;   -0,682
1153,767;  148,652;   -3,000;   -2,318
1154,302;  199,288;   -1,455;    1,773
1154,836;  203,015;   -0,455;   -2,136
1155,371;  255,015;   -1,364;    3,682
1155,905;  206,106;   -0,636;    1,682
1156,439;  171,652;   -0,636;   -0,500
1156,973;  197,470;    0,364;    0,318
1157,507;  133,470;   -0,364;    0,682
1158,042;  163,379;   -0,727;    1,045
1158,576;  205,924;    0,182;    1,773
1159,110;  194,742;   -0,818;    2,409
1159,643;  175,924;    0,636;   -0,045
1160,177;  121,561;   -1,545;    1,500

