
Integration time [ms]:   0,040
Averaging Nr. [scans]: 11
Smoothing Nr. [pixels]: 0
Data measured with spectrometer [name]: 7318044SP
Wave   ;Sample   ;Dark     ;Reference
[nm]   ;[counts] ;[counts] ;[counts] 

186,757;   28,889;   31,551;    1,318
187,357;   62,937;   22,551;    0,955
187,958;   39,202;   15,460;   -1,591
188,558;   84,331;    8,915;   -1,227
189,159;   50,047;    6,733;   -4,500
189,759;   11,099;    7,278;   -3,591
190,360;   19,439;    2,824;   -2,136
190,960;   62,891;    2,915;   -4,136
191,560;   73,322;    3,189;   -6,591
192,161;  314,559;    4,372;   -3,500
192,761;  153,291;    4,010;   -3,227
193,361;   97,025;    1,556;   -3,773
193,962;  160,186;    2,010;   -2,682
194,562;   81,333;    1,189;   -3,955
195,162;  111,203;   -2,448;   -2,227
195,762;  268,506;   -3,176;   -0,045
196,362;  213,307;    1,370;   -2,500
196,963;   78,443;    2,006;   -0,864
197,563;  156,337;    1,551;   -0,955
198,163;  100,947;    0,096;   -0,682
198,763;  123,239;    1,733;   -0,500
199,363;  217,862;    3,096;   -0,500
199,963;  183,694;    0,369;    0,409
200,563;  158,988;    2,823;   -1,409
201,163;  137,028;    3,277;   -0,227
201,763;  227,815;    3,732;    0,318
202,363;  170,292;    1,459;    1,500
202,963;  282,273;    1,459;    1,045
203,563;  395,147;    0,277;    0,500
204,162;  234,717;    2,096;   -1,864
204,762;  217,799;    0,550;    0,591
205,362;  186,117;    3,004;    1,955
205,962;  286,021;    3,096;    1,955
206,562;  282,458;    1,823;    2,318
207,161;  261,471;   -0,087;    0,318
207,761;  417,036;    1,277;    2,409
208,361;  287,730;   -0,268;    1,409
208,960;  389,674;    0,459;    1,500
209,560;  462,818;    1,277;    1,591
210,160;  444,914;    0,550;    1,864
210,759;  408,612;    4,186;    1,227
211,359;  425,000;    1,459;    1,045
211,958;  688,841;    1,277;    2,045
212,558;  766,532;    1,732;    1,864
213,157;  607,702;    1,822;    1,500
213,757; 1043,764;    3,822;   -0,227
214,356;  752,244;    1,277;   -0,409
214,956; 1096,398;    3,095;    0,409
215,555;  720,704;    2,095;    2,136
216,154;  669,009;   -2,723;   -0,591
216,754;  676,270;    0,277;    0,773
217,353;  815,745;   -0,268;   -1,045
217,952;  673,164;   -0,178;    0,318
218,552;  901,898;    1,368;   -0,773
219,151;  800,276;    0,277;    0,955
219,750;  814,185;    0,004;   -0,227
220,349;  944,441;   -0,451;    1,045
220,948;  995,254;   -1,360;    1,136
221,548; 1028,315;    0,913;    1,227
222,147; 1140,863;   -0,087;   -0,409
222,746; 1421,782;   -0,451;   -0,955
223,345; 1314,903;    0,731;    0,500
223,944; 1331,209;   -0,451;    0,773
224,543; 1514,493;    1,004;   -1,409
225,142; 1608,902;    0,094;    0,136
225,741; 1529,947;   -0,814;    1,045
226,340; 1562,101;   -0,451;   -0,955
226,939; 1993,850;   -0,996;   -0,136
227,538; 1986,415;   -0,360;   -0,773
228,137; 2120,860;   -0,814;    0,864
228,735; 2274,126;   -0,541;    1,227
229,334; 2028,205;   -0,905;   -0,227
229,933; 2401,282;    0,459;    0,591
230,532; 2509,299;    1,186;   -0,409
231,131; 2557,646;    1,732;    0,318
231,729; 2710,070;   -2,450;   -2,318
232,328; 2858,564;   -0,723;   -1,500
232,927; 2953,668;    1,004;   -0,500
233,525; 3059,867;    3,640;    0,045
234,124; 3266,903;    2,368;   -1,591
234,723; 3301,771;    0,913;   -1,045
235,321; 3454,836;    2,277;    0,136
235,920; 3680,530;    1,186;   -1,227
236,518; 3948,050;    3,459;    0,318
237,117; 4143,744;    0,004;   -0,227
237,715; 4307,452;    0,640;   -0,500
238,314; 4335,772;   -0,087;   -2,318
238,912; 4417,259;   -0,723;   -1,409
239,510; 4488,326;    0,459;   -1,227
240,109; 4673,288;    0,004;    3,773
240,707; 4719,832;   -0,996;    1,227
241,305; 5095,907;    0,550;    0,136
241,904; 5281,998;   -0,178;   -2,045
242,502; 5259,289;   -0,632;   -0,227
243,100; 5222,530;   -0,087;   -0,955
243,698; 5471,693;    0,732;    1,682
244,297; 5662,393;   -0,632;    0,682
244,895; 5491,642;   -0,269;   -2,318
245,493; 5815,217;    2,186;   -0,591
246,091; 5866,523;    1,368;   -1,318
246,689; 5852,245;    1,004;    0,591
247,287; 6024,024;    0,822;   -1,136
247,885; 6316,783;   -1,451;    1,227
248,483; 6433,713;    1,822;   -0,500
249,081; 6568,686;    0,185;    1,591
249,679; 6704,330;   -0,178;    1,682
250,277; 6975,740;   -1,723;    0,864
250,875; 6983,718;   -1,087;   -1,045
251,473; 7014,782;   -1,178;    0,500
252,071; 7185,713;    1,459;    1,045
252,669; 7359,209;   -1,814;    0,318
253,267; 7655,690;   -0,087;    0,773
253,864; 7609,661;   -0,360;    0,682
254,462; 7475,583;    1,640;    1,591
255,060; 7449,280;   -0,269;    1,318
255,658; 7784,209;    0,822;   -0,136
256,255; 8208,382;    0,186;   -2,045
256,853; 8098,601;   -0,269;    1,409
257,451; 8082,204;    0,822;    1,864
258,048; 8314,537;    1,822;    1,864
258,646; 8109,304;    1,731;   -1,045
259,243; 8284,783;   -0,087;    2,227
259,841; 8338,728;   -0,814;    0,318
260,438; 8252,484;   -0,087;    0,864
261,036; 8964,341;   -1,905;    1,409
261,633; 8864,857;   -0,087;    2,227
262,231; 8607,132;    2,731;   -0,045
262,828; 8730,661;   -0,905;    1,136
263,425; 8778,161;    0,913;   -0,591
264,023; 9049,371;    0,186;    0,045
264,620; 8598,474;   -0,360;   -0,318
265,217; 8951,670;   -2,087;    3,136
265,815; 9062,037;   -1,905;    2,136
266,412; 8813,591;    0,731;    0,136
267,009; 8881,471;   -1,451;    0,773
267,606; 8759,850;    0,822;   -0,955
268,203; 8753,034;   -0,269;   -0,591
268,801; 9089,962;    1,731;    0,591
269,398; 9380,379;   -0,360;    2,500
269,995; 9333,298;    0,277;    1,591
270,592; 9117,783;   -0,632;   -0,500
271,189; 9320,412;    0,186;    0,409
271,786; 9418,018;   -0,632;    1,227
272,383; 9266,535;   -1,087;    0,227
272,980; 9463,360;    0,277;    0,318
273,577; 9958,437;    0,004;    1,227
274,174; 9541,584;    0,822;    2,591
274,771; 9484,482;   -0,814;   -0,773
275,367; 9630,158;    2,277;    1,409
275,964; 9591,660;    0,731;   -0,500
276,561; 9679,227;    1,549;   -1,045
277,158; 9937,875;    0,095;   -1,773
277,755;10069,867;    2,185;    0,409
278,351; 9430,571;   -0,451;   -1,500
278,948; 9752,647;   -0,815;    0,045
279,545; 9778,515;   -1,360;    2,318
280,141;10363,180;   -1,723;   -2,045
280,738;10290,378;   -0,451;   -0,136
281,334;10533,834;   -1,633;    0,591
281,931; 9904,549;   -0,087;   -1,318
282,528;10010,551;    0,822;   -0,500
283,124;10712,401;   -1,087;   -0,500
283,721;10624,070;   -0,451;    1,409
284,317;10449,075;    0,185;    2,500
284,913;10957,505;   -1,360;    0,591
285,510;11177,414;    0,640;   -0,318
286,106;11178,847;   -2,269;   -0,955
286,703;10799,415;   -0,360;    1,955
287,299;11027,274;   -1,451;   -0,591
287,895;11230,597;    0,822;   -1,045
288,491;11815,652;    0,186;    2,136
289,088;11512,220;   -2,360;    2,409
289,684;11594,027;   -1,723;    1,500
290,280;11577,161;    0,368;    0,682
290,876;11677,163;    1,822;    5,500
291,472;11555,271;    1,276;    2,227
292,068;11681,769;    1,367;    0,227
292,665;11415,637;    2,095;    0,773
293,261;11016,969;    0,276;    2,136
293,857;11386,331;    2,913;    2,136
294,453;11355,912;    3,550;    0,955
295,049;11230,094;   -0,268;    1,955
295,644;11239,779;    0,095;    0,136
296,240;11139,552;   -0,905;   -0,136
296,836;11204,962;   -0,995;    0,318
297,432;11467,430;    1,096;   -0,500
298,028;11504,676;    0,732;    0,773
298,624;11936,344;    1,459;    1,864
299,220;12185,166;    2,368;    0,591
299,815;11872,122;    1,005;   -0,409
300,411;11677,276;    0,914;    1,773
301,007;11661,567;    1,368;    0,227
301,602;11750,124;   -0,541;   -2,318
302,198;11878,596;    0,732;   -0,773
302,794;12213,842;    1,187;   -0,500
303,389;12378,224;   -1,177;    1,045
303,985;12456,120;    0,550;    1,409
304,580;12406,927;    1,459;    1,591
305,176;12389,698;   -3,086;    0,136
305,771;12325,513;   -1,268;   -1,227
306,367;12147,978;    4,095;    0,136
306,962;12510,033;    0,641;    1,500
307,558;12267,696;   -0,450;    0,136
308,153;12168,068;    1,095;   -1,136
308,748;12428,272;   -0,814;    1,682
309,344;12368,192;   -0,632;   -1,318
309,939;12431,261;   -1,905;   -1,318
310,534;12732,226;   -0,086;   -1,682
311,130;12661,979;    0,459;   -2,500
311,725;12409,482;    1,004;   -0,500
312,320;12752,831;    2,459;    0,045
312,915;12560,414;    1,459;   -1,045
313,510;12622,066;    1,550;   -0,500
314,105;13191,591;    1,096;    1,409
314,700;12572,004;   -3,086;   -1,045
315,295;12186,018;   -0,904;    0,045
315,890;11760,566;    1,277;    0,864
316,485;12128,040;   -0,359;   -0,318
317,080;12214,863;   -3,086;    1,591
317,675;12771,019;    2,005;   -0,682
318,270;12189,173;    5,550;    3,318
318,865;12226,985;    3,278;    3,045
319,460;12070,546;   -0,904;    0,591
320,055;12332,715;   -0,541;   -1,227
320,650;11977,743;   -1,995;   -0,591
321,244;12045,473;   -0,177;   -1,409
321,839;12995,659;   -1,541;   -0,227
322,434;12850,558;   -1,086;   -1,591
323,029;12493,327;    1,732;    1,591
323,623;12309,726;    1,550;    0,773
324,218;12056,738;    2,368;    1,409
324,812;11951,121;    1,096;    1,591
325,407;11767,455;   -0,814;    2,045
326,002;11643,617;    0,277;   -0,409
326,596;11969,440;    0,914;    1,318
327,191;12178,768;    0,823;   -1,045
327,785;11738,622;   -0,813;   -0,227
328,379;11957,528;    1,368;    0,136
328,974;11766,651;    0,914;   -3,955
329,568;11983,614;    0,186;   -2,409
330,163;11790,280;    2,096;    1,045
330,757;12157,117;    2,459;    1,591
331,351;11499,718;    0,459;    0,682
331,945;11817,927;    0,914;    1,409
332,540;11366,815;   -1,723;   -0,591
333,134;11516,006;   -1,086;    0,773
333,728;11770,329;    0,005;    0,318
334,322;12103,548;   -1,177;   -0,864
334,916;11416,405;    0,277;    0,955
335,510;11728,011;   -0,450;   -0,136
336,105;11969,314;   -1,086;    1,591
336,699;11681,470;   -1,086;    0,591
337,293;11614,088;   -1,723;    0,318
337,887;11800,500;   -2,723;    1,955
338,481;11887,024;    0,459;    0,591
339,074;12031,217;   -0,359;    2,682
339,668;11878,518;   -1,632;    1,227
340,262;12131,136;    1,732;    3,227
340,856;11627,525;    1,822;   -0,682
341,450;11016,638;    1,004;    1,864
342,044;11894,088;    1,459;    0,136
342,637;11670,742;    0,913;   -2,136
343,231;11523,996;   -2,360;    0,682
343,825;11467,373;   -1,086;   -0,591
344,419;11455,691;   -1,995;    0,500
345,012;11234,032;    2,459;    4,045
345,606;11244,508;    4,641;    1,591
346,199;11080,461;   -1,813;   -0,227
346,793;10573,034;    1,914;    2,045
347,386;10802,537;   -0,813;   -1,136
347,980;10818,811;   -0,268;   -0,045
348,573;10573,045;    2,278;    0,409
349,167;10202,084;    5,278;    4,773
349,760;10582,492;    2,914;    2,682
350,354;10565,054;   -0,813;    1,136
350,947;10277,852;    1,096;    1,682
351,540; 9968,326;   -0,358;   -1,409
352,134; 9926,888;    1,096;    1,136
352,727; 9983,053;   -0,086;    1,136
353,320; 9795,587;    0,005;    0,591
353,913; 9622,111;   -1,995;    1,864
354,507; 9806,960;    0,823;   -1,227
355,100; 9837,559;    0,460;    0,864
355,693; 9056,787;    2,005;    2,409
356,286; 9086,064;    0,823;    2,773
356,879; 9471,595;   -0,722;    1,227
357,472; 9072,373;   -0,904;    1,500
358,065; 9262,970;   -0,722;    2,500
358,658; 9218,316;   -0,540;    2,318
359,251; 8858,874;   -1,631;   -0,591
359,844; 8324,315;   -1,904;   -1,136
360,437; 8480,267;   -2,995;    0,045
361,030; 8762,842;    1,369;   -0,682
361,623; 8354,254;    2,824;    0,318
362,215; 8375,166;   -0,086;    2,045
362,808; 8229,021;   -2,358;   -1,682
363,401; 8449,809;   -2,449;    0,136
363,994; 8180,812;   -0,631;   -1,500
364,586; 8080,849;    0,824;   -1,500
365,179; 8296,407;   -0,449;   -1,136
365,772; 7778,792;   -1,995;    2,045
366,364; 8075,228;    1,915;   -3,227
366,957; 8281,401;    2,279;   -0,045
367,549; 8289,359;    2,188;   -0,864
368,142; 7951,024;    1,825;   -1,500
368,734; 8150,659;    0,734;   -2,136
369,327; 8108,361;    1,643;   -0,500
369,919; 8034,854;   -1,538;    0,409
370,512; 7821,228;   -1,083;   -0,500
371,104; 7564,214;   -0,901;    1,591
371,696; 7726,985;    1,191;   -0,955
372,289; 7812,384;    0,373;    1,136
372,881; 7962,023;   -2,080;    1,318
373,473; 7897,362;   -2,170;    1,136
374,066; 7669,477;   -0,169;    0,500
374,658; 7551,170;    0,378;    1,136
375,250; 7927,931;    0,653;   -1,409
375,842; 7756,514;    0,473;   -0,045
376,434; 7622,383;   -0,435;   -0,409
377,026; 8212,662;    0,204;   -2,500
377,618; 8110,404;   -0,158;   -0,682
378,210; 7969,142;   -0,338;   -1,955
378,802; 7810,226;    0,754;   -0,591
379,394; 7763,273;    1,846;    0,682
379,986; 8351,640;    1,393;   -0,955
380,578; 8483,345;   -0,153;    0,773
381,170; 7777,881;   -0,972;    0,045
381,762; 7716,308;    0,755;    1,409
382,354; 7947,242;   -0,065;   -1,318
382,945; 8056,318;   -2,976;    0,318
383,537; 8207,847;   -2,705;   -1,955
384,129; 8202,204;   -2,160;   -1,136
384,721; 8426,884;   -0,252;    0,955
385,312; 8356,065;   -0,161;   -0,955
385,904; 8430,303;   -2,706;    1,591
386,496; 7794,822;   -0,979;    1,045
387,087; 7965,994;    1,022;    2,500
387,679; 8016,270;   -1,160;    0,045
388,270; 8139,402;    2,840;    2,045
388,862; 8241,169;    1,295;   -0,318
389,453; 8138,290;   -0,887;    1,045
390,045; 8406,621;   -0,705;   -2,682
390,636; 8347,332;    0,204;   -0,591
391,227; 8201,177;   -0,523;   -0,045
391,819; 8329,099;    0,204;    0,773
392,410; 8339,669;    1,022;    0,045
393,001; 8285,227;   -0,979;   -1,591
393,593; 8584,897;    1,930;   -0,045
394,184; 8434,694;    1,385;   -0,409
394,775; 8409,914;    1,839;    2,136
395,366; 8581,297;    1,385;    0,773
395,957; 8575,531;    0,113;    0,136
396,548; 8922,782;   -0,342;    2,682
397,139; 9214,173;   -2,433;    0,591
397,730; 8915,707;   -1,888;    0,955
398,321; 9009,036;   -1,252;    0,955
398,912; 9026,300;   -0,615;    0,136
399,503; 9122,411;   -3,524;   -1,409
400,094; 8554,086;    0,294;    1,682
400,685; 8414,135;   -0,433;    0,045
401,276; 8488,631;    0,930;   -0,955
401,867; 8824,384;   -0,888;    0,773
402,458; 8914,860;   -2,251;   -2,318
403,048; 8889,336;    1,112;    0,591
403,639; 8529,874;    0,840;    0,864
404,230; 8754,563;    2,476;    0,318
404,821; 8675,865;   -0,615;    0,045
405,411; 8808,008;    1,203;   -2,591
406,002; 8371,381;   -1,252;   -1,136
406,592; 8217,261;    2,294;    0,045
407,183; 8532,042;    0,566;   -1,500
407,774; 8445,111;    3,475;   -0,136
408,364; 8785,024;    0,930;    0,409
408,954; 8393,786;    0,384;    1,227
409,545; 8463,222;    1,021;    1,045
410,135; 7967,212;    1,293;    0,500
410,726; 8127,733;    1,838;    0,318
411,316; 8528,480;    0,111;    0,773
411,906; 8213,556;   -0,253;   -0,409
412,497; 7691,998;   -1,070;   -0,045
413,087; 8294,348;   -1,980;   -0,227
413,677; 8696,947;   -0,707;    3,864
414,267; 8525,890;    0,656;    1,409
414,857; 8541,563;   -2,980;    4,227
415,448; 8838,138;    0,839;    0,500
416,038; 8520,383;    0,020;   -0,591
416,628; 8501,565;   -0,889;    0,409
417,218; 7919,073;    0,565;    3,318
417,808; 8195,110;    0,202;   -0,409
418,398; 8684,875;    0,020;    2,682
418,988; 8710,965;    2,020;    0,591
419,578; 8991,133;   -0,707;    1,409
420,168; 9326,205;   -1,343;   -0,955
420,757; 8883,534;   -1,343;   -1,500
421,347; 8564,100;    0,111;   -0,227
421,937; 8748,568;    2,292;    1,409
422,527; 8680,102;    0,838;   -0,773
423,116; 8468,538;   -0,253;   -0,045
423,706; 8852,494;   -1,889;    0,318
424,296; 8841,482;    1,384;    0,682
424,885; 9253,664;   -0,071;   -3,045
425,475; 9530,756;    1,474;   -2,864
426,065; 9505,685;   -0,980;   -0,318
426,654; 9095,547;   -0,435;   -0,318
427,244; 9182,904;    0,020;    1,409
427,833; 8638,315;    1,383;   -0,500
428,423; 9166,356;   -0,526;    1,136
429,012; 9935,249;   -0,344;   -1,136
429,601; 9401,185;   -1,344;    0,136
430,191; 9635,422;    1,292;    4,318
430,780; 9281,427;   -0,344;   -0,409
431,369; 9176,009;    0,746;   -0,045
431,959; 9836,072;   -1,254;    0,500
432,548; 9645,578;   -1,163;   -0,045
433,137; 9783,015;   -1,254;   -1,318
433,726;10314,323;    0,292;    0,500
434,315; 9689,528;   -0,526;    2,409
434,905; 9775,896;   -1,254;    1,409
435,494; 9651,624;    0,746;    0,955
436,083;10144,776;   -0,981;   -0,955
436,672; 9999,304;    0,110;    0,500
437,261; 9543,498;    0,292;   -1,955
437,850; 9663,950;    1,383;    0,682
438,439; 9629,780;    3,291;    1,955
439,027; 9478,102;    3,655;    1,773
439,616; 9842,621;    2,927;    1,227
440,205; 9715,381;    0,200;   -2,136
440,794; 9814,106;    2,109;   -0,045
441,383;10063,318;   -1,346;   -0,591
441,971; 9920,111;   -2,436;    0,591
442,560; 9765,564;    0,563;   -1,773
443,149; 9564,052;    0,379;   -1,318
443,737; 9698,971;   -0,074;   -2,318
444,326; 9958,127;    0,018;    0,318
444,915;10019,402;   -1,982;    0,864
445,503;10430,516;   -2,891;   -0,318
446,092; 9681,202;    0,382;    2,136
446,680;10233,112;    0,382;    0,318
447,269;10406,044;   -0,346;   -0,318
447,857;10205,530;    0,018;   -1,773
448,445;10325,242;    0,563;    1,318
449,034;10528,419;   -1,528;   -1,136
449,622;10686,152;   -1,073;    3,500
450,210; 9834,325;    2,017;    2,227
450,799;10409,550;    0,290;   -0,591
451,387;10343,358;    1,381;   -0,591
451,975;10017,473;    2,654;    0,864
452,563;10067,421;    3,472;    2,318
453,151;10150,144;   -0,528;   -1,227
453,739;10036,181;   -1,347;    0,136
454,328; 9887,524;    2,381;   -2,136
454,916; 9633,018;    2,562;   -0,136
455,504; 9826,867;    1,017;    1,227
456,092; 9992,002;    0,017;   -1,591
456,679;10007,261;    1,472;    0,682
457,267; 9884,383;    4,017;    1,045
457,855;10077,243;    1,017;    1,409
458,443; 9846,208;   -0,165;    1,682
459,031; 9951,752;    0,108;    2,409
459,619;10456,458;   -1,801;    2,864
460,206;10601,273;    0,835;    2,045
460,794;10677,573;   -2,983;   -0,227
461,382;10888,790;   -0,529;   -0,864
461,970;10484,361;    1,198;    1,864
462,557;10547,654;   -0,711;   -0,682
463,145;10714,918;   -3,165;   -1,682
463,732;10854,023;    2,016;   -1,045
464,320;10816,384;   -0,075;   -3,045
464,907;10458,024;    2,743;   -0,773
465,495;10354,922;    0,743;   -1,227
466,082;10514,762;   -1,984;   -0,045
466,670;10439,968;   -2,529;    1,227
467,257;10858,666;   -1,711;    2,045
467,844;10990,935;   -0,075;    0,045
468,432;11023,538;    0,834;    3,500
469,019;10541,222;    0,925;   -1,773
469,606;11038,910;    0,470;    3,682
470,193;10818,553;   -1,439;    0,227
470,780;10370,343;   -2,075;    0,864
471,368;10762,577;   -1,257;   -0,773
471,955;10520,612;    1,379;   -0,682
472,542;10159,713;    0,652;   -1,136
473,129;10423,253;   -0,166;    0,136
473,716;10176,451;    1,470;    0,591
474,303;10387,645;    0,652;   -0,864
474,890;10668,601;   -1,439;   -0,500
475,477;10625,012;   -1,621;    0,409
476,064;10540,281;    1,106;   -1,591
476,650;10511,122;    0,288;    0,318
477,237;10346,576;   -0,258;    0,955
477,824;10483,373;   -1,076;    0,864
478,411;10536,348;   -1,894;   -0,318
478,997;10733,398;    0,560;   -0,773
479,584;10814,277;    1,196;   -0,409
480,171;11527,749;   -0,440;   -0,773
480,757;11149,310;    2,651;    0,773
481,344;11450,183;    0,469;    0,409
481,931;11003,375;    1,105;    1,045
482,517;11970,166;   -1,258;    0,318
483,104;12577,245;    1,106;    2,864
483,690;12941,172;   -1,804;    0,045
484,276;13357,612;   -0,895;    0,227
484,863;13055,896;    2,469;    1,136
485,449;13702,086;   -0,077;    0,318
486,035;13671,234;   -1,986;   -0,136
486,622;14127,105;   -0,895;    0,045
487,208;14105,977;    1,378;    1,500
487,794;13915,489;    0,741;    0,318
488,380;14043,447;    0,105;   -1,409
488,967;14092,414;   -1,168;   -0,409
489,553;14164,166;   -1,895;   -1,409
490,139;14356,055;    1,559;    0,773
490,725;13786,813;    0,741;   -0,227
491,311;13357,205;    3,287;    3,045
491,897;12686,587;   -0,986;    1,500
492,483;12491,668;    0,105;    1,227
493,069;12142,852;    3,923;    0,864
493,655;12142,819;    1,650;    0,682
494,241;12037,665;    1,377;   -0,955
494,826;12483,433;    0,287;   -1,045
495,412;11945,192;    2,559;   -0,682
495,998;12092,687;   -0,805;   -0,318
496,584;12237,276;    0,377;    1,045
497,169;12215,038;    1,014;   -0,682
497,755;12182,954;    0,650;    1,227
498,341;12721,123;    0,559;    0,318
498,926;12300,825;    1,832;    1,955
499,512;12498,796;    1,286;    2,955
500,097;12648,315;    0,195;   -0,318
500,683;12572,332;   -0,350;    2,136
501,268;12967,559;   -0,169;   -0,955
501,854;12685,055;   -0,169;    1,227
502,439;12589,044;   -0,624;   -1,773
503,024;12823,435;    0,195;    0,500
503,610;12907,085;   -0,078;   -0,682
504,195;12926,549;    0,558;    1,955
504,780;13053,402;    2,922;    1,227
505,366;12853,274;    3,013;    2,864
505,951;12554,165;    0,740;    1,045
506,536;12569,252;   -3,260;   -3,682
507,121;12554,029;    0,285;   -0,318
507,706;13116,593;    2,376;    1,045
508,291;13518,899;    2,649;    1,136
508,876;12986,177;   -0,988;    2,591
509,461;12407,321;   -0,169;   -0,773
510,046;12822,147;    0,194;    0,318
510,631;13040,498;   -0,351;   -0,773
511,216;12715,824;    2,467;   -0,500
511,801;13111,056;   -0,442;    2,591
512,386;13417,423;    0,740;    0,500
512,971;13356,141;   -2,988;    0,955
513,555;12911,355;   -0,897;   -1,500
514,140;13738,612;   -0,442;   -3,136
514,725;13698,231;   -0,715;   -1,136
515,309;13835,194;   -0,533;    0,318
515,894;13289,337;   -0,624;   -2,227
516,479;13762,217;   -0,624;   -0,955
517,063;13582,707;    0,376;    1,227
517,648;13723,641;    1,012;   -1,136
518,232;13373,882;   -0,261;   -1,409
518,817;13692,226;   -0,079;    1,682
519,401;13886,975;    2,194;    0,591
519,985;13404,108;    1,103;    1,136
520,570;13295,887;    0,830;   -1,955
521,154;13607,122;    2,102;    0,591
521,738;13772,203;   -2,352;    2,409
522,323;14334,358;   -0,170;    1,682
522,907;14097,152;    0,466;   -0,136
523,491;13823,989;    0,557;    0,955
524,075;13792,332;    2,284;    0,591
524,659;13885,079;    1,466;    0,591
525,243;13310,317;    1,739;    0,409
525,827;13564,579;    0,648;   -0,045
526,411;14457,806;   -1,989;   -0,136
526,995;14646,199;   -0,352;    1,409
527,579;14266,607;   -0,443;   -1,045
528,163;14557,647;    0,375;   -1,500
528,747;14492,161;    2,466;   -0,773
529,331;14797,527;   -0,080;   -1,409
529,915;15015,509;    1,738;    0,955
530,499;14972,568;   -0,807;    1,227
531,082;14629,140;   -0,534;    1,591
531,666;14067,384;    1,374;    0,773
532,250;14780,141;    1,284;    2,682
532,833;15131,321;    0,920;    2,773
533,417;14981,911;   -1,807;    0,864
534,001;14978,787;    1,647;   -0,318
534,584;15686,584;    0,374;    0,500
535,168;15514,118;    0,465;    1,409
535,751;15542,695;    0,647;    0,045
536,334;14977,477;   -0,898;   -0,409
536,918;15604,310;    0,011;    1,591
537,501;15768,214;   -0,899;    1,318
538,085;15743,438;   -0,444;    1,045
538,668;15879,055;    0,829;    2,409
539,251;16198,853;    1,829;    3,773
539,834;16190,101;    0,101;    0,773
540,418;16102,759;   -1,990;    4,318
541,001;16254,405;   -0,990;    1,773
541,584;16256,843;    2,101;    2,227
542,167;15958,089;    1,374;    2,955
542,750;16132,267;    1,919;   -0,773
543,333;15740,892;    0,555;    2,136
543,916;16487,608;    0,192;    2,500
544,499;17105,909;   -1,354;    0,227
545,082;17127,168;    1,374;    3,591
545,665;17265,606;    1,919;    1,500
546,248;17579,074;    1,010;   -0,318
546,830;17285,011;   -0,445;    1,955
547,413;17712,574;    1,010;   -0,773
547,996;18253,803;    0,555;    0,500
548,579;18045,239;    0,919;    0,955
549,161;17863,316;    1,828;    2,682
549,744;17617,206;   -0,809;    0,409
550,326;18095,854;   -0,809;   -1,136
550,909;17855,726;    2,737;    0,591
551,492;18279,090;   -0,263;    0,227
552,074;18078,625;   -0,173;   -1,318
552,657;18621,963;    2,373;    0,045
553,239;18385,903;   -0,173;   -0,773
553,821;18311,507;   -1,082;    1,045
554,404;17821,561;    1,282;    1,136
554,986;18201,271;    0,464;    1,045
555,568;18833,938;    1,191;   -0,955
556,151;17996,645;    1,191;   -0,227
556,733;18228,058;   -0,264;   -0,864
557,315;18679,254;    0,100;    0,500
557,897;18535,470;    0,554;   -0,500
558,479;18694,606;   -1,991;    1,318
559,061;18802,426;   -0,719;   -0,864
559,643;19113,126;   -0,264;    0,045
560,225;19479,560;    1,645;    2,864
560,807;19512,308;    0,918;    0,318
561,389;19004,403;    0,554;    2,318
561,971;19786,000;    0,463;    2,136
562,553;19559,192;   -1,628;    1,591
563,135;19687,024;   -0,537;    1,136
563,717;19267,713;    3,372;    1,136
564,298;19971,534;    3,645;   -0,045
564,880;19730,674;    0,645;   -1,409
565,462;19919,492;    0,645;    1,318
566,043;21113,959;   -0,446;    2,318
566,625;20584,498;    1,918;    1,227
567,207;20476,790;    1,099;    1,682
567,788;21581,730;   -1,264;    1,500
568,370;22478,305;    1,917;   -0,500
568,951;22320,922;    0,190;    0,227
569,533;23201,755;   -0,628;   -0,500
570,114;23628,773;   -0,446;    0,682
570,695;24154,012;   -0,174;   -1,318
571,277;24631,995;   -0,265;   -1,682
571,858;25395,239;    2,008;   -1,136
572,439;26382,945;    1,554;   -1,045
573,021;26594,939;    2,099;   -2,773
573,602;27079,313;   -1,265;    0,318
574,183;28000,724;   -2,083;    2,227
574,764;28127,492;   -1,629;    0,409
575,345;28721,287;    0,917;   -0,136
575,926;29367,406;   -0,356;    0,136
576,507;29398,035;    1,099;   -0,227
577,088;30541,002;    3,099;    1,682
577,669;30510,177;    0,735;    1,955
578,250;31235,361;    0,644;   -1,045
578,831;31865,900;   -1,356;   -2,227
579,412;32141,884;   -0,810;    0,955
579,993;33071,689;    1,008;    0,227
580,573;33475,545;   -0,629;   -0,955
581,154;32426,398;    0,735;   -0,591
581,735;33321,593;    0,644;    0,773
582,315;32820,412;   -0,629;    2,136
582,896;33135,674;   -0,174;    1,227
583,477;32599,548;    0,189;    1,227
584,057;32756,384;    0,553;    0,955
584,638;33051,507;    2,553;    2,318
585,218;33026,190;   -0,538;    2,682
585,799;33225,173;    0,281;   -0,227
586,379;33220,730;    0,372;    1,591
586,959;32036,789;    0,735;    0,318
587,540;31324,421;   -0,629;    2,227
588,120;30839,898;    1,007;   -0,045
588,700;29785,244;    2,553;    2,136
589,281;30053,753;    0,462;   -0,955
589,861;29980,822;    0,099;   -1,682
590,441;29824,493;    2,371;   -2,682
591,021;28829,864;   -0,265;   -2,591
591,601;29053,173;   -0,537;    0,500
592,181;29018,181;   -0,719;   -0,773
592,761;28290,741;    0,007;    1,409
593,341;28194,205;   -0,901;    0,045
593,921;28201,061;   -0,265;    1,591
594,501;28076,912;   -0,538;    1,318
595,081;27913,263;    0,917;   -0,318
595,661;28243,116;   -1,447;    0,955
596,240;28765,569;   -0,537;    0,136
596,820;28398,394;    0,372;    1,955
597,400;28631,494;    2,008;    0,773
597,980;28870,735;    2,008;    1,045
598,559;28894,293;    2,735;   -0,227
599,139;28558,330;   -0,174;   -1,227
599,718;28474,694;   -0,174;   -0,409
600,298;28732,053;    0,735;    0,682
600,877;28932,298;    2,917;    1,409
601,457;29176,032;    2,281;    1,136
602,036;29096,440;    0,190;    2,045
602,616;29386,274;    0,644;    1,682
603,195;29686,208;   -0,355;    3,500
603,774;29217,394;   -0,901;    2,045
604,354;29096,283;    0,826;   -0,500
604,933;28625,519;    0,463;    1,864
605,512;28761,360;    3,554;    0,591
606,091;28783,315;   -0,537;    3,773
606,671;29549,552;    0,281;    0,773
607,250;28659,019;    1,644;    3,136
607,829;28915,514;    2,372;    3,227
608,408;28803,270;    1,190;    2,591
608,987;27752,898;    1,281;    3,409
609,566;28041,122;   -1,265;   -2,500
610,145;28182,890;   -1,082;    0,682
610,723;28610,766;    4,372;    6,864
611,302;27877,298;   -0,446;    1,682
611,881;27345,529;    5,008;   11,227
612,460;28195,060;    1,645;    3,955
613,039;28625,243;   -0,082;    2,045
613,617;27330,753;    1,736;    4,773
614,196;27497,001;    1,099;    1,227
614,775;27862,562;    1,009;    2,409
615,353;27844,371;    0,736;    0,864
615,932;27484,721;    0,100;    2,409
616,510;28089,555;    0,554;    0,591
617,089;27595,888;    7,100;   17,591
617,667;27343,545;    2,372;    6,136
618,246;27255,322;   -1,537;    1,318
618,824;27349,132;   -3,355;   -0,955
619,402;26936,866;   -2,900;   -1,773
619,981;27468,513;   -0,173;   -1,045
620,559;27299,244;    0,009;    1,682
621,137;26780,703;   -0,718;    1,864
621,715;26787,396;   -1,173;   -0,682
622,293;26737,301;   -0,537;   -0,773
622,871;27220,709;   -0,718;    0,500
623,450;26817,932;    0,373;   -0,864
624,028;26684,815;    0,191;   -0,955
624,606;26313,417;   -1,718;    1,682
625,183;26704,208;   -1,536;   -1,136
625,761;26308,292;    1,009;    1,136
626,339;26613,597;    1,373;    2,591
626,917;27009,164;   -0,172;   -0,045
627,495;27069,396;   -0,354;    1,318
628,073;26454,337;   -0,263;    2,864
628,650;26140,815;    0,100;    2,136
629,228;26572,667;    0,373;    4,409
629,806;26023,191;    2,282;    1,136
630,383;26322,145;    1,464;   -0,318
630,961;26078,678;    2,555;   -0,955
631,539;25798,192;    2,464;    0,227
632,116;25112,951;   11,373;   15,409
632,694;25704,794;    2,555;    6,500
633,271;26043,630;    0,828;    2,682
633,848;25951,716;    1,828;    2,045
634,426;25964,537;   -1,081;    1,773
635,003;25079,374;    1,101;   -0,409
635,580;25386,532;    1,192;    3,682
636,158;25953,035;    3,737;    1,227
636,735;25962,208;    0,555;   -0,500
637,312;26080,714;   -0,809;   -0,682
637,889;26178,201;   -4,354;   -0,682
638,466;25637,677;   -3,990;   -0,409
639,043;25642,077;    2,101;   -1,136
639,620;25998,856;   -2,262;   -0,955
640,197;26330,327;    1,100;    1,682
640,774;26449,115;   -0,172;    1,136
641,351;26834,357;    0,737;    1,136
641,928;26207,327;   -0,627;    1,409
642,505;25882,114;    0,828;   -0,500
643,082;26019,720;   -1,718;    1,227
643,658;25027,781;   -0,718;    1,500
644,235;25814,932;    1,191;    2,500
644,812;26070,993;    1,918;    0,773
645,388;25825,690;   -0,991;    1,409
645,965;25939,205;   -0,809;    1,682
646,542;25991,629;   -1,445;   -0,227
647,118;25995,326;    1,009;   -0,955
647,695;26289,841;   -0,263;    1,136
648,271;26231,902;   -0,536;    0,500
648,848;26507,053;    0,736;    2,227
649,424;26342,023;    0,827;    1,318
650,000;26136,810;   -0,354;   -1,045
650,577;25945,416;   -0,627;   -0,955
651,153;26398,841;   -1,809;    0,955
651,729;27374,174;    1,191;    0,864
652,305;27590,144;    0,645;    2,773
652,881;32007,295;   -0,082;    1,136
653,458;39035,446;    1,100;    0,227
654,034;43180,234;    0,282;    1,591
654,610;44809,113;    0,554;    0,773
655,186;46230,537;    0,645;    3,045
655,762;45928,143;   -0,991;    0,409
656,338;45983,658;    0,100;    0,136
656,913;46961,173;   -0,082;    0,409
657,489;46294,779;    0,827;   -0,318
658,065;46195,385;   -0,173;   -1,591
658,641;46890,173;   -0,900;   -0,864
659,217;46202,961;   -0,991;    0,409
659,792;45545,567;    0,645;   -0,409
660,368;45830,082;   -2,173;   -0,682
660,944;45491,779;   -2,082;    1,227
661,519;40927,930;   -0,628;    0,409
662,095;34769,173;   -1,719;    0,591
662,670;29815,324;    1,281;   -0,136
663,246;28518,385;    1,009;   -0,409
663,821;27729,082;    0,281;    1,682
664,396;27196,597;    0,009;    1,864
664,972;27520,475;    0,009;   -0,500
665,547;27819,172;    1,372;    0,136
666,122;27812,869;   -1,082;    0,318
666,698;28059,748;   -0,173;    0,318
667,273;27436,717;   -0,173;    0,136
667,848;28226,051;    2,372;    1,500
668,423;28027,384;    2,190;    2,318
668,998;28632,081;    2,827;   -0,682
669,573;29177,141;   -3,264;   -1,500
670,148;29027,293;   -1,446;   -0,682
670,723;28823,626;   -1,810;    0,318
671,298;29230,596;    2,372;    1,045
671,873;29355,111;   -0,082;   -0,136
672,448;29282,717;    0,645;    0,136
673,023;29665,777;   -1,992;   -0,227
673,597;29977,202;    0,827;    2,318
674,172;29804,171;   -0,355;    0,318
674,747;29245,141;    0,372;   -1,045
675,321;29146,747;   -0,628;    3,318
675,896;28716,716;    0,645;    1,045
676,471;29699,322;    2,645;    1,591
677,045;29406,837;   -1,264;    0,682
677,620;29521,716;    0,190;    1,136
678,194;29796,413;   -2,628;    1,136
678,769;29357,474;   -1,083;   -0,318
679,343;29574,080;   -0,628;    1,773
679,917;29465,413;   -1,446;    1,955
680,492;29576,382;    0,826;    3,227
681,066;29684,807;    3,372;    0,409
681,640;29765,685;    1,463;   -0,318
682,214;30541,200;    0,735;    0,500
682,788;30045,261;   -1,356;   -0,773
683,363;29975,867;   -1,810;    1,682
683,937;29726,655;   -1,719;   -0,318
684,511;30501,443;    0,463;   -0,591
685,085;30178,230;   -1,356;    0,318
685,659;30003,745;   -2,538;    0,864
686,232;30194,442;   -0,356;   -0,318
686,806;29894,685;   -0,901;    0,409
687,380;30619,836;   -0,174;    0,591
687,954;30781,806;   -1,174;    1,136
688,528;30498,594;   -0,719;    1,955
689,101;31273,200;   -3,992;    1,045
689,675;30887,987;   -0,356;   -0,136
690,249;30239,957;   -0,719;    0,409
690,822;30517,381;    0,280;    0,318
691,396;30648,078;   -0,265;    1,227
691,969;30093,775;    1,280;    0,136
692,543;30584,745;   -0,447;   -1,955
693,116;30165,532;   -0,265;   -1,409
693,690;30074,593;    0,099;    0,500
694,263;30640,017;   -1,083;    2,955
694,836;30655,169;    1,371;    3,591
695,410;29253,047;   -0,265;    1,773
695,983;29759,835;    0,189;    0,591
696,556;29748,350;   -0,447;   -1,045
697,129;30163,229;   -0,356;    1,409
697,703;29757,471;   -1,629;    1,955
698,276;29764,986;    1,462;   -0,773
698,849;29568,320;    1,280;    1,409
699,422;29960,653;   -1,083;    0,591
699,995;29670,259;    0,007;    0,136
700,568;30160,956;   -0,629;    3,045
701,140;30188,471;   -2,811;    1,682
701,713;29850,259;   -0,174;    2,409
702,286;29568,774;   -0,538;    0,864
702,859;29496,925;   -0,902;   -0,591
703,432;28672,804;    0,825;    0,682
704,004;29160,319;    0,462;    0,318
704,577;29035,925;   -0,629;    0,136
705,150;29641,440;    0,189;    2,500
705,722;29400,046;   -0,356;   -3,227
706,295;29188,470;   -0,175;   -0,591
706,867;29029,894;   -0,175;    1,955
707,440;29213,500;   -1,720;   -0,409
708,012;29508,379;    0,462;    0,591
708,584;29416,531;    2,462;    0,227
709,157;29701,318;    1,825;   -0,591
709,729;29351,015;    2,280;    2,045
710,301;30205,803;    0,734;    0,045
710,874;30233,136;   -1,447;   -0,227
711,446;29138,560;    0,371;    0,864
712,018;28999,803;    0,098;    0,500
712,590;28736,500;   -1,993;    1,682
713,162;29234,560;    0,825;    1,318
713,734;29529,530;    1,825;   -2,045
714,306;29433,500;   -1,902;   -0,409
714,878;28156,378;    0,825;    0,864
715,450;28958,348;    0,643;    0,864
716,022;29163,863;    1,552;    1,318
716,593;29285,560;    0,189;    0,591
717,165;29267,529;   -3,175;   -1,227
717,737;28980,772;    0,280;    0,409
718,309;28695,651;    0,280;   -0,045
718,880;28570,166;   -0,539;   -1,409
719,452;28842,590;   -0,175;   -1,591
720,024;28410,105;    0,734;   -0,591
720,595;28947,529;   -2,902;    0,955
721,167;28448,590;    0,370;   -2,045
721,738;27969,105;   -0,812;   -1,045
722,309;27950,711;   -0,993;   -1,227
722,881;27767,317;   -1,357;    0,773
723,452;28444,923;   -2,630;    2,864
724,023;28546,074;   -0,721;    2,682
724,595;28331,407;    0,007;    0,682
725,166;28095,195;    0,007;   -0,409
725,737;27743,892;    1,734;    0,227
726,308;27808,225;   -0,266;    0,318
726,879;28252,013;   -1,630;    1,227
727,450;28111,437;    0,552;   -0,045
728,021;28143,225;    3,097;    0,682
728,592;27903,195;    0,734;    0,500
729,163;28193,801;    0,643;   -0,136
729,734;28243,043;    0,188;   -0,227
730,305;28578,013;    1,734;    0,136
730,876;28963,164;    0,188;    2,955
731,447;28632,497;    2,188;    2,682
732,017;28706,558;    1,097;    1,864
732,588;28171,164;    0,734;    1,227
733,159;28388,588;    0,643;   -1,045
733,729;28229,376;    0,006;    0,409
734,300;27488,527;    0,915;    0,864
734,870;27950,861;    3,461;    0,591
735,441;28532,467;    0,370;   -0,591
736,011;28270,800;    0,643;   -1,591
736,582;28189,133;   -0,812;    0,045
737,152;27687,285;   -1,721;   -2,045
737,722;28128,800;   -0,267;   -0,682
738,293;27925,769;   -1,358;    1,318
738,863;27747,284;    2,461;    2,318
739,433;27512,799;    5,279;    0,318
740,003;28132,678;   -0,994;   -0,682
740,573;27549,375;    2,097;   -1,591
741,143;27528,708;   -1,085;    0,318
741,713;28270,769;    1,188;   -0,500
742,283;28000,284;    0,915;    1,591
742,853;27773,072;    1,915;    1,591
743,423;27261,314;    1,733;    0,045
743,993;27422,466;   -0,358;    1,500
744,563;26779,526;    0,097;   -0,864
745,133;26701,677;   -0,812;   -0,864
745,702;27362,102;   -0,267;    1,773
746,272;26595,253;   -0,176;    0,591
746,842;26356,495;   -1,358;   -0,591
747,411;26796,011;   -0,267;   -0,318
747,981;27011,798;    0,097;    0,500
748,551;27040,859;    2,278;   -1,045
749,120;26823,919;    0,642;   -0,227
749,690;27246,162;   -0,631;    2,409
750,259;27627,131;    1,369;    2,955
750,828;27536,919;    1,551;   -1,955
751,398;27761,980;    1,278;   -0,045
751,967;27202,222;    2,187;    0,409
752,536;27449,737;   -0,813;   -0,227
753,105;27877,525;    0,096;    0,227
753,675;27704,676;    0,096;    1,773
754,244;27651,282;   -0,904;    3,591
754,813;27728,343;    0,551;    1,227
755,382;27350,949;    0,460;    0,955
755,951;27870,555;    1,551;    3,682
756,520;27324,888;   -0,085;    1,864
757,089;27908,676;    0,278;    0,500
757,658;28103,737;    1,733;    1,227
758,227;28082,888;    1,096;    0,318
758,795;28369,948;    1,187;    1,136
759,364;28644,009;   -0,086;   -0,591
759,933;27642,070;   -1,176;   -0,045
760,501;27187,403;    0,733;   -1,318
761,070;27650,827;   -2,813;   -1,409
761,639;28358,888;   -1,904;    1,318
762,207;27649,130;    1,551;   -0,955
762,776;27561,100;    0,369;    0,864
763,344;27550,251;   -0,995;    0,591
763,913;26681,493;   -0,722;    1,409
764,481;27394,917;    1,005;   -0,136
765,049;27207,251;   -1,358;    1,409
765,618;27102,766;   -0,086;    0,318
766,186;27203,281;    0,278;    0,136
766,754;27377,251;    0,005;    1,864
767,322;26365,947;   -1,995;    0,409
767,890;26412,917;   -0,722;   -1,773
768,459;26775,341;   -2,177;   -0,318
769,027;26932,947;    1,641;    3,409
769,595;25964,553;    3,278;    2,591
770,163;26410,432;    3,823;    2,955
770,730;26145,674;    0,732;   -0,136
771,298;25967,371;    0,187;   -1,409
771,866;26027,523;   -1,541;    4,955
772,434;26357,038;   -0,631;   -1,864
773,002;26472,553;    0,005;    0,682
773,569;26141,068;    0,914;    1,682
774,137;25981,128;   -0,268;   -0,045
774,705;26764,007;    0,278;   -0,136
775,272;26259,886;    0,641;    0,682
775,840;26005,128;   -0,177;    2,682
776,407;25528,371;    0,277;    1,955
776,975;25188,522;   -0,632;    0,318
777,542;26212,946;   -1,086;   -0,045
778,110;26053,098;   -1,268;   -0,045
778,677;25744,976;   -2,359;   -0,864
779,244;25447,582;    2,186;    1,045
779,812;25545,734;    1,823;    0,864
780,379;25415,612;    0,005;    1,136
780,946;25658,128;    1,005;   -0,773
781,513;25992,643;   -1,450;    0,318
782,080;25345,976;   -0,086;    2,864
782,647;26073,218;   -0,268;    3,045
783,214;25655,097;   -0,177;    3,864
783,781;25278,612;   -0,723;   -0,682
784,348;25152,218;   -0,632;    1,500
784,915;25665,915;   -3,177;    0,318
785,482;25368,703;    1,368;    2,591
786,049;25820,945;    0,186;   -0,591
786,615;25956,642;    0,277;   -0,955
787,182;25683,339;    0,186;   -0,682
787,749;25449,218;   -2,814;    1,409
788,315;24731,369;   -1,632;   -0,409
788,882;24997,157;    1,550;   -1,227
789,448;25677,217;    1,732;   -0,955
790,015;25764,823;    1,095;    3,227
790,581;25318,338;    1,459;    0,227
791,148;25210,672;    0,641;    1,045
791,714;25426,005;   -0,541;    3,136
792,280;25122,338;    0,186;    1,591
792,847;24630,762;    0,550;    2,500
793,413;25234,550;   -0,269;   -0,318
793,979;24699,883;    3,459;   -1,318
794,545;24782,035;    4,459;    2,682
795,111;24223,550;    2,186;    1,318
795,678;24373,065;    0,731;   -1,682
796,244;23976,489;    3,368;    0,136
796,810;24590,913;    1,731;    0,773
797,375;24288,247;    0,549;   -2,136
797,941;24334,034;   -0,541;    0,591
798,507;24504,368;   -0,451;   -0,955
799,073;24054,792;   -0,360;    0,591
799,639;24133,489;   -2,632;    3,136
800,205;24141,004;    0,095;    2,682
800,770;23639,064;    0,640;    1,773
801,336;23735,943;    1,368;   -0,955
801,901;23380,276;    4,549;    3,136
802,467;23994,610;   -0,542;    2,045
803,033;23361,034;   -0,087;    0,864
803,598;23543,640;    1,913;   -1,045
804,163;23537,519;    1,095;   -0,318
804,729;23497,852;   -0,178;    1,136
805,294;23944,276;    0,822;    2,227
805,859;23730,973;    0,731;   -0,409
806,425;23166,943;    1,186;    2,682
806,990;22861,185;    2,186;    4,318
807,555;23377,245;   -1,451;    2,591
808,120;23220,670;    0,822;   -0,409
808,685;23310,457;    0,185;   -2,500
809,250;22784,609;    0,004;   -0,500
809,815;23135,215;    1,913;    0,682
810,380;23604,003;   -0,269;    1,591
810,945;24166,609;   -1,087;    2,045
811,510;23312,124;    2,094;    1,591
812,075;23060,275;   -0,633;   -1,409
812,640;23065,790;    2,003;    1,409
813,204;23138,942;    0,822;   -0,227
813,769;23642,729;    2,094;   -0,045
814,334;23013,699;    0,458;    0,864
814,898;23090,941;    0,367;    0,591
815,463;22951,184;    1,276;   -0,773
816,027;22945,517;   -0,724;   -2,318
816,592;23003,669;    0,640;   -2,045
817,156;22506,002;    2,094;    1,136
817,721;22357,880;    4,276;    2,318
818,285;22325,032;    2,912;    1,500
818,849;22979,456;   -1,451;    1,682
819,414;22896,517;   -0,269;    2,955
819,978;22484,577;   -1,269;    1,773
820,542;23067,274;    2,003;    0,500
821,106;22728,698;   -0,815;    0,682
821,670;22854,032;   -0,815;    2,591
822,234;22579,728;   -0,270;    1,409
822,798;21917,971;    0,003;    0,500
823,362;21869,849;   -0,633;    4,227
823,926;21150,728;    0,094;    1,136
824,490;21386,880;   -0,997;   -0,682
825,054;21862,940;   -0,088;   -1,136
825,618;21486,273;   -1,542;   -1,500
826,181;21406,607;    0,458;   -1,318
826,745;21345,758;    1,367;   -1,045
827,309;21662,910;    1,185;    1,318
827,872;21047,606;    1,367;    0,955
828,436;22022,758;    1,185;   -0,773
828,999;22121,364;   -0,997;    1,227
829,563;20887,970;   -0,179;    1,136
830,126;20672,121;   -0,179;   -0,591
830,690;20686,636;   -1,997;    2,864
831,253;20228,606;   -0,543;    2,227
831,816;20365,394;   -1,906;    0,500
832,380;20279,545;    0,185;    0,864
832,943;20529,242;   -1,361;   -0,500
833,506;20036,121;    2,639;   -1,227
834,069;20862,363;    3,912;   -0,955
834,632;20873,697;    1,730;    1,318
835,195;20739,212;    1,003;    0,955
835,758;19930,909;   -0,997;    1,955
836,321;19748,060;    0,730;   -1,045
836,884;19881,120;   -0,725;   -0,955
837,447;19921,363;   -2,816;    1,773
838,010;20149,423;    0,366;    3,227
838,573;20466,393;   -1,179;    0,773
839,135;20417,726;   -1,361;   -0,955
839,698;19858,969;    1,275;    0,409
840,261;19403,756;    1,003;   -0,227
840,823;19228,272;   -0,543;    0,864
841,386;19537,150;   -0,452;   -2,409
841,948;19376,302;   -1,361;    1,773
842,511;19149,089;    0,912;    1,682
843,073;19248,968;    1,912;    0,227
843,636;19116,392;   -0,361;   -0,227
844,198;19014,817;    0,911;    0,591
844,760;19139,968;    1,093;    1,955
845,322;18798,301;    0,548;    1,136
845,885;19206,998;    0,730;    0,591
846,447;19678,331;   -1,998;    0,227
847,009;19252,119;    1,911;   -0,682
847,571;19555,907;    0,820;   -2,045
848,133;19676,422;   -1,089;   -1,864
848,695;19508,483;   -0,543;    1,409
849,257;19035,998;   -1,089;   -1,682
849,819;19230,149;   -0,998;   -0,409
850,381;19281,392;   -0,725;   -0,864
850,942;19643,361;    1,093;   -0,591
851,504;19535,603;    1,184;    0,227
852,066;19604,573;    1,275;   -1,591
852,628;19151,906;   -0,180;    1,955
853,189;18716,240;    1,638;    2,682
853,751;18808,482;   -0,907;    1,409
854,312;18617,997;   -0,453;   -1,682
854,874;19137,239;   -2,089;   -0,773
855,435;19672,664;   -0,907;   -1,682
855,997;19836,542;   -1,816;   -0,136
856,558;19066,785;    0,366;    1,773
857,119;19197,482;    0,820;    2,864
857,681;18880,906;    0,002;    0,318
858,242;18909,239;    1,911;   -2,136
858,803;19351,572;    0,456;   -0,773
859,364;19981,906;    0,184;   -4,773
859,925;19274,784;   -2,453;   -0,955
860,486;19167,754;   -0,453;   -0,955
861,047;18917,269;   -0,544;   -1,227
861,608;18698,966;   -1,089;   -0,773
862,169;18837,754;    0,638;   -0,045
862,730;18625,996;    0,456;    1,409
863,291;18852,057;   -0,635;   -0,500
863,852;19180,117;   -0,635;    1,955
864,412;18681,996;   -0,271;   -0,864
864,973;17268,329;   -0,089;    0,500
865,534;17075,844;   -1,726;    0,227
866,094;18579,996;    1,820;    0,227
866,655;18261,420;    1,274;    3,318
867,215;18547,389;    0,274;    0,136
867,776;18415,268;    0,547;   -0,136
868,336;18464,783;   -1,453;    0,136
868,897;17936,753;    2,638;    1,682
869,457;17666,722;    1,365;    0,318
870,017;17913,238;    0,547;   -1,227
870,578;18407,480;   -0,817;    0,773
871,138;18132,540;   -2,089;   -0,955
871,698;17668,601;   -0,817;   -1,318
872,258;17545,934;   -0,453;   -2,864
872,818;17885,358;    2,729;    0,045
873,378;17882,328;    0,638;    1,045
873,938;17402,207;    0,547;    0,500
874,498;17756,540;    0,274;   -1,955
875,058;17634,601;    2,183;    1,773
875,618;17469,661;    1,910;   -2,682
876,177;17448,812;    1,274;    0,136
876,737;17015,237;   -0,090;    1,955
877,297;17048,206;    0,183;    1,955
877,856;17041,540;   -0,362;    0,318
878,416;17027,418;    1,183;   -0,136
878,976;17247,752;   -1,817;    0,409
879,535;17370,267;    0,092;    3,136
880,095;17101,600;   -0,544;    0,045
880,654;17232,479;   -1,090;    1,318
881,213;17332,812;    2,456;    1,500
881,773;16942,054;    2,637;    2,682
882,332;17275,842;    3,365;    5,136
882,891;17176,084;    3,092;    2,136
883,451;17626,599;   -1,272;    1,682
884,010;17067,205;   -2,908;   -0,409
884,569;17174,539;   -0,999;   -0,045
885,128;17314,781;    2,819;   -1,864
885,687;17372,660;    4,455;    0,682
886,246;17057,629;    1,455;    2,136
886,805;16827,599;    2,455;    2,045
887,364;17155,023;   -0,999;   -0,500
887,922;17468,629;   -1,181;    0,045
888,481;16975,508;   -1,545;    0,591
889,040;17287,568;    1,183;    2,136
889,599;18013,265;    2,455;    1,409
890,157;18067,962;    1,455;    2,409
890,716;17731,205;   -0,090;    0,227
891,274;17533,629;    0,092;   -1,136
891,833;17972,780;    1,546;    0,864
892,391;17822,023;   -0,454;    0,500
892,950;17915,174;    1,819;   -0,773
893,508;18258,325;    0,455;   -0,409
894,067;17609,295;    0,637;    0,136
894,625;17559,628;   -0,636;   -1,500
895,183;17796,143;   -0,363;   -0,682
895,741;17665,204;    1,728;   -1,773
896,299;17526,810;   -0,545;   -2,409
896,858;17711,689;    0,819;   -1,591
897,416;17839,567;    2,728;   -1,318
897,974;17576,628;    1,819;    0,318
898,532;17696,507;    6,091;    2,682
899,089;17603,385;    2,091;   -0,682
899,647;17656,810;   -1,454;    1,318
900,205;17357,415;    1,182;    1,045
900,763;17550,021;   -0,454;    0,227
901,321;17588,355;    2,364;   -1,409
901,878;17037,779;   -1,000;   -0,773
902,436;16936,930;   -1,363;    1,318
902,994;17243,536;    4,728;    3,682
903,551;16709,415;    0,728;    0,409
904,109;17091,021;    0,182;   -1,409
904,666;16666,172;    2,455;    1,045
905,224;16495,415;    0,182;   -0,409
905,781;16261,657;    0,727;   -0,318
906,338;16334,627;   -1,363;    1,045
906,895;16227,142;    0,637;    2,045
907,453;16141,112;    1,727;    1,136
908,010;16213,081;   -0,909;    0,409
908,567;15854,687;    1,273;    0,591
909,124;15324,566;    0,364;   -1,500
909,681;15423,445;   -2,909;    0,682
910,238;15612,141;    0,636;   -1,318
910,795;15927,475;   -0,273;   -1,136
911,352;15535,202;   -2,909;   -2,682
911,909;14924,111;   -1,364;   -0,864
912,466;15419,202;   -3,182;    1,500
913,022;14983,657;   -1,636;    0,500
913,579;15313,747;   -0,909;    2,045
914,136;15029,657;    1,636;    0,955
914,692;15368,202;    0,091;   -1,227
915,249;14954,657;    1,455;    0,409
915,806;15143,293;    0,182;    1,955
916,362;14906,747;    1,909;    1,864
916,918;14479,202;    2,000;    1,045
917,475;14393,566;   -1,182;    0,955
918,031;14473,838;    3,364;   -0,045
918,587;13910,202;   -0,909;   -0,318
919,144;14187,929;   -2,273;    0,227
919,700;14501,384;    1,727;    0,773
920,256;14073,111;    0,727;    0,045
920,812;13722,838;   -0,727;   -1,045
921,368;13730,202;   -1,727;   -1,045
921,924;13324,202;    0,182;   -0,136
922,480;12904,657;   -0,545;    1,227
923,036;13495,475;    1,273;    1,955
923,592;13463,566;    0,455;    0,318
924,148;13351,020;    0,455;   -0,955
924,704;12663,020;   -1,364;   -0,409
925,259;12937,111;   -0,273;    0,591
925,815;12682,111;    1,455;    0,500
926,371;12183,202;    2,909;    1,409
926,926;12050,020;    2,091;    0,591
927,482;11692,202;   -1,364;    0,773
928,037;11576,293;    0,909;    2,045
928,593;11838,747;    1,636;    1,045
929,148;11668,929;   -1,818;   -1,500
929,704;11163,202;   -1,455;   -0,500
930,259;11387,384;    0,091;   -0,136
930,814;10453,657;   -0,818;    1,955
931,369;10126,111;    1,091;   -0,773
931,925;10012,202;   -0,091;    0,136
932,480; 9906,384;   -2,818;   -2,591
933,035; 9763,020;    0,545;   -0,318
933,590; 9520,929;    0,364;   -1,773
934,145; 9178,566;   -1,364;   -0,318
934,700; 9550,929;    0,455;   -0,591
935,255; 9321,020;   -0,091;    0,045
935,809; 8571,475;    3,182;    0,864
936,364; 7701,384;   -0,455;   -0,136
936,919; 7659,929;    0,455;   -1,773
937,474; 7538,111;    1,455;    0,136
938,028; 7295,293;   -1,636;    1,136
938,583; 6746,566;    1,818;    4,682
939,138; 7040,566;    2,091;    2,136
939,692; 6471,293;    1,636;   -1,136
940,247; 6168,020;   -0,727;   -1,045
940,801; 5673,475;   -0,636;    0,227
941,355; 5578,566;   -0,364;    2,591
941,910; 5234,202;   -0,273;   -2,136
942,464; 5320,202;   -0,818;   -0,318
943,018; 5105,202;    1,000;   -0,227
943,572; 5079,747;    2,545;   -0,682
944,126; 4460,111;    0,091;   -0,409
944,681; 4348,657;    3,091;    0,227
945,235; 4333,566;    1,000;   -0,591
945,789; 4270,020;    0,364;   -1,864
946,342; 4360,838;    0,455;   -0,591
946,896; 4180,657;   -2,273;    0,955
947,450; 3934,838;    1,545;   -0,227
948,004; 4120,747;    1,727;   -0,045
948,558; 4128,929;    0,273;   -0,864
949,111; 4038,111;   -0,273;   -0,318
949,665; 4056,657;    1,636;   -0,682
950,219; 3942,747;   -0,091;   -1,045
950,772; 4037,747;   -1,909;    1,864
951,326; 3927,747;    0,545;   -0,955
951,879; 4036,111;    0,727;   -2,318
952,433; 4048,475;    0,000;    2,227
952,986; 3878,202;    2,909;    0,682
953,539; 3848,747;   -0,273;    0,591
954,093; 3764,747;    0,545;   -1,318
954,646; 3924,475;    0,909;    1,318
955,199; 3720,384;    0,000;   -0,500
955,752; 3590,111;   -0,455;    1,773
956,305; 3565,020;   -0,091;    2,955
956,858; 3720,111;    0,818;   -0,318
957,411; 3890,475;   -0,545;    2,136
957,964; 3733,293;    1,364;    2,136
958,517; 3723,020;   -1,545;    3,136
959,070; 3543,293;   -0,455;    1,955
959,623; 3617,747;    1,091;    1,500
960,176; 3375,293;    1,727;    2,045
960,728; 3353,747;   -2,727;    0,773
961,281; 3421,929;    0,545;    0,500
961,834; 3473,929;   -0,909;    0,864
962,386; 3399,293;    1,727;    1,045
962,939; 3315,657;    0,364;   -0,318
963,491; 3442,475;    0,455;    1,136
964,043; 3322,111;    1,182;    2,409
964,596; 3431,747;   -1,000;    2,227
965,148; 3266,202;   -1,000;    1,773
965,700; 3203,566;    1,091;   -0,227
966,253; 3358,657;   -0,636;    0,318
966,805; 3180,293;   -2,273;    0,773
967,357; 3242,838;    1,091;   -1,500
967,909; 3199,475;    0,455;   -1,227
968,461; 3300,293;    0,545;    3,136
969,013; 3240,202;   -0,182;   -0,864
969,565; 3316,475;   -0,455;   -1,136
970,117; 3351,566;   -0,364;    1,045
970,669; 3200,838;    0,182;   -0,136
971,220; 3089,111;   -0,455;   -1,500
971,772; 3010,384;   -0,636;   -0,318
972,324; 3114,566;    0,091;   -0,500
972,876; 3088,020;    0,818;   -0,045
973,427; 3199,747;    1,909;   -1,045
973,979; 3170,020;   -0,727;   -2,500
974,530; 3226,111;    1,818;    1,318
975,082; 3231,838;   -0,545;    1,682
975,633; 3121,384;    1,091;    1,682
976,184; 3263,929;    0,909;    0,773
976,736; 3043,566;    0,091;    0,227
977,287; 2855,384;   -0,909;   -0,500
977,838; 3035,747;    0,909;   -0,318
978,389; 3079,566;   -1,000;   -0,500
978,940; 2955,566;    0,545;   -0,409
979,491; 2992,929;    0,091;   -0,500
980,042; 2956,202;    0,182;    3,045
980,593; 3019,747;   -2,545;    0,227
981,144; 3047,929;    2,545;   -0,500
981,695; 3008,202;    1,455;    1,500
982,246; 2970,838;   -0,273;    1,045
982,797; 3156,566;   -1,727;    0,682
983,347; 3250,475;    0,364;    0,591
983,898; 3393,384;    3,091;    0,409
984,449; 3217,202;    2,182;    0,773
984,999; 3138,202;    1,455;   -1,136
985,550; 2932,566;    0,182;   -0,318
986,100; 2959,838;   -0,455;   -0,318
986,651; 3013,202;   -0,818;    0,045
987,201; 2989,747;   -1,000;   -0,591
987,751; 3073,111;    0,818;    2,864
988,302; 3038,747;    2,636;    1,500
988,852; 3063,657;    0,455;   -1,136
989,402; 3087,293;    0,091;    0,682
989,952; 3019,020;   -2,182;    0,864
990,502; 3127,020;   -0,091;    0,682
991,052; 3113,838;   -0,727;    0,045
991,602; 2959,293;   -2,909;    1,318
992,152; 2946,384;    0,455;    0,682
992,702; 2940,202;    1,364;   -0,045
993,252; 2866,929;   -3,000;   -0,500
993,802; 2950,566;   -0,273;    1,318
994,352; 3181,838;   -1,545;    1,136
994,901; 3289,657;   -0,182;    3,227
995,451; 3192,202;   -0,182;    0,318
996,000; 3286,929;    1,636;    0,318
996,550; 2991,657;    2,273;    0,227
997,100; 2998,384;    1,273;   -0,045
997,649; 3260,747;    2,182;    0,955
998,198; 2902,838;    1,727;   -1,500
998,748; 3089,657;    1,091;   -2,318
999,297; 3026,293;   -0,818;   -0,409
999,846; 3070,657;    1,000;   -0,773
1000,395; 3122,747;   -0,818;    0,500
1000,945; 3057,657;    1,818;   -0,773
1001,494; 3153,020;    2,364;    0,682
1002,043; 3147,202;    4,636;    0,864
1002,592; 2989,202;   -1,091;    1,955
1003,141; 3156,657;   -0,455;   -0,682
1003,690; 2985,747;    1,727;    0,500
1004,238; 3072,929;    1,455;   -0,045
1004,787; 2730,202;    1,364;    1,227
1005,336; 2954,566;    0,364;    0,682
1005,885; 3122,384;    1,364;   -2,773
1006,433; 3242,111;    0,545;    0,955
1006,982; 3288,020;    0,455;    1,682
1007,531; 3219,929;   -1,818;   -0,227
1008,079; 3170,384;   -2,273;    0,500
1008,627; 3297,111;   -1,455;    0,409
1009,176; 3053,475;    0,000;   -1,955
1009,724; 3107,929;    1,091;    0,864
1010,273; 3141,202;    1,273;    0,500
1010,821; 3268,747;    0,091;    1,409
1011,369; 2995,111;   -1,364;    1,318
1011,917; 2970,384;   -1,364;   -0,591
1012,465; 3259,384;    1,273;   -1,591
1013,013; 3376,020;    2,091;   -1,682
1013,561; 3234,838;    0,455;   -0,773
1014,109; 3282,838;   -1,909;    1,682
1014,657; 3178,111;    0,364;    0,591
1015,205; 3286,929;    1,636;   -0,955
1015,753; 3362,202;   -0,545;   -1,409
1016,301; 3375,202;   -2,636;    3,045
1016,848; 3378,202;   -1,273;    0,409
1017,396; 3413,202;    2,545;    0,045
1017,944; 3540,111;    1,182;    1,864
1018,491; 3294,929;    0,273;    1,409
1019,039; 3432,111;    0,455;    0,591
1019,586; 3378,929;   -1,364;    1,682
1020,134; 3474,384;    0,455;    1,500
1020,681; 3487,747;    0,182;   -1,136
1021,228; 3518,747;    2,909;   -2,227
1021,776; 3359,747;    1,182;   -1,136
1022,323; 3551,020;    0,455;    0,773
1022,870; 3486,384;   -1,000;   -0,045
1023,417; 3376,293;    2,636;    1,864
1023,964; 3525,838;    2,636;    1,227
1024,511; 3364,838;    1,000;    0,773
1025,058; 3167,929;    3,182;   -0,045
1025,605; 3215,293;   -2,273;    3,136
1026,152; 3437,111;    1,727;   -0,591
1026,699; 3172,111;    1,818;    1,318
1027,245; 3341,384;   -0,091;    0,318
1027,792; 3553,838;   -1,000;    1,409
1028,339; 3418,747;    2,364;   -0,045
1028,885; 3293,566;    1,000;   -0,227
1029,432; 3219,384;   -0,091;    0,227
1029,978; 3263,747;   -1,000;   -1,591
1030,525; 3175,657;    1,000;    0,409
1031,071; 3444,293;   -1,364;    1,136
1031,618; 3529,111;    0,364;    1,682
1032,164; 3323,384;   -0,091;    3,045
1032,710; 3375,838;    1,636;   -1,500
1033,256; 3281,293;   -0,636;   -0,136
1033,803; 3276,929;   -0,545;    1,500
1034,349; 3000,020;   -1,364;    0,136
1034,895; 3167,293;    0,000;   -0,318
1035,441; 3129,566;   -0,818;    0,318
1035,987; 3140,475;   -2,364;   -0,682
1036,533; 3127,020;   -1,455;   -0,955
1037,078; 3322,566;    1,455;    1,682
1037,624; 3141,838;    2,455;   -0,955
1038,170; 3186,838;    0,455;   -0,318
1038,716; 3076,838;    1,636;   -0,409
1039,261; 3006,838;   -2,273;   -0,773
1039,807; 2938,838;   -0,091;    3,409
1040,352; 2986,747;   -1,909;   -0,318
1040,898; 3060,202;   -1,545;   -0,682
1041,443; 2968,838;   -1,455;   -2,591
1041,989; 2946,020;    1,091;    1,591
1042,534; 2847,475;   -0,364;    2,591
1043,079; 2984,111;    2,909;    0,955
1043,625; 2775,111;    1,818;    0,500
1044,170; 2788,475;   -1,364;    1,045
1044,715; 3036,747;    2,455;    0,955
1045,260; 2865,838;    2,182;   -0,955
1045,805; 2923,929;    1,182;   -0,591
1046,350; 2849,929;    1,364;   -0,409
1046,895; 2803,747;    2,909;    1,591
1047,440; 2747,929;    5,364;    0,409
1047,985; 2675,020;    2,818;   -0,955
1048,530; 2588,293;    1,545;    1,227
1049,074; 2651,202;    0,000;    0,318
1049,619; 2622,384;   -1,364;    1,955
1050,164; 2402,929;    0,455;    0,227
1050,708; 2465,111;   -0,455;    0,045
1051,253; 2829,657;    1,273;   -2,227
1051,797; 2518,475;    0,818;   -1,318
1052,342; 2554,475;   -1,182;    1,045
1052,886; 2545,111;    0,364;   -1,409
1053,430; 2425,747;   -1,364;    0,136
1053,975; 2443,657;   -0,818;   -0,318
1054,519; 2424,747;   -0,727;    3,227
1055,063; 2413,202;    0,909;    1,318
1055,607; 2292,566;   -0,182;    0,227
1056,151; 2320,747;    2,909;    1,682
1056,695; 2264,384;    2,273;   -1,136
1057,239; 2320,929;   -1,727;   -0,682
1057,783; 2323,566;    0,818;   -1,500
1058,327; 2252,475;    0,000;    1,409
1058,871; 2482,475;   -0,545;    1,318
1059,415; 2189,566;   -0,818;   -0,045
1059,958; 2435,929;    1,455;    2,591
1060,502; 2175,020;   -1,000;   -0,773
1061,046; 2078,657;    0,364;   -0,955
1061,589; 2077,111;   -3,000;   -1,136
1062,133; 1960,475;   -1,273;    1,864
1062,676; 1882,020;    1,182;    0,864
1063,220; 1878,293;    1,091;    0,500
1063,763; 1903,020;    0,909;    1,136
1064,306; 1986,293;   -0,909;    1,864
1064,849; 1859,929;   -0,909;    0,591
1065,393; 1875,202;    2,000;   -1,500
1065,936; 1979,838;    0,182;   -0,409
1066,479; 1879,020;   -1,455;    1,318
1067,022; 1910,202;   -0,273;   -0,227
1067,565; 1796,747;   -0,091;   -1,318
1068,108; 1812,475;    0,727;   -0,591
1068,651; 1810,202;   -0,636;    1,409
1069,194; 1722,929;   -0,455;   -1,682
1069,736; 1730,111;   -1,273;    0,955
1070,279; 1711,384;   -1,364;   -0,500
1070,822; 1739,384;   -2,000;   -0,318
1071,364; 1814,657;   -0,364;    1,318
1071,907; 1647,929;   -0,727;    3,227
1072,450; 1572,020;    0,000;   -0,045
1072,992; 1554,657;   -0,273;    3,136
1073,535; 1691,475;    2,091;    2,136
1074,077; 1479,838;   -0,727;    2,045
1074,619; 1449,111;   -1,364;    0,591
1075,161; 1477,566;   -1,091;    1,500
1075,704; 1645,747;    1,545;    1,227
1076,246; 1461,202;   -0,182;    0,682
1076,788; 1386,566;   -0,364;    1,773
1077,330; 1458,657;    1,273;    2,136
1077,872; 1417,293;    0,909;    0,955
1078,414; 1626,293;    2,727;    0,773
1078,956; 1374,566;    1,273;   -0,227
1079,498; 1630,384;    1,636;    0,318
1080,040; 1334,475;    1,909;   -1,318
1080,581; 1278,929;    1,636;   -0,318
1081,123; 1211,111;    0,091;   -0,773
1081,665; 1244,838;   -1,182;   -0,955
1082,206; 1537,657;    1,364;   -0,500
1082,748; 1407,566;    0,727;    2,045
1083,289; 1278,838;   -2,000;    1,318
1083,831; 1190,020;   -0,545;    0,227
1084,372; 1223,475;    0,000;    0,591
1084,913; 1236,020;    1,091;    0,864
1085,455; 1203,838;   -1,909;   -2,045
1085,996; 1160,384;   -2,273;    0,136
1086,537; 1190,566;   -0,091;    0,864
1087,078; 1217,475;   -0,909;   -2,136
1087,619; 1263,111;   -1,273;    0,227
1088,160; 1178,566;    0,000;    1,318
1088,701; 1160,838;   -1,091;    0,682
1089,242; 1108,111;    1,364;   -2,227
1089,783; 1188,384;   -0,273;    1,409
1090,324; 1163,202;    0,455;    0,682
1090,865; 1046,657;    2,727;   -0,409
1091,405; 1030,657;    0,727;    2,227
1091,946; 1043,566;    0,182;   -0,955
1092,487;  963,657;    0,818;   -1,409
1093,027; 1118,929;   -1,364;   -1,500
1093,568;  974,838;   -0,364;    1,227
1094,108; 1065,929;    0,273;    1,773
1094,649; 1002,475;   -1,182;    0,136
1095,189;  951,020;   -0,636;   -0,682
1095,729;  899,293;   -0,091;    0,955
1096,269;  912,657;    0,727;   -0,955
1096,810; 1223,202;   -1,364;    0,500
1097,350; 1048,475;    1,364;   -0,773
1097,890;  958,475;    0,364;    1,227
1098,430; 1186,566;    2,364;    2,864
1098,970; 1057,475;    2,182;    1,682
1099,510;  927,747;    0,545;   -2,318
1100,050;  859,020;    1,000;   -1,591
1100,589;  825,657;   -0,727;   -0,318
1101,129;  945,202;    0,818;   -0,955
1101,669; 1093,384;    1,727;    2,136
1102,209;  905,929;   -0,091;    2,227
1102,748;  873,020;    0,000;    0,955
1103,288;  859,566;    1,273;   -1,227
1103,827;  887,747;    3,091;   -2,227
1104,367;  770,838;   -0,091;   -2,409
1104,906;  737,838;    1,364;   -1,136
1105,445;  800,111;    0,636;   -1,136
1105,985;  747,929;   -0,727;    1,500
1106,524;  798,293;   -1,727;   -0,682
1107,063;  767,020;   -2,727;    1,409
1107,602;  742,020;   -1,909;   -1,500
1108,141;  655,657;   -1,909;    1,500
1108,680;  762,293;   -3,455;   -0,591
1109,219;  701,566;   -0,909;   -0,500
1109,758;  702,384;    0,455;    0,682
1110,297;  684,929;    1,000;   -0,682
1110,836;  618,929;   -0,727;    0,955
1111,375;  783,747;   -2,545;    0,409
1111,913;  794,566;   -1,000;    0,773
1112,452;  737,111;   -0,273;    0,136
1112,991;  621,384;    1,091;    1,955
1113,529;  573,111;   -0,818;   -0,045
1114,068;  648,384;   -0,273;    2,955
1114,606;  548,657;   -0,364;   -0,955
1115,144;  704,747;   -1,273;    1,045
1115,683;  643,747;   -0,727;    0,318
1116,221;  692,929;   -0,455;   -0,864
1116,759;  598,111;    0,636;   -0,864
1117,297;  794,293;    0,000;    1,864
1117,836;  602,657;   -2,182;   -1,227
1118,374;  611,657;    0,182;   -0,682
1118,912;  549,293;    0,909;    2,682
1119,450;  539,111;    1,000;    0,864
1119,988;  594,566;    1,545;    2,136
1120,525; 1051,384;    5,091;    3,318
1121,063;  738,475;    1,182;    1,864
1121,601;  539,747;   -0,909;   -1,227
1122,139;  496,657;   -0,727;   -2,045
1122,676;  688,293;   -0,727;    2,773
1123,214;  628,747;   -1,182;    4,409
1123,751;  446,475;    1,727;    2,227
1124,289;  572,293;   -0,091;   -0,409
1124,826;  447,202;    1,727;    0,227
1125,364;  367,202;    1,727;   -0,955
1125,901;  545,566;    1,182;    1,227
1126,438;  668,657;    0,818;    0,955
1126,975;  400,475;   -0,727;   -0,773
1127,513;  464,475;    0,273;    2,136
1128,050;  373,384;    1,636;   -0,682
1128,587;  465,566;    2,000;   -0,227
1129,124;  506,475;    0,091;    1,318
1129,661;  369,475;    0,273;    0,227
1130,198;  535,384;    1,636;    0,773
1130,734;  483,747;    0,182;    1,409
1131,271;  346,020;   -0,909;    0,864
1131,808;  526,929;    2,909;    3,045
1132,345;  392,657;    1,545;    0,318
1132,881;  261,475;   -1,545;   -1,864
1133,418;  396,293;    0,727;   -1,136
1133,954;  334,020;    2,455;   -2,682
1134,491;  404,929;    1,364;   -0,773
1135,027;  312,202;    2,364;    0,864
1135,564;  402,111;    0,273;    2,955
1136,100;  384,202;    0,364;    2,136
1136,636;  275,566;   -1,273;   -1,045
1137,172;  368,838;    0,000;   -1,045
1137,708;  292,020;   -1,364;   -1,045
1138,245;  295,293;    1,273;   -1,227
1138,781;  238,475;    1,091;   -3,318
1139,317;  310,293;    1,273;   -1,409
1139,852;  301,020;    3,091;    0,136
1140,388;  425,566;   -1,182;   -0,409
1140,924;  297,111;   -1,091;   -2,227
1141,460;  238,747;   -1,636;    0,136
1141,996;  176,020;   -1,364;    2,682
1142,531;  224,202;    1,364;    3,318
1143,067;  436,929;    1,182;    1,045
1143,602;  491,384;   -0,091;   -0,318
1144,138;  331,929;   -2,636;    1,045
1144,673;  199,293;   -1,455;    1,409
1145,209;  256,747;   -1,909;   -0,318
1145,744;  187,111;   -0,727;    0,864
1146,279;  323,293;    1,818;   -0,136
1146,815;  241,747;    1,545;   -2,682
1147,350;  279,384;   -1,364;    0,045
1147,885;  186,929;   -0,818;   -1,318
1148,420;  189,202;   -2,273;    0,773
1148,955;  170,929;   -1,727;    1,864
1149,490;  202,020;   -0,909;   -1,591
1150,025;  190,929;    0,455;   -1,773
1150,560;  293,384;    1,091;   -0,955
1151,094;  258,475;    1,455;   -0,591
1151,629;  269,202;    1,636;    0,864
1152,164;  191,384;    1,364;    1,318
1152,698;  143,020;   -0,182;   -0,136
1153,233;  107,838;    0,091;   -0,682
1153,767;  155,384;   -3,000;   -2,318
1154,302;  206,020;   -1,455;    1,773
1154,836;  207,747;   -0,455;   -2,136
1155,371;  257,657;   -1,364;    3,682
1155,905;  210,475;   -0,636;    1,682
1156,439;  178,111;   -0,636;   -0,500
1156,973;  210,020;    0,364;    0,318
1157,507;  145,657;   -0,364;    0,682
1158,042;  170,384;   -0,727;    1,045
1158,576;  226,384;    0,182;    1,773
1159,110;  206,747;   -0,818;    2,409
1159,643;  181,566;    0,636;   -0,045
1160,177;  123,202;   -1,545;    1,500

