
Integration time [ms]:   0,040
Averaging Nr. [scans]: 11
Smoothing Nr. [pixels]: 0
Data measured with spectrometer [name]: 7318044SP
Wave   ;Sample   ;Dark     ;Reference
[nm]   ;[counts] ;[counts] ;[counts] 

186,757;   16,394;   31,551;    1,318
187,357;   49,133;   22,551;    0,955
187,958;   29,105;   15,460;   -1,591
188,558;   73,938;    8,915;   -1,227
189,159;   41,317;    6,733;   -4,500
189,759;   11,649;    7,278;   -3,591
190,360;    6,588;    2,824;   -2,136
190,960;   47,647;    2,915;   -4,136
191,560;   62,244;    3,189;   -6,591
192,161;  298,857;    4,372;   -3,500
192,761;  137,539;    4,010;   -3,227
193,361;   93,374;    1,556;   -3,773
193,962;  149,755;    2,010;   -2,682
194,562;   74,968;    1,189;   -3,955
195,162;   96,876;   -2,448;   -2,227
195,762;  255,585;   -3,176;   -0,045
196,362;  213,412;    1,370;   -2,500
196,963;   80,091;    2,006;   -0,864
197,563;  155,030;    1,551;   -0,955
198,163;   90,994;    0,096;   -0,682
198,763;  113,831;    1,733;   -0,500
199,363;  214,530;    3,096;   -0,500
199,963;  170,189;    0,369;    0,409
200,563;  143,047;    2,823;   -1,409
201,163;  134,453;    3,277;   -0,227
201,763;  232,085;    3,732;    0,318
202,363;  167,879;    1,459;    1,500
202,963;  271,679;    1,459;    1,045
203,563;  371,156;    0,277;    0,500
204,162;  229,978;    2,096;   -1,864
204,762;  214,372;    0,550;    0,591
205,362;  182,329;    3,004;    1,955
205,962;  280,452;    3,096;    1,955
206,562;  281,171;    1,823;    2,318
207,161;  244,167;   -0,087;    0,318
207,761;  409,838;    1,277;    2,409
208,361;  291,797;   -0,268;    1,409
208,960;  377,047;    0,459;    1,500
209,560;  446,010;    1,277;    1,591
210,160;  433,091;    0,550;    1,864
210,759;  400,115;    4,186;    1,227
211,359;  414,566;    1,459;    1,045
211,958;  665,548;    1,277;    2,045
212,558;  748,453;    1,732;    1,864
213,157;  588,371;    1,822;    1,500
213,757; 1025,843;    3,822;   -0,227
214,356;  723,226;    1,277;   -0,409
214,956; 1053,266;    3,095;    0,409
215,555;  680,483;    2,095;    2,136
216,154;  629,968;   -2,723;   -0,591
216,754;  639,421;    0,277;    0,773
217,353;  762,831;   -0,268;   -1,045
217,952;  613,286;   -0,178;    0,318
218,552;  853,377;    1,368;   -0,773
219,151;  750,871;    0,277;    0,955
219,750;  759,128;    0,004;   -0,227
220,349;  873,987;   -0,451;    1,045
220,948;  954,724;   -1,360;    1,136
221,548;  964,828;    0,913;    1,227
222,147; 1061,037;   -0,087;   -0,409
222,746; 1355,813;   -0,451;   -0,955
223,345; 1225,726;    0,731;    0,500
223,944; 1226,772;   -0,451;    0,773
224,543; 1392,490;    1,004;   -1,409
225,142; 1505,618;    0,094;    0,136
225,741; 1416,929;   -0,814;    1,045
226,340; 1430,417;   -0,451;   -0,955
226,939; 1866,035;   -0,996;   -0,136
227,538; 1806,321;   -0,360;   -0,773
228,137; 1954,363;   -0,814;    0,864
228,735; 2075,635;   -0,541;    1,227
229,334; 1833,360;   -0,905;   -0,227
229,933; 2194,787;    0,459;    0,591
230,532; 2309,323;    1,186;   -0,409
231,131; 2358,348;    1,732;    0,318
231,729; 2469,419;   -2,450;   -2,318
232,328; 2583,023;   -0,723;   -1,500
232,927; 2635,314;    1,004;   -0,500
233,525; 2746,738;    3,640;    0,045
234,124; 2941,747;    2,368;   -1,591
234,723; 2982,390;    0,913;   -1,045
235,321; 3098,007;    2,277;    0,136
235,920; 3305,511;    1,186;   -1,227
236,518; 3553,946;    3,459;    0,318
237,117; 3741,980;    0,004;   -0,227
237,715; 3883,603;    0,640;   -0,500
238,314; 3926,871;   -0,087;   -2,318
238,912; 4028,538;   -0,723;   -1,409
239,510; 4051,899;    0,459;   -1,227
240,109; 4224,157;    0,004;    3,773
240,707; 4272,220;   -0,996;    1,227
241,305; 4615,892;    0,550;    0,136
241,904; 4827,256;   -0,178;   -2,045
242,502; 4810,531;   -0,632;   -0,227
243,100; 4770,147;   -0,087;   -0,955
243,698; 4992,862;    0,732;    1,682
244,297; 5144,634;   -0,632;    0,682
244,895; 4997,187;   -0,269;   -2,318
245,493; 5336,891;    2,186;   -0,591
246,091; 5387,949;    1,368;   -1,318
246,689; 5372,675;    1,004;    0,591
247,287; 5551,098;    0,822;   -1,136
247,885; 5814,203;   -1,451;    1,227
248,483; 5925,613;    1,822;   -0,500
249,081; 6015,732;    0,185;    1,591
249,679; 6184,305;   -0,178;    1,682
250,277; 6456,471;   -1,723;    0,864
250,875; 6429,694;   -1,087;   -1,045
251,473; 6468,375;   -1,178;    0,500
252,071; 6663,158;    1,459;    1,045
252,669; 6814,954;   -1,814;    0,318
253,267; 7076,251;   -0,087;    0,773
253,864; 7034,098;   -0,360;    0,682
254,462; 6895,565;    1,640;    1,591
255,060; 6872,198;   -0,269;    1,318
255,658; 7193,318;    0,822;   -0,136
256,255; 7588,825;    0,186;   -2,045
256,853; 7444,476;   -0,269;    1,409
257,451; 7448,890;    0,822;    1,864
258,048; 7724,795;    1,822;    1,864
258,646; 7481,201;    1,731;   -1,045
259,243; 7673,840;   -0,087;    2,227
259,841; 7727,833;   -0,814;    0,318
260,438; 7617,901;   -0,087;    0,864
261,036; 8306,847;   -1,905;    1,409
261,633; 8251,047;   -0,087;    2,227
262,231; 8000,437;    2,731;   -0,045
262,828; 8093,024;   -0,905;    1,136
263,425; 8107,157;    0,913;   -0,591
264,023; 8395,107;    0,186;    0,045
264,620; 7945,654;   -0,360;   -0,318
265,217; 8275,228;   -2,087;    3,136
265,815; 8394,821;   -1,905;    2,136
266,412; 8155,684;    0,731;    0,136
267,009; 8199,707;   -1,451;    0,773
267,606; 8109,928;    0,822;   -0,955
268,203; 8094,517;   -0,269;   -0,591
268,801; 8389,984;    1,731;    0,591
269,398; 8678,691;   -0,360;    2,500
269,995; 8648,206;    0,277;    1,591
270,592; 8429,936;   -0,632;   -0,500
271,189; 8630,721;    0,186;    0,409
271,786; 8735,552;   -0,632;    1,227
272,383; 8556,212;   -1,087;    0,227
272,980; 8766,496;    0,277;    0,318
273,577; 9204,473;    0,004;    1,227
274,174; 8793,416;    0,822;    2,591
274,771; 8778,409;   -0,814;   -0,773
275,367; 8862,291;    2,277;    1,409
275,964; 8852,542;    0,731;   -0,500
276,561; 8952,320;    1,549;   -1,045
277,158; 9182,123;    0,095;   -1,773
277,755; 9297,732;    2,185;    0,409
278,351; 8696,018;   -0,451;   -1,500
278,948; 9025,155;   -0,815;    0,045
279,545; 9052,995;   -1,360;    2,318
280,141; 9658,796;   -1,723;   -2,045
280,738; 9504,044;   -0,451;   -0,136
281,334; 9752,327;   -1,633;    0,591
281,931; 9152,865;   -0,087;   -1,318
282,528; 9246,529;    0,822;   -0,500
283,124; 9938,110;   -1,087;   -0,500
283,721; 9855,408;   -0,451;    1,409
284,317; 9673,745;    0,185;    2,500
284,913;10234,379;   -1,360;    0,591
285,510;10427,197;    0,640;   -0,318
286,106;10464,157;   -2,269;   -0,955
286,703;10057,486;   -0,360;    1,955
287,299;10251,379;   -1,451;   -0,591
287,895;10468,957;    0,822;   -1,045
288,491;11060,963;    0,186;    2,136
289,088;10785,485;   -2,360;    2,409
289,684;10819,136;   -1,723;    1,500
290,280;10824,248;    0,368;    0,682
290,876;10886,804;    1,822;    5,500
291,472;10787,063;    1,276;    2,227
292,068;10899,159;    1,367;    0,227
292,665;10624,106;    2,095;    0,773
293,261;10280,268;    0,276;    2,136
293,857;10691,247;    2,913;    2,136
294,453;10629,695;    3,550;    0,955
295,049;10483,171;   -0,268;    1,955
295,644;10533,252;    0,095;    0,136
296,240;10449,300;   -0,905;   -0,136
296,836;10477,557;   -0,995;    0,318
297,432;10748,120;    1,096;   -0,500
298,028;10801,000;    0,732;    0,773
298,624;11191,559;    1,459;    1,864
299,220;11432,431;    2,368;    0,591
299,815;11126,319;    1,005;   -0,409
300,411;10916,081;    0,914;    1,773
301,007;10937,361;    1,368;    0,227
301,602;10963,892;   -0,541;   -2,318
302,198;11135,627;    0,732;   -0,773
302,794;11476,308;    1,187;   -0,500
303,389;11592,946;   -1,177;    1,045
303,985;11655,372;    0,550;    1,409
304,580;11600,580;    1,459;    1,591
305,176;11596,232;   -3,086;    0,136
305,771;11515,632;   -1,268;   -1,227
306,367;11355,061;    4,095;    0,136
306,962;11731,073;    0,641;    1,500
307,558;11427,649;   -0,450;    0,136
308,153;11387,960;    1,095;   -1,136
308,748;11599,107;   -0,814;    1,682
309,344;11526,637;   -0,632;   -1,318
309,939;11614,298;   -1,905;   -1,318
310,534;11917,877;   -0,086;   -1,682
311,130;11857,350;    0,459;   -2,500
311,725;11599,447;    1,004;   -0,500
312,320;11924,408;    2,459;    0,045
312,915;11727,514;    1,459;   -1,045
313,510;11804,751;    1,550;   -0,500
314,105;12308,455;    1,096;    1,409
314,700;11739,006;   -3,086;   -1,045
315,295;11382,489;   -0,904;    0,045
315,890;10953,708;    1,277;    0,864
316,485;11301,358;   -0,359;   -0,318
317,080;11409,802;   -3,086;    1,591
317,675;11968,045;    2,005;   -0,682
318,270;11347,357;    5,550;    3,318
318,865;11390,448;    3,278;    3,045
319,460;11232,225;   -0,904;    0,591
320,055;11456,138;   -0,541;   -1,227
320,650;11115,195;   -1,995;   -0,591
321,244;11171,232;   -0,177;   -1,409
321,839;12118,644;   -1,541;   -0,227
322,434;11994,044;   -1,086;   -1,591
323,029;11604,301;    1,732;    1,591
323,623;11435,834;    1,550;    0,773
324,218;11216,296;    2,368;    1,409
324,812;11087,581;    1,096;    1,591
325,407;10884,043;   -0,814;    2,045
326,002;10801,650;    0,277;   -0,409
326,596;11127,458;    0,914;    1,318
327,191;11309,919;    0,823;   -1,045
327,785;10909,367;   -0,813;   -0,227
328,379;11145,404;    1,368;    0,136
328,974;10902,071;    0,914;   -3,955
329,568;11140,612;    0,186;   -2,409
330,163;10986,333;    2,096;    1,045
330,757;11323,056;    2,459;    1,591
331,351;10635,443;    0,459;    0,682
331,945;10939,307;    0,914;    1,409
332,540;10564,989;   -1,723;   -0,591
333,134;10714,845;   -1,086;    0,773
333,728;10936,867;    0,005;    0,318
334,322;11276,888;   -1,177;   -0,864
334,916;10587,186;    0,277;    0,955
335,510;10893,290;   -0,450;   -0,136
336,105;11173,647;   -1,086;    1,591
336,699;10873,082;   -1,086;    0,591
337,293;10802,427;   -1,723;    0,318
337,887;10959,348;   -2,723;    1,955
338,481;11090,291;    0,459;    0,591
339,074;11204,277;   -0,359;    2,682
339,668;11068,606;   -1,632;    1,227
340,262;11305,240;    1,732;    3,227
340,856;10811,436;    1,822;   -0,682
341,450;10229,684;    1,004;    1,864
342,044;11102,791;    1,459;    0,136
342,637;10862,884;    0,913;   -2,136
343,231;10714,132;   -2,360;    0,682
343,825;10697,899;   -1,086;   -0,591
344,419;10657,402;   -1,995;    0,500
345,012;10438,335;    2,459;    4,045
345,606;10466,392;    4,641;    1,591
346,199;10328,231;   -1,813;   -0,227
346,793; 9844,651;    1,914;    2,045
347,386;10059,186;   -0,813;   -1,136
347,980;10083,219;   -0,268;   -0,045
348,573; 9840,541;    2,278;    0,409
349,167; 9518,952;    5,278;    4,773
349,760; 9868,347;    2,914;    2,682
350,354; 9856,708;   -0,813;    1,136
350,947; 9591,208;    1,096;    1,682
351,540; 9294,056;   -0,358;   -1,409
352,134; 9230,287;    1,096;    1,136
352,727; 9330,397;   -0,086;    1,136
353,320; 9107,958;    0,005;    0,591
353,913; 8961,901;   -1,995;    1,864
354,507; 9153,450;    0,823;   -1,227
355,100; 9188,264;    0,460;    0,864
355,693; 8439,420;    2,005;    2,409
356,286; 8438,741;    0,823;    2,773
356,879; 8810,894;   -0,722;    1,227
357,472; 8404,654;   -0,904;    1,500
358,065; 8616,158;   -0,722;    2,500
358,658; 8559,712;   -0,540;    2,318
359,251; 8204,259;   -1,631;   -0,591
359,844; 7705,156;   -1,904;   -1,136
360,437; 7880,508;   -2,995;    0,045
361,030; 8141,410;    1,369;   -0,682
361,623; 7764,421;    2,824;    0,318
362,215; 7781,277;   -0,086;    2,045
362,808; 7594,645;   -2,358;   -1,682
363,401; 7791,476;   -2,449;    0,136
363,994; 7569,257;   -0,631;   -1,500
364,586; 7475,540;    0,824;   -1,500
365,179; 7680,376;   -0,449;   -1,136
365,772; 7160,394;   -1,995;    2,045
366,364; 7456,323;    1,915;   -3,227
366,957; 7683,926;    2,279;   -0,045
367,549; 7700,403;    2,188;   -0,864
368,142; 7339,658;    1,825;   -1,500
368,734; 7531,380;    0,734;   -2,136
369,327; 7506,548;    1,643;   -0,500
369,919; 7406,676;   -1,538;    0,409
370,512; 7235,036;   -1,083;   -0,500
371,104; 6989,126;   -0,901;    1,591
371,696; 7131,993;    1,191;   -0,955
372,289; 7230,918;    0,373;    1,136
372,881; 7348,807;   -2,080;    1,318
373,473; 7273,832;   -2,170;    1,136
374,066; 7087,526;   -0,169;    0,500
374,658; 6949,818;    0,378;    1,136
375,250; 7325,664;    0,653;   -1,409
375,842; 7162,489;    0,473;   -0,045
376,434; 7020,502;   -0,435;   -0,409
377,026; 7591,222;    0,204;   -2,500
377,618; 7474,071;   -0,158;   -0,682
378,210; 7338,941;   -0,338;   -1,955
378,802; 7178,616;    0,754;   -0,591
379,394; 7127,644;    1,846;    0,682
379,986; 7739,453;    1,393;   -0,955
380,578; 7806,221;   -0,153;    0,773
381,170; 7175,229;   -0,972;    0,045
381,762; 7131,139;    0,755;    1,409
382,354; 7326,723;   -0,065;   -1,318
382,945; 7422,522;   -2,976;    0,318
383,537; 7584,940;   -2,705;   -1,955
384,129; 7603,783;   -2,160;   -1,136
384,721; 7771,793;   -0,252;    0,955
385,312; 7696,396;   -0,161;   -0,955
385,904; 7756,617;   -2,706;    1,591
386,496; 7156,957;   -0,979;    1,045
387,087; 7333,095;    1,022;    2,500
387,679; 7396,256;   -1,160;    0,045
388,270; 7505,422;    2,840;    2,045
388,862; 7627,464;    1,295;   -0,318
389,453; 7469,366;   -0,887;    1,045
390,045; 7718,426;   -0,705;   -2,682
390,636; 7688,285;    0,204;   -0,591
391,227; 7535,673;   -0,523;   -0,045
391,819; 7680,776;    0,204;    0,773
392,410; 7702,126;    1,022;    0,045
393,001; 7637,480;   -0,979;   -1,591
393,593; 7888,430;    1,930;   -0,045
394,184; 7734,300;    1,385;   -0,409
394,775; 7677,331;    1,839;    2,136
395,366; 7882,820;    1,385;    0,773
395,957; 7900,249;    0,113;    0,136
396,548; 8194,359;   -0,342;    2,682
397,139; 8453,512;   -2,433;    0,591
397,730; 8218,425;   -1,888;    0,955
398,321; 8260,351;   -1,252;    0,955
398,912; 8274,296;   -0,615;    0,136
399,503; 8365,325;   -3,524;   -1,409
400,094; 7824,549;    0,294;    1,682
400,685; 7686,560;   -0,433;    0,045
401,276; 7806,282;    0,930;   -0,955
401,867; 8083,932;   -0,888;    0,773
402,458; 8191,795;   -2,251;   -2,318
403,048; 8156,300;    1,112;    0,591
403,639; 7760,915;    0,840;    0,864
404,230; 8019,151;    2,476;    0,318
404,821; 7935,416;   -0,615;    0,045
405,411; 8053,823;    1,203;   -2,591
406,002; 7651,969;   -1,252;   -1,136
406,592; 7525,168;    2,294;    0,045
407,183; 7800,404;    0,566;   -1,500
407,774; 7749,092;    3,475;   -0,136
408,364; 8069,964;    0,930;    0,409
408,954; 7682,214;    0,384;    1,227
409,545; 7748,757;    1,021;    1,045
410,135; 7266,232;    1,293;    0,500
410,726; 7448,298;    1,838;    0,318
411,316; 7817,333;    0,111;    0,773
411,906; 7486,288;   -0,253;   -0,409
412,497; 6993,292;   -1,070;   -0,045
413,087; 7572,445;   -1,980;   -0,227
413,677; 7957,601;   -0,707;    3,864
414,267; 7770,840;    0,656;    1,409
414,857; 7787,936;   -2,980;    4,227
415,448; 8075,752;    0,839;    0,500
416,038; 7762,514;    0,020;   -0,591
416,628; 7738,053;   -0,889;    0,409
417,218; 7225,851;    0,565;    3,318
417,808; 7465,128;    0,202;   -0,409
418,398; 7918,068;    0,020;    2,682
418,988; 7935,223;    2,020;    0,591
419,578; 8173,302;   -0,707;    1,409
420,168; 8483,744;   -1,343;   -0,955
420,757; 8054,874;   -1,343;   -1,500
421,347; 7717,784;    0,111;   -0,227
421,937; 7896,995;    2,292;    1,409
422,527; 7872,095;    0,838;   -0,773
423,116; 7674,735;   -0,253;   -0,045
423,706; 8004,077;   -1,889;    0,318
424,296; 7991,257;    1,384;    0,682
424,885; 8370,621;   -0,071;   -3,045
425,475; 8670,995;    1,474;   -2,864
426,065; 8597,752;   -0,980;   -0,318
426,654; 8221,842;   -0,435;   -0,318
427,244; 8319,392;    0,020;    1,409
427,833; 7762,205;    1,383;   -0,500
428,423; 8261,076;   -0,526;    1,136
429,012; 8985,823;   -0,344;   -1,136
429,601; 8472,227;   -1,344;    0,136
430,191; 8710,966;    1,292;    4,318
430,780; 8338,865;   -0,344;   -0,409
431,369; 8268,773;    0,746;   -0,045
431,959; 8889,625;   -1,254;    0,500
432,548; 8659,658;   -1,163;   -0,045
433,137; 8748,667;   -1,254;   -1,318
433,726; 9287,478;    0,292;    0,500
434,315; 8658,091;   -0,526;    2,409
434,905; 8754,331;   -1,254;    1,409
435,494; 8661,529;    0,746;    0,955
436,083; 9141,360;   -0,981;   -0,955
436,672; 8986,642;    0,110;    0,500
437,261; 8575,627;    0,292;   -1,955
437,850; 8675,771;    1,383;    0,682
438,439; 8629,039;    3,291;    1,955
439,027; 8449,318;    3,655;    1,773
439,616; 8771,181;    2,927;    1,227
440,205; 8650,046;    0,200;   -2,136
440,794; 8726,821;    2,109;   -0,045
441,383; 8976,535;   -1,346;   -0,591
441,971; 8803,623;   -2,436;    0,591
442,560; 8662,307;    0,563;   -1,773
443,149; 8413,266;    0,379;   -1,318
443,737; 8531,846;   -0,074;   -2,318
444,326; 8791,309;    0,018;    0,318
444,915; 8851,246;   -1,982;    0,864
445,503; 9206,510;   -2,891;   -0,318
446,092; 8497,243;    0,382;    2,136
446,680; 8991,072;    0,382;    0,318
447,269; 9143,139;   -0,346;   -0,318
447,857; 8951,244;    0,018;   -1,773
448,445; 9057,098;    0,563;    1,318
449,034; 9242,579;   -1,528;   -1,136
449,622; 9364,943;   -1,073;    3,500
450,210; 8632,883;    2,017;    2,227
450,799; 9147,979;    0,290;   -0,591
451,387; 9094,651;    1,381;   -0,591
451,975; 8762,007;    2,654;    0,864
452,563; 8838,691;    3,472;    2,318
453,151; 8883,984;   -0,528;   -1,227
453,739; 8812,983;   -1,347;    0,136
454,328; 8637,579;    2,381;   -2,136
454,916; 8387,349;    2,562;   -0,136
455,504; 8572,732;    1,017;    1,227
456,092; 8695,844;    0,017;   -1,591
456,679; 8665,089;    1,472;    0,682
457,267; 8609,376;    4,017;    1,045
457,855; 8777,172;    1,017;    1,409
458,443; 8522,007;   -0,165;    1,682
459,031; 8672,906;    0,108;    2,409
459,619; 9093,684;   -1,801;    2,864
460,206; 9202,812;    0,835;    2,045
460,794; 9290,034;   -2,983;   -0,227
461,382; 9512,268;   -0,529;   -0,864
461,970; 9111,934;    1,198;    1,864
462,557; 9117,236;   -0,711;   -0,682
463,145; 9308,834;   -3,165;   -1,682
463,732; 9417,402;    2,016;   -1,045
464,320; 9350,086;   -0,075;   -3,045
464,907; 9009,504;    2,743;   -0,773
465,495; 8935,962;    0,743;   -1,227
466,082; 9092,751;   -1,984;   -0,045
466,670; 8999,572;   -2,529;    1,227
467,257; 9387,670;   -1,711;    2,045
467,844; 9519,616;   -0,075;    0,045
468,432; 9536,286;    0,834;    3,500
469,019; 9063,730;    0,925;   -1,773
469,606; 9525,415;    0,470;    3,682
470,193; 9345,046;   -1,439;    0,227
470,780; 8929,086;   -2,075;    0,864
471,368; 9274,675;   -1,257;   -0,773
471,955; 9048,668;    1,379;   -0,682
472,542; 8695,990;    0,652;   -1,136
473,129; 8941,006;   -0,166;    0,136
473,716; 8691,061;    1,470;    0,591
474,303; 8861,699;    0,652;   -0,864
474,890; 9134,308;   -1,439;   -0,500
475,477; 9128,560;   -1,621;    0,409
476,064; 9010,944;    1,106;   -1,591
476,650; 8901,380;    0,288;    0,318
477,237; 8770,562;   -0,258;    0,955
477,824; 8921,597;   -1,076;    0,864
478,411; 8921,958;   -1,894;   -0,318
478,997; 9122,701;    0,560;   -0,773
479,584; 9192,147;    1,196;   -0,409
480,171; 9814,229;   -0,440;   -0,773
480,757; 9444,188;    2,651;    0,773
481,344; 9770,745;    0,469;    0,409
481,931; 9260,045;    1,105;    1,045
482,517;10168,839;   -1,258;    0,318
483,104;10636,389;    1,106;    2,864
483,690;10895,845;   -1,804;    0,045
484,276;11208,801;   -0,895;    0,227
484,863;10955,246;    2,469;    1,136
485,449;11527,723;   -0,077;    0,318
486,035;11483,574;   -1,986;   -0,136
486,622;11879,832;   -0,895;    0,045
487,208;11800,720;    1,378;    1,500
487,794;11689,037;    0,741;    0,318
488,380;11832,497;    0,105;   -1,409
488,967;11853,980;   -1,168;   -0,409
489,553;11942,908;   -1,895;   -1,409
490,139;12121,061;    1,559;    0,773
490,725;11598,701;    0,741;   -0,227
491,311;11254,030;    3,287;    3,045
491,897;10685,578;   -0,986;    1,500
492,483;10524,887;    0,105;    1,227
493,069;10325,823;    3,923;    0,864
493,655;10291,321;    1,650;    0,682
494,241;10249,742;    1,377;   -0,955
494,826;10672,816;    0,287;   -1,045
495,412;10156,301;    2,559;   -0,682
495,998;10330,156;   -0,805;   -0,318
496,584;10467,995;    0,377;    1,045
497,169;10508,973;    1,014;   -0,682
497,755;10539,331;    0,650;    1,227
498,341;11052,245;    0,559;    0,318
498,926;10648,953;    1,832;    1,955
499,512;10887,040;    1,286;    2,955
500,097;11031,470;    0,195;   -0,318
500,683;11024,007;   -0,350;    2,136
501,268;11427,312;   -0,169;   -0,955
501,854;11184,017;   -0,169;    1,227
502,439;11144,764;   -0,624;   -1,773
503,024;11335,537;    0,195;    0,500
503,610;11405,657;   -0,078;   -0,682
504,195;11470,786;    0,558;    1,955
504,780;11630,496;    2,922;    1,227
505,366;11499,946;    3,013;    2,864
505,951;11285,751;    0,740;    1,045
506,536;11352,596;   -3,260;   -3,682
507,121;11326,618;    0,285;   -0,318
507,706;11915,165;    2,376;    1,045
508,291;12337,116;    2,649;    1,136
508,876;11811,367;   -0,988;    2,591
509,461;11303,989;   -0,169;   -0,773
510,046;11750,471;    0,194;    0,318
510,631;11980,731;   -0,351;   -0,773
511,216;11676,620;    2,467;   -0,500
511,801;12095,658;   -0,442;    2,591
512,386;12397,979;    0,740;    0,500
512,971;12316,999;   -2,988;    0,955
513,555;11903,682;   -0,897;   -1,500
514,140;12695,809;   -0,442;   -3,136
514,725;12707,983;   -0,715;   -1,136
515,309;12853,706;   -0,533;    0,318
515,894;12341,038;   -0,624;   -2,227
516,479;12797,409;   -0,624;   -0,955
517,063;12606,584;    0,376;    1,227
517,648;12810,405;    1,012;   -1,136
518,232;12467,834;   -0,261;   -1,409
518,817;12800,624;   -0,079;    1,682
519,401;13016,952;    2,194;    0,591
519,985;12521,401;    1,103;    1,136
520,570;12420,263;    0,830;   -1,955
521,154;12694,969;    2,102;    0,591
521,738;12868,171;   -2,352;    2,409
522,323;13440,147;   -0,170;    1,682
522,907;13202,048;    0,466;   -0,136
523,491;12931,959;    0,557;    0,955
524,075;12884,930;    2,284;    0,591
524,659;13001,039;    1,466;    0,591
525,243;12482,618;    1,739;    0,409
525,827;12743,991;    0,648;   -0,045
526,411;13587,675;   -1,989;   -0,136
526,995;13788,743;   -0,352;    1,409
527,579;13363,678;   -0,443;   -1,045
528,163;13682,266;    0,375;   -1,500
528,747;13573,717;    2,466;   -0,773
529,331;13891,744;   -0,080;   -1,409
529,915;14128,479;    1,738;    0,955
530,499;14048,903;   -0,807;    1,227
531,082;13765,495;   -0,534;    1,591
531,666;13199,951;    1,374;    0,773
532,250;13858,051;    1,284;    2,682
532,833;14239,190;    0,920;    2,773
533,417;14100,949;   -1,807;    0,864
534,001;14034,357;    1,647;   -0,318
534,584;14722,948;    0,374;    0,500
535,168;14595,855;    0,465;    1,409
535,751;14629,073;    0,647;    0,045
536,334;14079,352;   -0,898;   -0,409
536,918;14679,472;    0,011;    1,591
537,501;14789,027;   -0,899;    1,318
538,085;14795,578;   -0,444;    1,045
538,668;14939,276;    0,829;    2,409
539,251;15216,974;    1,829;    3,773
539,834;15278,062;    0,101;    0,773
540,418;15209,567;   -1,990;    4,318
541,001;15322,349;   -0,990;    1,773
541,584;15283,352;    2,101;    2,227
542,167;14998,873;    1,374;    2,955
542,750;15146,092;    1,919;   -0,773
543,333;14751,357;    0,555;    2,136
543,916;15507,918;    0,192;    2,500
544,499;16095,167;   -1,354;    0,227
545,082;16089,321;    1,374;    3,591
545,665;16223,164;    1,919;    1,500
546,248;16543,176;    1,010;   -0,318
546,830;16247,687;   -0,445;    1,955
547,413;16652,764;    1,010;   -0,773
547,996;17194,106;    0,555;    0,500
548,579;16926,633;    0,919;    0,955
549,161;16723,877;    1,828;    2,682
549,744;16549,677;   -0,809;    0,409
550,326;17057,497;   -0,809;   -1,136
550,909;16818,749;    2,737;    0,591
551,492;17246,674;   -0,263;    0,227
552,074;16999,785;   -0,173;   -1,318
552,657;17509,573;    2,373;    0,045
553,239;17319,759;   -0,173;   -0,773
553,821;17249,745;   -1,082;    1,045
554,404;16774,633;    1,282;    1,136
554,986;17117,914;    0,464;    1,045
555,568;17696,645;    1,191;   -0,955
556,151;16970,162;    1,191;   -0,227
556,733;17159,274;   -0,264;   -0,864
557,315;17585,479;    0,100;    0,500
557,897;17388,355;    0,554;   -0,500
558,479;17531,659;   -1,991;    1,318
559,061;17666,863;   -0,719;   -0,864
559,643;17982,822;   -0,264;    0,045
560,225;18316,708;    1,645;    2,864
560,807;18373,186;    0,918;    0,318
561,389;17867,432;    0,554;    2,318
561,971;18601,641;    0,463;    2,136
562,553;18404,803;   -1,628;    1,591
563,135;18502,559;   -0,537;    1,136
563,717;18125,255;    3,372;    1,136
564,298;18835,747;    3,645;   -0,045
564,880;18587,747;    0,645;   -1,409
565,462;18744,929;    0,645;    1,318
566,043;19836,754;   -0,446;    2,318
566,625;19366,390;    1,918;    1,227
567,207;19266,766;    1,099;    1,682
567,788;20315,497;   -1,264;    1,500
568,370;21106,030;    1,917;   -0,500
568,951;20941,289;    0,190;    0,227
569,533;21780,676;   -0,628;   -0,500
570,114;22207,336;   -0,446;    0,682
570,695;22681,819;   -0,174;   -1,318
571,277;23152,100;   -0,265;   -1,682
571,858;23847,123;    2,008;   -1,136
572,439;24754,447;    1,554;   -1,045
573,021;24879,425;    2,099;   -2,773
573,602;25356,052;   -1,265;    0,318
574,183;26201,667;   -2,083;    2,227
574,764;26300,270;   -1,629;    0,409
575,345;26874,187;    0,917;   -0,136
575,926;27488,715;   -0,356;    0,136
576,507;27472,142;    1,099;   -0,227
577,088;28556,111;    3,099;    1,682
577,669;28489,003;    0,735;    1,955
578,250;29207,303;    0,644;   -1,045
578,831;29878,569;   -1,356;   -2,227
579,412;30107,338;   -0,810;    0,955
579,993;31056,673;    1,008;    0,227
580,573;31392,795;   -0,629;   -0,955
581,154;30283,126;    0,735;   -0,591
581,735;31158,336;    0,644;    0,773
582,315;30727,790;   -0,629;    2,136
582,896;31002,543;   -0,174;    1,227
583,477;30489,015;    0,189;    1,227
584,057;30697,279;    0,553;    0,955
584,638;30970,582;    2,553;    2,318
585,218;30935,278;   -0,538;    2,682
585,799;31118,484;    0,281;   -0,227
586,379;31109,839;    0,372;    1,591
586,959;29951,728;    0,735;    0,318
587,540;29342,385;   -0,629;    2,227
588,120;28863,890;    1,007;   -0,045
588,700;27867,086;    2,553;    2,136
589,281;28180,916;    0,462;   -0,955
589,861;28115,133;    0,099;   -1,682
590,441;27933,008;    2,371;   -2,682
591,021;26939,218;   -0,265;   -2,591
591,601;27228,046;   -0,537;    0,500
592,181;27231,801;   -0,719;   -0,773
592,761;26527,454;    0,007;    1,409
593,341;26465,151;   -0,901;    0,045
593,921;26448,081;   -0,265;    1,591
594,501;26338,849;   -0,538;    1,318
595,081;26192,837;    0,917;   -0,318
595,661;26480,542;   -1,447;    0,955
596,240;27014,076;   -0,537;    0,136
596,820;26644,548;    0,372;    1,955
597,400;26853,297;    2,008;    0,773
597,980;27055,920;    2,008;    1,045
598,559;27119,841;    2,735;   -0,227
599,139;26823,118;   -0,174;   -1,227
599,718;26729,754;   -0,174;   -0,409
600,298;26967,508;    0,735;    0,682
600,877;27113,103;    2,917;    1,409
601,457;27413,848;    2,281;    1,136
602,036;27355,227;    0,190;    2,045
602,616;27571,101;    0,644;    1,682
603,195;27877,029;   -0,355;    3,500
603,774;27428,094;   -0,901;    2,045
604,354;27360,519;    0,826;   -0,500
604,933;26838,317;    0,463;    1,864
605,512;26948,945;    3,554;    0,591
606,091;27014,357;   -0,537;    3,773
606,671;27800,091;    0,281;    0,773
607,250;26893,728;    1,644;    3,136
607,829;27088,348;    2,372;    3,227
608,408;26972,689;    1,190;    2,591
608,987;26030,576;    1,281;    3,409
609,566;26379,270;   -1,265;   -2,500
610,145;26485,184;   -1,082;    0,682
610,723;26873,945;    4,372;    6,864
611,302;26157,842;   -0,446;    1,682
611,881;25679,393;    5,008;   11,227
612,460;26506,092;    1,645;    3,955
613,039;26913,745;   -0,082;    2,045
613,617;25673,745;    1,736;    4,773
614,196;25864,759;    1,099;    1,227
614,775;26185,167;    1,009;    2,409
615,353;26150,674;    0,736;    0,864
615,932;25850,010;    0,100;    2,409
616,510;26411,530;    0,554;    0,591
617,089;26014,527;    7,100;   17,591
617,667;25752,283;    2,372;    6,136
618,246;25649,760;   -1,537;    1,318
618,824;25766,096;   -3,355;   -0,955
619,402;25358,005;   -2,900;   -1,773
619,981;25892,905;   -0,173;   -1,045
620,559;25775,414;    0,009;    1,682
621,137;25281,387;   -0,718;    1,864
621,715;25234,875;   -1,173;   -0,682
622,293;25209,902;   -0,537;   -0,773
622,871;25662,934;   -0,718;    0,500
623,450;25243,645;    0,373;   -0,864
624,028;25143,080;    0,191;   -0,955
624,606;24764,557;   -1,718;    1,682
625,183;25177,971;   -1,536;   -1,136
625,761;24770,334;    1,009;    1,136
626,339;25115,803;    1,373;    2,591
626,917;25468,865;   -0,172;   -0,045
627,495;25551,261;   -0,354;    1,318
628,073;25007,554;   -0,263;    2,864
628,650;24671,995;    0,100;    2,136
629,228;25141,309;    0,373;    4,409
629,806;24559,451;    2,282;    1,136
630,383;24782,953;    1,464;   -0,318
630,961;24582,481;    2,555;   -0,955
631,539;24314,376;    2,464;    0,227
632,116;23683,027;   11,373;   15,409
632,694;24270,318;    2,555;    6,500
633,271;24534,781;    0,828;    2,682
633,848;24466,427;    1,828;    2,045
634,426;24515,925;   -1,081;    1,773
635,003;23620,960;    1,101;   -0,409
635,580;23950,593;    1,192;    3,682
636,158;24524,037;    3,737;    1,227
636,735;24483,811;    0,555;   -0,500
637,312;24624,582;   -0,809;   -0,682
637,889;24757,982;   -4,354;   -0,682
638,466;24199,225;   -3,990;   -0,409
639,043;24221,781;    2,101;   -1,136
639,620;24555,659;   -2,262;   -0,955
640,197;24857,338;    1,100;    1,682
640,774;24971,385;   -0,172;    1,136
641,351;25392,432;    0,737;    1,136
641,928;24798,388;   -0,627;    1,409
642,505;24469,344;    0,828;   -0,500
643,082;24593,754;   -1,718;    1,227
643,658;23613,983;   -0,718;    1,500
644,235;24378,212;    1,191;    2,500
644,812;24661,895;    1,918;    0,773
645,388;24406,942;   -0,991;    1,409
645,965;24540,444;   -0,809;    1,682
646,542;24600,309;   -1,445;   -0,227
647,118;24555,356;    1,009;   -0,955
647,695;24817,130;   -0,263;    1,136
648,271;24740,359;   -0,536;    0,500
648,848;25051,588;    0,736;    2,227
649,424;24860,544;    0,827;    1,318
650,000;24709,591;   -0,354;   -1,045
650,577;24456,547;   -0,627;   -0,955
651,153;24904,594;   -1,809;    0,955
651,729;25847,823;    1,191;    0,864
652,305;26013,961;    0,645;    2,773
652,881;29950,008;   -0,082;    1,136
653,458;36446,419;    1,100;    0,227
654,034;40305,647;    0,282;    1,591
654,610;41785,331;    0,554;    0,773
655,186;43107,287;    0,645;    3,045
655,762;42862,607;   -0,991;    0,409
656,338;42861,835;    0,100;    0,136
656,913;43837,701;   -0,082;    0,409
657,489;43095,293;    0,827;   -0,318
658,065;43124,249;   -0,173;   -1,591
658,641;43766,751;   -0,900;   -0,864
659,217;43085,252;   -0,991;    0,409
659,792;42435,390;    0,645;   -0,409
660,368;42770,164;   -2,173;   -0,682
660,944;42481,393;   -2,082;    1,227
661,519;38400,531;   -0,628;    0,409
662,095;32782,942;   -1,719;    0,591
662,670;28137,171;    1,281;   -0,136
663,246;26923,218;    1,009;   -0,409
663,821;26193,719;    0,281;    1,682
664,396;25688,766;    0,009;    1,864
664,972;25932,631;    0,009;   -0,500
665,547;26245,951;    1,372;    0,136
666,122;26226,089;   -1,082;    0,318
666,698;26537,772;   -0,173;    0,318
667,273;25899,728;   -0,173;    0,136
667,848;26700,139;    2,372;    1,500
668,423;26477,913;    2,190;    2,318
668,998;27021,869;    2,827;   -0,682
669,573;27573,553;   -3,264;   -1,500
670,148;27385,782;   -1,446;   -0,682
670,723;27196,829;   -1,810;    0,318
671,298;27613,512;    2,372;    1,045
671,873;27704,286;   -0,082;   -0,136
672,448;27667,515;    0,645;    0,136
673,023;27991,198;   -1,992;   -0,227
673,597;28317,609;    0,827;    2,318
674,172;28107,838;   -0,355;    0,318
674,747;27590,703;    0,372;   -1,045
675,321;27468,296;   -0,628;    3,318
675,896;27014,797;    0,645;    1,045
676,471;28074,935;    2,645;    1,591
677,045;27802,618;   -1,264;    0,682
677,620;27837,029;    0,190;    1,136
678,194;28176,349;   -2,628;    1,136
678,769;27690,850;   -1,083;   -0,318
679,343;27937,443;   -0,628;    1,773
679,917;27809,762;   -1,446;    1,955
680,492;27909,082;    0,826;    3,227
681,066;28005,493;    3,372;    0,409
681,640;28043,540;    1,463;   -0,318
682,214;28882,314;    0,735;    0,500
682,788;28365,725;   -1,356;   -0,773
683,363;28350,135;   -1,810;    1,682
683,937;28062,364;   -1,719;   -0,318
684,511;28789,957;    0,463;   -0,591
685,085;28557,458;   -1,356;    0,318
685,659;28312,414;   -2,538;    0,864
686,232;28528,916;   -0,356;   -0,318
686,806;28227,236;   -0,901;    0,409
687,380;28869,010;   -0,174;    0,591
687,954;29108,239;   -1,174;    1,136
688,528;28809,558;   -0,719;    1,955
689,101;29563,333;   -3,992;    1,045
689,675;29158,925;   -0,356;   -0,136
690,249;28496,245;   -0,719;    0,409
690,822;28855,837;    0,280;    0,318
691,396;28987,248;   -0,265;    1,227
691,969;28454,750;    1,280;    0,136
692,543;28918,978;   -0,447;   -1,955
693,116;28564,662;   -0,265;   -1,409
693,690;28423,254;    0,099;    0,500
694,263;28946,756;   -1,083;    2,955
694,836;28957,621;    1,371;    3,591
695,410;27610,850;   -0,265;    1,773
695,983;28090,806;    0,189;    0,591
696,556;28062,580;   -0,447;   -1,045
697,129;28467,173;   -0,356;    1,409
697,703;28078,492;   -1,629;    1,955
698,276;28069,630;    1,462;   -0,773
698,849;27900,495;    1,280;    1,409
699,422;28306,451;   -1,083;    0,591
699,995;27992,317;    0,007;    0,136
700,568;28513,182;   -0,629;    3,045
701,140;28533,411;   -2,811;    1,682
701,713;28266,912;   -0,174;    2,409
702,286;27974,686;   -0,538;    0,864
702,859;27881,370;   -0,902;   -0,591
703,432;27060,780;    0,825;    0,682
704,004;27572,191;    0,462;    0,318
704,577;27440,511;   -0,629;    0,136
705,150;27988,467;    0,189;    2,500
705,722;27778,968;   -0,356;   -3,227
706,295;27547,197;   -0,175;   -0,591
706,867;27412,517;   -0,175;    1,955
707,440;27627,019;   -1,720;   -0,409
708,012;27846,793;    0,462;    0,591
708,584;27791,749;    2,462;    0,227
709,157;28123,251;    1,825;   -0,591
709,729;27748,298;    2,280;    2,045
710,301;28612,526;    0,734;    0,045
710,874;28536,755;   -1,447;   -0,227
711,446;27466,984;    0,371;    0,864
712,018;27356,395;    0,098;    0,500
712,590;27137,987;   -1,993;    1,682
713,162;27633,761;    0,825;    1,318
713,734;27849,445;    1,825;   -2,045
714,306;27776,764;   -1,902;   -0,409
714,878;26526,357;    0,825;    0,864
715,450;27337,768;    0,643;    0,864
716,022;27566,087;    1,552;    1,318
716,593;27704,225;    0,189;    0,591
717,165;27649,636;   -3,175;   -1,227
717,737;27327,137;    0,280;    0,409
718,309;27027,275;    0,280;   -0,045
718,880;26997,595;   -0,539;   -1,409
719,452;27200,642;   -0,175;   -1,591
720,024;26799,144;    0,734;   -0,591
720,595;27328,372;   -2,902;    0,955
721,167;26871,965;    0,370;   -2,045
721,738;26439,285;   -0,812;   -1,045
722,309;26424,332;   -0,993;   -1,227
722,881;26148,379;   -1,357;    0,773
723,452;26809,062;   -2,630;    2,864
724,023;27019,200;   -0,721;    2,682
724,595;26772,610;    0,007;    0,682
725,166;26556,657;    0,007;   -0,409
725,737;26115,886;    1,734;    0,227
726,308;26256,933;   -0,266;    0,318
726,879;26674,889;   -1,630;    1,227
727,450;26585,755;    0,552;   -0,045
728,021;26546,347;    3,097;    0,682
728,592;26266,667;    0,734;    0,500
729,163;26650,077;    0,643;   -0,136
729,734;26649,579;    0,188;   -0,227
730,305;27028,444;    1,734;    0,136
730,876;27338,673;    0,188;    2,955
731,447;27016,993;    2,188;    2,682
732,017;27110,767;    1,097;    1,864
732,588;26617,541;    0,734;    1,227
733,159;26815,497;    0,643;   -1,045
733,729;26644,453;    0,006;    0,409
734,300;25917,410;    0,915;    0,864
734,870;26371,729;    3,461;    0,591
735,441;26941,322;    0,370;   -0,591
736,011;26671,641;    0,643;   -1,591
736,582;26653,507;   -0,812;    0,045
737,152;26101,645;   -1,721;   -2,045
737,722;26503,328;   -0,267;   -0,682
738,293;26269,557;   -1,358;    1,318
738,863;26136,604;    2,461;    2,318
739,433;25970,469;    5,279;    0,318
740,003;26596,152;   -0,994;   -0,682
740,573;25994,381;    2,097;   -1,591
741,143;25953,428;   -1,085;    0,318
741,713;26706,202;    1,188;   -0,500
742,283;26387,886;    0,915;    1,591
742,853;26186,115;    1,915;    1,591
743,423;25686,071;    1,733;    0,045
743,993;25788,572;   -0,358;    1,500
744,563;25206,256;    0,097;   -0,864
745,133;25137,575;   -0,812;   -0,864
745,702;25818,350;   -0,267;    1,773
746,272;25068,306;   -0,176;    0,591
746,842;24829,989;   -1,358;   -0,591
747,411;25284,491;   -0,267;   -0,318
747,981;25504,719;    0,097;    0,500
748,551;25524,403;    2,278;   -1,045
749,120;25312,813;    0,642;   -0,227
749,690;25711,133;   -0,631;    2,409
750,259;26039,544;    1,369;    2,955
750,828;25977,227;    1,551;   -1,955
751,398;26259,365;    1,278;   -0,045
751,967;25736,776;    2,187;    0,409
752,536;25998,368;   -0,813;   -0,227
753,105;26360,961;    0,096;    0,227
753,675;26210,280;    0,096;    1,773
754,244;26108,964;   -0,904;    3,591
754,813;26128,011;    0,551;    1,227
755,382;25738,694;    0,460;    0,955
755,951;26262,923;    1,551;    3,682
756,520;25785,152;   -0,085;    1,864
757,089;26290,471;    0,278;    0,500
757,658;26419,064;    1,733;    1,227
758,227;26492,565;    1,096;    0,318
758,795;26784,067;    1,187;    1,136
759,364;27009,750;   -0,086;   -0,591
759,933;26047,434;   -1,176;   -0,045
760,501;25597,026;    0,733;   -1,318
761,070;26054,710;   -2,813;   -1,409
761,639;26728,393;   -1,904;    1,318
762,207;26037,349;    1,551;   -0,955
762,776;25997,760;    0,369;    0,864
763,344;25992,534;   -0,995;    0,591
763,913;25118,308;   -0,722;    1,409
764,481;25868,628;    1,005;   -0,136
765,049;25649,220;   -1,358;    1,409
765,618;25508,449;   -0,086;    0,318
766,186;25654,951;    0,278;    0,136
766,754;25803,452;    0,005;    1,864
767,322;24860,863;   -1,995;    0,409
767,890;24877,364;   -0,722;   -1,773
768,459;25290,139;   -2,177;   -0,318
769,027;25413,731;    1,641;    3,409
769,595;24423,505;    3,278;    2,591
770,163;24842,189;    3,823;    2,955
770,730;24618,872;    0,732;   -0,136
771,298;24484,737;    0,187;   -1,409
771,866;24595,603;   -1,541;    4,955
772,434;24877,740;   -0,631;   -1,864
773,002;25020,333;    0,005;    0,682
773,569;24697,380;    0,914;    1,682
774,137;24541,881;   -0,268;   -0,045
774,705;25311,656;    0,278;   -0,136
775,272;24790,339;    0,641;    0,682
775,840;24549,841;   -0,177;    2,682
776,407;24098,342;    0,277;    1,955
776,975;23730,935;   -0,632;    0,318
777,542;24775,709;   -1,086;   -0,045
778,110;24614,483;   -1,268;   -0,045
778,677;24267,167;   -2,359;   -0,864
779,244;24038,032;    2,186;    1,045
779,812;24125,897;    1,823;    0,864
780,379;23954,944;    0,005;    1,136
780,946;24212,536;    1,005;   -0,773
781,513;24553,583;   -1,450;    0,318
782,080;23931,449;   -0,086;    2,864
782,647;24640,496;   -0,268;    3,045
783,214;24220,634;   -0,177;    3,864
783,781;23824,953;   -0,723;   -0,682
784,348;23711,000;   -0,632;    1,500
784,915;24169,411;   -3,177;    0,318
785,482;23961,640;    1,368;    2,591
786,049;24392,505;    0,186;   -0,591
786,615;24536,552;    0,277;   -0,955
787,182;24271,053;    0,186;   -0,682
787,749;23970,464;   -2,814;    1,409
788,315;23310,693;   -1,632;   -0,409
788,882;23589,649;    1,550;   -1,227
789,448;24234,332;    1,732;   -0,955
790,015;24289,925;    1,095;    3,227
790,581;23846,972;    1,459;    0,227
791,148;23741,655;    0,641;    1,045
791,714;23976,157;   -0,541;    3,136
792,280;23678,476;    0,186;    1,591
792,847;23221,523;    0,550;    2,500
793,413;23784,207;   -0,269;   -0,318
793,979;23331,254;    3,459;   -1,318
794,545;23402,574;    4,459;    2,682
795,111;22826,711;    2,186;    1,318
795,678;22981,031;    0,731;   -1,682
796,244;22631,351;    3,368;    0,136
796,810;23192,125;    1,731;    0,773
797,375;22867,536;    0,549;   -2,136
797,941;22908,037;   -0,541;    0,591
798,507;23117,448;   -0,451;   -0,955
799,073;22666,040;   -0,360;    0,591
799,639;22706,088;   -2,632;    3,136
800,205;22797,134;    0,095;    2,682
800,770;22317,454;    0,640;    1,773
801,336;22373,956;    1,368;   -0,955
801,901;22036,276;    4,549;    3,136
802,467;22689,868;   -0,542;    2,045
803,033;22018,733;   -0,087;    0,864
803,598;22248,689;    1,913;   -1,045
804,163;22281,100;    1,095;   -0,318
804,729;22223,329;   -0,178;    1,136
805,294;22634,830;    0,822;    2,227
805,859;22412,786;    0,731;   -0,409
806,425;21858,197;    1,186;    2,682
806,990;21528,426;    2,186;    4,318
807,555;22014,655;   -1,451;    2,591
808,120;21870,611;    0,822;   -0,409
808,685;21946,021;    0,185;   -2,500
809,250;21520,614;    0,004;   -0,500
809,815;21841,934;    1,913;    0,682
810,380;22318,981;   -0,269;    1,591
810,945;22835,755;   -1,087;    2,045
811,510;22015,347;    2,094;    1,591
812,075;21716,212;   -0,633;   -1,409
812,640;21737,532;    2,003;    1,409
813,204;21819,125;    0,822;   -0,227
813,769;22333,263;    2,094;   -0,045
814,334;21722,491;    0,458;    0,864
814,898;21806,084;    0,367;    0,591
815,463;21671,949;    1,276;   -0,773
816,027;21610,269;   -0,724;   -2,318
816,592;21675,407;    0,640;   -2,045
817,156;21238,181;    2,094;    1,136
817,721;21101,864;    4,276;    2,318
818,285;21056,729;    2,912;    1,500
818,849;21653,231;   -1,451;    1,682
819,414;21602,642;   -0,269;    2,955
819,978;21213,234;   -1,269;    1,773
820,542;21754,190;    2,003;    0,500
821,106;21446,692;   -0,815;    0,682
821,670;21603,284;   -0,815;    2,591
822,234;21347,877;   -0,270;    1,409
822,798;20679,196;    0,003;    0,500
823,362;20615,880;   -0,633;    4,227
823,926;19968,018;    0,094;    1,136
824,490;20186,883;   -0,997;   -0,682
825,054;20631,657;   -0,088;   -1,136
825,618;20291,159;   -1,542;   -1,500
826,181;20217,933;    0,458;   -1,318
826,745;20144,344;    1,367;   -1,045
827,309;20469,391;    1,185;    1,318
827,872;19854,619;    1,367;    0,955
828,436;20849,030;    1,185;   -0,773
828,999;20910,623;   -0,997;    1,227
829,563;19710,124;   -0,179;    1,136
830,126;19550,080;   -0,179;   -0,591
830,690;19559,218;   -1,997;    2,864
831,253;19098,083;   -0,543;    2,227
831,816;19214,948;   -1,906;    0,500
832,380;19142,177;    0,185;    0,864
832,943;19394,406;   -1,361;   -0,500
833,506;18851,362;    2,639;   -1,227
834,069;19617,409;    3,912;   -0,955
834,632;19692,729;    1,730;    1,318
835,195;19626,594;    1,003;    0,955
835,758;18849,641;   -0,997;    1,955
836,321;18688,779;    0,730;   -1,045
836,884;18784,735;   -0,725;   -0,955
837,447;18802,782;   -2,816;    1,773
838,010;19071,920;    0,366;    3,227
838,573;19356,422;   -1,179;    0,773
839,135;19298,196;   -1,361;   -0,955
839,698;18749,061;    1,275;    0,409
840,261;18300,744;    1,003;   -0,227
840,823;18159,428;   -0,543;    0,864
841,386;18460,020;   -0,452;   -2,409
841,948;18301,340;   -1,361;    1,773
842,511;18092,296;    0,912;    1,682
843,073;18214,798;    1,912;    0,227
843,636;18035,481;   -0,361;   -0,227
844,198;17914,073;    0,911;    0,591
844,760;18066,302;    1,093;    1,955
845,322;17716,167;    0,548;    1,136
845,885;18117,760;    0,730;    0,591
846,447;18575,989;   -1,998;    0,227
847,009;18130,945;    1,911;   -0,682
847,571;18427,446;    0,820;   -2,045
848,133;18553,130;   -1,089;   -1,864
848,695;18371,995;   -0,543;    1,409
849,257;17928,496;   -1,089;   -1,682
849,819;18114,089;   -0,998;   -0,409
850,381;18165,227;   -0,725;   -0,864
850,942;18548,728;    1,093;   -0,591
851,504;18463,321;    1,184;    0,227
852,066;18531,277;    1,275;   -1,591
852,628;18074,778;   -0,180;    1,955
853,189;17633,825;    1,638;    2,682
853,751;17772,600;   -0,907;    1,409
854,312;17566,738;   -0,453;   -1,682
854,874;18029,694;   -2,089;   -0,773
855,435;18549,559;   -0,907;   -1,682
855,997;18720,424;   -1,816;   -0,136
856,558;18020,562;    0,366;    1,773
857,119;18146,064;    0,820;    2,864
857,681;17868,929;    0,002;    0,318
858,242;17887,430;    1,911;   -2,136
858,803;18284,386;    0,456;   -0,773
859,364;18859,706;    0,184;   -4,773
859,925;18165,299;   -2,453;   -0,955
860,486;18087,073;   -0,453;   -0,955
861,047;17843,211;   -0,544;   -1,227
861,608;17629,440;   -1,089;   -0,773
862,169;17737,850;    0,638;   -0,045
862,730;17534,988;    0,456;    1,409
863,291;17787,217;   -0,635;   -0,500
863,852;18102,718;   -0,635;    1,955
864,412;17611,311;   -0,271;   -0,864
864,973;16216,631;   -0,089;    0,500
865,534;16092,496;   -1,726;    0,227
866,094;17580,634;    1,820;    0,227
866,655;17242,408;    1,274;    3,318
867,215;17502,910;    0,274;    0,136
867,776;17335,866;    0,547;   -0,136
868,336;17483,458;   -1,453;    0,136
868,897;16946,505;    2,638;    1,682
869,457;16693,552;    1,365;    0,318
870,017;16925,963;    0,547;   -1,227
870,578;17435,919;   -0,817;    0,773
871,138;17104,966;   -2,089;   -0,955
871,698;16665,286;   -0,817;   -1,318
872,258;16548,514;   -0,453;   -2,864
872,818;16879,743;    2,729;    0,045
873,378;16857,790;    0,638;    1,045
873,938;16396,383;    0,547;    0,500
874,498;16698,793;    0,274;   -1,955
875,058;16645,477;    2,183;    1,773
875,618;16518,524;    1,910;   -2,682
876,177;16453,116;    1,274;    0,136
876,737;16064,618;   -0,090;    1,955
877,297;16071,756;    0,183;    1,955
877,856;16078,803;   -0,362;    0,318
878,416;16024,122;    1,183;   -0,136
878,976;16225,260;   -1,817;    0,409
879,535;16419,489;    0,092;    3,136
880,095;16165,536;   -0,544;    0,045
880,654;16256,310;   -1,090;    1,318
881,213;16308,539;    2,456;    1,500
881,773;15926,313;    2,637;    2,682
882,332;16280,997;    3,365;    5,136
882,891;16189,589;    3,092;    2,136
883,451;16630,636;   -1,272;    1,682
884,010;16123,774;   -2,908;   -0,409
884,569;16196,730;   -0,999;   -0,045
885,128;16337,686;    2,819;   -1,864
885,687;16356,915;    4,455;    0,682
886,246;16069,417;    1,455;    2,136
886,805;15882,009;    2,455;    2,045
887,364;16152,420;   -0,999;   -0,500
887,922;16549,103;   -1,181;    0,045
888,481;16020,150;   -1,545;    0,591
889,040;16336,652;    1,183;    2,136
889,599;16979,517;    2,455;    1,409
890,157;17080,746;    1,455;    2,409
890,716;16724,247;   -0,090;    0,227
891,274;16532,385;    0,092;   -1,136
891,833;16966,160;    1,546;    0,864
892,391;16854,388;   -0,454;    0,500
892,950;16929,163;    1,819;   -0,773
893,508;17299,391;    0,455;   -0,409
894,067;16667,348;    0,637;    0,136
894,625;16575,940;   -0,636;   -1,500
895,183;16819,260;   -0,363;   -0,682
895,741;16694,943;    1,728;   -1,773
896,299;16528,081;   -0,545;   -2,409
896,858;16684,946;    0,819;   -1,591
897,416;16781,720;    2,728;   -1,318
897,974;16531,222;    1,819;    0,318
898,532;16700,905;    6,091;    2,682
899,089;16624,225;    2,091;   -0,682
899,647;16668,454;   -1,454;    1,318
900,205;16364,319;    1,182;    1,045
900,763;16584,821;   -0,454;    0,227
901,321;16604,777;    2,364;   -1,409
901,878;16068,733;   -1,000;   -0,773
902,436;15968,598;   -1,363;    1,318
902,994;16333,190;    4,728;    3,682
903,551;15779,419;    0,728;    0,409
904,109;16154,012;    0,182;   -1,409
904,666;15735,695;    2,455;    1,045
905,224;15602,833;    0,182;   -0,409
905,781;15346,153;    0,727;   -0,318
906,338;15406,472;   -1,363;    1,045
906,895;15351,247;    0,637;    2,045
907,453;15252,657;    1,727;    1,136
908,010;15300,704;   -0,909;    0,409
908,567;14937,842;    1,273;    0,591
909,124;14479,889;    0,364;   -1,500
909,681;14559,027;   -2,909;    0,682
910,238;14733,347;    0,636;   -1,318
910,795;15041,394;   -0,273;   -1,136
911,352;14669,030;   -2,909;   -2,682
911,909;14092,121;   -1,364;   -0,864
912,466;14573,121;   -3,182;    1,500
913,022;14115,758;   -1,636;    0,500
913,579;14485,394;   -0,909;    2,045
914,136;14198,576;    1,636;    0,955
914,692;14524,848;    0,091;   -1,227
915,249;14114,576;    1,455;    0,409
915,806;14325,485;    0,182;    1,955
916,362;14082,939;    1,909;    1,864
916,918;13686,758;    2,000;    1,045
917,475;13641,030;   -1,182;    0,955
918,031;13688,848;    3,364;   -0,045
918,587;13129,667;   -0,909;   -0,318
919,144;13380,848;   -2,273;    0,227
919,700;13701,848;    1,727;    0,773
920,256;13311,758;    0,727;    0,045
920,812;12933,939;   -0,727;   -1,045
921,368;12903,394;   -1,727;   -1,045
921,924;12565,121;    0,182;   -0,136
922,480;12154,758;   -0,545;    1,227
923,036;12742,394;    1,273;    1,955
923,592;12695,848;    0,455;    0,318
924,148;12606,394;    0,455;   -0,955
924,704;11901,667;   -1,364;   -0,409
925,259;12269,394;   -0,273;    0,591
925,815;11984,394;    1,455;    0,500
926,371;11504,121;    2,909;    1,409
926,926;11410,667;    2,091;    0,591
927,482;11026,758;   -1,364;    0,773
928,037;10934,121;    0,909;    2,045
928,593;11224,485;    1,636;    1,045
929,148;11047,303;   -1,818;   -1,500
929,704;10558,303;   -1,455;   -0,500
930,259;10782,758;    0,091;   -0,136
930,814; 9844,030;   -0,818;    1,955
931,369; 9502,848;    1,091;   -0,773
931,925; 9403,394;   -0,091;    0,136
932,480; 9325,121;   -2,818;   -2,591
933,035; 9200,758;    0,545;   -0,318
933,590; 8974,939;    0,364;   -1,773
934,145; 8644,667;   -1,364;   -0,318
934,700; 8986,394;    0,455;   -0,591
935,255; 8803,303;   -0,091;    0,045
935,809; 8095,667;    3,182;    0,864
936,364; 7250,212;   -0,455;   -0,136
936,919; 7209,212;    0,455;   -1,773
937,474; 7123,394;    1,455;    0,136
938,028; 6888,212;   -1,636;    1,136
938,583; 6349,121;    1,818;    4,682
939,138; 6631,030;    2,091;    2,136
939,692; 6091,667;    1,636;   -1,136
940,247; 5809,939;   -0,727;   -1,045
940,801; 5362,485;   -0,636;    0,227
941,355; 5281,848;   -0,364;    2,591
941,910; 4948,394;   -0,273;   -2,136
942,464; 5025,212;   -0,818;   -0,318
943,018; 4822,667;    1,000;   -0,227
943,572; 4786,485;    2,545;   -0,682
944,126; 4217,848;    0,091;   -0,409
944,681; 4093,667;    3,091;    0,227
945,235; 4088,394;    1,000;   -0,591
945,789; 4025,394;    0,364;   -1,864
946,342; 4125,939;    0,455;   -0,591
946,896; 3941,485;   -2,273;    0,955
947,450; 3702,667;    1,545;   -0,227
948,004; 3889,212;    1,727;   -0,045
948,558; 3907,030;    0,273;   -0,864
949,111; 3816,667;   -0,273;   -0,318
949,665; 3858,758;    1,636;   -0,682
950,219; 3738,848;   -0,091;   -1,045
950,772; 3814,576;   -1,909;    1,864
951,326; 3711,848;    0,545;   -0,955
951,879; 3828,394;    0,727;   -2,318
952,433; 3822,394;    0,000;    2,227
952,986; 3652,576;    2,909;    0,682
953,539; 3620,667;   -0,273;    0,591
954,093; 3571,848;    0,545;   -1,318
954,646; 3687,485;    0,909;    1,318
955,199; 3507,576;    0,000;   -0,500
955,752; 3400,848;   -0,455;    1,773
956,305; 3364,030;   -0,091;    2,955
956,858; 3517,212;    0,818;   -0,318
957,411; 3688,212;   -0,545;    2,136
957,964; 3529,485;    1,364;    2,136
958,517; 3517,394;   -1,545;    3,136
959,070; 3353,212;   -0,455;    1,955
959,623; 3429,121;    1,091;    1,500
960,176; 3198,030;    1,727;    2,045
960,728; 3179,576;   -2,727;    0,773
961,281; 3251,939;    0,545;    0,500
961,834; 3283,939;   -0,909;    0,864
962,386; 3196,485;    1,727;    1,045
962,939; 3130,939;    0,364;   -0,318
963,491; 3271,576;    0,455;    1,136
964,043; 3145,758;    1,182;    2,409
964,596; 3263,758;   -1,000;    2,227
965,148; 3105,303;   -1,000;    1,773
965,700; 3019,303;    1,091;   -0,227
966,253; 3177,667;   -0,636;    0,318
966,805; 3020,939;   -2,273;    0,773
967,357; 3069,121;    1,091;   -1,500
967,909; 3040,030;    0,455;   -1,227
968,461; 3143,667;    0,545;    3,136
969,013; 3054,667;   -0,182;   -0,864
969,565; 3140,212;   -0,455;   -1,136
970,117; 3211,758;   -0,364;    1,045
970,669; 3029,667;    0,182;   -0,136
971,220; 2894,848;   -0,455;   -1,500
971,772; 2842,939;   -0,636;   -0,318
972,324; 2963,576;    0,091;   -0,500
972,876; 2898,394;    0,818;   -0,045
973,427; 3020,758;    1,909;   -1,045
973,979; 3005,394;   -0,727;   -2,500
974,530; 3048,394;    1,818;    1,318
975,082; 3049,576;   -0,545;    1,682
975,633; 2949,848;    1,091;    1,682
976,184; 3079,485;    0,909;    0,773
976,736; 2886,848;    0,091;    0,227
977,287; 2694,212;   -0,909;   -0,500
977,838; 2866,939;    0,909;   -0,318
978,389; 2925,303;   -1,000;   -0,500
978,940; 2803,030;    0,545;   -0,409
979,491; 2836,394;    0,091;   -0,500
980,042; 2794,030;    0,182;    3,045
980,593; 2829,758;   -2,545;    0,227
981,144; 2895,121;    2,545;   -0,500
981,695; 2867,576;    1,455;    1,500
982,246; 2824,303;   -0,273;    1,045
982,797; 2959,576;   -1,727;    0,682
983,347; 3067,212;    0,364;    0,591
983,898; 3251,212;    3,091;    0,409
984,449; 3070,848;    2,182;    0,773
984,999; 2973,758;    1,455;   -1,136
985,550; 2761,121;    0,182;   -0,318
986,100; 2772,576;   -0,455;   -0,318
986,651; 2836,030;   -0,818;    0,045
987,201; 2819,394;   -1,000;   -0,591
987,751; 2899,939;    0,818;    2,864
988,302; 2876,485;    2,636;    1,500
988,852; 2887,848;    0,455;   -1,136
989,402; 2953,030;    0,091;    0,682
989,952; 2860,485;   -2,182;    0,864
990,502; 2953,848;   -0,091;    0,682
991,052; 2938,121;   -0,727;    0,045
991,602; 2797,485;   -2,909;    1,318
992,152; 2787,667;    0,455;    0,682
992,702; 2770,758;    1,364;   -0,045
993,252; 2694,394;   -3,000;   -0,500
993,802; 2797,212;   -0,273;    1,318
994,352; 2995,121;   -1,545;    1,136
994,901; 3107,303;   -0,182;    3,227
995,451; 3032,303;   -0,182;    0,318
996,000; 3134,939;    1,636;    0,318
996,550; 2844,303;    2,273;    0,227
997,100; 2827,303;    1,273;   -0,045
997,649; 3095,121;    2,182;    0,955
998,198; 2751,939;    1,727;   -1,500
998,748; 2950,576;    1,091;   -2,318
999,297; 2876,667;   -0,818;   -0,409
999,846; 2916,576;    1,000;   -0,773
1000,395; 2945,848;   -0,818;    0,500
1000,945; 2899,303;    1,818;   -0,773
1001,494; 2988,939;    2,364;    0,682
1002,043; 2992,939;    4,636;    0,864
1002,592; 2832,485;   -1,091;    1,955
1003,141; 2992,485;   -0,455;   -0,682
1003,690; 2843,576;    1,727;    0,500
1004,238; 2914,939;    1,455;   -0,045
1004,787; 2561,303;    1,364;    1,227
1005,336; 2802,485;    0,364;    0,682
1005,885; 2928,303;    1,364;   -2,773
1006,433; 3078,212;    0,545;    0,955
1006,982; 3137,667;    0,455;    1,682
1007,531; 3045,485;   -1,818;   -0,227
1008,079; 2981,667;   -2,273;    0,500
1008,627; 3127,848;   -1,455;    0,409
1009,176; 2881,121;    0,000;   -1,955
1009,724; 2943,030;    1,091;    0,864
1010,273; 2975,939;    1,273;    0,500
1010,821; 3086,121;    0,091;    1,409
1011,369; 2834,121;   -1,364;    1,318
1011,917; 2810,485;   -1,364;   -0,591
1012,465; 3087,667;    1,273;   -1,591
1013,013; 3207,939;    2,091;   -1,682
1013,561; 3087,758;    0,455;   -0,773
1014,109; 3119,212;   -1,909;    1,682
1014,657; 3014,485;    0,364;    0,591
1015,205; 3143,848;    1,636;   -0,955
1015,753; 3154,030;   -0,545;   -1,409
1016,301; 3199,030;   -2,636;    3,045
1016,848; 3207,576;   -1,273;    0,409
1017,396; 3238,758;    2,545;    0,045
1017,944; 3370,121;    1,182;    1,864
1018,491; 3123,576;    0,273;    1,409
1019,039; 3266,576;    0,455;    0,591
1019,586; 3207,303;   -1,364;    1,682
1020,134; 3310,576;    0,455;    1,500
1020,681; 3310,848;    0,182;   -1,136
1021,228; 3316,303;    2,909;   -2,227
1021,776; 3146,939;    1,182;   -1,136
1022,323; 3357,667;    0,455;    0,773
1022,870; 3302,848;   -1,000;   -0,045
1023,417; 3213,030;    2,636;    1,864
1023,964; 3362,485;    2,636;    1,227
1024,511; 3216,394;    1,000;    0,773
1025,058; 3009,394;    3,182;   -0,045
1025,605; 3064,121;   -2,273;    3,136
1026,152; 3263,212;    1,727;   -0,591
1026,699; 2995,030;    1,818;    1,318
1027,245; 3188,485;   -0,091;    0,318
1027,792; 3383,303;   -1,000;    1,409
1028,339; 3265,485;    2,364;   -0,045
1028,885; 3104,758;    1,000;   -0,227
1029,432; 3052,848;   -0,091;    0,227
1029,978; 3112,667;   -1,000;   -1,591
1030,525; 3014,939;    1,000;    0,409
1031,071; 3252,848;   -1,364;    1,136
1031,618; 3351,758;    0,364;    1,682
1032,164; 3157,939;   -0,091;    3,045
1032,710; 3195,939;    1,636;   -1,500
1033,256; 3133,758;   -0,636;   -0,136
1033,803; 3102,394;   -0,545;    1,500
1034,349; 2834,485;   -1,364;    0,136
1034,895; 2974,394;    0,000;   -0,318
1035,441; 2946,121;   -0,818;    0,318
1035,987; 2972,758;   -2,364;   -0,682
1036,533; 2957,939;   -1,455;   -0,955
1037,078; 3158,576;    1,455;    1,682
1037,624; 2991,303;    2,455;   -0,955
1038,170; 3023,303;    0,455;   -0,318
1038,716; 2917,485;    1,636;   -0,409
1039,261; 2844,758;   -2,273;   -0,773
1039,807; 2787,030;   -0,091;    3,409
1040,352; 2835,939;   -1,909;   -0,318
1040,898; 2891,394;   -1,545;   -0,682
1041,443; 2803,394;   -1,455;   -2,591
1041,989; 2823,030;    1,091;    1,591
1042,534; 2712,394;   -0,364;    2,591
1043,079; 2824,758;    2,909;    0,955
1043,625; 2614,030;    1,818;    0,500
1044,170; 2665,848;   -1,364;    1,045
1044,715; 2908,121;    2,455;    0,955
1045,260; 2726,030;    2,182;   -0,955
1045,805; 2780,121;    1,182;   -0,591
1046,350; 2702,939;    1,364;   -0,409
1046,895; 2667,939;    2,909;    1,591
1047,440; 2621,576;    5,364;    0,409
1047,985; 2522,212;    2,818;   -0,955
1048,530; 2461,030;    1,545;    1,227
1049,074; 2525,212;    0,000;    0,318
1049,619; 2491,848;   -1,364;    1,955
1050,164; 2300,030;    0,455;    0,227
1050,708; 2339,121;   -0,455;    0,045
1051,253; 2706,667;    1,273;   -2,227
1051,797; 2413,303;    0,818;   -1,318
1052,342; 2424,485;   -1,182;    1,045
1052,886; 2420,485;    0,364;   -1,409
1053,430; 2297,121;   -1,364;    0,136
1053,975; 2309,939;   -0,818;   -0,318
1054,519; 2301,758;   -0,727;    3,227
1055,063; 2304,667;    0,909;    1,318
1055,607; 2196,394;   -0,182;    0,227
1056,151; 2212,939;    2,909;    1,682
1056,695; 2145,485;    2,273;   -1,136
1057,239; 2194,576;   -1,727;   -0,682
1057,783; 2222,394;    0,818;   -1,500
1058,327; 2157,485;    0,000;    1,409
1058,871; 2398,939;   -0,545;    1,318
1059,415; 2101,394;   -0,818;   -0,045
1059,958; 2357,303;    1,455;    2,591
1060,502; 2074,758;   -1,000;   -0,773
1061,046; 1994,576;    0,364;   -0,955
1061,589; 1973,576;   -3,000;   -1,136
1062,133; 1842,576;   -1,273;    1,864
1062,676; 1796,394;    1,182;    0,864
1063,220; 1798,667;    1,091;    0,500
1063,763; 1803,394;    0,909;    1,136
1064,306; 1884,667;   -0,909;    1,864
1064,849; 1779,758;   -0,909;    0,591
1065,393; 1788,485;    2,000;   -1,500
1065,936; 1910,667;    0,182;   -0,409
1066,479; 1789,939;   -1,455;    1,318
1067,022; 1809,030;   -0,273;   -0,227
1067,565; 1700,394;   -0,091;   -1,318
1068,108; 1731,121;    0,727;   -0,591
1068,651; 1712,758;   -0,636;    1,409
1069,194; 1642,848;   -0,455;   -1,682
1069,736; 1641,939;   -1,273;    0,955
1070,279; 1619,576;   -1,364;   -0,500
1070,822; 1647,212;   -2,000;   -0,318
1071,364; 1749,121;   -0,364;    1,318
1071,907; 1566,303;   -0,727;    3,227
1072,450; 1462,576;    0,000;   -0,045
1072,992; 1470,758;   -0,273;    3,136
1073,535; 1611,121;    2,091;    2,136
1074,077; 1399,121;   -0,727;    2,045
1074,619; 1366,121;   -1,364;    0,591
1075,161; 1405,667;   -1,091;    1,500
1075,704; 1583,212;    1,545;    1,227
1076,246; 1380,576;   -0,182;    0,682
1076,788; 1321,303;   -0,364;    1,773
1077,330; 1403,667;    1,273;    2,136
1077,872; 1358,939;    0,909;    0,955
1078,414; 1565,121;    2,727;    0,773
1078,956; 1315,576;    1,273;   -0,227
1079,498; 1556,394;    1,636;    0,318
1080,040; 1267,394;    1,909;   -1,318
1080,581; 1227,485;    1,636;   -0,318
1081,123; 1153,485;    0,091;   -0,773
1081,665; 1203,121;   -1,182;   -0,955
1082,206; 1484,576;    1,364;   -0,500
1082,748; 1343,939;    0,727;    2,045
1083,289; 1224,030;   -2,000;    1,318
1083,831; 1148,758;   -0,545;    0,227
1084,372; 1182,212;    0,000;    0,591
1084,913; 1175,394;    1,091;    0,864
1085,455; 1150,758;   -1,909;   -2,045
1085,996; 1114,485;   -2,273;    0,136
1086,537; 1121,939;   -0,091;    0,864
1087,078; 1156,394;   -0,909;   -2,136
1087,619; 1202,212;   -1,273;    0,227
1088,160; 1123,485;    0,000;    1,318
1088,701; 1110,485;   -1,091;    0,682
1089,242; 1055,030;    1,364;   -2,227
1089,783; 1147,667;   -0,273;    1,409
1090,324; 1107,939;    0,455;    0,682
1090,865;  993,576;    2,727;   -0,409
1091,405;  965,848;    0,727;    2,227
1091,946;  998,030;    0,182;   -0,955
1092,487;  917,030;    0,818;   -1,409
1093,027; 1084,667;   -1,364;   -1,500
1093,568;  944,485;   -0,364;    1,227
1094,108; 1033,030;    0,273;    1,773
1094,649;  965,848;   -1,182;    0,136
1095,189;  908,576;   -0,636;   -0,682
1095,729;  860,212;   -0,091;    0,955
1096,269;  864,121;    0,727;   -0,955
1096,810; 1171,576;   -1,364;    0,500
1097,350;  997,848;    1,364;   -0,773
1097,890;  891,394;    0,364;    1,227
1098,430; 1153,939;    2,364;    2,864
1098,970; 1033,394;    2,182;    1,682
1099,510;  886,576;    0,545;   -2,318
1100,050;  821,758;    1,000;   -1,591
1100,589;  784,030;   -0,727;   -0,318
1101,129;  899,939;    0,818;   -0,955
1101,669; 1044,303;    1,727;    2,136
1102,209;  886,576;   -0,091;    2,227
1102,748;  847,121;    0,000;    0,955
1103,288;  832,030;    1,273;   -1,227
1103,827;  846,576;    3,091;   -2,227
1104,367;  727,939;   -0,091;   -2,409
1104,906;  692,848;    1,364;   -1,136
1105,445;  766,121;    0,636;   -1,136
1105,985;  711,121;   -0,727;    1,500
1106,524;  753,576;   -1,727;   -0,682
1107,063;  738,848;   -2,727;    1,409
1107,602;  716,939;   -1,909;   -1,500
1108,141;  633,030;   -1,909;    1,500
1108,680;  729,212;   -3,455;   -0,591
1109,219;  672,485;   -0,909;   -0,500
1109,758;  664,485;    0,455;    0,682
1110,297;  641,121;    1,000;   -0,682
1110,836;  594,121;   -0,727;    0,955
1111,375;  765,121;   -2,545;    0,409
1111,913;  768,394;   -1,000;    0,773
1112,452;  698,848;   -0,273;    0,136
1112,991;  591,121;    1,091;    1,955
1113,529;  551,394;   -0,818;   -0,045
1114,068;  615,939;   -0,273;    2,955
1114,606;  508,576;   -0,364;   -0,955
1115,144;  680,121;   -1,273;    1,045
1115,683;  618,848;   -0,727;    0,318
1116,221;  653,121;   -0,455;   -0,864
1116,759;  569,848;    0,636;   -0,864
1117,297;  761,848;    0,000;    1,864
1117,836;  570,939;   -2,182;   -1,227
1118,374;  582,394;    0,182;   -0,682
1118,912;  528,212;    0,909;    2,682
1119,450;  516,485;    1,000;    0,864
1119,988;  569,485;    1,545;    2,136
1120,525; 1004,939;    5,091;    3,318
1121,063;  713,939;    1,182;    1,864
1121,601;  525,485;   -0,909;   -1,227
1122,139;  487,303;   -0,727;   -2,045
1122,676;  677,485;   -0,727;    2,773
1123,214;  605,758;   -1,182;    4,409
1123,751;  426,303;    1,727;    2,227
1124,289;  558,848;   -0,091;   -0,409
1124,826;  423,939;    1,727;    0,227
1125,364;  346,030;    1,727;   -0,955
1125,901;  539,121;    1,182;    1,227
1126,438;  642,121;    0,818;    0,955
1126,975;  385,030;   -0,727;   -0,773
1127,513;  446,030;    0,273;    2,136
1128,050;  352,667;    1,636;   -0,682
1128,587;  445,121;    2,000;   -0,227
1129,124;  492,303;    0,091;    1,318
1129,661;  348,121;    0,273;    0,227
1130,198;  515,848;    1,636;    0,773
1130,734;  468,394;    0,182;    1,409
1131,271;  328,576;   -0,909;    0,864
1131,808;  495,667;    2,909;    3,045
1132,345;  373,758;    1,545;    0,318
1132,881;  245,030;   -1,545;   -1,864
1133,418;  387,212;    0,727;   -1,136
1133,954;  323,303;    2,455;   -2,682
1134,491;  385,576;    1,364;   -0,773
1135,027;  298,303;    2,364;    0,864
1135,564;  384,394;    0,273;    2,955
1136,100;  357,303;    0,364;    2,136
1136,636;  254,939;   -1,273;   -1,045
1137,172;  347,485;    0,000;   -1,045
1137,708;  282,394;   -1,364;   -1,045
1138,245;  284,667;    1,273;   -1,227
1138,781;  224,030;    1,091;   -3,318
1139,317;  295,485;    1,273;   -1,409
1139,852;  279,485;    3,091;    0,136
1140,388;  406,848;   -1,182;   -0,409
1140,924;  279,758;   -1,091;   -2,227
1141,460;  221,576;   -1,636;    0,136
1141,996;  157,303;   -1,364;    2,682
1142,531;  217,485;    1,364;    3,318
1143,067;  419,212;    1,182;    1,045
1143,602;  473,394;   -0,091;   -0,318
1144,138;  321,667;   -2,636;    1,045
1144,673;  195,030;   -1,455;    1,409
1145,209;  261,303;   -1,909;   -0,318
1145,744;  181,303;   -0,727;    0,864
1146,279;  319,576;    1,818;   -0,136
1146,815;  240,848;    1,545;   -2,682
1147,350;  271,121;   -1,364;    0,045
1147,885;  178,485;   -0,818;   -1,318
1148,420;  187,485;   -2,273;    0,773
1148,955;  167,485;   -1,727;    1,864
1149,490;  196,212;   -0,909;   -1,591
1150,025;  175,485;    0,455;   -1,773
1150,560;  290,212;    1,091;   -0,955
1151,094;  249,212;    1,455;   -0,591
1151,629;  247,485;    1,636;    0,864
1152,164;  179,303;    1,364;    1,318
1152,698;  144,212;   -0,182;   -0,136
1153,233;  110,576;    0,091;   -0,682
1153,767;  155,212;   -3,000;   -2,318
1154,302;  193,485;   -1,455;    1,773
1154,836;  195,939;   -0,455;   -2,136
1155,371;  254,939;   -1,364;    3,682
1155,905;  201,212;   -0,636;    1,682
1156,439;  169,667;   -0,636;   -0,500
1156,973;  213,030;    0,364;    0,318
1157,507;  143,303;   -0,364;    0,682
1158,042;  175,303;   -0,727;    1,045
1158,576;  211,848;    0,182;    1,773
1159,110;  204,030;   -0,818;    2,409
1159,643;  164,939;    0,636;   -0,045
1160,177;  115,758;   -1,545;    1,500

