
Integration time [ms]:   0,040
Averaging Nr. [scans]: 11
Smoothing Nr. [pixels]: 0
Data measured with spectrometer [name]: 7318044SP
Wave   ;Sample   ;Dark     ;Reference
[nm]   ;[counts] ;[counts] ;[counts] 

186,757;   16,261;   31,551;    1,318
187,357;   29,181;   22,551;    0,955
187,958;   10,789;   15,460;   -1,591
188,558;   47,896;    8,915;   -1,227
189,159;   20,637;    6,733;   -4,500
189,759;  -12,121;    7,278;   -3,591
190,360;   -4,457;    2,824;   -2,136
190,960;   18,418;    2,915;   -4,136
191,560;   18,739;    3,189;   -6,591
192,161;  214,616;    4,372;   -3,500
192,761;   83,563;    4,010;   -3,227
193,361;   40,307;    1,556;   -3,773
193,962;   76,783;    2,010;   -2,682
194,562;   18,461;    1,189;   -3,955
195,162;   21,647;   -2,448;   -2,227
195,762;  124,722;   -3,176;   -0,045
196,362;   79,276;    1,370;   -2,500
196,963;   -6,771;    2,006;   -0,864
197,563;   34,624;    1,551;   -0,955
198,163;    1,317;    0,096;   -0,682
198,763;   12,244;    1,733;   -0,500
199,363;   54,489;    3,096;   -0,500
199,963;   35,331;    0,369;    0,409
200,563;   22,644;    2,823;   -1,409
201,163;    2,414;    3,277;   -0,227
201,763;   32,137;    3,732;    0,318
202,363;    3,568;    1,459;    1,500
202,963;   33,459;    1,459;    1,045
203,563;   73,572;    0,277;    0,500
204,162;   16,212;    2,096;   -1,864
204,762;   13,608;    0,550;    0,591
205,362;  -11,436;    3,004;    1,955
205,962;   15,867;    3,096;    1,955
206,562;   16,861;    1,823;    2,318
207,161;    2,585;   -0,087;    0,318
207,761;   77,892;    1,277;    2,409
208,361;   12,759;   -0,268;    1,409
208,960;   30,009;    0,459;    1,500
209,560;   25,065;    1,277;    1,591
210,160;   33,236;    0,550;    1,864
210,759;    8,532;    4,186;    1,227
211,359;    7,167;    1,459;    1,045
211,958;   97,420;    1,277;    2,045
212,558;   97,961;    1,732;    1,864
213,157;   41,516;    1,822;    1,500
213,757;  166,899;    3,822;   -0,227
214,356;   63,644;    1,277;   -0,409
214,956;  148,047;    3,095;    0,409
215,555;   38,811;    2,095;    2,136
216,154;   13,387;   -2,723;   -0,591
216,754;   11,931;    0,277;    0,773
217,353;   22,794;   -0,268;   -1,045
217,952;  -16,022;   -0,178;    0,318
218,552;   42,252;    1,368;   -0,773
219,151;   10,837;    0,277;    0,955
219,750;    3,549;    0,004;   -0,227
220,349;   -0,957;   -0,451;    1,045
220,948;   55,599;   -1,360;    1,136
221,548;    2,156;    0,913;    1,227
222,147;   10,183;   -0,087;   -0,409
222,746;   72,052;   -0,451;   -0,955
223,345;   23,146;    0,731;    0,500
223,944;   27,738;   -0,451;    0,773
224,543;   38,273;    1,004;   -1,409
225,142;   24,494;    0,094;    0,136
225,741;   29,622;   -0,814;    1,045
226,340;   17,656;   -0,451;   -0,955
226,939;   72,909;   -0,996;   -0,136
227,538;   17,923;   -0,360;   -0,773
228,137;   75,691;   -0,814;    0,864
228,735;   38,872;   -0,541;    1,227
229,334;  -11,039;   -0,905;   -0,227
229,933;   73,751;    0,459;    0,591
230,532;   74,106;    1,186;   -0,409
231,131;  111,585;    1,732;    0,318
231,729;   51,293;   -2,450;   -2,318
232,328;   17,896;   -0,723;   -1,500
232,927;   21,550;    1,004;   -0,500
233,525;   22,794;    3,640;    0,045
234,124;   30,621;    2,368;   -1,591
234,723;    2,263;    0,913;   -1,045
235,321;   -4,665;    2,277;    0,136
235,920;    2,930;    1,186;   -1,227
236,518;   69,639;    3,459;    0,318
237,117;    3,672;    0,004;   -0,227
237,715;   22,477;    0,640;   -0,500
238,314;   19,381;   -0,087;   -2,318
238,912;   72,502;   -0,723;   -1,409
239,510;   33,135;    0,459;   -1,227
240,109;   73,756;    0,004;    3,773
240,707;   61,184;   -0,996;    1,227
241,305;    4,492;    0,550;    0,136
241,904;   34,401;   -0,178;   -2,045
242,502;  101,858;   -0,632;   -0,227
243,100;   39,021;   -0,087;   -0,955
243,698;   -1,720;    0,732;    1,682
244,297;   15,053;   -0,632;    0,682
244,895;   22,425;   -0,269;   -2,318
245,493;   80,583;    2,186;   -0,591
246,091;   85,550;    1,368;   -1,318
246,689;   46,731;    1,004;    0,591
247,287;   48,336;    0,822;   -1,136
247,885;   35,442;   -1,451;    1,227
248,483;   15,305;    1,822;   -0,500
249,081;   54,698;    0,185;    1,591
249,679;   57,181;   -0,178;    1,682
250,277;    4,891;   -1,723;    0,864
250,875;   50,658;   -1,087;   -1,045
251,473;   12,794;   -1,178;    0,500
252,071;   57,123;    1,459;    1,045
252,669;   24,920;   -1,814;    0,318
253,267;    8,854;   -0,087;    0,773
253,864;   17,245;   -0,360;    0,682
254,462;   67,985;    1,640;    1,591
255,060;   10,800;   -0,269;    1,318
255,658;    6,192;    0,822;   -0,136
256,255;   15,063;    0,186;   -2,045
256,853;   39,715;   -0,269;    1,409
257,451;   18,764;    0,822;    1,864
258,048;  182,033;    1,822;    1,864
258,646;   78,530;    1,731;   -1,045
259,243;  105,715;   -0,087;    2,227
259,841;   59,435;   -0,814;    0,318
260,438;    9,958;   -0,087;    0,864
261,036;   47,720;   -1,905;    1,409
261,633;   12,012;   -0,087;    2,227
262,231;  -11,688;    2,731;   -0,045
262,828;  -15,830;   -0,905;    1,136
263,425;    3,122;    0,913;   -0,591
264,023;    8,163;    0,186;    0,045
264,620;   55,074;   -0,360;   -0,318
265,217;   98,557;   -2,087;    3,136
265,815;   22,697;   -1,905;    2,136
266,412;   50,285;    0,731;    0,136
267,009;   41,127;   -1,451;    0,773
267,606;   84,894;    0,822;   -0,955
268,203;   32,572;   -0,269;   -0,591
268,801;   25,495;    1,731;    0,591
269,398;    8,020;   -0,360;    2,500
269,995;   49,079;    0,277;    1,591
270,592;   36,810;   -0,632;   -0,500
271,189;    2,233;    0,186;    0,409
271,786;   -8,574;   -0,632;    1,227
272,383;   62,813;   -1,087;    0,227
272,980;   26,098;    0,277;    0,318
273,577;    6,710;    0,004;    1,227
274,174;    7,562;    0,822;    2,591
274,771;   58,192;   -0,814;   -0,773
275,367;  216,800;    2,277;    1,409
275,964;   94,507;    0,731;   -0,500
276,561;   31,376;    1,549;   -1,045
277,158;    3,453;    0,095;   -1,773
277,755;   95,880;    2,185;    0,409
278,351;   53,075;   -0,451;   -1,500
278,948;   79,849;   -0,815;    0,045
279,545;   53,416;   -1,360;    2,318
280,141;   96,124;   -1,723;   -2,045
280,738;  104,645;   -0,451;   -0,136
281,334;   25,384;   -1,633;    0,591
281,931;   21,469;   -0,087;   -1,318
282,528;   80,950;    0,822;   -0,500
283,124;  101,803;   -1,087;   -0,500
283,721;   90,375;   -0,451;    1,409
284,317;   47,804;    0,185;    2,500
284,913;  105,346;   -1,360;    0,591
285,510;  180,892;    0,640;   -0,318
286,106;  116,851;   -2,269;   -0,955
286,703;   59,452;   -0,360;    1,955
287,299;   35,617;   -1,451;   -0,591
287,895;   29,377;    0,822;   -1,045
288,491;   25,838;    0,186;    2,136
289,088;   59,360;   -2,360;    2,409
289,684;   77,465;   -1,723;    1,500
290,280;  157,031;    0,368;    0,682
290,876;  119,133;    1,822;    5,500
291,472;   96,120;    1,276;    2,227
292,068;  110,307;    1,367;    0,227
292,665;   69,799;    2,095;    0,773
293,261;   35,780;    0,276;    2,136
293,857;  122,212;    2,913;    2,136
294,453;   92,478;    3,550;    0,955
295,049;  210,316;   -0,268;    1,955
295,644;  142,306;    0,095;    0,136
296,240;   69,899;   -0,905;   -0,136
296,836;  134,883;   -0,995;    0,318
297,432;  218,354;    1,096;   -0,500
298,028;  246,142;    0,732;    0,773
298,624;  177,794;    1,459;    1,864
299,220;  168,484;    2,368;    0,591
299,815;  162,827;    1,005;   -0,409
300,411;  253,588;    0,914;    1,773
301,007;  337,958;    1,368;    0,227
301,602;  222,672;   -0,541;   -2,318
302,198;  339,315;    0,732;   -0,773
302,794;  231,360;    1,187;   -0,500
303,389;  188,271;   -1,177;    1,045
303,985;  231,516;    0,550;    1,409
304,580;  356,905;    1,459;    1,591
305,176;  275,376;   -3,086;    0,136
305,771;  185,140;   -1,268;   -1,227
306,367;  523,297;    4,095;    0,136
306,962;  317,763;    0,641;    1,500
307,558;  369,247;   -0,450;    0,136
308,153;  405,922;    1,095;   -1,136
308,748;  237,796;   -0,814;    1,682
309,344;  551,055;   -0,632;   -1,318
309,939;  549,988;   -1,905;   -1,318
310,534;  286,839;   -0,086;   -1,682
311,130;  259,313;    0,459;   -2,500
311,725;  219,319;    1,004;   -0,500
312,320;  252,733;    2,459;    0,045
312,915;  328,477;    1,459;   -1,045
313,510;  487,532;    1,550;   -0,500
314,105;  242,689;    1,096;    1,409
314,700;  137,240;   -3,086;   -1,045
315,295;  195,178;   -0,904;    0,045
315,890;  154,852;    1,277;    0,864
316,485;  223,229;   -0,359;   -0,318
317,080;  141,764;   -3,086;    1,591
317,675;  373,189;    2,005;   -0,682
318,270;  524,046;    5,550;    3,318
318,865;  406,772;    3,278;    3,045
319,460;  289,187;   -0,904;    0,591
320,055;  150,826;   -0,541;   -1,227
320,650;  140,155;   -1,995;   -0,591
321,244;  154,102;   -0,177;   -1,409
321,839;  140,788;   -1,541;   -0,227
322,434;  174,915;   -1,086;   -1,591
323,029;  127,262;    1,732;    1,591
323,623;  120,614;    1,550;    0,773
324,218;  247,438;    2,368;    1,409
324,812;  201,543;    1,096;    1,591
325,407;  192,914;   -0,814;    2,045
326,002;  292,703;    0,277;   -0,409
326,596;  245,147;    0,914;    1,318
327,191;  141,154;    0,823;   -1,045
327,785;  147,874;   -0,813;   -0,227
328,379;  145,548;    1,368;    0,136
328,974;  194,397;    0,914;   -3,955
329,568;  224,210;    0,186;   -2,409
330,163;  293,748;    2,096;    1,045
330,757;  179,019;    2,459;    1,591
331,351;  147,223;    0,459;    0,682
331,945;  155,178;    0,914;    1,409
332,540;  291,406;   -1,723;   -0,591
333,134;  293,899;   -1,086;    0,773
333,728;  318,284;    0,005;    0,318
334,322;  238,213;   -1,177;   -0,864
334,916;  239,786;    0,277;    0,955
335,510;  416,616;   -0,450;   -0,136
336,105;  439,336;   -1,086;    1,591
336,699;  352,772;   -1,086;    0,591
337,293;  424,208;   -1,723;    0,318
337,887;  394,310;   -2,723;    1,955
338,481;  590,072;    0,459;    0,591
339,074;  735,149;   -0,359;    2,682
339,668;  745,478;   -1,632;    1,227
340,262; 1397,567;    1,732;    3,227
340,856; 1011,763;    1,822;   -0,682
341,450;  660,284;    1,004;    1,864
342,044;  787,754;    1,459;    0,136
342,637;  993,847;    0,913;   -2,136
343,231; 1060,916;   -2,360;    0,682
343,825;  910,589;   -1,086;   -0,591
344,419;  941,000;   -1,995;    0,500
345,012; 1599,479;    2,459;    4,045
345,606; 1433,625;    4,641;    1,591
346,199; 1116,646;   -1,813;   -0,227
346,793; 1295,975;    1,914;    2,045
347,386; 1150,148;   -0,813;   -1,136
347,980; 1064,452;   -0,268;   -0,045
348,573; 1232,863;    2,278;    0,409
349,167; 1524,274;    5,278;    4,773
349,760; 1552,579;    2,914;    2,682
350,354; 1485,119;   -0,813;    1,136
350,947; 1557,075;    1,096;    1,682
351,540; 1339,922;   -0,358;   -1,409
352,134; 1221,337;    1,096;    1,136
352,727; 1326,811;   -0,086;    1,136
353,320; 1378,553;    0,005;    0,591
353,913; 1254,497;   -1,995;    1,864
354,507; 1516,137;    0,823;   -1,227
355,100; 1450,678;    0,460;    0,864
355,693; 1779,832;    2,005;    2,409
356,286; 1507,063;    0,823;    2,773
356,879; 1389,308;   -0,722;    1,227
357,472; 1300,158;   -0,904;    1,500
358,065; 1402,661;   -0,722;    2,500
358,658; 1277,125;   -0,540;    2,318
359,251; 1158,945;   -1,631;   -0,591
359,844; 1285,023;   -1,904;   -1,136
360,437; 1407,467;   -2,995;    0,045
361,030; 1279,732;    1,369;   -0,682
361,623; 1195,106;    2,824;    0,318
362,215; 1418,235;   -0,086;    2,045
362,808; 1227,967;   -2,358;   -1,682
363,401; 1170,160;   -2,449;    0,136
363,994; 1396,760;   -0,631;   -1,500
364,586; 1128,677;    0,824;   -1,500
365,179; 1057,876;   -0,449;   -1,136
365,772;  844,988;   -1,995;    2,045
366,364;  996,823;    1,915;   -3,227
366,957; 1127,334;    2,279;   -0,045
367,549; 1006,992;    2,188;   -0,864
368,142;  979,246;    1,825;   -1,500
368,734;  925,785;    0,734;   -2,136
369,327;  832,225;    1,643;   -0,500
369,919;  865,442;   -1,538;    0,409
370,512;  909,709;   -1,083;   -0,500
371,104; 1149,432;   -0,901;    1,591
371,696; 1194,659;    1,191;   -0,955
372,289; 1040,763;    0,373;    1,136
372,881;  965,920;   -2,080;    1,318
373,473;  801,396;   -2,170;    1,136
374,066;  908,174;   -0,169;    0,500
374,658;  850,639;    0,378;    1,136
375,250;  782,113;    0,653;   -1,409
375,842;  815,746;    0,473;   -0,045
376,434;  748,479;   -0,435;   -0,409
377,026;  798,006;    0,204;   -2,500
377,618;  806,754;   -0,158;   -0,682
378,210;  700,070;   -0,338;   -1,955
378,802;  619,920;    0,754;   -0,591
379,394; 1108,215;    1,846;    0,682
379,986;  871,748;    1,393;   -0,955
380,578;  764,423;   -0,153;    0,773
381,170;  993,800;   -0,972;    0,045
381,762;  866,533;    0,755;    1,409
382,354;  823,760;   -0,065;   -1,318
382,945;  733,657;   -2,976;    0,318
383,537;  701,720;   -2,705;   -1,955
384,129;  713,024;   -2,160;   -1,136
384,721;  844,309;   -0,252;    0,955
385,312;  729,278;   -0,161;   -0,955
385,904;  869,861;   -2,706;    1,591
386,496;  693,108;   -0,979;    1,045
387,087;  871,244;    1,022;    2,500
387,679;  786,495;   -1,160;    0,045
388,270;  814,205;    2,840;    2,045
388,862;  751,611;    1,295;   -0,318
389,453;  671,513;   -0,887;    1,045
390,045;  730,846;   -0,705;   -2,682
390,636;  641,341;    0,204;   -0,591
391,227;  681,639;   -0,523;   -0,045
391,819;  696,288;    0,204;    0,773
392,410;  979,094;    1,022;    0,045
393,001;  766,541;   -0,979;   -1,591
393,593;  871,129;    1,930;   -0,045
394,184;  918,543;    1,385;   -0,409
394,775;  719,938;    1,839;    2,136
395,366;  684,880;    1,385;    0,773
395,957;  909,671;    0,113;    0,136
396,548;  779,691;   -0,342;    2,682
397,139;  958,206;   -2,433;    0,591
397,730;  826,575;   -1,888;    0,955
398,321;  818,230;   -1,252;    0,955
398,912;  749,903;   -0,615;    0,136
399,503;  772,841;   -3,524;   -1,409
400,094;  778,974;    0,294;    1,682
400,685;  772,166;   -0,433;    0,045
401,276;  655,979;    0,930;   -0,955
401,867;  662,266;   -0,888;    0,773
402,458;  625,674;   -2,251;   -2,318
403,048;  809,634;    1,112;    0,591
403,639;  690,611;    0,840;    0,864
404,230;  889,121;    2,476;    0,318
404,821;  935,568;   -0,615;    0,045
405,411;  795,885;    1,203;   -2,591
406,002;  638,212;   -1,252;   -1,136
406,592;  928,958;    2,294;    0,045
407,183;  733,195;    0,566;   -1,500
407,774;  668,064;    3,475;   -0,136
408,364;  625,663;    0,930;    0,409
408,954;  763,913;    0,384;    1,227
409,545;  749,548;    1,021;    1,045
410,135;  627,205;    1,293;    0,500
410,726;  577,546;    1,838;    0,318
411,316;  802,034;    0,111;    0,773
411,906;  555,808;   -0,253;   -0,409
412,497;  532,265;   -1,070;   -0,045
413,087;  455,237;   -1,980;   -0,227
413,677;  384,122;   -0,707;    3,864
414,267;  345,634;    0,656;    1,409
414,857;  280,365;   -2,980;    4,227
415,448;  274,180;    0,839;    0,500
416,038;  303,851;    0,020;   -0,591
416,628;  339,574;   -0,889;    0,409
417,218;  405,736;    0,565;    3,318
417,808;  566,195;    0,202;   -0,409
418,398;  380,863;    0,020;    2,682
418,988;  225,563;    2,020;    0,591
419,578;  304,914;   -0,707;    1,409
420,168;  237,264;   -1,343;   -0,955
420,757;  392,120;   -1,343;   -1,500
421,347;  265,125;    0,111;   -0,227
421,937;  203,426;    2,292;    1,409
422,527;  334,799;    0,838;   -0,773
423,116;  480,620;   -0,253;   -0,045
423,706;  146,326;   -1,889;    0,318
424,296;   89,688;    1,384;    0,682
424,885;  233,325;   -0,071;   -3,045
425,475;  187,518;    1,474;   -2,864
426,065;   61,183;   -0,980;   -0,318
426,654;   33,366;   -0,435;   -0,318
427,244;  309,460;    0,020;    1,409
427,833;  265,910;    1,383;   -0,500
428,423;  117,691;   -0,526;    1,136
429,012;  110,347;   -0,344;   -1,136
429,601;  235,570;   -1,344;    0,136
430,191;  110,218;    1,292;    4,318
430,780;   12,389;   -0,344;   -0,409
431,369;  199,935;    0,746;   -0,045
431,959;   82,878;   -1,254;    0,500
432,548;   15,275;   -1,163;   -0,045
433,137;  -41,989;   -1,254;   -1,318
433,726;   19,368;    0,292;    0,500
434,315;   47,617;   -0,526;    2,409
434,905;  158,677;   -1,254;    1,409
435,494;  139,965;    0,746;    0,955
436,083;    6,523;   -0,981;   -0,955
436,672;   92,532;    0,110;    0,500
437,261;   38,154;    0,292;   -1,955
437,850;  256,025;    1,383;    0,682
438,439;  305,750;    3,291;    1,955
439,027;  398,756;    3,655;    1,773
439,616;  336,074;    2,927;    1,227
440,205;  113,665;    0,200;   -2,136
440,794;   64,169;    2,109;   -0,045
441,383;    2,339;   -1,346;   -0,591
441,971;  -30,937;   -2,436;    0,591
442,560;  -13,525;    0,563;   -1,773
443,149;  -93,919;    0,379;   -1,318
443,737;  -59,892;   -0,074;   -2,318
444,326;  -37,704;    0,018;    0,318
444,915;    4,504;   -1,982;    0,864
445,503;   12,860;   -2,891;   -0,318
446,092;  248,320;    0,382;    2,136
446,680;  191,604;    0,382;    0,318
447,269;  105,944;   -0,346;   -0,318
447,857;   93,050;    0,018;   -1,773
448,445;   55,904;    0,563;    1,318
449,034;   -9,252;   -1,528;   -1,136
449,622;   -5,706;   -1,073;    3,500
450,210;  254,236;    2,017;    2,227
450,799;  176,423;    0,290;   -0,591
451,387;  138,278;    1,381;   -0,591
451,975;  130,451;    2,654;    0,864
452,563;  206,043;    3,472;    2,318
453,151;   36,338;   -0,528;   -1,227
453,739;   78,247;   -1,347;    0,136
454,328;  171,571;    2,381;   -2,136
454,916;  108,795;    2,562;   -0,136
455,504;  131,360;    1,017;    1,227
456,092;   18,835;    0,017;   -1,591
456,679;  -15,102;    1,472;    0,682
457,267;  370,640;    4,017;    1,045
457,855;   77,982;    1,017;    1,409
458,443;  -54,091;   -0,165;    1,682
459,031;   91,080;    0,108;    2,409
459,619;   53,130;   -1,801;    2,864
460,206;  -26,287;    0,835;    2,045
460,794;  -35,246;   -2,983;   -0,227
461,382;    7,625;   -0,529;   -0,864
461,970;   17,292;    1,198;    1,864
462,557;  -49,588;   -0,711;   -0,682
463,145;   50,282;   -3,165;   -1,682
463,732;  278,760;    2,016;   -1,045
464,320;   73,809;   -0,075;   -3,045
464,907;  204,317;    2,743;   -0,773
465,495;  119,232;    0,743;   -1,227
466,082;   41,746;   -1,984;   -0,045
466,670;   71,113;   -2,529;    1,227
467,257;  -24,970;   -1,711;    2,045
467,844;   72,703;   -0,075;    0,045
468,432;   39,464;    0,834;    3,500
469,019;    2,455;    0,925;   -1,773
469,606;   91,321;    0,470;    3,682
470,193;  112,227;   -1,439;    0,227
470,780;   62,174;   -2,075;    0,864
471,368;    1,946;   -1,257;   -0,773
471,955;  101,303;    1,379;   -0,682
472,542;   60,080;    0,652;   -1,136
473,129;  -37,087;   -0,166;    0,136
473,716;  -28,487;    1,470;    0,591
474,303;    4,242;    0,652;   -0,864
474,890;    8,308;   -1,439;   -0,500
475,477;  101,651;   -1,621;    0,409
476,064;   14,127;    1,106;   -1,591
476,650;  127,653;    0,288;    0,318
477,237;   46,653;   -0,258;    0,955
477,824;   16,143;   -1,076;    0,864
478,411;  -57,497;   -1,894;   -0,318
478,997;  -64,388;    0,560;   -0,773
479,584; -102,942;    1,196;   -0,409
480,171;   53,504;   -0,440;   -0,773
480,757;  115,554;    2,651;    0,773
481,344;   14,384;    0,469;    0,409
481,931;  -70,041;    1,105;    1,045
482,517;   44,025;   -1,258;    0,318
483,104;  115,846;    1,106;    2,864
483,690;   -4,061;   -1,804;    0,045
484,276;  -22,832;   -0,895;    0,227
484,863;  175,067;    2,469;    1,136
485,449;   38,909;   -0,077;    0,318
486,035;   -8,421;   -1,986;   -0,136
486,622;   83,563;   -0,895;    0,045
487,208;    7,906;    1,378;    1,500
487,794;  -70,776;    0,741;    0,318
488,380;  -70,588;    0,105;   -1,409
488,967;  -67,286;   -1,168;   -0,409
489,553;  -49,177;   -1,895;   -1,409
490,139;   22,794;    1,559;    0,773
490,725;  -42,384;    0,741;   -0,227
491,311;    3,764;    3,287;    3,045
491,897;  -15,961;   -0,986;    1,500
492,483;   -6,107;    0,105;    1,227
493,069;  401,920;    3,923;    0,864
493,655;  136,692;    1,650;    0,682
494,241;    6,112;    1,377;   -0,955
494,826;   14,913;    0,287;   -1,045
495,412;   79,762;    2,559;   -0,682
495,998;    0,437;   -0,805;   -0,318
496,584;   46,548;    0,377;    1,045
497,169;   61,072;    1,014;   -0,682
497,755;    2,614;    0,650;    1,227
498,341;  124,525;    0,559;    0,318
498,926;  238,507;    1,832;    1,955
499,512;    3,870;    1,286;    2,955
500,097;    5,117;    0,195;   -0,318
500,683;   25,290;   -0,350;    2,136
501,268;  -22,042;   -0,169;   -0,955
501,854;   10,391;   -0,169;    1,227
502,439;   -8,588;   -0,624;   -1,773
503,024;   10,548;    0,195;    0,500
503,610;   34,486;   -0,078;   -0,682
504,195;  -11,748;    0,558;    1,955
504,780;   65,506;    2,922;    1,227
505,366;  156,684;    3,013;    2,864
505,951;   84,946;    0,740;    1,045
506,536;   11,608;   -3,260;   -3,682
507,121;   70,539;    0,285;   -0,318
507,706;   24,723;    2,376;    1,045
508,291;  -18,235;    2,649;    1,136
508,876;  -17,800;   -0,988;    2,591
509,461;   28,639;   -0,169;   -0,773
510,046;   69,576;    0,194;    0,318
510,631;   89,835;   -0,351;   -0,773
511,216;   16,906;    2,467;   -0,500
511,801;   85,671;   -0,442;    2,591
512,386;  128,265;    0,740;    0,500
512,971;  162,105;   -2,988;    0,955
513,555;  242,605;   -0,897;   -1,500
514,140;  223,823;   -0,442;   -3,136
514,725;  409,180;   -0,715;   -1,136
515,309;  349,448;   -0,533;    0,318
515,894;  290,235;   -0,624;   -2,227
516,479;  401,515;   -0,624;   -0,955
517,063;  497,963;    0,376;    1,227
517,648;  560,148;    1,012;   -1,136
518,232;  635,943;   -0,261;   -1,409
518,817;  885,095;   -0,079;    1,682
519,401; 1261,242;    2,194;    0,591
519,985; 1242,963;    1,103;    1,136
520,570; 1330,189;    0,830;   -1,955
521,154; 1755,260;    2,102;    0,591
521,738; 2258,190;   -2,352;    2,409
522,323; 2645,256;   -0,170;    1,682
522,907; 2800,521;    0,466;   -0,136
523,491; 3060,069;    0,557;    0,955
524,075; 3438,040;    2,284;    0,591
524,659; 3925,967;    1,466;    0,591
525,243; 4099,273;    1,739;    0,409
525,827; 4630,646;    0,648;   -0,045
526,411; 5513,421;   -1,989;   -0,136
526,995; 6134,489;   -0,352;    1,409
527,579; 6274,790;   -0,443;   -1,045
528,163; 6933,469;    0,375;   -1,500
528,747; 7354,738;    2,466;   -0,773
529,331; 7971,037;   -0,080;   -1,409
529,915; 8454,137;    1,738;    0,955
530,499; 8798,106;   -0,807;    1,227
531,082; 8910,243;   -0,534;    1,591
531,666; 8852,973;    1,374;    0,773
532,250; 9711,527;    1,284;    2,682
532,833;10258,666;    0,920;    2,773
533,417;10443,607;   -1,807;    0,864
534,001;10637,743;    1,647;   -0,318
534,584;11512,426;    0,374;    0,500
535,168;11591,606;    0,465;    1,409
535,751;11833,277;    0,647;    0,045
536,334;11530,102;   -0,898;   -0,409
536,918;12241,676;    0,011;    1,591
537,501;12470,686;   -0,899;    1,318
538,085;12669,328;   -0,444;    1,045
538,668;12930,935;    0,829;    2,409
539,251;13363,906;    1,829;    3,773
539,834;13535,994;    0,101;    0,773
540,418;13584,319;   -1,990;    4,318
541,001;13766,191;   -0,990;    1,773
541,584;13858,378;    2,101;    2,227
542,167;13634,261;    1,374;    2,955
542,750;13851,389;    1,919;   -0,773
543,333;13578,020;    0,555;    2,136
543,916;14375,852;    0,192;    2,500
544,499;15009,011;   -1,354;    0,227
545,082;15069,346;    1,374;    3,591
545,665;15218,371;    1,919;    1,500
546,248;15607,293;    1,010;   -0,318
546,830;15366,440;   -0,445;    1,955
547,413;15770,336;    1,010;   -0,773
547,996;16347,497;    0,555;    0,500
548,579;16195,388;    0,919;    0,955
549,161;16032,724;    1,828;    2,682
549,744;15827,251;   -0,809;    0,409
550,326;16367,707;   -0,809;   -1,136
550,909;16136,869;    2,737;    0,591
551,492;16590,612;   -0,263;    0,227
552,074;16413,997;   -0,173;   -1,318
552,657;17001,876;    2,373;    0,045
553,239;16789,062;   -0,173;   -0,773
553,821;16708,956;   -1,082;    1,045
554,404;16232,299;    1,282;    1,136
554,986;16611,490;    0,464;    1,045
555,568;17234,948;    1,191;   -0,955
556,151;16478,919;    1,191;   -0,227
556,733;16704,850;   -0,264;   -0,864
557,315;17175,419;    0,100;    0,500
557,897;17025,568;    0,554;   -0,500
558,479;17134,963;   -1,991;    1,318
559,061;17297,804;   -0,719;   -0,864
559,643;17615,581;   -0,264;    0,045
560,225;17915,738;    1,645;    2,864
560,807;17952,127;    0,918;    0,318
561,389;17505,192;    0,554;    2,318
561,971;18251,220;    0,463;    2,136
562,553;18073,835;   -1,628;    1,591
563,135;18190,591;   -0,537;    1,136
563,717;17826,651;    3,372;    1,136
564,298;18502,871;    3,645;   -0,045
564,880;18224,963;    0,645;   -1,409
565,462;18421,690;    0,645;    1,318
566,043;19557,060;   -0,446;    2,318
566,625;19078,332;    1,918;    1,227
567,207;18896,618;    1,099;    1,682
567,788;19984,985;   -1,264;    1,500
568,370;20798,156;    1,917;   -0,500
568,951;20643,960;    0,190;    0,227
569,533;21502,348;   -0,628;   -0,500
570,114;21929,552;   -0,446;    0,682
570,695;22402,036;   -0,174;   -1,318
571,277;22844,954;   -0,265;   -1,682
571,858;23575,886;    2,008;   -1,136
572,439;24458,936;    1,554;   -1,045
573,021;24596,007;    2,099;   -2,773
573,602;25054,997;   -1,265;    0,318
574,183;25939,703;   -2,083;    2,227
574,764;26081,671;   -1,629;    0,409
575,345;26652,679;    0,917;   -0,136
575,926;27207,478;   -0,356;    0,136
576,507;27167,905;    1,099;   -0,227
577,088;28301,966;    3,099;    1,682
577,669;28316,586;    0,735;    1,955
578,250;29062,703;    0,644;   -1,045
578,831;29632,335;   -1,356;   -2,227
579,412;29881,011;   -0,810;    0,955
579,993;30821,347;    1,008;    0,227
580,573;31205,014;   -0,629;   -0,955
581,154;30147,890;    0,735;   -0,591
581,735;30965,009;    0,644;    0,773
582,315;30479,645;   -0,629;    2,136
582,896;30794,762;   -0,174;    1,227
583,477;30302,234;    0,189;    1,227
584,057;30495,134;    0,553;    0,955
584,638;30812,801;    2,553;    2,318
585,218;30781,224;   -0,538;    2,682
585,799;30958,885;    0,281;   -0,227
586,379;30927,966;    0,372;    1,591
586,959;29763,310;    0,735;    0,318
587,540;29135,332;   -0,629;    2,227
588,120;28711,565;    1,007;   -0,045
588,700;27734,124;    2,553;    2,136
589,281;28030,590;    0,462;   -0,955
589,861;27954,352;    0,099;   -1,682
590,441;27799,136;    2,371;   -2,682
591,021;26827,619;   -0,265;   -2,591
591,601;27064,173;   -0,537;    0,500
592,181;27084,473;   -0,719;   -0,773
592,761;26389,220;    0,007;    1,409
593,341;26282,279;   -0,901;    0,045
593,921;26293,117;   -0,265;    1,591
594,501;26180,977;   -0,538;    1,318
595,081;26060,873;    0,917;   -0,318
595,661;26383,124;   -1,447;    0,955
596,240;26942,203;   -0,537;    0,136
596,820;26558,856;    0,372;    1,955
597,400;26718,607;    2,008;    0,773
597,980;26953,319;    2,008;    1,045
598,559;27023,786;    2,735;   -0,227
599,139;26706,609;   -0,174;   -1,227
599,718;26609,972;   -0,174;   -0,409
600,298;26869,362;    0,735;    0,682
600,877;27063,139;    2,917;    1,409
601,457;27327,519;    2,281;    1,136
602,036;27253,990;    0,190;    2,045
602,616;27484,045;    0,644;    1,682
603,195;27807,155;   -0,355;    3,500
603,774;27318,311;   -0,901;    2,045
604,354;27219,009;    0,826;   -0,500
604,933;26766,989;    0,463;    1,864
605,512;26863,071;    3,554;    0,591
606,091;26931,301;   -0,537;    3,773
606,671;27703,580;    0,281;    0,773
607,250;26879,218;    1,644;    3,136
607,829;27074,564;    2,372;    3,227
608,408;26942,451;    1,190;    2,591
608,987;26016,700;    1,281;    3,409
609,566;26315,488;   -1,265;   -2,500
610,145;26358,127;   -1,082;    0,682
610,723;26796,251;    4,372;    6,864
611,302;26069,148;   -0,446;    1,682
611,881;25645,426;    5,008;   11,227
612,460;26449,216;    1,645;    3,955
613,039;26875,323;   -0,082;    2,045
613,617;25638,689;    1,736;    4,773
614,196;25819,974;    1,099;    1,227
614,775;26134,473;    1,009;    2,409
615,353;26064,252;    0,736;    0,864
615,932;25831,405;    0,100;    2,409
616,510;26435,381;    0,554;    0,591
617,089;25917,286;    7,100;   17,591
617,667;25684,497;    2,372;    6,136
618,246;25547,610;   -1,537;    1,318
618,824;25741,309;   -3,355;   -0,955
619,402;25315,310;   -2,900;   -1,773
619,981;25805,846;   -0,173;   -1,045
620,559;25682,627;    0,009;    1,682
621,137;25247,237;   -0,718;    1,864
621,715;25241,634;   -1,173;   -0,682
622,293;25193,660;   -0,537;   -0,773
622,871;25643,056;   -0,718;    0,500
623,450;25199,039;    0,373;   -0,864
624,028;25087,384;    0,191;   -0,955
624,606;24690,770;   -1,718;    1,682
625,183;25163,092;   -1,536;   -1,136
625,761;24809,273;    1,009;    1,136
626,339;25042,288;    1,373;    2,591
626,917;25402,167;   -0,172;   -0,045
627,495;25506,927;   -0,354;    1,318
628,073;24912,400;   -0,263;    2,864
628,650;24638,479;    0,100;    2,136
629,228;25056,612;    0,373;    4,409
629,806;24435,208;    2,282;    1,136
630,383;24725,528;    1,464;   -0,318
630,961;24535,329;    2,555;   -0,955
631,539;24286,769;    2,464;    0,227
632,116;23633,875;   11,373;   15,409
632,694;24200,620;    2,555;    6,500
633,271;24539,990;    0,828;    2,682
633,848;24391,274;    1,828;    2,045
634,426;24438,862;   -1,081;    1,773
635,003;23600,713;    1,101;   -0,409
635,580;23880,165;    1,192;    3,682
636,158;24481,246;    3,737;    1,227
636,735;24431,021;    0,555;   -0,500
637,312;24612,611;   -0,809;   -0,682
637,889;24725,373;   -4,354;   -0,682
638,466;24169,342;   -3,990;   -0,409
639,043;24150,987;    2,101;   -1,136
639,620;24454,047;   -2,262;   -0,955
640,197;24812,911;    1,100;    1,682
640,774;24952,231;   -0,172;    1,136
641,351;25380,278;    0,737;    1,136
641,928;24774,507;   -0,627;    1,409
642,505;24376,190;    0,828;   -0,500
643,082;24533,056;   -1,718;    1,227
643,658;23614,648;   -0,718;    1,500
644,235;24313,695;    1,191;    2,500
644,812;24614,197;    1,918;    0,773
645,388;24337,881;   -0,991;    1,409
645,965;24384,291;   -0,809;    1,682
646,542;24520,884;   -1,445;   -0,227
647,118;24480,658;    1,009;   -0,955
647,695;24798,160;   -0,263;    1,136
648,271;24706,116;   -0,536;    0,500
648,848;25008,345;    0,736;    2,227
649,424;24843,119;    0,827;    1,318
650,000;24646,621;   -0,354;   -1,045
650,577;24450,668;   -0,627;   -0,955
651,153;24863,170;   -1,809;    0,955
651,729;25876,762;    1,191;    0,864
652,305;26013,537;    0,645;    2,773
652,881;30025,766;   -0,082;    1,136
653,458;36531,267;    1,100;    0,227
654,034;40374,860;    0,282;    1,591
654,610;41868,725;    0,554;    0,773
655,186;43234,136;    0,645;    3,045
655,762;42952,456;   -0,991;    0,409
656,338;42956,503;    0,100;    0,136
656,913;43930,095;   -0,082;    0,409
657,489;43218,506;    0,827;   -0,318
658,065;43201,099;   -0,173;   -1,591
658,641;43840,600;   -0,900;   -0,864
659,217;43228,920;   -0,991;    0,409
659,792;42592,694;    0,645;   -0,409
660,368;42781,560;   -2,173;   -0,682
660,944;42562,243;   -2,082;    1,227
661,519;38418,654;   -0,628;    0,409
662,095;32767,247;   -1,719;    0,591
662,670;28129,930;    1,281;   -0,136
663,246;26889,068;    1,009;   -0,409
663,821;26160,933;    0,281;    1,682
664,396;25657,526;    0,009;    1,864
664,972;25908,664;    0,009;   -0,500
665,547;26194,438;    1,372;    0,136
666,122;26213,485;   -1,082;    0,318
666,698;26465,260;   -0,173;    0,318
667,273;25924,034;   -0,173;    0,136
667,848;26680,808;    2,372;    1,500
668,423;26451,583;    2,190;    2,318
668,998;27010,903;    2,827;   -0,682
669,573;27525,495;   -3,264;   -1,500
670,148;27325,542;   -1,446;   -0,682
670,723;27160,226;   -1,810;    0,318
671,298;27591,091;    2,372;    1,045
671,873;27709,320;   -0,082;   -0,136
672,448;27669,640;    0,645;    0,136
673,023;28025,414;   -1,992;   -0,227
673,597;28327,461;    0,827;    2,318
674,172;28104,781;   -0,355;    0,318
674,747;27596,283;    0,372;   -1,045
675,321;27439,966;   -0,628;    3,318
675,896;27052,741;    0,645;    1,045
676,471;28005,515;    2,645;    1,591
677,045;27747,926;   -1,264;    0,682
677,620;27832,518;    0,190;    1,136
678,194;28130,111;   -2,628;    1,136
678,769;27695,885;   -1,083;   -0,318
679,343;27918,296;   -0,628;    1,773
679,917;27804,343;   -1,446;    1,955
680,492;27907,208;    0,826;    3,227
681,066;28044,437;    3,372;    0,409
681,640;28061,121;    1,463;   -0,318
682,214;28897,895;    0,735;    0,500
682,788;28400,033;   -1,356;   -0,773
683,363;28304,080;   -1,810;    1,682
683,937;28048,309;   -1,719;   -0,318
684,511;28829,265;    0,463;   -0,591
685,085;28534,403;   -1,356;    0,318
685,659;28293,723;   -2,538;    0,864
686,232;28523,043;   -0,356;   -0,318
686,806;28252,090;   -0,901;    0,409
687,380;28917,137;   -0,174;    0,591
687,954;29109,457;   -1,174;    1,136
688,528;28789,595;   -0,719;    1,955
689,101;29589,551;   -3,992;    1,045
689,675;29197,689;   -0,356;   -0,136
690,249;28548,464;   -0,719;    0,409
690,822;28868,420;    0,280;    0,318
691,396;28970,740;   -0,265;    1,227
691,969;28424,878;    1,280;    0,136
692,543;28927,834;   -0,447;   -1,955
693,116;28552,154;   -0,265;   -1,409
693,690;28437,019;    0,099;    0,500
694,263;28954,975;   -1,083;    2,955
694,836;28957,659;    1,371;    3,591
695,410;27618,251;   -0,265;    1,773
695,983;28127,662;    0,189;    0,591
696,556;28052,982;   -0,447;   -1,045
697,129;28419,483;   -0,356;    1,409
697,703;28081,803;   -1,629;    1,955
698,276;28097,032;    1,462;   -0,773
698,849;27911,079;    1,280;    1,409
699,422;28313,672;   -1,083;    0,591
699,995;27983,264;    0,007;    0,136
700,568;28465,311;   -0,629;    3,045
701,140;28470,177;   -2,811;    1,682
701,713;28203,769;   -0,174;    2,409
702,286;28002,998;   -0,538;    0,864
702,859;27882,954;   -0,902;   -0,591
703,432;27030,274;    0,825;    0,682
704,004;27538,412;    0,462;    0,318
704,577;27440,005;   -0,629;    0,136
705,150;28037,961;    0,189;    2,500
705,722;27791,099;   -0,356;   -3,227
706,295;27530,964;   -0,175;   -0,591
706,867;27387,648;   -0,175;    1,955
707,440;27604,877;   -1,720;   -0,409
708,012;27911,106;    0,462;    0,591
708,584;27809,789;    2,462;    0,227
709,157;28112,563;    1,825;   -0,591
709,729;27763,156;    2,280;    2,045
710,301;28621,021;    0,734;    0,045
710,874;28607,341;   -1,447;   -0,227
711,446;27462,115;    0,371;    0,864
712,018;27361,072;    0,098;    0,500
712,590;27101,573;   -1,993;    1,682
713,162;27609,984;    0,825;    1,318
713,734;27921,213;    1,825;   -2,045
714,306;27784,442;   -1,902;   -0,409
714,878;26487,580;    0,825;    0,864
715,450;27345,172;    0,643;    0,864
716,022;27640,492;    1,552;    1,318
716,593;27735,630;    0,189;    0,591
717,165;27624,859;   -3,175;   -1,227
717,737;27367,452;    0,280;    0,409
718,309;27025,590;    0,280;   -0,045
718,880;27000,546;   -0,539;   -1,409
719,452;27244,139;   -0,175;   -1,591
720,024;26788,367;    0,734;   -0,591
720,595;27374,415;   -2,902;    0,955
721,167;26921,098;    0,370;   -2,045
721,738;26417,781;   -0,812;   -1,045
722,309;26422,465;   -0,993;   -1,227
722,881;26190,148;   -1,357;    0,773
723,452;26828,105;   -2,630;    2,864
724,023;27004,606;   -0,721;    2,682
724,595;26731,108;    0,007;    0,682
725,166;26480,610;    0,007;   -0,409
725,737;26129,020;    1,734;    0,227
726,308;26210,976;   -0,266;    0,318
726,879;26715,933;   -1,630;    1,227
727,450;26526,252;    0,552;   -0,045
728,021;26461,300;    3,097;    0,682
728,592;26330,801;    0,734;    0,500
729,163;26644,303;    0,643;   -0,136
729,734;26658,895;    0,188;   -0,227
730,305;26976,488;    1,734;    0,136
730,876;27349,990;    0,188;    2,955
731,447;27033,400;    2,188;    2,682
732,017;27130,357;    1,097;    1,864
732,588;26675,131;    0,734;    1,227
733,159;26857,360;    0,643;   -1,045
733,729;26668,043;    0,006;    0,409
734,300;25982,636;    0,915;    0,864
734,870;26418,501;    3,461;    0,591
735,441;26964,912;    0,370;   -0,591
736,011;26714,141;    0,643;   -1,591
736,582;26677,370;   -0,812;    0,045
737,152;26124,781;   -1,721;   -2,045
737,722;26576,100;   -0,267;   -0,682
738,293;26234,329;   -1,358;    1,318
738,863;26199,104;    2,461;    2,318
739,433;25970,878;    5,279;    0,318
740,003;26602,925;   -0,994;   -0,682
740,573;26006,518;    2,097;   -1,591
741,143;25988,201;   -1,085;    0,318
741,713;26775,612;    1,188;   -0,500
742,283;26457,477;    0,915;    1,591
742,853;26251,433;    1,915;    1,591
743,423;25679,844;    1,733;    0,045
743,993;25849,618;   -0,358;    1,500
744,563;25246,029;    0,097;   -0,864
745,133;25175,894;   -0,812;   -0,864
745,702;25857,487;   -0,267;    1,773
746,272;25047,807;   -0,176;    0,591
746,842;24878,945;   -1,358;   -0,591
747,411;25319,174;   -0,267;   -0,318
747,981;25463,130;    0,097;    0,500
748,551;25499,541;    2,278;   -1,045
749,120;25367,315;    0,642;   -0,227
749,690;25774,817;   -0,631;    2,409
750,259;26097,409;    1,369;    2,955
750,828;26001,275;    1,551;   -1,955
751,398;26269,504;    1,278;   -0,045
751,967;25726,460;    2,187;    0,409
752,536;25959,234;   -0,813;   -0,227
753,105;26375,554;    0,096;    0,227
753,675;26220,601;    0,096;    1,773
754,244;26125,557;   -0,904;    3,591
754,813;26126,695;    0,551;    1,227
755,382;25724,379;    0,460;    0,955
755,951;26263,698;    1,551;    3,682
756,520;25807,837;   -0,085;    1,864
757,089;26343,247;    0,278;    0,500
757,658;26522,022;    1,733;    1,227
758,227;26574,705;    1,096;    0,318
758,795;26844,298;    1,187;    1,136
759,364;27043,254;   -0,086;   -0,591
759,933;26053,937;   -1,176;   -0,045
760,501;25648,348;    0,733;   -1,318
761,070;26077,486;   -2,813;   -1,409
761,639;26732,806;   -1,904;    1,318
762,207;26092,398;    1,551;   -0,955
762,776;26005,991;    0,369;    0,864
763,344;25997,311;   -0,995;    0,591
763,913;25177,267;   -0,722;    1,409
764,481;25874,405;    1,005;   -0,136
765,049;25667,361;   -1,358;    1,409
765,618;25533,772;   -0,086;    0,318
766,186;25642,274;    0,278;    0,136
766,754;25862,775;    0,005;    1,864
767,322;24882,004;   -1,995;    0,409
767,890;24890,960;   -0,722;   -1,773
768,459;25288,826;   -2,177;   -0,318
769,027;25450,509;    1,641;    3,409
769,595;24415,829;    3,278;    2,591
770,163;24840,603;    3,823;    2,955
770,730;24607,832;    0,732;   -0,136
771,298;24530,061;    0,187;   -1,409
771,866;24603,654;   -1,541;    4,955
772,434;24915,337;   -0,631;   -1,864
773,002;25099,293;    0,005;    0,682
773,569;24701,886;    0,914;    1,682
774,137;24500,478;   -0,268;   -0,045
774,705;25285,980;    0,278;   -0,136
775,272;24834,755;    0,641;    0,682
775,840;24622,347;   -0,177;    2,682
776,407;24133,758;    0,277;    1,955
776,975;23747,350;   -0,632;    0,318
777,542;24738,488;   -1,086;   -0,045
778,110;24569,808;   -1,268;   -0,045
778,677;24267,128;   -2,359;   -0,864
779,244;24007,084;    2,186;    1,045
779,812;24148,131;    1,823;    0,864
780,379;24005,815;    0,005;    1,136
780,946;24215,407;    1,005;   -0,773
781,513;24542,818;   -1,450;    0,318
782,080;23910,865;   -0,086;    2,864
782,647;24616,458;   -0,268;    3,045
783,214;24230,505;   -0,177;    3,864
783,781;23847,643;   -0,723;   -0,682
784,348;23755,145;   -0,632;    1,500
784,915;24208,283;   -3,177;    0,318
785,482;23965,875;    1,368;    2,591
786,049;24425,286;    0,186;   -0,591
786,615;24560,878;    0,277;   -0,955
787,182;24292,380;    0,186;   -0,682
787,749;23953,245;   -2,814;    1,409
788,315;23242,383;   -1,632;   -0,409
788,882;23574,339;    1,550;   -1,227
789,448;24255,841;    1,732;   -0,955
790,015;24308,525;    1,095;    3,227
790,581;23849,208;    1,459;    0,227
791,148;23772,892;    0,641;    1,045
791,714;23987,757;   -0,541;    3,136
792,280;23676,713;    0,186;    1,591
792,847;23264,851;    0,550;    2,500
793,413;23817,444;   -0,269;   -0,318
793,979;23316,491;    3,459;   -1,318
794,545;23424,720;    4,459;    2,682
795,111;22812,585;    2,186;    1,318
795,678;23002,087;    0,731;   -1,682
796,244;22638,315;    3,368;    0,136
796,810;23200,453;    1,731;    0,773
797,375;22880,137;    0,549;   -2,136
797,941;22925,093;   -0,541;    0,591
798,507;23079,958;   -0,451;   -0,955
799,073;22672,824;   -0,360;    0,591
799,639;22765,416;   -2,632;    3,136
800,205;22726,463;    0,095;    2,682
800,770;22310,238;    0,640;    1,773
801,336;22425,921;    1,368;   -0,955
801,901;22077,332;    4,549;    3,136
802,467;22637,015;   -0,542;    2,045
803,033;22012,153;   -0,087;    0,864
803,598;22268,201;    1,913;   -1,045
804,163;22260,066;    1,095;   -0,318
804,729;22253,477;   -0,178;    1,136
805,294;22655,615;    0,822;    2,227
805,859;22403,116;    0,731;   -0,409
806,425;21850,163;    1,186;    2,682
806,990;21539,665;    2,186;    4,318
807,555;22021,985;   -1,451;    2,591
808,120;21928,032;    0,822;   -0,409
808,685;21993,806;    0,185;   -2,500
809,250;21519,490;    0,004;   -0,500
809,815;21825,991;    1,913;    0,682
810,380;22338,948;   -0,269;    1,591
810,945;22842,813;   -1,087;    2,045
811,510;22018,678;    2,094;    1,591
812,075;21733,907;   -0,633;   -1,409
812,640;21790,863;    2,003;    1,409
813,204;21860,183;    0,822;   -0,227
813,769;22300,867;    2,094;   -0,045
814,334;21749,095;    0,458;    0,864
814,898;21809,233;    0,367;    0,591
815,463;21685,099;    1,276;   -0,773
816,027;21650,055;   -0,724;   -2,318
816,592;21743,920;    0,640;   -2,045
817,156;21214,149;    2,094;    1,136
817,721;21078,924;    4,276;    2,318
818,285;21059,880;    2,912;    1,500
818,849;21699,836;   -1,451;    1,682
819,414;21592,701;   -0,269;    2,955
819,978;21182,657;   -1,269;    1,773
820,542;21766,341;    2,003;    0,500
821,106;21484,570;   -0,815;    0,682
821,670;21579,526;   -0,815;    2,591
822,234;21312,846;   -0,270;    1,409
822,798;20678,620;    0,003;    0,500
823,362;20664,213;   -0,633;    4,227
823,926;20005,987;    0,094;    1,136
824,490;20195,307;   -0,997;   -0,682
825,054;20638,627;   -0,088;   -1,136
825,618;20263,674;   -1,542;   -1,500
826,181;20227,903;    0,458;   -1,318
826,745;20115,950;    1,367;   -1,045
827,309;20488,724;    1,185;    1,318
827,872;19883,044;    1,367;    0,955
828,436;20858,818;    1,185;   -0,773
828,999;20922,956;   -0,997;    1,227
829,563;19714,458;   -0,179;    1,136
830,126;19540,687;   -0,179;   -0,591
830,690;19556,098;   -1,997;    2,864
831,253;19082,963;   -0,543;    2,227
831,816;19175,737;   -1,906;    0,500
832,380;19137,875;    0,185;    0,864
832,943;19386,104;   -1,361;   -0,500
833,506;18854,697;    2,639;   -1,227
834,069;19619,471;    3,912;   -0,955
834,632;19695,700;    1,730;    1,318
835,195;19619,384;    1,003;    0,955
835,758;18863,340;   -0,997;    1,955
836,321;18700,660;    0,730;   -1,045
836,884;18782,889;   -0,725;   -0,955
837,447;18835,754;   -2,816;    1,773
838,010;19072,892;    0,366;    3,227
838,573;19326,666;   -1,179;    0,773
839,135;19276,622;   -1,361;   -0,955
839,698;18766,670;    1,275;    0,409
840,261;18306,171;    1,003;   -0,227
840,823;18148,037;   -0,543;    0,864
841,386;18411,265;   -0,452;   -2,409
841,948;18291,949;   -1,361;    1,773
842,511;18113,087;    0,912;    1,682
843,073;18226,498;    1,912;    0,227
843,636;17980,454;   -0,361;   -0,227
844,198;17943,501;    0,911;    0,591
844,760;18116,003;    1,093;    1,955
845,322;17739,868;    0,548;    1,136
845,885;18133,097;    0,730;    0,591
846,447;18582,780;   -1,998;    0,227
847,009;18164,646;    1,911;   -0,682
847,571;18499,693;    0,820;   -2,045
848,133;18568,103;   -1,089;   -1,864
848,695;18430,423;   -0,543;    1,409
849,257;17968,652;   -1,089;   -1,682
849,819;18146,699;   -0,998;   -0,409
850,381;18200,474;   -0,725;   -0,864
850,942;18557,066;    1,093;   -0,591
851,504;18484,477;    1,184;    0,227
852,066;18535,342;    1,275;   -1,591
852,628;18053,298;   -0,180;    1,955
853,189;17627,800;    1,638;    2,682
853,751;17760,938;   -0,907;    1,409
854,312;17579,985;   -0,453;   -1,682
854,874;18084,487;   -2,089;   -0,773
855,435;18592,170;   -0,907;   -1,682
855,997;18761,308;   -1,816;   -0,136
856,558;18025,628;    0,366;    1,773
857,119;18137,402;    0,820;    2,864
857,681;17874,813;    0,002;    0,318
858,242;17852,769;    1,911;   -2,136
858,803;18301,453;    0,456;   -0,773
859,364;18889,045;    0,184;   -4,773
859,925;18244,547;   -2,453;   -0,955
860,486;18133,321;   -0,453;   -0,955
861,047;17839,550;   -0,544;   -1,227
861,608;17654,143;   -1,089;   -0,773
862,169;17761,645;    0,638;   -0,045
862,730;17538,510;    0,456;    1,409
863,291;17771,921;   -0,635;   -0,500
863,852;18168,604;   -0,635;    1,955
864,412;17650,651;   -0,271;   -0,864
864,973;16235,153;   -0,089;    0,500
865,534;16086,018;   -1,726;    0,227
866,094;17595,247;    1,820;    0,227
866,655;17219,840;    1,274;    3,318
867,215;17514,250;    0,274;    0,136
867,776;17408,479;    0,547;   -0,136
868,336;17467,981;   -1,453;    0,136
868,897;16951,846;    2,638;    1,682
869,457;16683,621;    1,365;    0,318
870,017;16959,759;    0,547;   -1,227
870,578;17461,624;   -0,817;    0,773
871,138;17152,762;   -2,089;   -0,955
871,698;16673,718;   -0,817;   -1,318
872,258;16567,947;   -0,453;   -2,864
872,818;16897,176;    2,729;    0,045
873,378;16855,678;    0,638;    1,045
873,938;16425,543;    0,547;    0,500
874,498;16766,863;    0,274;   -1,955
875,058;16653,273;    2,183;    1,773
875,618;16484,866;    1,910;   -2,682
876,177;16418,458;    1,274;    0,136
876,737;16058,596;   -0,090;    1,955
877,297;16084,371;    0,183;    1,955
877,856;16082,782;   -0,362;    0,318
878,416;16017,192;    1,183;   -0,136
878,976;16261,694;   -1,817;    0,409
879,535;16417,105;    0,092;    3,136
880,095;16130,152;   -0,544;    0,045
880,654;16256,472;   -1,090;    1,318
881,213;16331,701;    2,456;    1,500
881,773;15975,020;    2,637;    2,682
882,332;16319,340;    3,365;    5,136
882,891;16206,569;    3,092;    2,136
883,451;16658,434;   -1,272;    1,682
884,010;16119,572;   -2,908;   -0,409
884,569;16174,620;   -0,999;   -0,045
885,128;16342,848;    2,819;   -1,864
885,687;16413,623;    4,455;    0,682
886,246;16103,761;    1,455;    2,136
886,805;15867,626;    2,455;    2,045
887,364;16176,401;   -0,999;   -0,500
887,922;16531,993;   -1,181;    0,045
888,481;16055,495;   -1,545;    0,591
889,040;16362,815;    1,183;    2,136
889,599;17021,862;    2,455;    1,409
890,157;17063,636;    1,455;    2,409
890,716;16709,683;   -0,090;    0,227
891,274;16537,821;    0,092;   -1,136
891,833;16985,959;    1,546;    0,864
892,391;16860,461;   -0,454;    0,500
892,950;16911,053;    1,819;   -0,773
893,508;17254,828;    0,455;   -0,409
894,067;16664,329;    0,637;    0,136
894,625;16576,649;   -0,636;   -1,500
895,183;16795,696;   -0,363;   -0,682
895,741;16704,471;    1,728;   -1,773
896,299;16526,245;   -0,545;   -2,409
896,858;16731,474;    0,819;   -1,591
897,416;16846,067;    2,728;   -1,318
897,974;16563,568;    1,819;    0,318
898,532;16711,343;    6,091;    2,682
899,089;16606,299;    2,091;   -0,682
899,647;16668,346;   -1,454;    1,318
900,205;16403,393;    1,182;    1,045
900,763;16620,076;   -0,454;    0,227
901,321;16629,942;    2,364;   -1,409
901,878;16063,807;   -1,000;   -0,773
902,436;15949,672;   -1,363;    1,318
902,994;16323,901;    4,728;    3,682
903,551;15820,039;    0,728;    0,409
904,109;16158,359;    0,182;   -1,409
904,666;15762,861;    2,455;    1,045
905,224;15609,362;    0,182;   -0,409
905,781;15342,773;    0,727;   -0,318
906,338;15409,638;   -1,363;    1,045
906,895;15350,049;    0,637;    2,045
907,453;15266,914;    1,727;    1,136
908,010;15299,143;   -0,909;    0,409
908,567;14949,463;    1,273;    0,591
909,124;14503,692;    0,364;   -1,500
909,681;14555,194;   -2,909;    0,682
910,238;14705,332;    0,636;   -1,318
910,795;15036,197;   -0,273;   -1,136
911,352;14710,288;   -2,909;   -2,682
911,909;14083,106;   -1,364;   -0,864
912,466;14591,106;   -3,182;    1,500
913,022;14136,015;   -1,636;    0,500
913,579;14472,742;   -0,909;    2,045
914,136;14165,924;    1,636;    0,955
914,692;14494,288;    0,091;   -1,227
915,249;14143,106;    1,455;    0,409
915,806;14348,742;    0,182;    1,955
916,362;14103,561;    1,909;    1,864
916,918;13674,652;    2,000;    1,045
917,475;13648,015;   -1,182;    0,955
918,031;13681,015;    3,364;   -0,045
918,587;13164,106;   -0,909;   -0,318
919,144;13418,652;   -2,273;    0,227
919,700;13697,742;    1,727;    0,773
920,256;13265,470;    0,727;    0,045
920,812;12923,742;   -0,727;   -1,045
921,368;12935,742;   -1,727;   -1,045
921,924;12560,652;    0,182;   -0,136
922,480;12142,379;   -0,545;    1,227
923,036;12780,742;    1,273;    1,955
923,592;12697,197;    0,455;    0,318
924,148;12606,106;    0,455;   -0,955
924,704;11919,833;   -1,364;   -0,409
925,259;12192,015;   -0,273;    0,591
925,815;11947,197;    1,455;    0,500
926,371;11505,924;    2,909;    1,409
926,926;11424,561;    2,091;    0,591
927,482;11058,379;   -1,364;    0,773
928,037;10914,288;    0,909;    2,045
928,593;11223,833;    1,636;    1,045
929,148;11042,470;   -1,818;   -1,500
929,704;10539,015;   -1,455;   -0,500
930,259;10759,379;    0,091;   -0,136
930,814; 9875,652;   -0,818;    1,955
931,369; 9547,924;    1,091;   -0,773
931,925; 9411,833;   -0,091;    0,136
932,480; 9315,106;   -2,818;   -2,591
933,035; 9196,652;    0,545;   -0,318
933,590; 9022,379;    0,364;   -1,773
934,145; 8663,197;   -1,364;   -0,318
934,700; 8998,742;    0,455;   -0,591
935,255; 8814,652;   -0,091;    0,045
935,809; 8079,106;    3,182;    0,864
936,364; 7222,561;   -0,455;   -0,136
936,919; 7222,924;    0,455;   -1,773
937,474; 7119,742;    1,455;    0,136
938,028; 6873,470;   -1,636;    1,136
938,583; 6363,924;    1,818;    4,682
939,138; 6648,288;    2,091;    2,136
939,692; 6089,470;    1,636;   -1,136
940,247; 5809,106;   -0,727;   -1,045
940,801; 5366,561;   -0,636;    0,227
941,355; 5270,379;   -0,364;    2,591
941,910; 4947,288;   -0,273;   -2,136
942,464; 5028,924;   -0,818;   -0,318
943,018; 4815,742;    1,000;   -0,227
943,572; 4773,833;    2,545;   -0,682
944,126; 4206,833;    0,091;   -0,409
944,681; 4104,652;    3,091;    0,227
945,235; 4075,561;    1,000;   -0,591
945,789; 4016,924;    0,364;   -1,864
946,342; 4124,561;    0,455;   -0,591
946,896; 3930,197;   -2,273;    0,955
947,450; 3692,197;    1,545;   -0,227
948,004; 3883,833;    1,727;   -0,045
948,558; 3913,924;    0,273;   -0,864
949,111; 3813,470;   -0,273;   -0,318
949,665; 3851,288;    1,636;   -0,682
950,219; 3728,652;   -0,091;   -1,045
950,772; 3791,742;   -1,909;    1,864
951,326; 3712,652;    0,545;   -0,955
951,879; 3806,924;    0,727;   -2,318
952,433; 3824,197;    0,000;    2,227
952,986; 3694,015;    2,909;    0,682
953,539; 3624,106;   -0,273;    0,591
954,093; 3565,652;    0,545;   -1,318
954,646; 3714,197;    0,909;    1,318
955,199; 3502,379;    0,000;   -0,500
955,752; 3413,015;   -0,455;    1,773
956,305; 3375,106;   -0,091;    2,955
956,858; 3532,379;    0,818;   -0,318
957,411; 3686,561;   -0,545;    2,136
957,964; 3507,652;    1,364;    2,136
958,517; 3508,924;   -1,545;    3,136
959,070; 3348,106;   -0,455;    1,955
959,623; 3424,106;    1,091;    1,500
960,176; 3198,015;    1,727;    2,045
960,728; 3174,379;   -2,727;    0,773
961,281; 3235,106;    0,545;    0,500
961,834; 3290,106;   -0,909;    0,864
962,386; 3198,561;    1,727;    1,045
962,939; 3118,470;    0,364;   -0,318
963,491; 3259,379;    0,455;    1,136
964,043; 3135,833;    1,182;    2,409
964,596; 3256,015;   -1,000;    2,227
965,148; 3095,561;   -1,000;    1,773
965,700; 3032,470;    1,091;   -0,227
966,253; 3202,833;   -0,636;    0,318
966,805; 3012,197;   -2,273;    0,773
967,357; 3056,833;    1,091;   -1,500
967,909; 3037,379;    0,455;   -1,227
968,461; 3137,924;    0,545;    3,136
969,013; 3071,742;   -0,182;   -0,864
969,565; 3130,924;   -0,455;   -1,136
970,117; 3198,924;   -0,364;    1,045
970,669; 3046,924;    0,182;   -0,136
971,220; 2916,833;   -0,455;   -1,500
971,772; 2837,379;   -0,636;   -0,318
972,324; 2952,833;    0,091;   -0,500
972,876; 2904,652;    0,818;   -0,045
973,427; 3029,106;    1,909;   -1,045
973,979; 3008,561;   -0,727;   -2,500
974,530; 3046,652;    1,818;    1,318
975,082; 3052,106;   -0,545;    1,682
975,633; 2936,197;    1,091;    1,682
976,184; 3083,015;    0,909;    0,773
976,736; 2881,652;    0,091;    0,227
977,287; 2683,742;   -0,909;   -0,500
977,838; 2867,470;    0,909;   -0,318
978,389; 2947,652;   -1,000;   -0,500
978,940; 2801,470;    0,545;   -0,409
979,491; 2833,288;    0,091;   -0,500
980,042; 2803,015;    0,182;    3,045
980,593; 2850,924;   -2,545;    0,227
981,144; 2904,379;    2,545;   -0,500
981,695; 2870,652;    1,455;    1,500
982,246; 2835,833;   -0,273;    1,045
982,797; 2988,015;   -1,727;    0,682
983,347; 3076,742;    0,364;    0,591
983,898; 3245,652;    3,091;    0,409
984,449; 3056,379;    2,182;    0,773
984,999; 2975,288;    1,455;   -1,136
985,550; 2769,470;    0,182;   -0,318
986,100; 2794,561;   -0,455;   -0,318
986,651; 2825,561;   -0,818;    0,045
987,201; 2805,652;   -1,000;   -0,591
987,751; 2879,924;    0,818;    2,864
988,302; 2863,742;    2,636;    1,500
988,852; 2907,288;    0,455;   -1,136
989,402; 2936,379;    0,091;    0,682
989,952; 2865,015;   -2,182;    0,864
990,502; 2959,561;   -0,091;    0,682
991,052; 2923,197;   -0,727;    0,045
991,602; 2802,379;   -2,909;    1,318
992,152; 2796,652;    0,455;    0,682
992,702; 2776,742;    1,364;   -0,045
993,252; 2717,833;   -3,000;   -0,500
993,802; 2801,833;   -0,273;    1,318
994,352; 3013,833;   -1,545;    1,136
994,901; 3098,561;   -0,182;    3,227
995,451; 3020,742;   -0,182;    0,318
996,000; 3095,470;    1,636;    0,318
996,550; 2827,379;    2,273;    0,227
997,100; 2839,288;    1,273;   -0,045
997,649; 3113,015;    2,182;    0,955
998,198; 2749,561;    1,727;   -1,500
998,748; 2933,833;    1,091;   -2,318
999,297; 2854,015;   -0,818;   -0,409
999,846; 2916,833;    1,000;   -0,773
1000,395; 2958,924;   -0,818;    0,500
1000,945; 2909,379;    1,818;   -0,773
1001,494; 3008,561;    2,364;    0,682
1002,043; 2988,197;    4,636;    0,864
1002,592; 2840,015;   -1,091;    1,955
1003,141; 2965,833;   -0,455;   -0,682
1003,690; 2839,924;    1,727;    0,500
1004,238; 2908,106;    1,455;   -0,045
1004,787; 2566,652;    1,364;    1,227
1005,336; 2796,197;    0,364;    0,682
1005,885; 2912,470;    1,364;   -2,773
1006,433; 3069,106;    0,545;    0,955
1006,982; 3130,106;    0,455;    1,682
1007,531; 3023,833;   -1,818;   -0,227
1008,079; 2991,833;   -2,273;    0,500
1008,627; 3135,924;   -1,455;    0,409
1009,176; 2873,924;    0,000;   -1,955
1009,724; 2908,015;    1,091;    0,864
1010,273; 2958,106;    1,273;    0,500
1010,821; 3095,106;    0,091;    1,409
1011,369; 2830,288;   -1,364;    1,318
1011,917; 2801,106;   -1,364;   -0,591
1012,465; 3097,561;    1,273;   -1,591
1013,013; 3215,742;    2,091;   -1,682
1013,561; 3097,561;    0,455;   -0,773
1014,109; 3108,197;   -1,909;    1,682
1014,657; 2995,924;    0,364;    0,591
1015,205; 3131,379;    1,636;   -0,955
1015,753; 3153,015;   -0,545;   -1,409
1016,301; 3199,652;   -2,636;    3,045
1016,848; 3198,197;   -1,273;    0,409
1017,396; 3255,470;    2,545;    0,045
1017,944; 3360,742;    1,182;    1,864
1018,491; 3122,561;    0,273;    1,409
1019,039; 3278,379;    0,455;    0,591
1019,586; 3195,652;   -1,364;    1,682
1020,134; 3308,652;    0,455;    1,500
1020,681; 3318,197;    0,182;   -1,136
1021,228; 3329,561;    2,909;   -2,227
1021,776; 3164,470;    1,182;   -1,136
1022,323; 3370,470;    0,455;    0,773
1022,870; 3297,742;   -1,000;   -0,045
1023,417; 3213,833;    2,636;    1,864
1023,964; 3348,742;    2,636;    1,227
1024,511; 3191,652;    1,000;    0,773
1025,058; 2992,470;    3,182;   -0,045
1025,605; 3048,833;   -2,273;    3,136
1026,152; 3256,197;    1,727;   -0,591
1026,699; 2986,470;    1,818;    1,318
1027,245; 3180,106;   -0,091;    0,318
1027,792; 3375,197;   -1,000;    1,409
1028,339; 3246,470;    2,364;   -0,045
1028,885; 3115,561;    1,000;   -0,227
1029,432; 3037,470;   -0,091;    0,227
1029,978; 3107,470;   -1,000;   -1,591
1030,525; 3023,470;    1,000;    0,409
1031,071; 3271,924;   -1,364;    1,136
1031,618; 3365,106;    0,364;    1,682
1032,164; 3162,561;   -0,091;    3,045
1032,710; 3202,197;    1,636;   -1,500
1033,256; 3118,742;   -0,636;   -0,136
1033,803; 3095,561;   -0,545;    1,500
1034,349; 2822,833;   -1,364;    0,136
1034,895; 2993,742;    0,000;   -0,318
1035,441; 2959,379;   -0,818;    0,318
1035,987; 2960,197;   -2,364;   -0,682
1036,533; 2954,379;   -1,455;   -0,955
1037,078; 3143,652;    1,455;    1,682
1037,624; 2975,561;    2,455;   -0,955
1038,170; 3009,379;    0,455;   -0,318
1038,716; 2910,561;    1,636;   -0,409
1039,261; 2833,197;   -2,273;   -0,773
1039,807; 2777,197;   -0,091;    3,409
1040,352; 2850,288;   -1,909;   -0,318
1040,898; 2904,742;   -1,545;   -0,682
1041,443; 2804,470;   -1,455;   -2,591
1041,989; 2826,470;    1,091;    1,591
1042,534; 2709,470;   -0,364;    2,591
1043,079; 2811,197;    2,909;    0,955
1043,625; 2610,470;    1,818;    0,500
1044,170; 2668,924;   -1,364;    1,045
1044,715; 2915,924;    2,455;    0,955
1045,260; 2739,833;    2,182;   -0,955
1045,805; 2790,924;    1,182;   -0,591
1046,350; 2727,833;    1,364;   -0,409
1046,895; 2691,833;    2,909;    1,591
1047,440; 2635,379;    5,364;    0,409
1047,985; 2531,470;    2,818;   -0,955
1048,530; 2459,833;    1,545;    1,227
1049,074; 2524,833;    0,000;    0,318
1049,619; 2484,652;   -1,364;    1,955
1050,164; 2285,833;    0,455;    0,227
1050,708; 2329,470;   -0,455;    0,045
1051,253; 2700,742;    1,273;   -2,227
1051,797; 2409,924;    0,818;   -1,318
1052,342; 2422,015;   -1,182;    1,045
1052,886; 2412,197;    0,364;   -1,409
1053,430; 2294,652;   -1,364;    0,136
1053,975; 2324,379;   -0,818;   -0,318
1054,519; 2298,379;   -0,727;    3,227
1055,063; 2314,833;    0,909;    1,318
1055,607; 2186,561;   -0,182;    0,227
1056,151; 2226,833;    2,909;    1,682
1056,695; 2144,742;    2,273;   -1,136
1057,239; 2218,924;   -1,727;   -0,682
1057,783; 2214,106;    0,818;   -1,500
1058,327; 2160,742;    0,000;    1,409
1058,871; 2382,288;   -0,545;    1,318
1059,415; 2101,288;   -0,818;   -0,045
1059,958; 2359,833;    1,455;    2,591
1060,502; 2077,470;   -1,000;   -0,773
1061,046; 1973,561;    0,364;   -0,955
1061,589; 1958,742;   -3,000;   -1,136
1062,133; 1854,742;   -1,273;    1,864
1062,676; 1799,197;    1,182;    0,864
1063,220; 1798,652;    1,091;    0,500
1063,763; 1816,561;    0,909;    1,136
1064,306; 1885,470;   -0,909;    1,864
1064,849; 1777,470;   -0,909;    0,591
1065,393; 1779,833;    2,000;   -1,500
1065,936; 1895,288;    0,182;   -0,409
1066,479; 1779,379;   -1,455;    1,318
1067,022; 1794,924;   -0,273;   -0,227
1067,565; 1702,924;   -0,091;   -1,318
1068,108; 1727,924;    0,727;   -0,591
1068,651; 1704,288;   -0,636;    1,409
1069,194; 1645,742;   -0,455;   -1,682
1069,736; 1646,197;   -1,273;    0,955
1070,279; 1622,379;   -1,364;   -0,500
1070,822; 1654,379;   -2,000;   -0,318
1071,364; 1739,470;   -0,364;    1,318
1071,907; 1571,742;   -0,727;    3,227
1072,450; 1489,561;    0,000;   -0,045
1072,992; 1462,197;   -0,273;    3,136
1073,535; 1610,015;    2,091;    2,136
1074,077; 1408,379;   -0,727;    2,045
1074,619; 1360,288;   -1,364;    0,591
1075,161; 1407,288;   -1,091;    1,500
1075,704; 1587,833;    1,545;    1,227
1076,246; 1389,015;   -0,182;    0,682
1076,788; 1313,197;   -0,364;    1,773
1077,330; 1389,106;    1,273;    2,136
1077,872; 1342,106;    0,909;    0,955
1078,414; 1560,288;    2,727;    0,773
1078,956; 1309,106;    1,273;   -0,227
1079,498; 1574,197;    1,636;    0,318
1080,040; 1290,470;    1,909;   -1,318
1080,581; 1219,379;    1,636;   -0,318
1081,123; 1136,470;    0,091;   -0,773
1081,665; 1206,106;   -1,182;   -0,955
1082,206; 1495,742;    1,364;   -0,500
1082,748; 1352,288;    0,727;    2,045
1083,289; 1223,015;   -2,000;    1,318
1083,831; 1129,561;   -0,545;    0,227
1084,372; 1161,561;    0,000;    0,591
1084,913; 1165,652;    1,091;    0,864
1085,455; 1148,561;   -1,909;   -2,045
1085,996; 1105,015;   -2,273;    0,136
1086,537; 1143,742;   -0,091;    0,864
1087,078; 1170,561;   -0,909;   -2,136
1087,619; 1203,379;   -1,273;    0,227
1088,160; 1118,742;    0,000;    1,318
1088,701; 1098,015;   -1,091;    0,682
1089,242; 1049,924;    1,364;   -2,227
1089,783; 1148,652;   -0,273;    1,409
1090,324; 1110,470;    0,455;    0,682
1090,865;  996,197;    2,727;   -0,409
1091,405;  956,742;    0,727;    2,227
1091,946;  992,015;    0,182;   -0,955
1092,487;  919,561;    0,818;   -1,409
1093,027; 1080,470;   -1,364;   -1,500
1093,568;  924,379;   -0,364;    1,227
1094,108; 1023,288;    0,273;    1,773
1094,649;  965,833;   -1,182;    0,136
1095,189;  909,742;   -0,636;   -0,682
1095,729;  858,288;   -0,091;    0,955
1096,269;  854,470;    0,727;   -0,955
1096,810; 1177,015;   -1,364;    0,500
1097,350; 1008,833;    1,364;   -0,773
1097,890;  907,197;    0,364;    1,227
1098,430; 1150,742;    2,364;    2,864
1098,970; 1025,561;    2,182;    1,682
1099,510;  895,015;    0,545;   -2,318
1100,050;  816,106;    1,000;   -1,591
1100,589;  783,106;   -0,727;   -0,318
1101,129;  912,833;    0,818;   -0,955
1101,669; 1056,561;    1,727;    2,136
1102,209;  881,379;   -0,091;    2,227
1102,748;  840,197;    0,000;    0,955
1103,288;  826,833;    1,273;   -1,227
1103,827;  852,288;    3,091;   -2,227
1104,367;  743,652;   -0,091;   -2,409
1104,906;  700,288;    1,364;   -1,136
1105,445;  775,288;    0,636;   -1,136
1105,985;  717,288;   -0,727;    1,500
1106,524;  760,561;   -1,727;   -0,682
1107,063;  743,470;   -2,727;    1,409
1107,602;  717,652;   -1,909;   -1,500
1108,141;  632,106;   -1,909;    1,500
1108,680;  732,106;   -3,455;   -0,591
1109,219;  669,924;   -0,909;   -0,500
1109,758;  666,833;    0,455;    0,682
1110,297;  649,379;    1,000;   -0,682
1110,836;  600,197;   -0,727;    0,955
1111,375;  745,197;   -2,545;    0,409
1111,913;  777,288;   -1,000;    0,773
1112,452;  707,652;   -0,273;    0,136
1112,991;  590,470;    1,091;    1,955
1113,529;  553,470;   -0,818;   -0,045
1114,068;  618,742;   -0,273;    2,955
1114,606;  522,379;   -0,364;   -0,955
1115,144;  669,561;   -1,273;    1,045
1115,683;  604,742;   -0,727;    0,318
1116,221;  650,652;   -0,455;   -0,864
1116,759;  571,379;    0,636;   -0,864
1117,297;  774,106;    0,000;    1,864
1117,836;  578,833;   -2,182;   -1,227
1118,374;  588,561;    0,182;   -0,682
1118,912;  524,561;    0,909;    2,682
1119,450;  513,288;    1,000;    0,864
1119,988;  572,015;    1,545;    2,136
1120,525; 1009,379;    5,091;    3,318
1121,063;  714,833;    1,182;    1,864
1121,601;  519,742;   -0,909;   -1,227
1122,139;  476,833;   -0,727;   -2,045
1122,676;  678,470;   -0,727;    2,773
1123,214;  620,106;   -1,182;    4,409
1123,751;  431,470;    1,727;    2,227
1124,289;  558,833;   -0,091;   -0,409
1124,826;  426,470;    1,727;    0,227
1125,364;  356,561;    1,727;   -0,955
1125,901;  534,106;    1,182;    1,227
1126,438;  643,379;    0,818;    0,955
1126,975;  376,197;   -0,727;   -0,773
1127,513;  447,470;    0,273;    2,136
1128,050;  349,924;    1,636;   -0,682
1128,587;  450,470;    2,000;   -0,227
1129,124;  495,470;    0,091;    1,318
1129,661;  363,288;    0,273;    0,227
1130,198;  522,015;    1,636;    0,773
1130,734;  460,106;    0,182;    1,409
1131,271;  317,106;   -0,909;    0,864
1131,808;  497,652;    2,909;    3,045
1132,345;  370,561;    1,545;    0,318
1132,881;  243,652;   -1,545;   -1,864
1133,418;  396,561;    0,727;   -1,136
1133,954;  325,742;    2,455;   -2,682
1134,491;  388,470;    1,364;   -0,773
1135,027;  292,742;    2,364;    0,864
1135,564;  374,470;    0,273;    2,955
1136,100;  362,742;    0,364;    2,136
1136,636;  263,288;   -1,273;   -1,045
1137,172;  353,833;    0,000;   -1,045
1137,708;  275,470;   -1,364;   -1,045
1138,245;  286,106;    1,273;   -1,227
1138,781;  235,288;    1,091;   -3,318
1139,317;  299,470;    1,273;   -1,409
1139,852;  291,288;    3,091;    0,136
1140,388;  405,106;   -1,182;   -0,409
1140,924;  282,833;   -1,091;   -2,227
1141,460;  223,652;   -1,636;    0,136
1141,996;  164,197;   -1,364;    2,682
1142,531;  207,924;    1,364;    3,318
1143,067;  418,924;    1,182;    1,045
1143,602;  476,015;   -0,091;   -0,318
1144,138;  312,106;   -2,636;    1,045
1144,673;  186,833;   -1,455;    1,409
1145,209;  261,197;   -1,909;   -0,318
1145,744;  177,288;   -0,727;    0,864
1146,279;  316,652;    1,818;   -0,136
1146,815;  229,470;    1,545;   -2,682
1147,350;  267,015;   -1,364;    0,045
1147,885;  183,379;   -0,818;   -1,318
1148,420;  181,106;   -2,273;    0,773
1148,955;  157,742;   -1,727;    1,864
1149,490;  184,197;   -0,909;   -1,591
1150,025;  173,924;    0,455;   -1,773
1150,560;  282,197;    1,091;   -0,955
1151,094;  243,379;    1,455;   -0,591
1151,629;  254,652;    1,636;    0,864
1152,164;  179,561;    1,364;    1,318
1152,698;  142,197;   -0,182;   -0,136
1153,233;  103,470;    0,091;   -0,682
1153,767;  145,288;   -3,000;   -2,318
1154,302;  193,652;   -1,455;    1,773
1154,836;  197,470;   -0,455;   -2,136
1155,371;  242,652;   -1,364;    3,682
1155,905;  197,652;   -0,636;    1,682
1156,439;  173,833;   -0,636;   -0,500
1156,973;  196,288;    0,364;    0,318
1157,507;  131,924;   -0,364;    0,682
1158,042;  164,652;   -0,727;    1,045
1158,576;  210,652;    0,182;    1,773
1159,110;  199,924;   -0,818;    2,409
1159,643;  164,470;    0,636;   -0,045
1160,177;  105,833;   -1,545;    1,500

