
Integration time [ms]:   0,040
Averaging Nr. [scans]: 11
Smoothing Nr. [pixels]: 0
Data measured with spectrometer [name]: 7318044SP
Wave   ;Sample   ;Dark     ;Reference
[nm]   ;[counts] ;[counts] ;[counts] 

186,757;   16,111;   31,551;    1,318
187,357;   32,266;   22,551;    0,955
187,958;   14,607;   15,460;   -1,591
188,558;   45,016;    8,915;   -1,227
189,159;   26,636;    6,733;   -4,500
189,759;   -4,852;    7,278;   -3,591
190,360;  -11,067;    2,824;   -2,136
190,960;   11,655;    2,915;   -4,136
191,560;   17,656;    3,189;   -6,591
192,161;  216,884;    4,372;   -3,500
192,761;   90,924;    4,010;   -3,227
193,361;   43,824;    1,556;   -3,773
193,962;   96,546;    2,010;   -2,682
194,562;   17,311;    1,189;   -3,955
195,162;   23,585;   -2,448;   -2,227
195,762;  121,561;   -3,176;   -0,045
196,362;   81,496;    1,370;   -2,500
196,963;    1,655;    2,006;   -0,864
197,563;   39,836;    1,551;   -0,955
198,163;    5,579;    0,096;   -0,682
198,763;   -1,336;    1,733;   -0,500
199,363;   55,912;    3,096;   -0,500
199,963;   32,709;    0,369;    0,409
200,563;   14,950;    2,823;   -1,409
201,163;   -3,258;    3,277;   -0,227
201,763;   34,186;    3,732;    0,318
202,363;    3,993;    1,459;    1,500
202,963;   25,998;    1,459;    1,045
203,563;   80,369;    0,277;    0,500
204,162;   13,741;    2,096;   -1,864
204,762;    0,289;    0,550;    0,591
205,362;  -11,143;    3,004;    1,955
205,962;   16,377;    3,096;    1,955
206,562;    8,687;    1,823;    2,318
207,161;   -0,446;   -0,087;    0,318
207,761;   62,991;    1,277;    2,409
208,361;    8,291;   -0,268;    1,409
208,960;   30,829;    0,459;    1,500
209,560;   27,022;    1,277;    1,591
210,160;   24,356;    0,550;    1,864
210,759;    3,274;    4,186;    1,227
211,359;    1,782;    1,459;    1,045
211,958;   98,362;    1,277;    2,045
212,558;  100,168;    1,732;    1,864
213,157;   39,468;    1,822;    1,500
213,757;  169,977;    3,822;   -0,227
214,356;   51,610;    1,277;   -0,409
214,956;  140,971;    3,095;    0,409
215,555;   33,260;    2,095;    2,136
216,154;    6,655;   -2,723;   -0,591
216,754;    1,651;    0,277;    0,773
217,353;   23,938;   -0,268;   -1,045
217,952;  -17,816;   -0,178;    0,318
218,552;   31,913;    1,368;   -0,773
219,151;    6,425;    0,277;    0,955
219,750;   -3,200;    0,004;   -0,227
220,349;  -14,016;   -0,451;    1,045
220,948;   47,650;   -1,360;    1,136
221,548;    3,991;    0,913;    1,227
222,147;    7,557;   -0,087;   -0,409
222,746;   81,735;   -0,451;   -0,955
223,345;   33,382;    0,731;    0,500
223,944;   18,128;   -0,451;    0,773
224,543;   27,464;    1,004;   -1,409
225,142;   19,667;    0,094;    0,136
225,741;   27,749;   -0,814;    1,045
226,340;   14,427;   -0,451;   -0,955
226,939;   62,007;   -0,996;   -0,136
227,538;    7,046;   -0,360;   -0,773
228,137;   63,322;   -0,814;    0,864
228,735;   38,684;   -0,541;    1,227
229,334;  -20,775;   -0,905;   -0,227
229,933;   72,473;    0,459;    0,591
230,532;   70,084;    1,186;   -0,409
231,131;  108,643;    1,732;    0,318
231,729;   47,099;   -2,450;   -2,318
232,328;   12,243;   -0,723;   -1,500
232,927;   21,599;    1,004;   -0,500
233,525;   18,084;    3,640;    0,045
234,124;   30,234;    2,368;   -1,591
234,723;   -5,839;    0,913;   -1,045
235,321;   -6,199;    2,277;    0,136
235,920;    0,101;    1,186;   -1,227
236,518;   67,468;    3,459;    0,318
237,117;    6,235;    0,004;   -0,227
237,715;   17,378;    0,640;   -0,500
238,314;   26,817;   -0,087;   -2,318
238,912;   75,667;   -0,723;   -1,409
239,510;   34,567;    0,459;   -1,227
240,109;   75,704;    0,004;    3,773
240,707;   58,411;   -0,996;    1,227
241,305;   -0,998;    0,550;    0,136
241,904;   30,275;   -0,178;   -2,045
242,502;   92,645;   -0,632;   -0,227
243,100;   43,919;   -0,087;   -0,955
243,698;    9,971;    0,732;    1,682
244,297;   26,773;   -0,632;    0,682
244,895;   23,887;   -0,269;   -2,318
245,493;   87,423;    2,186;   -0,591
246,091;   89,293;    1,368;   -1,318
246,689;   44,836;    1,004;    0,591
247,287;   43,530;    0,822;   -1,136
247,885;   27,846;   -1,451;    1,227
248,483;    9,133;    1,822;   -0,500
249,081;   40,038;    0,185;    1,591
249,679;   45,515;   -0,178;    1,682
250,277;    4,194;   -1,723;    0,864
250,875;   41,012;   -1,087;   -1,045
251,473;   11,995;   -1,178;    0,500
252,071;   51,679;    1,459;    1,045
252,669;   15,492;   -1,814;    0,318
253,267;    0,656;   -0,087;    0,773
253,864;   10,530;   -0,360;    0,682
254,462;   62,658;    1,640;    1,591
255,060;    1,374;   -0,269;    1,318
255,658;    0,764;    0,822;   -0,136
256,255;   11,528;    0,186;   -2,045
256,853;   28,755;   -0,269;    1,409
257,451;    7,146;    0,822;    1,864
258,048;  173,408;    1,822;    1,864
258,646;   77,837;    1,731;   -1,045
259,243;  114,028;   -0,087;    2,227
259,841;   52,190;   -0,814;    0,318
260,438;    0,453;   -0,087;    0,864
261,036;   40,260;   -1,905;    1,409
261,633;    8,860;   -0,087;    2,227
262,231;   -1,938;    2,731;   -0,045
262,828;  -14,482;   -0,905;    1,136
263,425;    7,313;    0,913;   -0,591
264,023;    2,101;    0,186;    0,045
264,620;   55,287;   -0,360;   -0,318
265,217;   90,585;   -2,087;    3,136
265,815;   12,215;   -1,905;    2,136
266,412;   39,135;    0,731;    0,136
267,009;   28,599;   -1,451;    0,773
267,606;   64,474;    0,822;   -0,955
268,203;   27,845;   -0,269;   -0,591
268,801;   23,884;    1,731;    0,591
269,398;    2,792;   -0,360;    2,500
269,995;   38,700;    0,277;    1,591
270,592;   26,620;   -0,632;   -0,500
271,189;  -11,813;    0,186;    0,409
271,786;  -18,018;   -0,632;    1,227
272,383;   49,356;   -1,087;    0,227
272,980;   13,845;    0,277;    0,318
273,577;  -10,770;    0,004;    1,227
274,174;   -3,003;    0,822;    2,591
274,771;   37,492;   -0,814;   -0,773
275,367;  188,501;    2,277;    1,409
275,964;   93,225;    0,731;   -0,500
276,561;   21,044;    1,549;   -1,045
277,158;  -15,122;    0,095;   -1,773
277,755;   69,583;    2,185;    0,409
278,351;   34,744;   -0,451;   -1,500
278,948;   52,732;   -0,815;    0,045
279,545;   36,282;   -1,360;    2,318
280,141;   68,865;   -1,723;   -2,045
280,738;   77,851;   -0,451;   -0,136
281,334;    7,338;   -1,633;    0,591
281,931;    0,287;   -0,087;   -1,318
282,528;   48,762;    0,822;   -0,500
283,124;   71,021;   -1,087;   -0,500
283,721;   66,824;   -0,451;    1,409
284,317;   27,351;    0,185;    2,500
284,913;   78,343;   -1,360;    0,591
285,510;  135,070;    0,640;   -0,318
286,106;   74,465;   -2,269;   -0,955
286,703;   33,785;   -0,360;    1,955
287,299;   20,736;   -1,451;   -0,591
287,895;    9,955;    0,822;   -1,045
288,491;    3,065;    0,186;    2,136
289,088;   29,963;   -2,360;    2,409
289,684;   38,401;   -1,723;    1,500
290,280;  100,131;    0,368;    0,682
290,876;   71,527;    1,822;    5,500
291,472;   57,455;    1,276;    2,227
292,068;   60,288;    1,367;    0,227
292,665;   21,917;    2,095;    0,773
293,261;   -5,899;    0,276;    2,136
293,857;   54,672;    2,913;    2,136
294,453;   24,562;    3,550;    0,955
295,049;   94,051;   -0,268;    1,955
295,644;   44,262;    0,095;    0,136
296,240;    0,467;   -0,905;   -0,136
296,836;   31,692;   -0,995;    0,318
297,432;   68,230;    1,096;   -0,500
298,028;   67,110;    0,732;    0,773
298,624;   34,699;    1,459;    1,864
299,220;   26,739;    2,368;    0,591
299,815;   25,554;    1,005;   -0,409
300,411;   56,687;    0,914;    1,773
301,007;   73,104;    1,368;    0,227
301,602;   18,666;   -0,541;   -2,318
302,198;   78,537;    0,732;   -0,773
302,794;   27,247;    1,187;   -0,500
303,389;   -3,110;   -1,177;    1,045
303,985;   13,502;    0,550;    1,409
304,580;   72,972;    1,459;    1,591
305,176;   32,747;   -3,086;    0,136
305,771;  -21,021;   -1,268;   -1,227
306,367;  140,145;    4,095;    0,136
306,962;   47,120;    0,641;    1,500
307,558;   65,513;   -0,450;    0,136
308,153;   59,658;    1,095;   -1,136
308,748;    3,251;   -0,814;    1,682
309,344;  130,176;   -0,632;   -1,318
309,939;  113,279;   -1,905;   -1,318
310,534;   24,955;   -0,086;   -1,682
311,130;   18,406;    0,459;   -2,500
311,725;    9,696;    1,004;   -0,500
312,320;   26,548;    2,459;    0,045
312,915;   50,048;    1,459;   -1,045
313,510;  125,729;    1,550;   -0,500
314,105;   28,021;    1,096;    1,409
314,700;   -8,507;   -3,086;   -1,045
315,295;   12,700;   -0,904;    0,045
315,890;    0,752;    1,277;    0,864
316,485;   37,336;   -0,359;   -0,318
317,080;    2,306;   -3,086;    1,591
317,675;  115,277;    2,005;   -0,682
318,270;  211,184;    5,550;    3,318
318,865;  139,909;    3,278;    3,045
319,460;   84,453;   -0,904;    0,591
320,055;   19,222;   -0,541;   -1,227
320,650;   16,726;   -1,995;   -0,591
321,244;   18,597;   -0,177;   -1,409
321,839;   18,772;   -1,541;   -0,227
322,434;   30,275;   -1,086;   -1,591
323,029;    8,317;    1,732;    1,591
323,623;    2,523;    1,550;    0,773
324,218;   84,665;    2,368;    1,409
324,812;   55,613;    1,096;    1,591
325,407;   43,362;   -0,814;    2,045
326,002;  108,608;    0,277;   -0,409
326,596;   65,669;    0,914;    1,318
327,191;    5,506;    0,823;   -1,045
327,785;   18,669;   -0,813;   -0,227
328,379;    6,355;    1,368;    0,136
328,974;   31,114;    0,914;   -3,955
329,568;   44,283;    0,186;   -2,409
330,163;   73,807;    2,096;    1,045
330,757;    9,312;    2,459;    1,591
331,351;  -10,681;    0,459;    0,682
331,945;   -9,482;    0,914;    1,409
332,540;   34,412;   -1,723;   -0,591
333,134;   32,467;   -1,086;    0,773
333,728;   32,563;    0,005;    0,318
334,322;    5,200;   -1,177;   -0,864
334,916;    8,005;    0,277;    0,955
335,510;   67,073;   -0,450;   -0,136
336,105;   46,506;   -1,086;    1,591
336,699;    7,601;   -1,086;    0,591
337,293;   29,606;   -1,723;    0,318
337,887;    9,215;   -2,723;    1,955
338,481;   70,714;    0,459;    0,591
339,074;  124,730;   -0,359;    2,682
339,668;  102,779;   -1,632;    1,227
340,262;  424,046;    1,732;    3,227
340,856;  204,632;    1,822;   -0,682
341,450;   63,257;    1,004;    1,864
342,044;   92,424;    1,459;    0,136
342,637;  158,158;    0,913;   -2,136
343,231;  132,572;   -2,360;    0,682
343,825;  115,871;   -1,086;   -0,591
344,419;  111,894;   -1,995;    0,500
345,012;  478,997;    2,459;    4,045
345,606;  339,680;    4,641;    1,591
346,199;  154,683;   -1,813;   -0,227
346,793;  253,641;    1,914;    2,045
347,386;  137,762;   -0,813;   -1,136
347,980;   78,374;   -0,268;   -0,045
348,573;  163,490;    2,278;    0,409
349,167;  412,329;    5,278;    4,773
349,760;  301,910;    2,914;    2,682
350,354;  285,567;   -0,813;    1,136
350,947;  326,189;    1,096;    1,682
351,540;  235,125;   -0,358;   -1,409
352,134;  150,487;    1,096;    1,136
352,727;  175,454;   -0,086;    1,136
353,320;  192,165;    0,005;    0,591
353,913;  139,572;   -1,995;    1,864
354,507;  318,583;    0,823;   -1,227
355,100;  210,934;    0,460;    0,864
355,693;  585,127;    2,005;    2,409
356,286;  369,757;    0,823;    2,773
356,879;  232,551;   -0,722;    1,227
357,472;  241,134;   -0,904;    1,500
358,065;  275,523;   -0,722;    2,500
358,658;  146,458;   -0,540;    2,318
359,251;  121,735;   -1,631;   -0,591
359,844;  295,335;   -1,904;   -1,136
360,437;  347,907;   -2,995;    0,045
361,030;  201,613;    1,369;   -0,682
361,623;  202,586;    2,824;    0,318
362,215;  403,547;   -0,086;    2,045
362,808;  259,924;   -2,358;   -1,682
363,401;  188,628;   -2,449;    0,136
363,994;  380,578;   -0,631;   -1,500
364,586;  191,819;    0,824;   -1,500
365,179;  150,084;   -0,449;   -1,136
365,772;   44,109;   -1,995;    2,045
366,364;  160,228;    1,915;   -3,227
366,957;  196,492;    2,279;   -0,045
367,549;  146,679;    2,188;   -0,864
368,142;  163,989;    1,825;   -1,500
368,734;  126,548;    0,734;   -2,136
369,327;   76,689;    1,643;   -0,500
369,919;  101,042;   -1,538;    0,409
370,512;  115,060;   -1,083;   -0,500
371,104;  345,116;   -0,901;    1,591
371,696;  353,382;    1,191;   -0,955
372,289;  226,670;    0,373;    1,136
372,881;  183,122;   -2,080;    1,318
373,473;   90,377;   -2,170;    1,136
374,066;  168,729;   -0,169;    0,500
374,658;  130,692;    0,378;    1,136
375,250;   63,042;    0,653;   -1,409
375,842;  101,421;    0,473;   -0,045
376,434;   67,063;   -0,435;   -0,409
377,026;   35,671;    0,204;   -2,500
377,618;   78,243;   -0,158;   -0,682
378,210;   15,423;   -0,338;   -1,955
378,802;    3,322;    0,754;   -0,591
379,394;  375,071;    1,846;    0,682
379,986;  138,919;    1,393;   -0,955
380,578;   37,555;   -0,153;    0,773
381,170;  296,432;   -0,972;    0,045
381,762;  205,619;    0,755;    1,409
382,354;  159,102;   -0,065;   -1,318
382,945;   78,714;   -2,976;    0,318
383,537;   39,883;   -2,705;   -1,955
384,129;   47,232;   -2,160;   -1,136
384,721;  159,870;   -0,252;    0,955
385,312;   88,439;   -0,161;   -0,955
385,904;  164,616;   -2,706;    1,591
386,496;   86,998;   -0,979;    1,045
387,087;  215,593;    1,022;    2,500
387,679;  152,076;   -1,160;    0,045
388,270;  126,209;    2,840;    2,045
388,862;   96,729;    1,295;   -0,318
389,453;   79,798;   -0,887;    1,045
390,045;   86,585;   -0,705;   -2,682
390,636;  -18,049;    0,204;   -0,591
391,227;   50,933;   -0,523;   -0,045
391,819;   30,970;    0,204;    0,773
392,410;  267,808;    1,022;    0,045
393,001;   84,538;   -0,979;   -1,591
393,593;  154,056;    1,930;   -0,045
394,184;  198,997;    1,385;   -0,409
394,775;   82,939;    1,839;    2,136
395,366;    4,285;    1,385;    0,773
395,957;  172,026;    0,113;    0,136
396,548;   61,627;   -0,342;    2,682
397,139;  175,995;   -2,433;    0,591
397,730;  102,431;   -1,888;    0,955
398,321;  112,938;   -1,252;    0,955
398,912;   49,168;   -0,615;    0,136
399,503;   33,013;   -3,524;   -1,409
400,094;   88,442;    0,294;    1,682
400,685;   86,506;   -0,433;    0,045
401,276;   34,670;    0,930;   -0,955
401,867;   12,711;   -0,888;    0,773
402,458;  -30,638;   -2,251;   -2,318
403,048;  111,090;    1,112;    0,591
403,639;   56,296;    0,840;    0,864
404,230;  158,216;    2,476;    0,318
404,821;  219,195;   -0,615;    0,045
405,411;  120,719;    1,203;   -2,591
406,002;   36,398;   -1,252;   -1,136
406,592;  245,634;    2,294;    0,045
407,183;  118,827;    0,566;   -1,500
407,774;   96,677;    3,475;   -0,136
408,364;   43,172;    0,930;    0,409
408,954;  156,619;    0,384;    1,227
409,545;  152,976;    1,021;    1,045
410,135;  116,491;    1,293;    0,500
410,726;   50,903;    1,838;    0,318
411,316;  233,885;    0,111;    0,773
411,906;   89,782;   -0,253;   -0,409
412,497;   87,915;   -1,070;   -0,045
413,087;   26,345;   -1,980;   -0,227
413,677;  -32,521;   -0,707;    3,864
414,267;  -33,288;    0,656;    1,409
414,857;  -56,093;   -2,980;    4,227
415,448;  -61,704;    0,839;    0,500
416,038;  -31,390;    0,020;   -0,591
416,628;    9,836;   -0,889;    0,409
417,218;   54,290;    0,565;    3,318
417,808;  192,303;    0,202;   -0,409
418,398;   77,700;    0,020;    2,682
418,988;  -28,957;    2,020;    0,591
419,578;   60,279;   -0,707;    1,409
420,168;   -6,578;   -1,343;   -0,955
420,757;  120,599;   -1,343;   -1,500
421,347;   26,454;    0,111;   -0,227
421,937;   -5,158;    2,292;    1,409
422,527;  121,961;    0,838;   -0,773
423,116;  239,274;   -0,253;   -0,045
423,706;    0,362;   -1,889;    0,318
424,296;  -36,824;    1,384;    0,682
424,885;   70,176;   -0,071;   -3,045
425,475;   34,208;    1,474;   -2,864
426,065;  -46,583;   -0,980;   -0,318
426,654;  -60,887;   -0,435;   -0,318
427,244;  164,157;    0,020;    1,409
427,833;  128,960;    1,383;   -0,500
428,423;   18,967;   -0,526;    1,136
429,012;   26,480;   -0,344;   -1,136
429,601;  145,268;   -1,344;    0,136
430,191;   33,334;    1,292;    4,318
430,780;  -46,696;   -0,344;   -0,409
431,369;  120,543;    0,746;   -0,045
431,959;   17,312;   -1,254;    0,500
432,548;  -33,923;   -1,163;   -0,045
433,137;  -87,715;   -1,254;   -1,318
433,726;  -21,008;    0,292;    0,500
434,315;   -3,383;   -0,526;    2,409
434,905;   98,825;   -1,254;    1,409
435,494;   88,995;    0,746;    0,955
436,083;  -28,301;   -0,981;   -0,955
436,672;   61,180;    0,110;    0,500
437,261;   12,560;    0,292;   -1,955
437,850;  211,689;    1,383;    0,682
438,439;  257,283;    3,291;    1,955
439,027;  362,755;    3,655;    1,773
439,616;  290,829;    2,927;    1,227
440,205;   85,303;    0,200;   -2,136
440,794;   43,658;    2,109;   -0,045
441,383;  -18,319;   -1,346;   -0,591
441,971;  -40,964;   -2,436;    0,591
442,560;  -25,063;    0,563;   -1,773
443,149; -110,242;    0,379;   -1,318
443,737;  -67,686;   -0,074;   -2,318
444,326;  -47,238;    0,018;    0,318
444,915;   -2,673;   -1,982;    0,864
445,503;   -1,151;   -2,891;   -0,318
446,092;  239,776;    0,382;    2,136
446,680;  176,535;    0,382;    0,318
447,269;   78,069;   -0,346;   -0,318
447,857;   72,839;    0,018;   -1,773
448,445;   29,158;    0,563;    1,318
449,034;  -19,369;   -1,528;   -1,136
449,622;  -10,549;   -1,073;    3,500
450,210;  245,726;    2,017;    2,227
450,799;  161,286;    0,290;   -0,591
451,387;  129,153;    1,381;   -0,591
451,975;  116,947;    2,654;    0,864
452,563;  188,241;    3,472;    2,318
453,151;   25,303;   -0,528;   -1,227
453,739;   64,088;   -1,347;    0,136
454,328;  168,211;    2,381;   -2,136
454,916;  101,640;    2,562;   -0,136
455,504;  118,275;    1,017;    1,227
456,092;    4,460;    0,017;   -1,591
456,679;  -14,474;    1,472;    0,682
457,267;  361,388;    4,017;    1,045
457,855;   70,110;    1,017;    1,409
458,443;  -62,111;   -0,165;    1,682
459,031;   82,675;    0,108;    2,409
459,619;   57,161;   -1,801;    2,864
460,206;  -37,698;    0,835;    2,045
460,794;  -41,182;   -2,983;   -0,227
461,382;    0,368;   -0,529;   -0,864
461,970;   -3,239;    1,198;    1,864
462,557;  -61,758;   -0,711;   -0,682
463,145;   48,733;   -3,165;   -1,682
463,732;  279,438;    2,016;   -1,045
464,320;   68,703;   -0,075;   -3,045
464,907;  195,380;    2,743;   -0,773
465,495;  116,361;    0,743;   -1,227
466,082;   35,454;   -1,984;   -0,045
466,670;   57,645;   -2,529;    1,227
467,257;  -39,243;   -1,711;    2,045
467,844;   56,717;   -0,075;    0,045
468,432;   39,757;    0,834;    3,500
469,019;   -1,760;    0,925;   -1,773
469,606;   76,448;    0,470;    3,682
470,193;   98,494;   -1,439;    0,227
470,780;   55,855;   -2,075;    0,864
471,368;   -6,075;   -1,257;   -0,773
471,955;   94,542;    1,379;   -0,682
472,542;   66,720;    0,652;   -1,136
473,129;  -38,021;   -0,166;    0,136
473,716;  -33,340;    1,470;    0,591
474,303;   -3,427;    0,652;   -0,864
474,890;    1,705;   -1,439;   -0,500
475,477;  100,884;   -1,621;    0,409
476,064;    8,038;    1,106;   -1,591
476,650;  124,527;    0,288;    0,318
477,237;   38,527;   -0,258;    0,955
477,824;   18,389;   -1,076;    0,864
478,411;  -60,165;   -1,894;   -0,318
478,997;  -70,933;    0,560;   -0,773
479,584; -105,354;    1,196;   -0,409
480,171;   45,892;   -0,440;   -0,773
480,757;  109,618;    2,651;    0,773
481,344;   15,502;    0,469;    0,409
481,931;  -75,809;    1,105;    1,045
482,517;   31,118;   -1,258;    0,318
483,104;  113,615;    1,106;    2,864
483,690;   -1,197;   -1,804;    0,045
484,276;  -28,210;   -0,895;    0,227
484,863;  168,126;    2,469;    1,136
485,449;   28,920;   -0,077;    0,318
486,035;  -13,495;   -1,986;   -0,136
486,622;   63,733;   -0,895;    0,045
487,208;   -4,723;    1,378;    1,500
487,794;  -82,923;    0,741;    0,318
488,380;  -72,724;    0,105;   -1,409
488,967;  -64,640;   -1,168;   -0,409
489,553;  -46,371;   -1,895;   -1,409
490,139;   17,420;    1,559;    0,773
490,725;  -46,478;    0,741;   -0,227
491,311;  -13,520;    3,287;    3,045
491,897;  -26,240;   -0,986;    1,500
492,483;   -9,010;    0,105;    1,227
493,069;  398,192;    3,923;    0,864
493,655;  125,900;    1,650;    0,682
494,241;   12,585;    1,377;   -0,955
494,826;   19,354;    0,287;   -1,045
495,412;   76,294;    2,559;   -0,682
495,998;  -10,050;   -0,805;   -0,318
496,584;   38,134;    0,377;    1,045
497,169;   51,854;    1,014;   -0,682
497,755;   -2,735;    0,650;    1,227
498,341;  114,670;    0,559;    0,318
498,926;  235,856;    1,832;    1,955
499,512;   -7,488;    1,286;    2,955
500,097;  -10,380;    0,195;   -0,318
500,683;   15,321;   -0,350;    2,136
501,268;  -31,370;   -0,169;   -0,955
501,854;   -7,557;   -0,169;    1,227
502,439;  -21,406;   -0,624;   -1,773
503,024;   -1,753;    0,195;    0,500
503,610;   21,272;   -0,078;   -0,682
504,195;  -26,583;    0,558;    1,955
504,780;   63,184;    2,922;    1,227
505,366;  138,716;    3,013;    2,864
505,951;   73,526;    0,740;    1,045
506,536;    7,726;   -3,260;   -3,682
507,121;   53,640;    0,285;   -0,318
507,706;    5,828;    2,376;    1,045
508,291;  -31,199;    2,649;    1,136
508,876;  -36,322;   -0,988;    2,591
509,461;   -7,368;   -0,169;   -0,773
510,046;   28,836;    0,194;    0,318
510,631;   52,800;   -0,351;   -0,773
511,216;  -20,928;    2,467;   -0,500
511,801;   35,883;   -0,442;    2,591
512,386;   43,786;    0,740;    0,500
512,971;   53,028;   -2,988;    0,955
513,555;   83,320;   -0,897;   -1,500
514,140;   50,639;   -0,442;   -3,136
514,725;  165,040;   -0,715;   -1,136
515,309;   78,482;   -0,533;    0,318
515,894;    9,449;   -0,624;   -2,227
516,479;   39,470;   -0,624;   -0,955
517,063;   50,269;    0,376;    1,227
517,648;   18,278;    1,012;   -1,136
518,232;    5,687;   -0,261;   -1,409
518,817;  112,388;   -0,079;    1,682
519,401;  258,071;    2,194;    0,591
519,985;  258,326;    1,103;    1,136
520,570;  151,305;    0,830;   -1,955
521,154;  341,305;    2,102;    0,591
521,738;  615,001;   -2,352;    2,409
522,323;  485,837;   -0,170;    1,682
522,907;  571,327;    0,466;   -0,136
523,491;  562,425;    0,557;    0,955
524,075;  623,762;    2,284;    0,591
524,659; 1003,665;    1,466;    0,591
525,243; 1038,068;    1,739;    0,409
525,827; 1148,460;    0,648;   -0,045
526,411; 1445,029;   -1,989;   -0,136
526,995; 1881,565;   -0,352;    1,409
527,579; 2098,281;   -0,443;   -1,045
528,163; 2428,346;    0,375;   -1,500
528,747; 2886,790;    2,466;   -0,773
529,331; 3266,992;   -0,080;   -1,409
529,915; 3557,745;    1,738;    0,955
530,499; 3967,442;   -0,807;    1,227
531,082; 4270,095;   -0,534;    1,591
531,666; 4450,343;    1,374;    0,773
532,250; 5137,127;    1,284;    2,682
532,833; 5726,483;    0,920;    2,773
533,417; 6055,609;   -1,807;    0,864
534,001; 6337,772;    1,647;   -0,318
534,584; 7242,212;    0,374;    0,500
535,168; 7472,571;    0,465;    1,409
535,751; 7903,285;    0,647;    0,045
536,334; 7797,577;   -0,898;   -0,409
536,918; 8629,692;    0,011;    1,591
537,501; 8993,723;   -0,899;    1,318
538,085; 9359,010;   -0,444;    1,045
538,668; 9750,347;    0,829;    2,409
539,251;10266,775;    1,829;    3,773
539,834;10596,585;    0,101;    0,773
540,418;10758,767;   -1,990;    4,318
541,001;11076,901;   -0,990;    1,773
541,584;11301,789;    2,101;    2,227
542,167;11216,625;    1,374;    2,955
542,750;11508,039;    1,919;   -0,773
543,333;11298,715;    0,555;    2,136
543,916;12161,245;    0,192;    2,500
544,499;12866,599;   -1,354;    0,227
545,082;13041,665;    1,374;    3,591
545,665;13347,497;    1,919;    1,500
546,248;13748,443;    1,010;   -0,318
546,830;13549,310;   -0,445;    1,955
547,413;14034,692;    1,010;   -0,773
547,996;14651,780;    0,555;    0,500
548,579;14522,968;    0,919;    0,955
549,161;14431,488;    1,828;    2,682
549,744;14323,858;   -0,809;    0,409
550,326;14883,589;   -0,809;   -1,136
550,909;14767,316;    2,737;    0,591
551,492;15237,576;   -0,263;    0,227
552,074;15116,728;   -0,173;   -1,318
552,657;15664,972;    2,373;    0,045
553,239;15544,891;   -0,173;   -0,773
553,821;15553,212;   -1,082;    1,045
554,404;15133,575;    1,282;    1,136
554,986;15519,419;    0,464;    1,045
555,568;16102,157;    1,191;   -0,955
556,151;15438,494;    1,191;   -0,227
556,733;15701,772;   -0,264;   -0,864
557,315;16156,477;    0,100;    0,500
557,897;15991,437;    0,554;   -0,500
558,479;16195,473;   -1,991;    1,318
559,061;16356,265;   -0,719;   -0,864
559,643;16697,749;   -0,264;    0,045
560,225;17050,041;    1,645;    2,864
560,807;17130,203;    0,918;    0,318
561,389;16642,367;    0,554;    2,318
561,971;17359,904;    0,463;    2,136
562,553;17237,752;   -1,628;    1,591
563,135;17396,413;   -0,537;    1,136
563,717;16988,835;    3,372;    1,136
564,298;17722,433;    3,645;   -0,045
564,880;17471,767;    0,645;   -1,409
565,462;17664,494;    0,645;    1,318
566,043;18724,091;   -0,446;    2,318
566,625;18316,179;    1,918;    1,227
567,207;18188,491;    1,099;    1,682
567,788;19315,229;   -1,264;    1,500
568,370;20089,070;    1,917;   -0,500
568,951;19948,668;    0,190;    0,227
569,533;20790,009;   -0,628;   -0,500
570,114;21255,323;   -0,446;    0,682
570,695;21741,134;   -0,174;   -1,318
571,277;22174,705;   -0,265;   -1,682
571,858;22896,169;    2,008;   -1,136
572,439;23836,110;    1,554;   -1,045
573,021;23985,983;    2,099;   -2,773
573,602;24477,410;   -1,265;    0,318
574,183;25366,043;   -2,083;    2,227
574,764;25480,824;   -1,629;    0,409
575,345;26004,756;    0,917;   -0,136
575,926;26649,975;   -0,356;    0,136
576,507;26691,135;    1,099;   -0,227
577,088;27729,195;    3,099;    1,682
577,669;27742,386;    0,735;    1,955
578,250;28487,407;    0,644;   -1,045
578,831;29123,903;   -1,356;   -2,227
579,412;29397,814;   -0,810;    0,955
579,993;30290,153;    1,008;    0,227
580,573;30657,550;   -0,629;   -0,955
581,154;29688,419;    0,735;   -0,591
581,735;30474,899;    0,644;    0,773
582,315;30028,899;   -0,629;    2,136
582,896;30345,005;   -0,174;    1,227
583,477;29890,784;    0,189;    1,227
584,057;30093,940;    0,553;    0,955
584,638;30380,880;    2,553;    2,318
585,218;30379,754;   -0,538;    2,682
585,799;30647,950;    0,281;   -0,227
586,379;30635,649;    0,372;    1,591
586,959;29413,741;    0,735;    0,318
587,540;28807,349;   -0,629;    2,227
588,120;28405,804;    1,007;   -0,045
588,700;27413,604;    2,553;    2,136
589,281;27700,670;    0,462;   -0,955
589,861;27677,350;    0,099;   -1,682
590,441;27497,856;    2,371;   -2,682
591,021;26505,787;   -0,265;   -2,591
591,601;26784,301;   -0,537;    0,500
592,181;26820,687;   -0,719;   -0,773
592,761;26126,437;    0,007;    1,409
593,341;26052,890;   -0,901;    0,045
593,921;26052,618;   -0,265;    1,591
594,501;25977,863;   -0,538;    1,318
595,081;25805,917;    0,917;   -0,318
595,661;26162,365;   -1,447;    0,955
596,240;26649,332;   -0,537;    0,136
596,820;26322,595;    0,372;    1,955
597,400;26507,207;    2,008;    0,773
597,980;26769,710;    2,008;    1,045
598,559;26833,474;    2,735;   -0,227
599,139;26522,214;   -0,174;   -1,227
599,718;26435,305;   -0,174;   -0,409
600,298;26732,323;    0,735;    0,682
600,877;26933,353;    2,917;    1,409
601,457;27213,888;    2,281;    1,136
602,036;27085,936;    0,190;    2,045
602,616;27297,435;    0,644;    1,682
603,195;27628,522;   -0,355;    3,500
603,774;27207,232;   -0,901;    2,045
604,354;27099,841;    0,826;   -0,500
604,933;26670,568;    0,463;    1,864
605,512;26812,271;    3,554;    0,591
606,091;26876,476;   -0,537;    3,773
606,671;27677,496;    0,281;    0,773
607,250;26741,773;    1,644;    3,136
607,829;27049,723;    2,372;    3,227
608,408;26914,077;    1,190;    2,591
608,987;25940,192;    1,281;    3,409
609,566;26260,094;   -1,265;   -2,500
610,145;26366,533;   -1,082;    0,682
610,723;26777,028;    4,372;    6,864
611,302;26021,264;   -0,446;    1,682
611,881;25562,736;    5,008;   11,227
612,460;26372,256;    1,645;    3,955
613,039;26763,426;   -0,082;    2,045
613,617;25560,763;    1,736;    4,773
614,196;25758,833;    1,099;    1,227
614,775;26110,936;    1,009;    2,409
615,353;26052,972;    0,736;    0,864
615,932;25801,948;    0,100;    2,409
616,510;26332,207;    0,554;    0,591
617,089;25902,378;    7,100;   17,591
617,667;25681,496;    2,372;    6,136
618,246;25543,864;   -1,537;    1,318
618,824;25705,115;   -3,355;   -0,955
619,402;25282,480;   -2,900;   -1,773
619,981;25786,271;   -0,173;   -1,045
620,559;25661,675;    0,009;    1,682
621,137;25227,111;   -0,718;    1,864
621,715;25207,514;   -1,173;   -0,682
622,293;25133,533;   -0,537;   -0,773
622,871;25595,568;   -0,718;    0,500
623,450;25173,791;    0,373;   -0,864
624,028;25086,704;    0,191;   -0,955
624,606;24732,984;   -1,718;    1,682
625,183;25117,741;   -1,536;   -1,136
625,761;24755,829;    1,009;    1,136
626,339;25045,054;    1,373;    2,591
626,917;25436,966;   -0,172;   -0,045
627,495;25513,003;   -0,354;    1,318
628,073;24923,548;   -0,263;    2,864
628,650;24654,023;    0,100;    2,136
629,228;25091,632;    0,373;    4,409
629,806;24526,209;    2,282;    1,136
630,383;24766,687;    1,464;   -0,318
630,961;24601,876;    2,555;   -0,955
631,539;24313,015;    2,464;    0,227
632,116;23648,604;   11,373;   15,409
632,694;24218,782;    2,555;    6,500
633,271;24573,289;    0,828;    2,682
633,848;24484,320;    1,828;    2,045
634,426;24539,782;   -1,081;    1,773
635,003;23661,583;    1,101;   -0,409
635,580;23939,847;    1,192;    3,682
636,158;24478,240;    3,737;    1,227
636,735;24453,866;    0,555;   -0,500
637,312;24634,936;   -0,809;   -0,682
637,889;24722,468;   -4,354;   -0,682
638,466;24194,652;   -3,990;   -0,409
639,043;24248,075;    2,101;   -1,136
639,620;24603,497;   -2,262;   -0,955
640,197;24887,677;    1,100;    1,682
640,774;25045,455;   -0,172;    1,136
641,351;25434,415;    0,737;    1,136
641,928;24870,375;   -0,627;    1,409
642,505;24477,880;    0,828;   -0,500
643,082;24598,385;   -1,718;    1,227
643,658;23646,890;   -0,718;    1,500
644,235;24409,759;    1,191;    2,500
644,812;24723,355;    1,918;    0,773
645,388;24471,497;   -0,991;    1,409
645,965;24552,093;   -0,809;    1,682
646,542;24635,598;   -1,445;   -0,227
647,118;24622,194;    1,009;   -0,955
647,695;24955,063;   -0,263;    1,136
648,271;24871,204;   -0,536;    0,500
648,848;25105,709;    0,736;    2,227
649,424;24967,396;    0,827;    1,318
650,000;24748,720;   -0,354;   -1,045
650,577;24555,225;   -0,627;   -0,955
651,153;24994,366;   -1,809;    0,955
651,729;26029,871;    1,191;    0,864
652,305;26140,558;    0,645;    2,773
652,881;30349,154;   -0,082;    1,136
653,458;37054,387;    1,100;    0,227
654,034;40887,710;    0,282;    1,591
654,610;42545,670;    0,554;    0,773
655,186;43931,448;    0,645;    3,045
655,762;43633,044;   -0,991;    0,409
656,338;43657,822;    0,100;    0,136
656,913;44617,872;   -0,082;    0,409
657,489;43901,923;    0,827;   -0,318
658,065;43871,428;   -0,173;   -1,591
658,641;44602,024;   -0,900;   -0,864
659,217;43950,893;   -0,991;    0,409
659,792;43319,398;    0,645;   -0,409
660,368;43538,267;   -2,173;   -0,682
660,944;43217,681;   -2,082;    1,227
661,519;38932,004;   -0,628;    0,409
662,095;33050,055;   -1,719;    0,591
662,670;28364,288;    1,281;   -0,136
663,246;27084,429;    1,009;   -0,409
663,821;26355,207;    0,281;    1,682
664,396;25819,439;    0,009;    1,864
664,972;26105,035;    0,009;   -0,500
665,547;26450,177;    1,372;    0,136
666,122;26448,955;   -1,082;    0,318
666,698;26675,642;   -0,173;    0,318
667,273;26050,783;   -0,173;    0,136
667,848;26856,470;    2,372;    1,500
668,423;26638,066;    2,190;    2,318
668,998;27196,481;    2,827;   -0,682
669,573;27699,713;   -3,264;   -1,500
670,148;27521,127;   -1,446;   -0,682
670,723;27341,905;   -1,810;    0,318
671,298;27825,410;    2,372;    1,045
671,873;27971,279;   -0,082;   -0,136
672,448;27908,057;    0,645;    0,136
673,023;28221,289;   -1,992;   -0,227
673,597;28546,885;    0,827;    2,318
674,172;28356,754;   -0,355;    0,318
674,747;27867,896;    0,372;   -1,045
675,321;27729,674;   -0,628;    3,318
675,896;27260,270;    0,645;    1,045
676,471;28244,957;    2,645;    1,591
677,045;28004,280;   -1,264;    0,682
677,620;28050,240;    0,190;    1,136
678,194;28389,290;   -2,628;    1,136
678,769;27925,705;   -1,083;   -0,318
679,343;28172,482;   -0,628;    1,773
679,917;28045,079;   -1,446;    1,955
680,492;28162,766;    0,826;    3,227
681,066;28332,089;    3,372;    0,409
681,640;28361,594;    1,463;   -0,318
682,214;29166,008;    0,735;    0,500
682,788;28655,241;   -1,356;   -0,773
683,363;28604,291;   -1,810;    1,682
683,937;28315,160;   -1,719;   -0,318
684,511;29104,665;    0,463;   -0,591
685,085;28840,807;   -1,356;    0,318
685,659;28617,585;   -2,538;    0,864
686,232;28838,999;   -0,356;   -0,318
686,806;28572,777;   -0,901;    0,409
687,380;29188,373;   -0,174;    0,591
687,954;29404,423;   -1,174;    1,136
688,528;29078,110;   -0,719;    1,955
689,101;29829,706;   -3,992;    1,045
689,675;29410,939;   -0,356;   -0,136
690,249;28814,717;   -0,719;    0,409
690,822;29173,586;    0,280;    0,318
691,396;29325,000;   -0,265;    1,227
691,969;28728,414;    1,280;    0,136
692,543;29187,556;   -0,447;   -1,955
693,116;28843,697;   -0,265;   -1,409
693,690;28664,293;    0,099;    0,500
694,263;29257,344;   -1,083;    2,955
694,836;29319,849;    1,371;    3,591
695,410;27938,809;   -0,265;    1,773
695,983;28418,950;    0,189;    0,591
696,556;28431,274;   -0,447;   -1,045
697,129;28815,415;   -0,356;    1,409
697,703;28426,738;   -1,629;    1,955
698,276;28488,425;    1,462;   -0,773
698,849;28272,567;    1,280;    1,409
699,422;28562,617;   -1,083;    0,591
699,995;28317,577;    0,007;    0,136
700,568;28802,264;   -0,629;    3,045
701,140;28901,406;   -2,811;    1,682
701,713;28594,820;   -0,174;    2,409
702,286;28299,143;   -0,538;    0,864
702,859;28191,376;   -0,902;   -0,591
703,432;27349,426;    0,825;    0,682
704,004;27825,386;    0,462;    0,318
704,577;27731,164;   -0,629;    0,136
705,150;28279,487;    0,189;    2,500
705,722;28070,265;   -0,356;   -3,227
706,295;27819,316;   -0,175;   -0,591
706,867;27732,366;   -0,175;    1,955
707,440;27968,962;   -1,720;   -0,409
708,012;28201,468;    0,462;    0,591
708,584;28137,609;    2,462;    0,227
709,157;28436,114;    1,825;   -0,591
709,729;28080,347;    2,280;    2,045
710,301;28952,943;    0,734;    0,045
710,874;28970,084;   -1,447;   -0,227
711,446;27864,226;    0,371;    0,864
712,018;27737,640;    0,098;    0,500
712,590;27476,600;   -1,993;    1,682
713,162;27974,559;    0,825;    1,318
713,734;28276,519;    1,825;   -2,045
714,306;28129,570;   -1,902;   -0,409
714,878;26794,711;    0,825;    0,864
715,450;27626,398;    0,643;    0,864
716,022;27896,631;    1,552;    1,318
716,593;28073,954;    0,189;    0,591
717,165;27996,005;   -3,175;   -1,227
717,737;27721,782;    0,280;    0,409
718,309;27389,560;    0,280;   -0,045
718,880;27356,975;   -0,539;   -1,409
719,452;27589,207;   -0,175;   -1,591
720,024;27094,894;    0,734;   -0,591
720,595;27688,581;   -2,902;    0,955
721,167;27275,904;    0,370;   -2,045
721,738;26795,955;   -0,812;   -1,045
722,309;26739,733;   -0,993;   -1,227
722,881;26544,874;   -1,357;    0,773
723,452;27183,379;   -2,630;    2,864
724,023;27313,885;   -0,721;    2,682
724,595;27099,117;    0,007;    0,682
725,166;26885,349;    0,007;   -0,409
725,737;26535,945;    1,734;    0,227
726,308;26613,451;   -0,266;    0,318
726,879;27040,138;   -1,630;    1,227
727,450;26832,006;    0,552;   -0,045
728,021;26867,421;    3,097;    0,682
728,592;26632,653;    0,734;    0,500
729,163;26980,249;    0,643;   -0,136
729,734;27014,845;    0,188;   -0,227
730,305;27382,987;    1,734;    0,136
730,876;27695,856;    0,188;    2,955
731,447;27407,815;    2,188;    2,682
732,017;27571,593;    1,097;    1,864
732,588;27031,826;    0,734;    1,227
733,159;27234,149;    0,643;   -1,045
733,729;27059,472;    0,006;    0,409
734,300;26287,977;    0,915;    0,864
734,870;26722,210;    3,461;    0,591
735,441;27321,260;    0,370;   -0,591
736,011;27091,311;    0,643;   -1,591
736,582;27058,089;   -0,812;    0,045
737,152;26509,321;   -1,721;   -2,045
737,722;26949,281;   -0,267;   -0,682
738,293;26700,423;   -1,358;    1,318
738,863;26526,019;    2,461;    2,318
739,433;26333,433;    5,279;    0,318
740,003;26964,938;   -0,994;   -0,682
740,573;26356,080;    2,097;   -1,591
741,143;26292,676;   -1,085;    0,318
741,713;27120,635;    1,188;   -0,500
742,283;26826,322;    0,915;    1,591
742,853;26584,646;    1,915;    1,591
743,423;26049,514;    1,733;    0,045
743,993;26175,383;   -0,358;    1,500
744,563;25573,797;    0,097;   -0,864
745,133;25501,394;   -0,812;   -0,864
745,702;26214,899;   -0,267;    1,773
746,272;25461,131;   -0,176;    0,591
746,842;25228,636;   -1,358;   -0,591
747,411;25611,232;   -0,267;   -0,318
747,981;25821,828;    0,097;    0,500
748,551;25894,697;    2,278;   -1,045
749,120;25714,839;    0,642;   -0,227
749,690;26119,798;   -0,631;    2,409
750,259;26432,213;    1,369;    2,955
750,828;26331,172;    1,551;   -1,955
751,398;26649,496;    1,278;   -0,045
751,967;26107,637;    2,187;    0,409
752,536;26335,415;   -0,813;   -0,227
753,105;26763,102;    0,096;    0,227
753,675;26557,880;    0,096;    1,773
754,244;26527,567;   -0,904;    3,591
754,813;26503,981;    0,551;    1,227
755,382;26157,941;    0,460;    0,955
755,951;26708,082;    1,551;    3,682
756,520;26225,133;   -0,085;    1,864
757,089;26725,093;    0,278;    0,500
757,658;26884,143;    1,733;    1,227
758,227;26887,285;    1,096;    0,318
758,795;27209,335;    1,187;    1,136
759,364;27435,750;   -0,086;   -0,591
759,933;26504,528;   -1,176;   -0,045
760,501;26026,305;    0,733;   -1,318
761,070;26506,083;   -2,813;   -1,409
761,639;27189,952;   -1,904;    1,318
762,207;26526,639;    1,551;   -0,955
762,776;26462,144;    0,369;    0,864
763,344;26420,558;   -0,995;    0,591
763,913;25564,791;   -0,722;    1,409
764,481;26285,387;    1,005;   -0,136
765,049;26062,892;   -1,358;    1,409
765,618;25966,034;   -0,086;    0,318
766,186;26042,266;    0,278;    0,136
766,754;26245,408;    0,005;    1,864
767,322;25283,004;   -1,995;    0,409
767,890;25325,509;   -0,722;   -1,773
768,459;25717,468;   -2,177;   -0,318
769,027;25858,337;    1,641;    3,409
769,595;24836,570;    3,278;    2,591
770,163;25275,348;    3,823;    2,955
770,730;25029,853;    0,732;   -0,136
771,298;24878,358;    0,187;   -1,409
771,866;24970,681;   -1,541;    4,955
772,434;25318,641;   -0,631;   -1,864
773,002;25506,782;    0,005;    0,682
773,569;25157,742;    0,914;    1,682
774,137;24918,429;   -0,268;   -0,045
774,705;25772,571;    0,278;   -0,136
775,272;25249,803;    0,641;    0,682
775,840;24968,308;   -0,177;    2,682
776,407;24507,268;    0,277;    1,955
776,975;24161,682;   -0,632;    0,318
777,542;25114,824;   -1,086;   -0,045
778,110;24968,329;   -1,268;   -0,045
778,677;24695,652;   -2,359;   -0,864
779,244;24428,339;    2,186;    1,045
779,812;24492,299;    1,823;    0,864
780,379;24324,895;    0,005;    1,136
780,946;24592,491;    1,005;   -0,773
781,513;24943,269;   -1,450;    0,318
782,080;24293,956;   -0,086;    2,864
782,647;25039,461;   -0,268;    3,045
783,214;24613,330;   -0,177;    3,864
783,781;24192,926;   -0,723;   -0,682
784,348;24107,976;   -0,632;    1,500
784,915;24599,118;   -3,177;    0,318
785,482;24364,441;    1,368;    2,591
786,049;24796,492;    0,186;   -0,591
786,615;24895,543;    0,277;   -0,955
787,182;24669,230;    0,186;   -0,682
787,749;24341,553;   -2,814;    1,409
788,315;23655,603;   -1,632;   -0,409
788,882;23956,745;    1,550;   -1,227
789,448;24645,977;    1,732;   -0,955
790,015;24682,483;    1,095;    3,227
790,581;24258,806;    1,459;    0,227
791,148;24105,129;    0,641;    1,045
791,714;24342,725;   -0,541;    3,136
792,280;24070,776;    0,186;    1,591
792,847;23673,736;    0,550;    2,500
793,413;24227,150;   -0,269;   -0,318
793,979;23680,564;    3,459;   -1,318
794,545;23791,433;    4,459;    2,682
795,111;23203,393;    2,186;    1,318
795,678;23451,807;    0,731;   -1,682
796,244;23068,039;    3,368;    0,136
796,810;23592,544;    1,731;    0,773
797,375;23308,595;    0,549;   -2,136
797,941;23354,100;   -0,541;    0,591
798,507;23519,696;   -0,451;   -0,955
799,073;23074,747;   -0,360;    0,591
799,639;23112,343;   -2,632;    3,136
800,205;23162,666;    0,095;    2,682
800,770;22666,626;    0,640;    1,773
801,336;22774,586;    1,368;   -0,955
801,901;22498,727;    4,549;    3,136
802,467;23008,960;   -0,542;    2,045
803,033;22368,919;   -0,087;    0,864
803,598;22614,424;    1,913;   -1,045
804,163;22627,111;    1,095;   -0,318
804,729;22558,071;   -0,178;    1,136
805,294;22981,940;    0,822;    2,227
805,859;22752,991;    0,731;   -0,409
806,425;22177,314;    1,186;    2,682
806,990;21848,274;    2,186;    4,318
807,555;22364,051;   -1,451;    2,591
808,120;22258,193;    0,822;   -0,409
808,685;22336,335;    0,185;   -2,500
809,250;21850,112;    0,004;   -0,500
809,815;22142,708;    1,913;    0,682
810,380;22681,759;   -0,269;    1,591
810,945;23167,446;   -1,087;    2,045
811,510;22370,042;    2,094;    1,591
812,075;22104,820;   -0,633;   -1,409
812,640;22168,780;    2,003;    1,409
813,204;22228,285;    0,822;   -0,227
813,769;22645,972;    2,094;   -0,045
814,334;22091,568;    0,458;    0,864
814,898;22148,255;    0,367;    0,591
815,463;21972,033;    1,276;   -0,773
816,027;21936,265;   -0,724;   -2,318
816,592;22064,134;    0,640;   -2,045
817,156;21599,275;    2,094;    1,136
817,721;21414,235;    4,276;    2,318
818,285;21389,649;    2,912;    1,500
818,849;22042,245;   -1,451;    1,682
819,414;21972,932;   -0,269;    2,955
819,978;21562,710;   -1,269;    1,773
820,542;22123,943;    2,003;    0,500
821,106;21845,630;   -0,815;    0,682
821,670;21897,317;   -0,815;    2,591
822,234;21623,186;   -0,270;    1,409
822,798;21024,600;    0,003;    0,500
823,362;20953,650;   -0,633;    4,227
823,926;20300,792;    0,094;    1,136
824,490;20512,388;   -0,997;   -0,682
825,054;20935,893;   -0,088;   -1,136
825,618;20589,944;   -1,542;   -1,500
826,181;20541,631;    0,458;   -1,318
826,745;20455,409;    1,367;   -1,045
827,309;20788,005;    1,185;    1,318
827,872;20199,964;    1,367;    0,955
828,436;21182,469;    1,185;   -0,773
828,999;21239,338;   -0,997;    1,227
829,563;20058,843;   -0,179;    1,136
830,126;19867,894;   -0,179;   -0,591
830,690;19888,945;   -1,997;    2,864
831,253;19379,995;   -0,543;    2,227
831,816;19550,137;   -1,906;    0,500
832,380;19496,642;    0,185;    0,864
832,943;19723,693;   -1,361;   -0,500
833,506;19183,289;    2,639;   -1,227
834,069;19947,976;    3,912;   -0,955
834,632;20032,663;    1,730;    1,318
835,195;19983,168;    1,003;    0,955
835,758;19189,127;   -0,997;    1,955
836,321;19001,269;    0,730;   -1,045
836,884;19115,865;   -0,725;   -0,955
837,447;19128,188;   -2,816;    1,773
838,010;19332,421;    0,366;    3,227
838,573;19663,471;   -1,179;    0,773
839,135;19632,704;   -1,361;   -0,955
839,698;19074,754;    1,275;    0,409
840,261;18623,896;    1,003;   -0,227
840,823;18485,947;   -0,543;    0,864
841,386;18740,997;   -0,452;   -2,409
841,948;18607,775;   -1,361;    1,773
842,511;18356,189;    0,912;    1,682
843,073;18493,422;    1,912;    0,227
843,636;18331,109;   -0,361;   -0,227
844,198;18240,887;    0,911;    0,591
844,760;18345,574;    1,093;    1,955
845,322;18016,715;    0,548;    1,136
845,885;18425,129;    0,730;    0,591
846,447;18844,725;   -1,998;    0,227
847,009;18430,412;    1,911;   -0,682
847,571;18792,645;    0,820;   -2,045
848,133;18838,514;   -1,089;   -1,864
848,695;18681,291;   -0,543;    1,409
849,257;18290,797;   -1,089;   -1,682
849,819;18429,847;   -0,998;   -0,409
850,381;18499,443;   -0,725;   -0,864
850,942;18887,312;    1,093;   -0,591
851,504;18810,272;    1,184;    0,227
852,066;18846,777;    1,275;   -1,591
852,628;18416,100;   -0,180;    1,955
853,189;17926,878;    1,638;    2,682
853,751;18025,020;   -0,907;    1,409
854,312;17857,161;   -0,453;   -1,682
854,874;18368,848;   -2,089;   -0,773
855,435;18888,535;   -0,907;   -1,682
855,997;19066,313;   -1,816;   -0,136
856,558;18328,545;    0,366;    1,773
857,119;18406,414;    0,820;    2,864
857,681;18132,010;    0,002;    0,318
858,242;18150,606;    1,911;   -2,136
858,803;18564,021;    0,456;   -0,773
859,364;19180,071;    0,184;   -4,773
859,925;18502,485;   -2,453;   -0,955
860,486;18406,809;   -0,453;   -0,955
861,047;18112,223;   -0,544;   -1,227
861,608;17933,455;   -1,089;   -0,773
862,169;18079,597;    0,638;   -0,045
862,730;17818,738;    0,456;    1,409
863,291;18054,244;   -0,635;   -0,500
863,852;18454,385;   -0,635;    1,955
864,412;17930,345;   -0,271;   -0,864
864,973;16559,850;   -0,089;    0,500
865,534;16394,082;   -1,726;    0,227
866,094;17890,860;    1,820;    0,227
866,655;17515,002;    1,274;    3,318
867,215;17762,325;    0,274;    0,136
867,776;17644,467;    0,547;   -0,136
868,336;17761,426;   -1,453;    0,136
868,897;17237,295;    2,638;    1,682
869,457;17001,255;    1,365;    0,318
870,017;17207,033;    0,547;   -1,227
870,578;17732,629;   -0,817;    0,773
871,138;17419,770;   -2,089;   -0,955
871,698;16937,366;   -0,817;   -1,318
872,258;16825,781;   -0,453;   -2,864
872,818;17197,831;    2,729;    0,045
873,378;17142,609;    0,638;    1,045
873,938;16712,751;    0,547;    0,500
874,498;17062,983;    0,274;   -1,955
875,058;16956,488;    2,183;    1,773
875,618;16810,539;    1,910;   -2,682
876,177;16706,953;    1,274;    0,136
876,737;16292,822;   -0,090;    1,955
877,297;16324,963;    0,183;    1,955
877,856;16308,832;   -0,362;    0,318
878,416;16296,428;    1,183;   -0,136
878,976;16534,479;   -1,817;    0,409
879,535;16666,893;    0,092;    3,136
880,095;16441,580;   -0,544;    0,045
880,654;16546,813;   -1,090;    1,318
881,213;16605,954;    2,456;    1,500
881,773;16278,732;    2,637;    2,682
882,332;16607,964;    3,365;    5,136
882,891;16476,470;    3,092;    2,136
883,451;16947,247;   -1,272;    1,682
884,010;16426,116;   -2,908;   -0,409
884,569;16485,349;   -0,999;   -0,045
885,128;16613,945;    2,819;   -1,864
885,687;16712,268;    4,455;    0,682
886,246;16401,046;    1,455;    2,136
886,805;16159,733;    2,455;    2,045
887,364;16446,420;   -0,999;   -0,500
887,922;16839,925;   -1,181;    0,045
888,481;16328,703;   -1,545;    0,591
889,040;16602,117;    1,183;    2,136
889,599;17271,168;    2,455;    1,409
890,157;17383,127;    1,455;    2,409
890,716;17009,360;   -0,090;    0,227
891,274;16851,683;    0,092;   -1,136
891,833;17265,552;    1,546;    0,864
892,391;17137,330;   -0,454;    0,500
892,950;17206,653;    1,819;   -0,773
893,508;17612,795;    0,455;   -0,409
894,067;16995,664;    0,637;    0,136
894,625;16883,805;   -0,636;   -1,500
895,183;17115,401;   -0,363;   -0,682
895,741;16984,361;    1,728;   -1,773
896,299;16833,139;   -0,545;   -2,409
896,858;17022,462;    0,819;   -1,591
897,416;17152,058;    2,728;   -1,318
897,974;16900,836;    1,819;    0,318
898,532;17027,523;    6,091;    2,682
899,089;16918,937;    2,091;   -0,682
899,647;16958,897;   -1,454;    1,318
900,205;16686,675;    1,182;    1,045
900,763;16895,998;   -0,454;    0,227
901,321;16885,776;    2,364;   -1,409
901,878;16330,281;   -1,000;   -0,773
902,436;16205,514;   -1,363;    1,318
902,994;16558,291;    4,728;    3,682
903,551;16031,342;    0,728;    0,409
904,109;16406,393;    0,182;   -1,409
904,666;15971,443;    2,455;    1,045
905,224;15878,312;    0,182;   -0,409
905,781;15613,726;    0,727;   -0,318
906,338;15649,050;   -1,363;    1,045
906,895;15579,918;    0,637;    2,045
907,453;15566,878;    1,727;    1,136
908,010;15624,565;   -0,909;    0,409
908,567;15226,343;    1,273;    0,591
909,124;14760,485;    0,364;   -1,500
909,681;14796,172;   -2,909;    0,682
910,238;14970,495;    0,636;   -1,318
910,795;15267,909;   -0,273;   -1,136
911,352;14890,091;   -2,909;   -2,682
911,909;14310,818;   -1,364;   -0,864
912,466;14794,455;   -3,182;    1,500
913,022;14352,273;   -1,636;    0,500
913,579;14685,909;   -0,909;    2,045
914,136;14388,273;    1,636;    0,955
914,692;14741,636;    0,091;   -1,227
915,249;14334,909;    1,455;    0,409
915,806;14565,909;    0,182;    1,955
916,362;14298,000;    1,909;    1,864
916,918;13883,091;    2,000;    1,045
917,475;13854,091;   -1,182;    0,955
918,031;13948,000;    3,364;   -0,045
918,587;13399,364;   -0,909;   -0,318
919,144;13620,364;   -2,273;    0,227
919,700;13991,455;    1,727;    0,773
920,256;13504,818;    0,727;    0,045
920,812;13140,727;   -0,727;   -1,045
921,368;13180,545;   -1,727;   -1,045
921,924;12777,455;    0,182;   -0,136
922,480;12379,636;   -0,545;    1,227
923,036;12969,000;    1,273;    1,955
923,592;12929,364;    0,455;    0,318
924,148;12834,182;    0,455;   -0,955
924,704;12147,000;   -1,364;   -0,409
925,259;12426,182;   -0,273;    0,591
925,815;12220,364;    1,455;    0,500
926,371;11742,091;    2,909;    1,409
926,926;11618,909;    2,091;    0,591
927,482;11224,818;   -1,364;    0,773
928,037;11105,455;    0,909;    2,045
928,593;11387,727;    1,636;    1,045
929,148;11234,545;   -1,818;   -1,500
929,704;10745,000;   -1,455;   -0,500
930,259;10957,000;    0,091;   -0,136
930,814;10005,364;   -0,818;    1,955
931,369; 9707,182;    1,091;   -0,773
931,925; 9609,091;   -0,091;    0,136
932,480; 9514,000;   -2,818;   -2,591
933,035; 9372,727;    0,545;   -0,318
933,590; 9149,364;    0,364;   -1,773
934,145; 8815,273;   -1,364;   -0,318
934,700; 9167,273;    0,455;   -0,591
935,255; 8942,273;   -0,091;    0,045
935,809; 8240,545;    3,182;    0,864
936,364; 7380,727;   -0,455;   -0,136
936,919; 7353,091;    0,455;   -1,773
937,474; 7233,909;    1,455;    0,136
938,028; 6993,727;   -1,636;    1,136
938,583; 6460,545;    1,818;    4,682
939,138; 6731,091;    2,091;    2,136
939,692; 6208,545;    1,636;   -1,136
940,247; 5910,818;   -0,727;   -1,045
940,801; 5471,000;   -0,636;    0,227
941,355; 5372,273;   -0,364;    2,591
941,910; 5032,636;   -0,273;   -2,136
942,464; 5120,636;   -0,818;   -0,318
943,018; 4899,091;    1,000;   -0,227
943,572; 4847,364;    2,545;   -0,682
944,126; 4273,000;    0,091;   -0,409
944,681; 4164,182;    3,091;    0,227
945,235; 4150,727;    1,000;   -0,591
945,789; 4082,818;    0,364;   -1,864
946,342; 4183,091;    0,455;   -0,591
946,896; 3990,727;   -2,273;    0,955
947,450; 3775,364;    1,545;   -0,227
948,004; 3961,091;    1,727;   -0,045
948,558; 3954,909;    0,273;   -0,864
949,111; 3877,091;   -0,273;   -0,318
949,665; 3914,182;    1,636;   -0,682
950,219; 3790,545;   -0,091;   -1,045
950,772; 3866,091;   -1,909;    1,864
951,326; 3745,636;    0,545;   -0,955
951,879; 3857,818;    0,727;   -2,318
952,433; 3884,545;    0,000;    2,227
952,986; 3722,091;    2,909;    0,682
953,539; 3678,455;   -0,273;    0,591
954,093; 3628,091;    0,545;   -1,318
954,646; 3731,636;    0,909;    1,318
955,199; 3559,636;    0,000;   -0,500
955,752; 3439,545;   -0,455;    1,773
956,305; 3421,273;   -0,091;    2,955
956,858; 3558,455;    0,818;   -0,318
957,411; 3732,455;   -0,545;    2,136
957,964; 3578,364;    1,364;    2,136
958,517; 3537,909;   -1,545;    3,136
959,070; 3389,909;   -0,455;    1,955
959,623; 3476,545;    1,091;    1,500
960,176; 3232,273;    1,727;    2,045
960,728; 3216,364;   -2,727;    0,773
961,281; 3283,636;    0,545;    0,500
961,834; 3321,364;   -0,909;    0,864
962,386; 3249,545;    1,727;    1,045
962,939; 3181,455;    0,364;   -0,318
963,491; 3322,545;    0,455;    1,136
964,043; 3191,000;    1,182;    2,409
964,596; 3306,182;   -1,000;    2,227
965,148; 3151,182;   -1,000;    1,773
965,700; 3074,000;    1,091;   -0,227
966,253; 3223,182;   -0,636;    0,318
966,805; 3065,818;   -2,273;    0,773
967,357; 3122,545;    1,091;   -1,500
967,909; 3071,818;    0,455;   -1,227
968,461; 3161,545;    0,545;    3,136
969,013; 3084,273;   -0,182;   -0,864
969,565; 3160,273;   -0,455;   -1,136
970,117; 3250,000;   -0,364;    1,045
970,669; 3075,727;    0,182;   -0,136
971,220; 2964,909;   -0,455;   -1,500
971,772; 2871,273;   -0,636;   -0,318
972,324; 2980,364;    0,091;   -0,500
972,876; 2952,000;    0,818;   -0,045
973,427; 3080,000;    1,909;   -1,045
973,979; 3055,000;   -0,727;   -2,500
974,530; 3092,636;    1,818;    1,318
975,082; 3093,000;   -0,545;    1,682
975,633; 2998,909;    1,091;    1,682
976,184; 3130,091;    0,909;    0,773
976,736; 2917,818;    0,091;    0,227
977,287; 2742,636;   -0,909;   -0,500
977,838; 2912,182;    0,909;   -0,318
978,389; 2969,818;   -1,000;   -0,500
978,940; 2854,364;    0,545;   -0,409
979,491; 2881,727;    0,091;   -0,500
980,042; 2847,091;    0,182;    3,045
980,593; 2890,364;   -2,545;    0,227
981,144; 2927,273;    2,545;   -0,500
981,695; 2899,909;    1,455;    1,500
982,246; 2867,364;   -0,273;    1,045
982,797; 3028,545;   -1,727;    0,682
983,347; 3129,909;    0,364;    0,591
983,898; 3288,273;    3,091;    0,409
984,449; 3112,182;    2,182;    0,773
984,999; 3019,818;    1,455;   -1,136
985,550; 2817,091;    0,182;   -0,318
986,100; 2857,545;   -0,455;   -0,318
986,651; 2892,727;   -0,818;    0,045
987,201; 2865,909;   -1,000;   -0,591
987,751; 2938,545;    0,818;    2,864
988,302; 2912,909;    2,636;    1,500
988,852; 2938,455;    0,455;   -1,136
989,402; 2998,273;    0,091;    0,682
989,952; 2902,273;   -2,182;    0,864
990,502; 3010,636;   -0,091;    0,682
991,052; 2967,545;   -0,727;    0,045
991,602; 2844,727;   -2,909;    1,318
992,152; 2852,727;    0,455;    0,682
992,702; 2815,091;    1,364;   -0,045
993,252; 2731,818;   -3,000;   -0,500
993,802; 2830,182;   -0,273;    1,318
994,352; 3058,545;   -1,545;    1,136
994,901; 3135,000;   -0,182;    3,227
995,451; 3048,091;   -0,182;    0,318
996,000; 3144,273;    1,636;    0,318
996,550; 2875,909;    2,273;    0,227
997,100; 2879,364;    1,273;   -0,045
997,649; 3139,909;    2,182;    0,955
998,198; 2803,273;    1,727;   -1,500
998,748; 2982,364;    1,091;   -2,318
999,297; 2902,000;   -0,818;   -0,409
999,846; 2968,909;    1,000;   -0,773
1000,395; 3010,182;   -0,818;    0,500
1000,945; 2958,545;    1,818;   -0,773
1001,494; 3052,909;    2,364;    0,682
1002,043; 3036,636;    4,636;    0,864
1002,592; 2877,909;   -1,091;    1,955
1003,141; 3022,455;   -0,455;   -0,682
1003,690; 2895,727;    1,727;    0,500
1004,238; 2976,091;    1,455;   -0,045
1004,787; 2615,455;    1,364;    1,227
1005,336; 2842,818;    0,364;    0,682
1005,885; 2976,364;    1,364;   -2,773
1006,433; 3107,636;    0,545;    0,955
1006,982; 3165,364;    0,455;    1,682
1007,531; 3091,545;   -1,818;   -0,227
1008,079; 3040,273;   -2,273;    0,500
1008,627; 3178,818;   -1,455;    0,409
1009,176; 2924,091;    0,000;   -1,955
1009,724; 2970,818;    1,091;    0,864
1010,273; 3015,455;    1,273;    0,500
1010,821; 3138,000;    0,091;    1,409
1011,369; 2886,727;   -1,364;    1,318
1011,917; 2847,455;   -1,364;   -0,591
1012,465; 3136,182;    1,273;   -1,591
1013,013; 3245,091;    2,091;   -1,682
1013,561; 3109,364;    0,455;   -0,773
1014,109; 3160,273;   -1,909;    1,682
1014,657; 3040,455;    0,364;    0,591
1015,205; 3158,182;    1,636;   -0,955
1015,753; 3198,182;   -0,545;   -1,409
1016,301; 3259,273;   -2,636;    3,045
1016,848; 3254,727;   -1,273;    0,409
1017,396; 3289,636;    2,545;    0,045
1017,944; 3411,545;    1,182;    1,864
1018,491; 3184,545;    0,273;    1,409
1019,039; 3305,636;    0,455;    0,591
1019,586; 3243,364;   -1,364;    1,682
1020,134; 3365,545;    0,455;    1,500
1020,681; 3369,727;    0,182;   -1,136
1021,228; 3384,455;    2,909;   -2,227
1021,776; 3212,636;    1,182;   -1,136
1022,323; 3427,455;    0,455;    0,773
1022,870; 3361,182;   -1,000;   -0,045
1023,417; 3269,455;    2,636;    1,864
1023,964; 3402,000;    2,636;    1,227
1024,511; 3238,000;    1,000;    0,773
1025,058; 3042,818;    3,182;   -0,045
1025,605; 3101,727;   -2,273;    3,136
1026,152; 3306,818;    1,727;   -0,591
1026,699; 3046,000;    1,818;    1,318
1027,245; 3220,909;   -0,091;    0,318
1027,792; 3431,182;   -1,000;    1,409
1028,339; 3321,091;    2,364;   -0,045
1028,885; 3157,818;    1,000;   -0,227
1029,432; 3097,091;   -0,091;    0,227
1029,978; 3159,364;   -1,000;   -1,591
1030,525; 3065,091;    1,000;    0,409
1031,071; 3318,455;   -1,364;    1,136
1031,618; 3417,364;    0,364;    1,682
1032,164; 3211,818;   -0,091;    3,045
1032,710; 3251,727;    1,636;   -1,500
1033,256; 3167,000;   -0,636;   -0,136
1033,803; 3154,818;   -0,545;    1,500
1034,349; 2880,455;   -1,364;    0,136
1034,895; 3044,727;    0,000;   -0,318
1035,441; 3003,455;   -0,818;    0,318
1035,987; 3011,364;   -2,364;   -0,682
1036,533; 2999,364;   -1,455;   -0,955
1037,078; 3203,636;    1,455;    1,682
1037,624; 3026,364;    2,455;   -0,955
1038,170; 3065,545;    0,455;   -0,318
1038,716; 2964,636;    1,636;   -0,409
1039,261; 2892,909;   -2,273;   -0,773
1039,807; 2824,455;   -0,091;    3,409
1040,352; 2907,727;   -1,909;   -0,318
1040,898; 2928,818;   -1,545;   -0,682
1041,443; 2835,455;   -1,455;   -2,591
1041,989; 2855,909;    1,091;    1,591
1042,534; 2755,818;   -0,364;    2,591
1043,079; 2873,818;    2,909;    0,955
1043,625; 2640,182;    1,818;    0,500
1044,170; 2681,000;   -1,364;    1,045
1044,715; 2942,364;    2,455;    0,955
1045,260; 2771,364;    2,182;   -0,955
1045,805; 2830,364;    1,182;   -0,591
1046,350; 2755,091;    1,364;   -0,409
1046,895; 2691,364;    2,909;    1,591
1047,440; 2646,000;    5,364;    0,409
1047,985; 2564,818;    2,818;   -0,955
1048,530; 2489,182;    1,545;    1,227
1049,074; 2557,182;    0,000;    0,318
1049,619; 2528,818;   -1,364;    1,955
1050,164; 2330,000;    0,455;    0,227
1050,708; 2366,727;   -0,455;    0,045
1051,253; 2729,727;    1,273;   -2,227
1051,797; 2440,636;    0,818;   -1,318
1052,342; 2450,091;   -1,182;    1,045
1052,886; 2454,273;    0,364;   -1,409
1053,430; 2348,182;   -1,364;    0,136
1053,975; 2363,364;   -0,818;   -0,318
1054,519; 2328,182;   -0,727;    3,227
1055,063; 2333,364;    0,909;    1,318
1055,607; 2214,727;   -0,182;    0,227
1056,151; 2256,000;    2,909;    1,682
1056,695; 2176,909;    2,273;   -1,136
1057,239; 2242,545;   -1,727;   -0,682
1057,783; 2259,364;    0,818;   -1,500
1058,327; 2180,818;    0,000;    1,409
1058,871; 2401,909;   -0,545;    1,318
1059,415; 2121,636;   -0,818;   -0,045
1059,958; 2380,182;    1,455;    2,591
1060,502; 2098,091;   -1,000;   -0,773
1061,046; 2017,909;    0,364;   -0,955
1061,589; 2006,545;   -3,000;   -1,136
1062,133; 1885,727;   -1,273;    1,864
1062,676; 1804,182;    1,182;    0,864
1063,220; 1817,273;    1,091;    0,500
1063,763; 1835,455;    0,909;    1,136
1064,306; 1910,545;   -0,909;    1,864
1064,849; 1805,455;   -0,909;    0,591
1065,393; 1808,364;    2,000;   -1,500
1065,936; 1928,818;    0,182;   -0,409
1066,479; 1834,364;   -1,455;    1,318
1067,022; 1843,818;   -0,273;   -0,227
1067,565; 1722,818;   -0,091;   -1,318
1068,108; 1748,545;    0,727;   -0,591
1068,651; 1729,818;   -0,636;    1,409
1069,194; 1666,091;   -0,455;   -1,682
1069,736; 1660,364;   -1,273;    0,955
1070,279; 1645,909;   -1,364;   -0,500
1070,822; 1688,182;   -2,000;   -0,318
1071,364; 1768,273;   -0,364;    1,318
1071,907; 1594,091;   -0,727;    3,227
1072,450; 1503,455;    0,000;   -0,045
1072,992; 1494,545;   -0,273;    3,136
1073,535; 1627,909;    2,091;    2,136
1074,077; 1433,727;   -0,727;    2,045
1074,619; 1407,000;   -1,364;    0,591
1075,161; 1432,455;   -1,091;    1,500
1075,704; 1608,364;    1,545;    1,227
1076,246; 1413,727;   -0,182;    0,682
1076,788; 1344,364;   -0,364;    1,773
1077,330; 1409,364;    1,273;    2,136
1077,872; 1379,091;    0,909;    0,955
1078,414; 1584,455;    2,727;    0,773
1078,956; 1320,455;    1,273;   -0,227
1079,498; 1580,636;    1,636;    0,318
1080,040; 1278,727;    1,909;   -1,318
1080,581; 1222,182;    1,636;   -0,318
1081,123; 1155,273;    0,091;   -0,773
1081,665; 1223,636;   -1,182;   -0,955
1082,206; 1503,909;    1,364;   -0,500
1082,748; 1364,091;    0,727;    2,045
1083,289; 1235,000;   -2,000;    1,318
1083,831; 1153,909;   -0,545;    0,227
1084,372; 1187,455;    0,000;    0,591
1084,913; 1194,455;    1,091;    0,864
1085,455; 1163,727;   -1,909;   -2,045
1085,996; 1121,636;   -2,273;    0,136
1086,537; 1140,091;   -0,091;    0,864
1087,078; 1170,364;   -0,909;   -2,136
1087,619; 1220,455;   -1,273;    0,227
1088,160; 1136,182;    0,000;    1,318
1088,701; 1122,000;   -1,091;    0,682
1089,242; 1058,000;    1,364;   -2,227
1089,783; 1155,455;   -0,273;    1,409
1090,324; 1123,000;    0,455;    0,682
1090,865; 1010,273;    2,727;   -0,409
1091,405;  985,182;    0,727;    2,227
1091,946;  995,273;    0,182;   -0,955
1092,487;  930,455;    0,818;   -1,409
1093,027; 1092,818;   -1,364;   -1,500
1093,568;  943,455;   -0,364;    1,227
1094,108; 1047,091;    0,273;    1,773
1094,649;  979,455;   -1,182;    0,136
1095,189;  928,000;   -0,636;   -0,682
1095,729;  869,545;   -0,091;    0,955
1096,269;  874,364;    0,727;   -0,955
1096,810; 1180,818;   -1,364;    0,500
1097,350; 1003,364;    1,364;   -0,773
1097,890;  914,455;    0,364;    1,227
1098,430; 1169,455;    2,364;    2,864
1098,970; 1039,636;    2,182;    1,682
1099,510;  897,545;    0,545;   -2,318
1100,050;  836,545;    1,000;   -1,591
1100,589;  797,636;   -0,727;   -0,318
1101,129;  932,000;    0,818;   -0,955
1101,669; 1073,364;    1,727;    2,136
1102,209;  893,455;   -0,091;    2,227
1102,748;  848,364;    0,000;    0,955
1103,288;  829,545;    1,273;   -1,227
1103,827;  866,091;    3,091;   -2,227
1104,367;  731,455;   -0,091;   -2,409
1104,906;  703,818;    1,364;   -1,136
1105,445;  774,000;    0,636;   -1,136
1105,985;  713,636;   -0,727;    1,500
1106,524;  768,909;   -1,727;   -0,682
1107,063;  755,455;   -2,727;    1,409
1107,602;  716,455;   -1,909;   -1,500
1108,141;  651,727;   -1,909;    1,500
1108,680;  749,636;   -3,455;   -0,591
1109,219;  676,000;   -0,909;   -0,500
1109,758;  680,727;    0,455;    0,682
1110,297;  649,182;    1,000;   -0,682
1110,836;  595,545;   -0,727;    0,955
1111,375;  763,273;   -2,545;    0,409
1111,913;  772,091;   -1,000;    0,773
1112,452;  707,818;   -0,273;    0,136
1112,991;  602,000;    1,091;    1,955
1113,529;  558,636;   -0,818;   -0,045
1114,068;  624,364;   -0,273;    2,955
1114,606;  519,909;   -0,364;   -0,955
1115,144;  686,545;   -1,273;    1,045
1115,683;  611,364;   -0,727;    0,318
1116,221;  668,636;   -0,455;   -0,864
1116,759;  578,091;    0,636;   -0,864
1117,297;  765,364;    0,000;    1,864
1117,836;  575,364;   -2,182;   -1,227
1118,374;  588,818;    0,182;   -0,682
1118,912;  531,000;    0,909;    2,682
1119,450;  516,727;    1,000;    0,864
1119,988;  565,364;    1,545;    2,136
1120,525; 1019,182;    5,091;    3,318
1121,063;  724,727;    1,182;    1,864
1121,601;  531,636;   -0,909;   -1,227
1122,139;  479,909;   -0,727;   -2,045
1122,676;  679,182;   -0,727;    2,773
1123,214;  612,636;   -1,182;    4,409
1123,751;  429,818;    1,727;    2,227
1124,289;  557,455;   -0,091;   -0,409
1124,826;  422,727;    1,727;    0,227
1125,364;  347,909;    1,727;   -0,955
1125,901;  531,455;    1,182;    1,227
1126,438;  638,545;    0,818;    0,955
1126,975;  378,455;   -0,727;   -0,773
1127,513;  451,182;    0,273;    2,136
1128,050;  360,636;    1,636;   -0,682
1128,587;  456,182;    2,000;   -0,227
1129,124;  497,545;    0,091;    1,318
1129,661;  365,273;    0,273;    0,227
1130,198;  529,091;    1,636;    0,773
1130,734;  466,818;    0,182;    1,409
1131,271;  326,273;   -0,909;    0,864
1131,808;  488,455;    2,909;    3,045
1132,345;  374,182;    1,545;    0,318
1132,881;  251,091;   -1,545;   -1,864
1133,418;  390,455;    0,727;   -1,136
1133,954;  331,364;    2,455;   -2,682
1134,491;  400,182;    1,364;   -0,773
1135,027;  298,818;    2,364;    0,864
1135,564;  379,818;    0,273;    2,955
1136,100;  365,273;    0,364;    2,136
1136,636;  260,091;   -1,273;   -1,045
1137,172;  354,091;    0,000;   -1,045
1137,708;  282,091;   -1,364;   -1,045
1138,245;  284,273;    1,273;   -1,227
1138,781;  232,909;    1,091;   -3,318
1139,317;  295,091;    1,273;   -1,409
1139,852;  288,000;    3,091;    0,136
1140,388;  406,727;   -1,182;   -0,409
1140,924;  286,273;   -1,091;   -2,227
1141,460;  224,364;   -1,636;    0,136
1141,996;  162,000;   -1,364;    2,682
1142,531;  208,455;    1,364;    3,318
1143,067;  434,455;    1,182;    1,045
1143,602;  479,455;   -0,091;   -0,318
1144,138;  327,091;   -2,636;    1,045
1144,673;  194,364;   -1,455;    1,409
1145,209;  260,000;   -1,909;   -0,318
1145,744;  180,182;   -0,727;    0,864
1146,279;  313,909;    1,818;   -0,136
1146,815;  232,909;    1,545;   -2,682
1147,350;  273,545;   -1,364;    0,045
1147,885;  181,727;   -0,818;   -1,318
1148,420;  187,000;   -2,273;    0,773
1148,955;  163,636;   -1,727;    1,864
1149,490;  180,182;   -0,909;   -1,591
1150,025;  164,727;    0,455;   -1,773
1150,560;  274,182;    1,091;   -0,955
1151,094;  256,182;    1,455;   -0,591
1151,629;  262,455;    1,636;    0,864
1152,164;  192,273;    1,364;    1,318
1152,698;  140,545;   -0,182;   -0,136
1153,233;  102,545;    0,091;   -0,682
1153,767;  141,727;   -3,000;   -2,318
1154,302;  194,909;   -1,455;    1,773
1154,836;  203,545;   -0,455;   -2,136
1155,371;  252,818;   -1,364;    3,682
1155,905;  202,455;   -0,636;    1,682
1156,439;  172,909;   -0,636;   -0,500
1156,973;  196,818;    0,364;    0,318
1157,507;  135,000;   -0,364;    0,682
1158,042;  170,909;   -0,727;    1,045
1158,576;  217,636;    0,182;    1,773
1159,110;  193,636;   -0,818;    2,409
1159,643;  168,818;    0,636;   -0,045
1160,177;  112,000;   -1,545;    1,500

