
Integration time [ms]:   0,040
Averaging Nr. [scans]: 11
Smoothing Nr. [pixels]: 0
Data measured with spectrometer [name]: 7318044SP
Wave   ;Sample   ;Dark     ;Reference
[nm]   ;[counts] ;[counts] ;[counts] 

186,757;   12,501;   31,551;    1,318
187,357;   26,319;   22,551;    0,955
187,958;   13,384;   15,460;   -1,591
188,558;   53,499;    8,915;   -1,227
189,159;   16,050;    6,733;   -4,500
189,759;   -6,436;    7,278;   -3,591
190,360;  -10,516;    2,824;   -2,136
190,960;    8,797;    2,915;   -4,136
191,560;   23,171;    3,189;   -6,591
192,161;  218,334;    4,372;   -3,500
192,761;   85,025;    4,010;   -3,227
193,361;   38,762;    1,556;   -3,773
193,962;   80,190;    2,010;   -2,682
194,562;    9,784;    1,189;   -3,955
195,162;   17,655;   -2,448;   -2,227
195,762;  130,934;   -3,176;   -0,045
196,362;   88,221;    1,370;   -2,500
196,963;   10,998;    2,006;   -0,864
197,563;   44,046;    1,551;   -0,955
198,163;    6,661;    0,096;   -0,682
198,763;   10,400;    1,733;   -0,500
199,363;   58,282;    3,096;   -0,500
199,963;   27,955;    0,369;    0,409
200,563;   16,000;    2,823;   -1,409
201,163;    2,231;    3,277;   -0,227
201,763;   33,225;    3,732;    0,318
202,363;    9,114;    1,459;    1,500
202,963;   38,738;    1,459;    1,045
203,563;   86,939;    0,277;    0,500
204,162;   19,125;    2,096;   -1,864
204,762;   20,992;    0,550;    0,591
205,362;   -7,967;    3,004;    1,955
205,962;   25,229;    3,096;    1,955
206,562;   21,326;    1,823;    2,318
207,161;    4,519;   -0,087;    0,318
207,761;   71,175;    1,277;    2,409
208,361;    7,400;   -0,268;    1,409
208,960;   30,018;    0,459;    1,500
209,560;   26,632;    1,277;    1,591
210,160;   34,343;    0,550;    1,864
210,759;   22,453;    4,186;    1,227
211,359;   16,103;    1,459;    1,045
211,958;  109,710;    1,277;    2,045
212,558;  102,976;    1,732;    1,864
213,157;   43,900;    1,822;    1,500
213,757;  178,565;    3,822;   -0,227
214,356;   74,486;    1,277;   -0,409
214,956;  156,786;    3,095;    0,409
215,555;   42,661;    2,095;    2,136
216,154;   15,146;   -2,723;   -0,591
216,754;   17,690;    0,277;    0,773
217,353;   30,635;   -0,268;   -1,045
217,952;  -11,619;   -0,178;    0,318
218,552;   52,928;    1,368;   -0,773
219,151;   10,700;    0,277;    0,955
219,750;   -2,945;    0,004;   -0,227
220,349;  -11,279;   -0,451;    1,045
220,948;   59,101;   -1,360;    1,136
221,548;    9,376;    0,913;    1,227
222,147;   13,037;   -0,087;   -0,409
222,746;   90,097;   -0,451;   -0,955
223,345;   38,376;    0,731;    0,500
223,944;   27,051;   -0,451;    0,773
224,543;   34,400;    1,004;   -1,409
225,142;   30,277;    0,094;    0,136
225,741;   32,574;   -0,814;    1,045
226,340;   31,155;   -0,451;   -0,955
226,939;   76,308;   -0,996;   -0,136
227,538;   13,964;   -0,360;   -0,773
228,137;   79,632;   -0,814;    0,864
228,735;   49,539;   -0,541;    1,227
229,334;  -10,554;   -0,905;   -0,227
229,933;   76,328;    0,459;    0,591
230,532;   80,587;    1,186;   -0,409
231,131;  120,427;    1,732;    0,318
231,729;   52,141;   -2,450;   -2,318
232,328;   14,561;   -0,723;   -1,500
232,927;   25,299;    1,004;   -0,500
233,525;   23,468;    3,640;    0,045
234,124;   30,647;    2,368;   -1,591
234,723;    3,929;    0,913;   -1,045
235,321;   -2,083;    2,277;    0,136
235,920;    7,415;    1,186;   -1,227
236,518;   85,038;    3,459;    0,318
237,117;   11,801;    0,004;   -0,227
237,715;   20,508;    0,640;   -0,500
238,314;   34,591;   -0,087;   -2,318
238,912;   83,803;   -0,723;   -1,409
239,510;   51,617;    0,459;   -1,227
240,109;   89,775;    0,004;    3,773
240,707;   73,932;   -0,996;    1,227
241,305;    9,788;    0,550;    0,136
241,904;   42,334;   -0,178;   -2,045
242,502;  102,519;   -0,632;   -0,227
243,100;   57,051;   -0,087;   -0,955
243,698;   18,485;    0,732;    1,682
244,297;   35,811;   -0,632;    0,682
244,895;   38,187;   -0,269;   -2,318
245,493;  120,077;    2,186;   -0,591
246,091;  130,224;    1,368;   -1,318
246,689;   82,495;    1,004;    0,591
247,287;   67,645;    0,822;   -1,136
247,885;   47,304;   -1,451;    1,227
248,483;   31,341;    1,822;   -0,500
249,081;   98,113;    0,185;    1,591
249,679;  115,685;   -0,178;    1,682
250,277;   41,660;   -1,723;    0,864
250,875;  108,325;   -1,087;   -1,045
251,473;   71,833;   -1,178;    0,500
252,071;  134,432;    1,459;    1,045
252,669;   73,505;   -1,814;    0,318
253,267;   57,453;   -0,087;    0,773
253,864;   91,918;   -0,360;    0,682
254,462;  191,574;    1,640;    1,591
255,060;   70,022;   -0,269;    1,318
255,658;   75,233;    0,822;   -0,136
256,255;  108,189;    0,186;   -2,045
256,853;  143,668;   -0,269;    1,409
257,451;  130,075;    0,822;    1,864
258,048;  419,524;    1,822;    1,864
258,646;  227,754;    1,731;   -1,045
259,243;  295,213;   -0,087;    2,227
259,841;  213,658;   -0,814;    0,318
260,438;  117,547;   -0,087;    0,864
261,036;  216,025;   -1,905;    1,409
261,633;  130,417;   -0,087;    2,227
262,231;  106,078;    2,731;   -0,045
262,828;  108,199;   -0,905;    1,136
263,425;  162,612;    0,913;   -0,591
264,023;  179,386;    0,186;    0,045
264,620;  310,479;   -0,360;   -0,318
265,217;  427,870;   -2,087;    3,136
265,815;  212,202;   -1,905;    2,136
266,412;  310,691;    0,731;    0,136
267,009;  337,074;   -1,451;    0,773
267,606;  408,572;    0,822;   -0,955
268,203;  253,787;   -0,269;   -0,591
268,801;  290,717;    1,731;    0,591
269,398;  207,338;   -0,360;    2,500
269,995;  360,562;    0,277;    1,591
270,592;  305,386;   -0,632;   -0,500
271,189;  226,824;    0,186;    0,409
271,786;  206,462;   -0,632;    1,227
272,383;  425,845;   -1,087;    0,227
272,980;  292,500;    0,277;    0,318
273,577;  241,191;    0,004;    1,227
274,174;  231,044;    0,822;    2,591
274,771;  355,233;   -0,814;   -0,773
275,367;  689,008;    2,277;    1,409
275,964;  503,628;    0,731;   -0,500
276,561;  315,054;    1,549;   -1,045
277,158;  240,685;    0,095;   -1,773
277,755;  471,204;    2,185;    0,409
278,351;  369,935;   -0,451;   -1,500
278,948;  435,718;   -0,815;    0,045
279,545;  384,099;   -1,360;    2,318
280,141;  557,070;   -1,723;   -2,045
280,738;  517,867;   -0,451;   -0,136
281,334;  331,066;   -1,633;    0,591
281,931;  361,163;   -0,087;   -1,318
282,528;  474,370;    0,822;   -0,500
283,124;  556,210;   -1,087;   -0,500
283,721;  550,977;   -0,451;    1,409
284,317;  408,771;    0,185;    2,500
284,913;  607,312;   -1,360;    0,591
285,510;  858,403;    0,640;   -0,318
286,106;  672,176;   -2,269;   -0,955
286,703;  464,411;   -0,360;    1,955
287,299;  422,476;   -1,451;   -0,591
287,895;  430,510;    0,822;   -1,045
288,491;  432,702;    0,186;    2,136
289,088;  580,227;   -2,360;    2,409
289,684;  664,596;   -1,723;    1,500
290,280;  845,612;    0,368;    0,682
290,876;  817,447;    1,822;    5,500
291,472;  737,625;    1,276;    2,227
292,068;  786,451;    1,367;    0,227
292,665;  664,021;    2,095;    0,773
293,261;  575,462;    0,276;    2,136
293,857;  844,337;    2,913;    2,136
294,453;  791,236;    3,550;    0,955
295,049; 1060,508;   -0,268;    1,955
295,644;  908,145;    0,095;    0,136
296,240;  802,277;   -0,905;   -0,136
296,836; 1006,070;   -0,995;    0,318
297,432; 1232,626;    1,096;   -0,500
298,028; 1347,415;    0,732;    0,773
298,624; 1232,528;    1,459;    1,864
299,220; 1265,669;    2,368;    0,591
299,815; 1253,471;    1,005;   -0,409
300,411; 1389,053;    0,914;    1,773
301,007; 1567,320;    1,368;    0,227
301,602; 1410,224;   -0,541;   -2,318
302,198; 1588,582;    0,732;   -0,773
302,794; 1535,544;    1,187;   -0,500
303,389; 1565,093;   -1,177;    1,045
303,985; 1662,975;    0,550;    1,409
304,580; 1759,270;    1,459;    1,591
305,176; 1665,841;   -3,086;    0,136
305,771; 1565,427;   -1,268;   -1,227
306,367; 1965,404;    4,095;    0,136
306,962; 1809,769;    0,641;    1,500
307,558; 1698,071;   -0,450;    0,136
308,153; 1799,933;    1,095;   -1,136
308,748; 1670,350;   -0,814;    1,682
309,344; 1999,344;   -0,632;   -1,318
309,939; 2058,365;   -1,905;   -1,318
310,534; 1786,945;   -0,086;   -1,682
311,130; 1665,412;    0,459;   -2,500
311,725; 1509,694;    1,004;   -0,500
312,320; 1605,741;    2,459;    0,045
312,915; 1745,674;    1,459;   -1,045
313,510; 1923,181;    1,550;   -0,500
314,105; 1739,779;    1,096;    1,409
314,700; 1412,152;   -3,086;   -1,045
315,295; 1430,725;   -0,904;    0,045
315,890; 1264,494;    1,277;    0,864
316,485; 1373,151;   -0,359;   -0,318
317,080; 1308,135;   -3,086;    1,591
317,675; 1616,742;    2,005;   -0,682
318,270; 1729,951;    5,550;    3,318
318,865; 1636,223;    3,278;    3,045
319,460; 1400,284;   -0,904;    0,591
320,055; 1261,364;   -0,541;   -1,227
320,650; 1191,327;   -1,995;   -0,591
321,244; 1186,187;   -0,177;   -1,409
321,839; 1319,701;   -1,541;   -0,227
322,434; 1341,650;   -1,086;   -1,591
323,029; 1196,624;    1,732;    1,591
323,623; 1132,804;    1,550;    0,773
324,218; 1289,070;    2,368;    1,409
324,812; 1214,545;    1,096;    1,591
325,407; 1222,829;   -0,814;    2,045
326,002; 1336,256;    0,277;   -0,409
326,596; 1302,512;    0,914;    1,318
327,191; 1197,341;    0,823;   -1,045
327,785; 1129,967;   -0,813;   -0,227
328,379; 1274,735;    1,368;    0,136
328,974; 1272,948;    0,914;   -3,955
329,568; 1389,032;    0,186;   -2,409
330,163; 1488,293;    2,096;    1,045
330,757; 1435,306;    2,459;    1,591
331,351; 1368,869;    0,459;    0,682
331,945; 1455,089;    0,914;    1,409
332,540; 1605,507;   -1,723;   -0,591
333,134; 1627,550;   -1,086;    0,773
333,728; 1685,112;    0,005;    0,318
334,322; 1775,764;   -1,177;   -0,864
334,916; 1647,077;    0,277;    0,955
335,510; 1946,807;   -0,450;   -0,136
336,105; 2124,068;   -1,086;    1,591
336,699; 1989,056;   -1,086;    0,591
337,293; 2076,408;   -1,723;    0,318
337,887; 2158,499;   -2,723;    1,955
338,481; 2395,809;    0,459;    0,591
339,074; 2667,440;   -0,359;    2,682
339,668; 2673,676;   -1,632;    1,227
340,262; 3355,491;    1,732;    3,227
340,856; 2934,330;    1,822;   -0,682
341,450; 2593,765;    1,004;    1,864
342,044; 3032,590;    1,459;    0,136
342,637; 3141,957;    0,913;   -2,136
343,231; 3215,954;   -2,360;    0,682
343,825; 3163,873;   -1,086;   -0,591
344,419; 3295,004;   -1,995;    0,500
345,012; 3677,661;    2,459;    4,045
345,606; 3634,896;    4,641;    1,591
346,199; 3516,094;   -1,813;   -0,227
346,793; 3486,149;    1,914;    2,045
347,386; 3588,059;   -0,813;   -1,136
347,980; 3570,984;   -0,268;   -0,045
348,573; 3631,208;    2,278;    0,409
349,167; 3680,066;    5,278;    4,773
349,760; 3927,463;    2,914;    2,682
350,354; 3888,258;   -0,813;    1,136
350,947; 3827,949;    1,096;    1,682
351,540; 3647,341;   -0,358;   -1,409
352,134; 3587,857;    1,096;    1,136
352,727; 3681,160;   -0,086;    1,136
353,320; 3649,530;    0,005;    0,591
353,913; 3498,294;   -1,995;    1,864
354,507; 3710,300;    0,823;   -1,227
355,100; 3763,566;    0,460;    0,864
355,693; 3559,888;    2,005;    2,409
356,286; 3429,038;    0,823;    2,773
356,879; 3568,192;   -0,722;    1,227
357,472; 3323,317;   -0,904;    1,500
358,065; 3467,541;   -0,722;    2,500
358,658; 3409,918;   -0,540;    2,318
359,251; 3202,284;   -1,631;   -0,591
359,844; 3045,083;   -1,904;   -1,136
360,437; 3157,992;   -2,995;    0,045
361,030; 3227,890;    1,369;   -0,682
361,623; 2987,072;    2,824;    0,318
362,215; 3057,659;   -0,086;    2,045
362,808; 2915,575;   -2,358;   -1,682
363,401; 2984,123;   -2,449;    0,136
363,994; 2996,264;   -0,631;   -1,500
364,586; 2841,898;    0,824;   -1,500
365,179; 2861,817;   -0,449;   -1,136
365,772; 2499,682;   -1,995;    2,045
366,364; 2626,496;    1,915;   -3,227
366,957; 2828,534;    2,279;   -0,045
367,549; 2708,097;    2,188;   -0,864
368,142; 2582,705;    1,825;   -1,500
368,734; 2614,952;    0,734;   -2,136
369,327; 2561,657;    1,643;   -0,500
369,919; 2516,407;   -1,538;    0,409
370,512; 2528,475;   -1,083;   -0,500
371,104; 2495,074;   -0,901;    1,591
371,696; 2593,443;    1,191;   -0,955
372,289; 2510,341;    0,373;    1,136
372,881; 2504,455;   -2,080;    1,318
373,473; 2360,258;   -2,170;    1,136
374,066; 2378,879;   -0,169;    0,500
374,658; 2313,530;    0,378;    1,136
375,250; 2374,102;    0,653;   -1,409
375,842; 2316,277;    0,473;   -0,045
376,434; 2222,027;   -0,435;   -0,409
377,026; 2485,634;    0,204;   -2,500
377,618; 2399,557;   -0,158;   -0,682
378,210; 2282,150;   -0,338;   -1,955
378,802; 2161,120;    0,754;   -0,591
379,394; 2437,093;    1,846;    0,682
379,986; 2477,679;    1,393;   -0,955
380,578; 2444,071;   -0,153;    0,773
381,170; 2350,212;   -0,972;    0,045
381,762; 2240,358;    0,755;    1,409
382,354; 2243,655;   -0,065;   -1,318
382,945; 2233,441;   -2,976;    0,318
383,537; 2300,219;   -2,705;   -1,955
384,129; 2344,676;   -2,160;   -1,136
384,721; 2428,892;   -0,252;    0,955
385,312; 2312,512;   -0,161;   -0,955
385,904; 2457,993;   -2,706;    1,591
386,496; 2115,500;   -0,979;    1,045
387,087; 2256,339;    1,022;    2,500
387,679; 2189,488;   -1,160;    0,045
388,270; 2286,371;    2,840;    2,045
388,862; 2288,238;    1,295;   -0,318
389,453; 2101,591;   -0,887;    1,045
390,045; 2284,651;   -0,705;   -2,682
390,636; 2253,226;    0,204;   -0,591
391,227; 2178,265;   -0,523;   -0,045
391,819; 2268,011;    0,204;    0,773
392,410; 2406,735;    1,022;    0,045
393,001; 2302,301;   -0,979;   -1,591
393,593; 2423,712;    1,930;   -0,045
394,184; 2387,030;    1,385;   -0,409
394,775; 2185,335;    1,839;    2,136
395,366; 2341,445;    1,385;    0,773
395,957; 2383,859;    0,113;    0,136
396,548; 2434,161;   -0,342;    2,682
397,139; 2634,388;   -2,433;    0,591
397,730; 2443,139;   -1,888;    0,955
398,321; 2462,530;   -1,252;    0,955
398,912; 2416,570;   -0,615;    0,136
399,503; 2516,053;   -3,524;   -1,409
400,094; 2280,375;    0,294;    1,682
400,685; 2235,556;   -0,433;    0,045
401,276; 2169,638;    0,930;   -0,955
401,867; 2290,205;   -0,888;    0,773
402,458; 2303,333;   -2,251;   -2,318
403,048; 2374,031;    1,112;    0,591
403,639; 2135,542;    0,840;    0,864
404,230; 2412,428;    2,476;    0,318
404,821; 2394,053;   -0,615;    0,045
405,411; 2330,559;    1,203;   -2,591
406,002; 2082,882;   -1,252;   -1,136
406,592; 2247,547;    2,294;    0,045
407,183; 2169,434;    0,566;   -1,500
407,774; 2060,934;    3,475;   -0,136
408,364; 2108,074;    0,930;    0,409
408,954; 2073,147;    0,384;    1,227
409,545; 2027,053;    1,021;    1,045
410,135; 1789,266;    1,293;    0,500
410,726; 1767,172;    1,838;    0,318
411,316; 1992,646;    0,111;    0,773
411,906; 1716,338;   -0,253;   -0,409
412,497; 1565,963;   -1,070;   -0,045
413,087; 1637,572;   -1,980;   -0,227
413,677; 1680,748;   -0,707;    3,864
414,267; 1556,531;    0,656;    1,409
414,857; 1458,720;   -2,980;    4,227
415,448; 1484,154;    0,839;    0,500
416,038; 1394,827;    0,020;   -0,591
416,628; 1368,472;   -0,889;    0,409
417,218; 1370,094;    0,565;    3,318
417,808; 1508,828;    0,202;   -0,409
418,398; 1336,041;    0,020;    2,682
418,988; 1155,562;    2,020;    0,591
419,578; 1203,906;   -0,707;    1,409
420,168; 1228,613;   -1,343;   -0,955
420,757; 1285,730;   -1,343;   -1,500
421,347; 1060,132;    0,111;   -0,227
421,937;  992,159;    2,292;    1,409
422,527; 1105,629;    0,838;   -0,773
423,116; 1218,980;   -0,253;   -0,045
423,706;  886,964;   -1,889;    0,318
424,296;  749,962;    1,384;    0,682
424,885;  961,234;   -0,071;   -3,045
425,475;  885,433;    1,474;   -2,864
426,065;  688,553;   -0,980;   -0,318
426,654;  638,479;   -0,435;   -0,318
427,244;  989,378;    0,020;    1,409
427,833;  906,097;    1,383;   -0,500
428,423;  687,799;   -0,526;    1,136
429,012;  708,830;   -0,344;   -1,136
429,601;  828,422;   -1,344;    0,136
430,191;  642,514;    1,292;    4,318
430,780;  445,134;   -0,344;   -0,409
431,369;  728,423;    0,746;   -0,045
431,959;  589,096;   -1,254;    0,500
432,548;  457,130;   -1,163;   -0,045
433,137;  332,962;   -1,254;   -1,318
433,726;  448,042;    0,292;    0,500
434,315;  440,476;   -0,526;    2,409
434,905;  570,007;   -1,254;    1,409
435,494;  574,742;    0,746;    0,955
436,083;  348,654;   -0,981;   -0,955
436,672;  425,758;    0,110;    0,500
437,261;  349,025;    0,292;   -1,955
437,850;  654,892;    1,383;    0,682
438,439;  684,903;    3,291;    1,955
439,027;  792,913;    3,655;    1,773
439,616;  703,875;    2,927;    1,227
440,205;  401,186;    0,200;   -2,136
440,794;  312,062;    2,109;   -0,045
441,383;  198,697;   -1,346;   -0,591
441,971;  125,419;   -2,436;    0,591
442,560;  132,750;    0,563;   -1,773
443,149;   16,555;    0,379;   -1,318
443,737;   79,867;   -0,074;   -2,318
444,326;  102,026;    0,018;    0,318
444,915;  150,778;   -1,982;    0,864
445,503;  146,039;   -2,891;   -0,318
446,092;  415,139;    0,382;    2,136
446,680;  332,610;    0,382;    0,318
447,269;  228,590;   -0,346;   -0,318
447,857;  197,703;    0,018;   -1,773
448,445;  135,287;    0,563;    1,318
449,034;   63,675;   -1,528;   -1,136
449,622;   63,221;   -1,073;    3,500
450,210;  366,907;    2,017;    2,227
450,799;  264,914;    0,290;   -0,591
451,387;  213,318;    1,381;   -0,591
451,975;  190,487;    2,654;    0,864
452,563;  268,345;    3,472;    2,318
453,151;   84,378;   -0,528;   -1,227
453,739;  128,121;   -1,347;    0,136
454,328;  232,621;    2,381;   -2,136
454,916;  154,761;    2,562;   -0,136
455,504;  175,775;    1,017;    1,227
456,092;   54,427;    0,017;   -1,591
456,679;   15,218;    1,472;    0,682
457,267;  428,331;    4,017;    1,045
457,855;  113,860;    1,017;    1,409
458,443;  -31,931;   -0,165;    1,682
459,031;  121,143;    0,108;    2,409
459,619;   78,643;   -1,801;    2,864
460,206;  -15,044;    0,835;    2,045
460,794;   -8,633;   -2,983;   -0,227
461,382;   33,431;   -0,529;   -0,864
461,970;   35,824;    1,198;    1,864
462,557;  -42,602;   -0,711;   -0,682
463,145;   76,537;   -3,165;   -1,682
463,732;  319,391;    2,016;   -1,045
464,320;   85,995;   -0,075;   -3,045
464,907;  228,863;    2,743;   -0,773
465,495;  138,341;    0,743;   -1,227
466,082;   61,295;   -1,984;   -0,045
466,670;   81,390;   -2,529;    1,227
467,257;  -18,417;   -1,711;    2,045
467,844;   84,079;   -0,075;    0,045
468,432;   58,660;    0,834;    3,500
469,019;   22,479;    0,925;   -1,773
469,606;  101,157;    0,470;    3,682
470,193;  121,622;   -1,439;    0,227
470,780;   87,013;   -2,075;    0,864
471,368;   13,973;   -1,257;   -0,773
471,955;  115,963;    1,379;   -0,682
472,542;   84,387;    0,652;   -1,136
473,129;  -24,879;   -0,166;    0,136
473,716;  -20,009;    1,470;    0,591
474,303;    8,812;    0,652;   -0,864
474,890;   13,714;   -1,439;   -0,500
475,477;  117,334;   -1,621;    0,409
476,064;   16,458;    1,106;   -1,591
476,650;  132,701;    0,288;    0,318
477,237;   38,156;   -0,258;    0,955
477,824;   24,103;   -1,076;    0,864
478,411;  -51,357;   -1,894;   -0,318
478,997;  -53,512;    0,560;   -0,773
479,584; -102,600;    1,196;   -0,409
480,171;   65,841;   -0,440;   -0,773
480,757;  113,811;    2,651;    0,773
481,344;   11,176;    0,469;    0,409
481,931;  -63,853;    1,105;    1,045
482,517;   53,926;   -1,258;    0,318
483,104;  133,551;    1,106;    2,864
483,690;    3,737;   -1,804;    0,045
484,276;  -16,571;   -0,895;    0,227
484,863;  191,868;    2,469;    1,136
485,449;   49,358;   -0,077;    0,318
486,035;   -5,425;   -1,986;   -0,136
486,622;   77,551;   -0,895;    0,045
487,208;    4,082;    1,378;    1,500
487,794;  -76,866;    0,741;    0,318
488,380;  -70,039;    0,105;   -1,409
488,967;  -52,631;   -1,168;   -0,409
489,553;  -53,073;   -1,895;   -1,409
490,139;   27,717;    1,559;    0,773
490,725;  -40,277;    0,741;   -0,227
491,311;    3,686;    3,287;    3,045
491,897;  -12,038;   -0,986;    1,500
492,483;    0,548;    0,105;    1,227
493,069;  419,209;    3,923;    0,864
493,655;  138,170;    1,650;    0,682
494,241;   10,770;    1,377;   -0,955
494,826;   23,926;    0,287;   -1,045
495,412;   85,866;    2,559;   -0,682
495,998;    0,106;   -0,805;   -0,318
496,584;   61,576;    0,377;    1,045
497,169;   73,467;    1,014;   -0,682
497,755;   12,204;    0,650;    1,227
498,341;  146,193;    0,559;    0,318
498,926;  271,181;    1,832;    1,955
499,512;    6,483;    1,286;    2,955
500,097;   14,899;    0,195;   -0,318
500,683;   46,158;   -0,350;    2,136
501,268;    1,191;   -0,169;   -0,955
501,854;   22,355;   -0,169;    1,227
502,439;    8,933;   -0,624;   -1,773
503,024;   32,243;    0,195;    0,500
503,610;   66,088;   -0,078;   -0,682
504,195;    6,950;    0,558;    1,955
504,780;  121,559;    2,922;    1,227
505,366;  223,916;    3,013;    2,864
505,951;  165,294;    0,740;    1,045
506,536;   84,772;   -3,260;   -3,682
507,121;  174,880;    0,285;   -0,318
507,706;  129,975;    2,376;    1,045
508,291;   97,568;    2,649;    1,136
508,876;  143,388;   -0,988;    2,591
509,461;  266,364;   -0,169;   -0,773
510,046;  365,209;    0,194;    0,318
510,631;  419,371;   -0,351;   -0,773
511,216;  390,811;    2,467;   -0,500
511,801;  585,745;   -0,442;    2,591
512,386;  731,259;    0,740;    0,500
512,971;  880,200;   -2,988;    0,955
513,555; 1080,056;   -0,897;   -1,500
514,140; 1264,913;   -0,442;   -3,136
514,725; 1545,373;   -0,715;   -1,136
515,309; 1660,367;   -0,533;    0,318
515,894; 1764,607;   -0,624;   -2,227
516,479; 2149,164;   -0,624;   -0,955
517,063; 2373,790;    0,376;    1,227
517,648; 2799,159;    1,012;   -1,136
518,232; 2902,881;   -0,261;   -1,409
518,817; 3512,944;   -0,079;    1,682
519,401; 4108,815;    2,194;    0,591
519,985; 4131,624;    1,103;    1,136
520,570; 4495,039;    0,830;   -1,955
521,154; 5127,843;    2,102;    0,591
521,738; 5693,238;   -2,352;    2,409
522,323; 6565,472;   -0,170;    1,682
522,907; 6718,477;    0,466;   -0,136
523,491; 6950,662;    0,557;    0,955
524,075; 7359,270;    2,284;    0,591
524,659; 7815,372;    1,466;    0,591
525,243; 7808,680;    1,739;    0,409
525,827; 8354,604;    0,648;   -0,045
526,411; 9347,190;   -1,989;   -0,136
526,995; 9860,444;   -0,352;    1,409
527,579; 9816,304;   -0,443;   -1,045
528,163;10357,171;    0,375;   -1,500
528,747;10582,802;    2,466;   -0,773
529,331;11097,645;   -0,080;   -1,409
529,915;11481,386;    1,738;    0,955
530,499;11659,537;   -0,807;    1,227
531,082;11563,302;   -0,534;    1,591
531,666;11245,958;    1,374;    0,773
532,250;12001,046;    1,284;    2,682
532,833;12454,922;    0,920;    2,773
533,417;12486,409;   -1,807;    0,864
534,001;12578,825;    1,647;   -0,318
534,584;13375,607;    0,374;    0,500
535,168;13306,968;    0,465;    1,409
535,751;13456,717;    0,647;    0,045
536,334;13030,546;   -0,898;   -0,409
536,918;13668,028;    0,011;    1,591
537,501;13842,771;   -0,899;    1,318
538,085;13922,597;   -0,444;    1,045
538,668;14094,205;    0,829;    2,409
539,251;14449,540;    1,829;    3,773
539,834;14540,808;    0,101;    0,773
540,418;14528,780;   -1,990;    4,318
541,001;14701,649;   -0,990;    1,773
541,584;14760,399;    2,101;    2,227
542,167;14515,451;    1,374;    2,955
542,750;14659,038;    1,919;   -0,773
543,333;14304,317;    0,555;    2,136
543,916;15114,505;    0,192;    2,500
544,499;15702,576;   -1,354;    0,227
545,082;15734,549;    1,374;    3,591
545,665;15915,843;    1,919;    1,500
546,248;16257,590;    1,010;   -0,318
546,830;15956,644;   -0,445;    1,955
547,413;16364,458;    1,010;   -0,773
547,996;16901,169;    0,555;    0,500
548,579;16707,431;    0,919;    0,955
549,161;16538,494;    1,828;    2,682
549,744;16333,483;   -0,809;    0,409
550,326;16863,758;   -0,809;   -1,136
550,909;16617,107;    2,737;    0,591
551,492;17049,751;   -0,263;    0,227
552,074;16874,146;   -0,173;   -1,318
552,657;17432,208;    2,373;    0,045
553,239;17207,123;   -0,173;   -0,773
553,821;17085,554;   -1,082;    1,045
554,404;16605,449;    1,282;    1,136
554,986;16998,281;    0,464;    1,045
555,568;17608,014;    1,191;   -0,955
556,151;16816,894;    1,191;   -0,227
556,733;17036,366;   -0,264;   -0,864
557,315;17491,402;    0,100;    0,500
557,897;17306,640;    0,554;   -0,500
558,479;17473,036;   -1,991;    1,318
559,061;17575,888;   -0,719;   -0,864
559,643;17939,569;   -0,264;    0,045
560,225;18327,441;    1,645;    2,864
560,807;18280,933;    0,918;    0,318
561,389;17807,000;    0,554;    2,318
561,971;18526,225;    0,463;    2,136
562,553;18355,738;   -1,628;    1,591
563,135;18457,766;   -0,537;    1,136
563,717;18059,734;    3,372;    1,136
564,298;18775,049;    3,645;   -0,045
564,880;18515,885;    0,645;   -1,409
565,462;18680,521;    0,645;    1,318
566,043;19794,969;   -0,446;    2,318
566,625;19328,241;    1,918;    1,227
567,207;19164,170;    1,099;    1,682
567,788;20266,267;   -1,264;    1,500
568,370;21074,446;    1,917;   -0,500
568,951;20868,153;    0,190;    0,227
569,533;21739,553;   -0,628;   -0,500
570,114;22215,283;   -0,446;    0,682
570,695;22659,963;   -0,174;   -1,318
571,277;23125,522;   -0,265;   -1,682
571,858;23804,814;    2,008;   -1,136
572,439;24707,405;    1,554;   -1,045
573,021;24811,405;    2,099;   -2,773
573,602;25278,754;   -1,265;    0,318
574,183;26257,375;   -2,083;    2,227
574,764;26352,704;   -1,629;    0,409
575,345;26865,807;    0,917;   -0,136
575,926;27532,325;   -0,356;    0,136
576,507;27484,480;    1,099;   -0,227
577,088;28543,904;    3,099;    1,682
577,669;28555,440;    0,735;    1,955
578,250;29212,920;    0,644;   -1,045
578,831;29896,110;   -1,356;   -2,227
579,412;30149,412;   -0,810;    0,955
579,993;31085,839;    1,008;    0,227
580,573;31427,507;   -0,629;   -0,955
581,154;30444,200;    0,735;   -0,591
581,735;31231,227;    0,644;    0,773
582,315;30735,590;   -0,629;    2,136
582,896;31079,431;   -0,174;    1,227
583,477;30593,004;    0,189;    1,227
584,057;30734,263;    0,553;    0,955
584,638;31023,839;    2,553;    2,318
585,218;30997,625;   -0,538;    2,682
585,799;31173,010;    0,281;   -0,227
586,379;31202,722;    0,372;    1,591
586,959;30022,890;    0,735;    0,318
587,540;29381,469;   -0,629;    2,227
588,120;28965,077;    1,007;   -0,045
588,700;27977,627;    2,553;    2,136
589,281;28263,264;    0,462;   -0,955
589,861;28139,211;    0,099;   -1,682
590,441;27970,085;    2,371;   -2,682
591,021;26972,838;   -0,265;   -2,591
591,601;27251,927;   -0,537;    0,500
592,181;27295,953;   -0,719;   -0,773
592,761;26582,271;    0,007;    1,409
593,341;26508,495;   -0,901;    0,045
593,921;26493,419;   -0,265;    1,591
594,501;26368,648;   -0,538;    1,318
595,081;26235,811;    0,917;   -0,318
595,661;26594,520;   -1,447;    0,955
596,240;27105,594;   -0,537;    0,136
596,820;26749,239;    0,372;    1,955
597,400;26930,547;    2,008;    0,773
597,980;27102,252;    2,008;    1,045
598,559;27149,180;    2,735;   -0,227
599,139;26891,096;   -0,174;   -1,227
599,718;26765,369;   -0,174;   -0,409
600,298;27020,484;    0,735;    0,682
600,877;27258,437;    2,917;    1,409
601,457;27537,901;    2,281;    1,136
602,036;27414,653;    0,190;    2,045
602,616;27639,796;    0,644;    1,682
603,195;27972,718;   -0,355;    3,500
603,774;27463,694;   -0,901;    2,045
604,354;27372,484;    0,826;   -0,500
604,933;26907,378;    0,463;    1,864
605,512;27043,547;    3,554;    0,591
606,091;27136,316;   -0,537;    3,773
606,671;27935,235;    0,281;    0,773
607,250;27011,873;    1,644;    3,136
607,829;27272,120;    2,372;    3,227
608,408;27136,828;    1,190;    2,591
608,987;26129,520;    1,281;    3,409
609,566;26429,612;   -1,265;   -2,500
610,145;26556,585;   -1,082;    0,682
610,723;26968,347;    4,372;    6,864
611,302;26254,965;   -0,446;    1,682
611,881;25757,519;    5,008;   11,227
612,460;26559,946;    1,645;    3,955
613,039;27033,591;   -0,082;    2,045
613,617;25757,064;    1,736;    4,773
614,196;25955,977;    1,099;    1,227
614,775;26320,649;    1,009;    2,409
615,353;26297,242;    0,736;    0,864
615,932;25992,396;    0,100;    2,409
616,510;26559,738;    0,554;    0,591
617,089;26054,460;    7,100;   17,591
617,667;25828,488;    2,372;    6,136
618,246;25733,960;   -1,537;    1,318
618,824;25923,207;   -3,355;   -0,955
619,402;25474,935;   -2,900;   -1,773
619,981;25965,557;   -0,173;   -1,045
620,559;25829,879;    0,009;    1,682
621,137;25376,310;   -0,718;    1,864
621,715;25354,891;   -1,173;   -0,682
622,293;25264,733;   -0,537;   -0,773
622,871;25751,584;   -0,718;    0,500
623,450;25331,467;    0,373;   -0,864
624,028;25255,091;    0,191;   -0,955
624,606;24875,109;   -1,718;    1,682
625,183;25291,699;   -1,536;   -1,136
625,761;24890,516;    1,009;    1,136
626,339;25177,902;    1,373;    2,591
626,917;25554,401;   -0,172;   -0,045
627,495;25598,435;   -0,354;    1,318
628,073;25069,176;   -0,263;    2,864
628,650;24759,718;    0,100;    2,136
629,228;25171,402;    0,373;    4,409
629,806;24575,902;    2,282;    1,136
630,383;24877,489;    1,464;   -0,318
630,961;24654,933;    2,555;   -0,955
631,539;24406,637;    2,464;    0,227
632,116;23751,387;   11,373;   15,409
632,694;24324,491;    2,555;    6,500
633,271;24647,303;    0,828;    2,682
633,848;24538,865;    1,828;    2,045
634,426;24578,716;   -1,081;    1,773
635,003;23715,735;    1,101;   -0,409
635,580;24033,458;    1,192;    3,682
636,158;24582,277;    3,737;    1,227
636,735;24546,607;    0,555;   -0,500
637,312;24717,294;   -0,809;   -0,682
637,889;24843,680;   -4,354;   -0,682
638,466;24309,815;   -3,990;   -0,409
639,043;24307,813;    2,101;   -1,136
639,620;24682,963;   -2,262;   -0,955
640,197;24981,591;    1,100;    1,682
640,774;25054,003;   -0,172;    1,136
641,351;25466,960;    0,737;    1,136
641,928;24880,644;   -0,627;    1,409
642,505;24539,965;    0,828;   -0,500
643,082;24657,832;   -1,718;    1,227
643,658;23690,607;   -0,718;    1,500
644,235;24430,928;    1,191;    2,500
644,812;24692,794;    1,918;    0,773
645,388;24500,387;   -0,991;    1,409
645,965;24560,708;   -0,809;    1,682
646,542;24621,029;   -1,445;   -0,227
647,118;24600,441;    1,009;   -0,955
647,695;24941,671;   -0,263;    1,136
648,271;24872,355;   -0,536;    0,500
648,848;25161,676;    0,736;    2,227
649,424;24965,360;    0,827;    1,318
650,000;24756,590;   -0,354;   -1,045
650,577;24543,456;   -0,627;   -0,955
651,153;25052,595;   -1,809;    0,955
651,729;26020,189;    1,191;    0,864
652,305;26097,600;    0,645;    2,773
652,881;30127,285;   -0,082;    1,136
653,458;36701,878;    1,100;    0,227
654,034;40469,654;    0,282;    1,591
654,610;42043,247;    0,554;    0,773
655,186;43365,750;    0,645;    3,045
655,762;43031,980;   -0,991;    0,409
656,338;43059,391;    0,100;    0,136
656,913;43983,530;   -0,082;    0,409
657,489;43311,033;    0,827;   -0,318
658,065;43311,536;   -0,173;   -1,591
658,641;43989,584;   -0,900;   -0,864
659,217;43347,450;   -0,991;    0,409
659,792;42707,407;    0,645;   -0,409
660,368;42961,364;   -2,173;   -0,682
660,944;42730,230;   -2,082;    1,227
661,519;38588,733;   -0,628;    0,409
662,095;32871,508;   -1,719;    0,591
662,670;28288,193;    1,281;   -0,136
663,246;27018,695;    1,009;   -0,409
663,821;26287,380;    0,281;    1,682
664,396;25804,064;    0,009;    1,864
664,972;26034,840;    0,009;   -0,500
665,547;26317,342;    1,372;    0,136
666,122;26377,663;   -1,082;    0,318
666,698;26639,166;   -0,173;    0,318
667,273;26036,032;   -0,173;    0,136
667,848;26817,807;    2,372;    1,500
668,423;26625,855;    2,190;    2,318
668,998;27107,358;    2,827;   -0,682
669,573;27685,497;   -3,264;   -1,500
670,148;27478,999;   -1,446;   -0,682
670,723;27326,229;   -1,810;    0,318
671,298;27676,641;    2,372;    1,045
671,873;27813,144;   -0,082;   -0,136
672,448;27786,192;    0,645;    0,136
673,023;28131,149;   -1,992;   -0,227
673,597;28430,560;    0,827;    2,318
674,172;28195,336;   -0,355;    0,318
674,747;27712,202;    0,372;   -1,045
675,321;27566,250;   -0,628;    3,318
675,896;27150,025;    0,645;    1,045
676,471;28154,073;    2,645;    1,591
677,045;27916,122;   -1,264;    0,682
677,620;27959,170;    0,190;    1,136
678,194;28288,309;   -2,628;    1,136
678,769;27750,538;   -1,083;   -0,318
679,343;28046,768;   -0,628;    1,773
679,917;27941,907;   -1,446;    1,955
680,492;28051,137;    0,826;    3,227
681,066;28150,094;    3,372;    0,409
681,640;28200,506;    1,463;   -0,318
682,214;28954,372;    0,735;    0,500
682,788;28518,693;   -1,356;   -0,773
683,363;28440,105;   -1,810;    1,682
683,937;28179,789;   -1,719;   -0,318
684,511;28921,564;    0,463;   -0,591
685,085;28627,885;   -1,356;    0,318
685,659;28458,206;   -2,538;    0,864
686,232;28660,981;   -0,356;   -0,318
686,806;28397,302;   -0,901;    0,409
687,380;29009,077;   -0,174;    0,591
687,954;29211,035;   -1,174;    1,136
688,528;28885,174;   -0,719;    1,955
689,101;29698,494;   -3,992;    1,045
689,675;29295,088;   -0,356;   -0,136
690,249;28689,772;   -0,719;    0,409
690,822;29015,457;    0,280;    0,318
691,396;29112,050;   -0,265;    1,227
691,969;28543,371;    1,280;    0,136
692,543;29002,783;   -0,447;   -1,955
693,116;28667,740;   -0,265;   -1,409
693,690;28570,788;    0,099;    0,500
694,263;29120,018;   -1,083;    2,955
694,836;29110,520;    1,371;    3,591
695,410;27760,205;   -0,265;    1,773
695,983;28225,162;    0,189;    0,591
696,556;28213,483;   -0,447;   -1,045
697,129;28592,894;   -0,356;    1,409
697,703;28248,306;   -1,629;    1,955
698,276;28242,263;    1,462;   -0,773
698,849;28034,584;    1,280;    1,409
699,422;28450,269;   -1,083;    0,591
699,995;28151,771;    0,007;    0,136
700,568;28634,456;   -0,629;    3,045
701,140;28671,231;   -2,811;    1,682
701,713;28406,097;   -0,174;    2,409
702,286;28086,418;   -0,538;    0,864
702,859;27991,375;   -0,902;   -0,591
703,432;27129,514;    0,825;    0,682
704,004;27648,835;    0,462;    0,318
704,577;27541,883;   -0,629;    0,136
705,150;28117,204;    0,189;    2,500
705,722;27893,797;   -0,356;   -3,227
706,295;27659,209;   -0,175;   -0,591
706,867;27538,802;   -0,175;    1,955
707,440;27728,487;   -1,720;   -0,409
708,012;27979,080;    0,462;    0,591
708,584;27866,674;    2,462;    0,227
709,157;28170,449;    1,825;   -0,591
709,729;27894,224;    2,280;    2,045
710,301;28730,636;    0,734;    0,045
710,874;28695,775;   -1,447;   -0,227
711,446;27631,278;    0,371;    0,864
712,018;27491,053;    0,098;    0,500
712,590;27227,828;   -1,993;    1,682
713,162;27720,422;    0,825;    1,318
713,734;28002,288;    1,825;   -2,045
714,306;27916,245;   -1,902;   -0,409
714,878;26641,384;    0,825;    0,864
715,450;27412,705;    0,643;    0,864
716,022;27680,208;    1,552;    1,318
716,593;27831,983;    0,189;    0,591
717,165;27816,122;   -3,175;   -1,227
717,737;27505,897;    0,280;    0,409
718,309;27176,945;    0,280;   -0,045
718,880;27138,721;   -0,539;   -1,409
719,452;27364,587;   -0,175;   -1,591
720,024;26950,999;    0,734;   -0,591
720,595;27495,865;   -2,902;    0,955
721,167;27064,822;    0,370;   -2,045
721,738;26559,506;   -0,812;   -1,045
722,309;26511,827;   -0,993;   -1,227
722,881;26285,421;   -1,357;    0,773
723,452;26937,105;   -2,630;    2,864
724,023;27105,062;   -0,721;    2,682
724,595;26960,656;    0,007;    0,682
725,166;26654,431;    0,007;   -0,409
725,737;26301,479;    1,734;    0,227
726,308;26444,891;   -0,266;    0,318
726,879;26830,484;   -1,630;    1,227
727,450;26697,623;    0,552;   -0,045
728,021;26678,762;    3,097;    0,682
728,592;26440,720;    0,734;    0,500
729,163;26775,858;    0,643;   -0,136
729,734;26805,088;    0,188;   -0,227
730,305;27144,773;    1,734;    0,136
730,876;27455,639;    0,188;    2,955
731,447;27167,596;    2,188;    2,682
732,017;27296,190;    1,097;    1,864
732,588;26761,692;    0,734;    1,227
733,159;26917,013;    0,643;   -1,045
733,729;26755,607;    0,006;    0,409
734,300;26032,836;    0,915;    0,864
734,870;26515,703;    3,461;    0,591
735,441;27054,569;    0,370;   -0,591
736,011;26839,072;    0,643;   -1,591
736,582;26775,392;   -0,812;    0,045
737,152;26258,531;   -1,721;   -2,045
737,722;26683,488;   -0,267;   -0,682
738,293;26410,809;   -1,358;    1,318
738,863;26280,766;    2,461;    2,318
739,433;26108,178;    5,279;    0,318
740,003;26711,135;   -0,994;   -0,682
740,573;26117,911;    2,097;   -1,591
741,143;26088,686;   -1,085;    0,318
741,713;26844,098;    1,188;   -0,500
742,283;26512,237;    0,915;    1,591
742,853;26322,103;    1,915;    1,591
743,423;25794,060;    1,733;    0,045
743,993;25954,744;   -0,358;    1,500
744,563;25305,611;    0,097;   -0,864
745,133;25289,750;   -0,812;   -0,864
745,702;25964,979;   -0,267;    1,773
746,272;25194,937;   -0,176;    0,591
746,842;24918,076;   -1,358;   -0,591
747,411;25377,033;   -0,267;   -0,318
747,981;25575,535;    0,097;    0,500
748,551;25591,492;    2,278;   -1,045
749,120;25455,268;    0,642;   -0,227
749,690;25852,498;   -0,631;    2,409
750,259;26180,637;    1,369;    2,955
750,828;26076,685;    1,551;   -1,955
751,398;26353,096;    1,278;   -0,045
751,967;25833,781;    2,187;    0,409
752,536;26092,738;   -0,813;   -0,227
753,105;26496,150;    0,096;    0,227
753,675;26306,925;    0,096;    1,773
754,244;26227,609;   -0,904;    3,591
754,813;26269,657;    0,551;    1,227
755,382;25843,342;    0,460;    0,955
755,951;26374,663;    1,551;    3,682
756,520;25866,802;   -0,085;    1,864
757,089;26451,668;    0,278;    0,500
757,658;26598,716;    1,733;    1,227
758,227;26584,855;    1,096;    0,318
758,795;26943,812;    1,187;    1,136
759,364;27176,769;   -0,086;   -0,591
759,933;26196,545;   -1,176;   -0,045
760,501;25712,774;    0,733;   -1,318
761,070;26185,822;   -2,813;   -1,409
761,639;26839,780;   -1,904;    1,318
762,207;26211,373;    1,551;   -0,955
762,776;26130,876;    0,369;    0,864
763,344;26092,197;   -0,995;    0,591
763,913;25256,881;   -0,722;    1,409
764,481;25977,747;    1,005;   -0,136
765,049;25734,523;   -1,358;    1,409
765,618;25653,934;   -0,086;    0,318
766,186;25775,891;    0,278;    0,136
766,754;25965,485;    0,005;    1,864
767,322;24901,533;   -1,995;    0,409
767,890;24913,490;   -0,722;   -1,773
768,459;25330,811;   -2,177;   -0,318
769,027;25526,950;    1,641;    3,409
769,595;24545,725;    3,278;    2,591
770,163;24967,046;    3,823;    2,955
770,730;24735,549;    0,732;   -0,136
771,298;24526,233;    0,187;   -1,409
771,866;24661,372;   -1,541;    4,955
772,434;24970,147;   -0,631;   -1,864
773,002;25164,650;    0,005;    0,682
773,569;24826,789;    0,914;    1,682
774,137;24656,201;   -0,268;   -0,045
774,705;25475,430;    0,278;   -0,136
775,272;24923,569;    0,641;    0,682
775,840;24655,890;   -0,177;    2,682
776,407;24203,393;    0,277;    1,955
776,975;23816,077;   -0,632;    0,318
777,542;24868,125;   -1,086;   -0,045
778,110;24658,537;   -1,268;   -0,045
778,677;24355,949;   -2,359;   -0,864
779,244;24042,088;    2,186;    1,045
779,812;24228,045;    1,823;    0,864
780,379;24085,275;    0,005;    1,136
780,946;24349,595;    1,005;   -0,773
781,513;24678,734;   -1,450;    0,318
782,080;24040,692;   -0,086;    2,864
782,647;24764,649;   -0,268;    3,045
783,214;24337,151;   -0,177;    3,864
783,781;23939,108;   -0,723;   -0,682
784,348;23827,702;   -0,632;    1,500
784,915;24328,750;   -3,177;    0,318
785,482;24072,525;    1,368;    2,591
786,049;24500,846;    0,186;   -0,591
786,615;24644,712;    0,277;   -0,955
787,182;24401,579;    0,186;   -0,682
787,749;24069,809;   -2,814;    1,409
788,315;23402,584;   -1,632;   -0,409
788,882;23689,541;    1,550;   -1,227
789,448;24321,953;    1,732;   -0,955
790,015;24426,455;    1,095;    3,227
790,581;23968,958;    1,459;    0,227
791,148;23866,551;    0,641;    1,045
791,714;24092,327;   -0,541;    3,136
792,280;23759,920;    0,186;    1,591
792,847;23309,059;    0,550;    2,500
793,413;23904,198;   -0,269;   -0,318
793,979;23394,337;    3,459;   -1,318
794,545;23512,112;    4,459;    2,682
795,111;22901,797;    2,186;    1,318
795,678;23115,390;    0,731;   -1,682
796,244;22717,166;    3,368;    0,136
796,810;23298,577;    1,731;    0,773
797,375;23016,171;    0,549;   -2,136
797,941;23059,946;   -0,541;    0,591
798,507;23192,722;   -0,451;   -0,955
799,073;22763,133;   -0,360;    0,591
799,639;22800,727;   -2,632;    3,136
800,205;22882,139;    0,095;    2,682
800,770;22421,823;    0,640;    1,773
801,336;22524,235;    1,368;   -0,955
801,901;22219,283;    4,549;    3,136
802,467;22762,967;   -0,542;    2,045
803,033;22123,106;   -0,087;    0,864
803,598;22333,972;    1,913;   -1,045
804,163;22386,202;    1,095;   -0,318
804,729;22304,796;   -0,178;    1,136
805,294;22708,844;    0,822;    2,227
805,859;22519,983;    0,731;   -0,409
806,425;21946,304;    1,186;    2,682
806,990;21594,715;    2,186;    4,318
807,555;22132,309;   -1,451;    2,591
808,120;22000,084;    0,822;   -0,409
808,685;22076,132;    0,185;   -2,500
809,250;21581,180;    0,004;   -0,500
809,815;21900,774;    1,913;    0,682
810,380;22391,094;   -0,269;    1,591
810,945;22940,143;   -1,087;    2,045
811,510;22098,009;    2,094;    1,591
812,075;21851,966;   -0,633;   -1,409
812,640;21882,559;    2,003;    1,409
813,204;21916,153;    0,822;   -0,227
813,769;22388,837;    2,094;   -0,045
814,334;21844,340;    0,458;    0,864
814,898;21901,024;    0,367;    0,591
815,463;21724,527;    1,276;   -0,773
816,027;21709,211;   -0,724;   -2,318
816,592;21820,259;    0,640;   -2,045
817,156;21334,944;    2,094;    1,136
817,721;21180,719;    4,276;    2,318
818,285;21141,495;    2,912;    1,500
818,849;21739,088;   -1,451;    1,682
819,414;21677,863;   -0,269;    2,955
819,978;21295,002;   -1,269;    1,773
820,542;21843,505;    2,003;    0,500
821,106;21577,189;   -0,815;    0,682
821,670;21663,783;   -0,815;    2,591
822,234;21401,013;   -0,270;    1,409
822,798;20803,061;    0,003;    0,500
823,362;20785,291;   -0,633;    4,227
823,926;20079,521;    0,094;    1,136
824,490;20292,660;   -0,997;   -0,682
825,054;20764,435;   -0,088;   -1,136
825,618;20387,210;   -1,542;   -1,500
826,181;20309,531;    0,458;   -1,318
826,745;20198,943;    1,367;   -1,045
827,309;20530,718;    1,185;    1,318
827,872;19986,675;    1,367;    0,955
828,436;20947,905;    1,185;   -0,773
828,999;20975,590;   -0,997;    1,227
829,563;19821,365;   -0,179;    1,136
830,126;19671,413;   -0,179;   -0,591
830,690;19645,734;   -1,997;    2,864
831,253;19154,236;   -0,543;    2,227
831,816;19307,193;   -1,906;    0,500
832,380;19222,696;    0,185;    0,864
832,943;19443,380;   -1,361;   -0,500
833,506;18897,610;    2,639;   -1,227
834,069;19719,567;    3,912;   -0,955
834,632;19815,525;    1,730;    1,318
835,195;19696,936;    1,003;    0,955
835,758;18883,893;   -0,997;    1,955
836,321;18751,305;    0,730;   -1,045
836,884;18875,899;   -0,725;   -0,955
837,447;18888,674;   -2,816;    1,773
838,010;19153,722;    0,366;    3,227
838,573;19433,952;   -1,179;    0,773
839,135;19380,636;   -1,361;   -0,955
839,698;18867,412;    1,275;    0,409
840,261;18416,460;    1,003;   -0,227
840,823;18220,144;   -0,543;    0,864
841,386;18556,556;   -0,452;   -2,409
841,948;18398,058;   -1,361;    1,773
842,511;18123,288;    0,912;    1,682
843,073;18245,973;    1,912;    0,227
843,636;18090,384;   -0,361;   -0,227
844,198;18034,614;    0,911;    0,591
844,760;18146,935;    1,093;    1,955
845,322;17779,710;    0,548;    1,136
845,885;18222,486;    0,730;    0,591
846,447;18685,988;   -1,998;    0,227
847,009;18246,855;    1,911;   -0,682
847,571;18565,266;    0,820;   -2,045
848,133;18693,496;   -1,089;   -1,864
848,695;18491,453;   -0,543;    1,409
849,257;18012,501;   -1,089;   -1,682
849,819;18180,368;   -0,998;   -0,409
850,381;18252,870;   -0,725;   -0,864
850,942;18621,827;    1,093;   -0,591
851,504;18551,057;    1,184;    0,227
852,066;18630,742;    1,275;   -1,591
852,628;18146,335;   -0,180;    1,955
853,189;17722,474;    1,638;    2,682
853,751;17885,795;   -0,907;    1,409
854,312;17653,389;   -0,453;   -1,682
854,874;18135,527;   -2,089;   -0,773
855,435;18662,121;   -0,907;   -1,682
855,997;18821,442;   -1,816;   -0,136
856,558;18101,490;    0,366;    1,773
857,119;18201,720;    0,820;    2,864
857,681;17924,495;    0,002;    0,318
858,242;17936,725;    1,911;   -2,136
858,803;18408,409;    0,456;   -0,773
859,364;18955,094;    0,184;   -4,773
859,925;18290,415;   -2,453;   -0,955
860,486;18190,281;   -0,453;   -0,955
861,047;17898,511;   -0,544;   -1,227
861,608;17734,468;   -1,089;   -0,773
862,169;17844,334;    0,638;   -0,045
862,730;17606,200;    0,456;    1,409
863,291;17851,067;   -0,635;   -0,500
863,852;18255,569;   -0,635;    1,955
864,412;17732,617;   -0,271;   -0,864
864,973;16294,302;   -0,089;    0,500
865,534;16134,804;   -1,726;    0,227
866,094;17632,580;    1,820;    0,227
866,655;17306,719;    1,274;    3,318
867,215;17609,312;    0,274;    0,136
867,776;17486,087;    0,547;   -0,136
868,336;17565,954;   -1,453;    0,136
868,897;16999,638;    2,638;    1,682
869,457;16745,050;    1,365;    0,318
870,017;16968,643;    0,547;   -1,227
870,578;17507,328;   -0,817;    0,773
871,138;17201,194;   -2,089;   -0,955
871,698;16734,060;   -0,817;   -1,318
872,258;16615,381;   -0,453;   -2,864
872,818;16986,338;    2,729;    0,045
873,378;16941,477;    0,638;    1,045
873,938;16491,343;    0,547;    0,500
874,498;16851,664;    0,274;   -1,955
875,058;16744,348;    2,183;    1,773
875,618;16572,215;    1,910;   -2,682
876,177;16519,263;    1,274;    0,136
876,737;16146,584;   -0,090;    1,955
877,297;16132,995;    0,183;    1,955
877,856;16136,498;   -0,362;    0,318
878,416;16095,728;    1,183;   -0,136
878,976;16340,958;   -1,817;    0,409
879,535;16472,551;    0,092;    3,136
880,095;16207,326;   -0,544;    0,045
880,654;16307,738;   -1,090;    1,318
881,213;16366,968;    2,456;    1,500
881,773;16039,198;    2,637;    2,682
882,332;16390,882;    3,365;    5,136
882,891;16276,930;    3,092;    2,136
883,451;16720,160;   -1,272;    1,682
884,010;16207,481;   -2,908;   -0,409
884,569;16307,984;   -0,999;   -0,045
885,128;16410,032;    2,819;   -1,864
885,687;16475,898;    4,455;    0,682
886,246;16153,764;    1,455;    2,136
886,805;15925,267;    2,455;    2,045
887,364;16241,860;   -0,999;   -0,500
887,922;16573,090;   -1,181;    0,045
888,481;16092,775;   -1,545;    0,591
889,040;16418,823;    1,183;    2,136
889,599;17075,962;    2,455;    1,409
890,157;17138,192;    1,455;    2,409
890,716;16819,149;   -0,090;    0,227
891,274;16586,469;    0,092;   -1,136
891,833;17045,608;    1,546;    0,864
892,391;16908,747;   -0,454;    0,500
892,950;16970,432;    1,819;   -0,773
893,508;17331,571;    0,455;   -0,409
894,067;16698,073;    0,637;    0,136
894,625;16632,940;   -0,636;   -1,500
895,183;16864,351;   -0,363;   -0,682
895,741;16752,672;    1,728;   -1,773
896,299;16586,902;   -0,545;   -2,409
896,858;16786,950;    0,819;   -1,591
897,416;16913,907;    2,728;   -1,318
897,974;16664,501;    1,819;    0,318
898,532;16750,731;    6,091;    2,682
899,089;16692,324;    2,091;   -0,682
899,647;16748,372;   -1,454;    1,318
900,205;16475,329;    1,182;    1,045
900,763;16687,105;   -0,454;    0,227
901,321;16700,244;    2,364;   -1,409
901,878;16150,383;   -1,000;   -0,773
902,436;16008,340;   -1,363;    1,318
902,994;16398,388;    4,728;    3,682
903,551;15857,981;    0,728;    0,409
904,109;16210,211;    0,182;   -1,409
904,666;15837,350;    2,455;    1,045
905,224;15659,216;    0,182;   -0,409
905,781;15368,628;    0,727;   -0,318
906,338;15470,949;   -1,363;    1,045
906,895;15392,633;    0,637;    2,045
907,453;15306,136;    1,727;    1,136
908,010;15382,457;   -0,909;    0,409
908,567;15023,687;    1,273;    0,591
909,124;14543,826;    0,364;   -1,500
909,681;14626,964;   -2,909;    0,682
910,238;14753,285;    0,636;   -1,318
910,795;15072,606;   -0,273;   -1,136
911,352;14740,515;   -2,909;   -2,682
911,909;14157,606;   -1,364;   -0,864
912,466;14644,152;   -3,182;    1,500
913,022;14233,424;   -1,636;    0,500
913,579;14541,152;   -0,909;    2,045
914,136;14278,424;    1,636;    0,955
914,692;14617,697;    0,091;   -1,227
915,249;14187,333;    1,455;    0,409
915,806;14408,424;    0,182;    1,955
916,362;14155,606;    1,909;    1,864
916,918;13734,061;    2,000;    1,045
917,475;13698,333;   -1,182;    0,955
918,031;13767,333;    3,364;   -0,045
918,587;13225,606;   -0,909;   -0,318
919,144;13493,697;   -2,273;    0,227
919,700;13779,152;    1,727;    0,773
920,256;13343,697;    0,727;    0,045
920,812;12970,152;   -0,727;   -1,045
921,368;12996,152;   -1,727;   -1,045
921,924;12632,970;    0,182;   -0,136
922,480;12198,242;   -0,545;    1,227
923,036;12814,697;    1,273;    1,955
923,592;12773,788;    0,455;    0,318
924,148;12662,879;    0,455;   -0,955
924,704;11997,061;   -1,364;   -0,409
925,259;12270,333;   -0,273;    0,591
925,815;12016,152;    1,455;    0,500
926,371;11522,515;    2,909;    1,409
926,926;11462,970;    2,091;    0,591
927,482;11084,242;   -1,364;    0,773
928,037;10965,333;    0,909;    2,045
928,593;11242,424;    1,636;    1,045
929,148;11088,424;   -1,818;   -1,500
929,704;10588,606;   -1,455;   -0,500
930,259;10821,333;    0,091;   -0,136
930,814; 9908,879;   -0,818;    1,955
931,369; 9601,424;    1,091;   -0,773
931,925; 9475,333;   -0,091;    0,136
932,480; 9387,606;   -2,818;   -2,591
933,035; 9273,242;    0,545;   -0,318
933,590; 9024,697;    0,364;   -1,773
934,145; 8689,879;   -1,364;   -0,318
934,700; 9028,515;    0,455;   -0,591
935,255; 8844,424;   -0,091;    0,045
935,809; 8151,152;    3,182;    0,864
936,364; 7300,424;   -0,455;   -0,136
936,919; 7228,697;    0,455;   -1,773
937,474; 7130,788;    1,455;    0,136
938,028; 6920,970;   -1,636;    1,136
938,583; 6367,606;    1,818;    4,682
939,138; 6671,879;    2,091;    2,136
939,692; 6124,970;    1,636;   -1,136
940,247; 5858,515;   -0,727;   -1,045
940,801; 5394,697;   -0,636;    0,227
941,355; 5285,152;   -0,364;    2,591
941,910; 4943,152;   -0,273;   -2,136
942,464; 5063,333;   -0,818;   -0,318
943,018; 4866,606;    1,000;   -0,227
943,572; 4805,333;    2,545;   -0,682
944,126; 4236,697;    0,091;   -0,409
944,681; 4127,061;    3,091;    0,227
945,235; 4096,606;    1,000;   -0,591
945,789; 4054,061;    0,364;   -1,864
946,342; 4153,242;    0,455;   -0,591
946,896; 3954,152;   -2,273;    0,955
947,450; 3713,697;    1,545;   -0,227
948,004; 3915,515;    1,727;   -0,045
948,558; 3916,152;    0,273;   -0,864
949,111; 3830,697;   -0,273;   -0,318
949,665; 3876,424;    1,636;   -0,682
950,219; 3742,606;   -0,091;   -1,045
950,772; 3821,697;   -1,909;    1,864
951,326; 3726,788;    0,545;   -0,955
951,879; 3814,606;    0,727;   -2,318
952,433; 3847,697;    0,000;    2,227
952,986; 3686,515;    2,909;    0,682
953,539; 3640,515;   -0,273;    0,591
954,093; 3574,879;    0,545;   -1,318
954,646; 3702,879;    0,909;    1,318
955,199; 3507,970;    0,000;   -0,500
955,752; 3402,515;   -0,455;    1,773
956,305; 3371,606;   -0,091;    2,955
956,858; 3551,970;    0,818;   -0,318
957,411; 3680,061;   -0,545;    2,136
957,964; 3530,970;    1,364;    2,136
958,517; 3525,697;   -1,545;    3,136
959,070; 3366,606;   -0,455;    1,955
959,623; 3445,515;    1,091;    1,500
960,176; 3226,424;    1,727;    2,045
960,728; 3198,242;   -2,727;    0,773
961,281; 3258,424;    0,545;    0,500
961,834; 3294,697;   -0,909;    0,864
962,386; 3211,242;    1,727;    1,045
962,939; 3130,515;    0,364;   -0,318
963,491; 3289,697;    0,455;    1,136
964,043; 3171,697;    1,182;    2,409
964,596; 3271,606;   -1,000;    2,227
965,148; 3121,515;   -1,000;    1,773
965,700; 3046,515;    1,091;   -0,227
966,253; 3194,879;   -0,636;    0,318
966,805; 3045,152;   -2,273;    0,773
967,357; 3093,152;    1,091;   -1,500
967,909; 3050,061;    0,455;   -1,227
968,461; 3141,061;    0,545;    3,136
969,013; 3058,970;   -0,182;   -0,864
969,565; 3153,970;   -0,455;   -1,136
970,117; 3209,970;   -0,364;    1,045
970,669; 3058,152;    0,182;   -0,136
971,220; 2916,333;   -0,455;   -1,500
971,772; 2844,152;   -0,636;   -0,318
972,324; 2952,697;    0,091;   -0,500
972,876; 2922,424;    0,818;   -0,045
973,427; 3059,242;    1,909;   -1,045
973,979; 3038,424;   -0,727;   -2,500
974,530; 3036,697;    1,818;    1,318
975,082; 3044,606;   -0,545;    1,682
975,633; 2942,606;    1,091;    1,682
976,184; 3090,152;    0,909;    0,773
976,736; 2879,879;    0,091;    0,227
977,287; 2692,697;   -0,909;   -0,500
977,838; 2892,152;    0,909;   -0,318
978,389; 2930,606;   -1,000;   -0,500
978,940; 2807,788;    0,545;   -0,409
979,491; 2848,606;    0,091;   -0,500
980,042; 2805,606;    0,182;    3,045
980,593; 2857,061;   -2,545;    0,227
981,144; 2893,606;    2,545;   -0,500
981,695; 2865,879;    1,455;    1,500
982,246; 2828,788;   -0,273;    1,045
982,797; 2982,242;   -1,727;    0,682
983,347; 3092,606;    0,364;    0,591
983,898; 3244,242;    3,091;    0,409
984,449; 3083,788;    2,182;    0,773
984,999; 2990,515;    1,455;   -1,136
985,550; 2787,242;    0,182;   -0,318
986,100; 2817,515;   -0,455;   -0,318
986,651; 2851,970;   -0,818;    0,045
987,201; 2825,879;   -1,000;   -0,591
987,751; 2876,061;    0,818;    2,864
988,302; 2873,424;    2,636;    1,500
988,852; 2908,788;    0,455;   -1,136
989,402; 2950,333;    0,091;    0,682
989,952; 2856,515;   -2,182;    0,864
990,502; 2954,424;   -0,091;    0,682
991,052; 2931,697;   -0,727;    0,045
991,602; 2807,697;   -2,909;    1,318
992,152; 2795,424;    0,455;    0,682
992,702; 2782,606;    1,364;   -0,045
993,252; 2717,333;   -3,000;   -0,500
993,802; 2796,333;   -0,273;    1,318
994,352; 3038,879;   -1,545;    1,136
994,901; 3121,242;   -0,182;    3,227
995,451; 3030,333;   -0,182;    0,318
996,000; 3135,788;    1,636;    0,318
996,550; 2857,697;    2,273;    0,227
997,100; 2850,424;    1,273;   -0,045
997,649; 3103,424;    2,182;    0,955
998,198; 2738,788;    1,727;   -1,500
998,748; 2945,242;    1,091;   -2,318
999,297; 2872,970;   -0,818;   -0,409
999,846; 2922,697;    1,000;   -0,773
1000,395; 2968,515;   -0,818;    0,500
1000,945; 2927,970;    1,818;   -0,773
1001,494; 3014,424;    2,364;    0,682
1002,043; 2996,606;    4,636;    0,864
1002,592; 2854,061;   -1,091;    1,955
1003,141; 2981,879;   -0,455;   -0,682
1003,690; 2840,879;    1,727;    0,500
1004,238; 2922,061;    1,455;   -0,045
1004,787; 2575,879;    1,364;    1,227
1005,336; 2798,333;    0,364;    0,682
1005,885; 2938,788;    1,364;   -2,773
1006,433; 3082,879;    0,545;    0,955
1006,982; 3152,424;    0,455;    1,682
1007,531; 3057,152;   -1,818;   -0,227
1008,079; 3008,333;   -2,273;    0,500
1008,627; 3161,879;   -1,455;    0,409
1009,176; 2892,515;    0,000;   -1,955
1009,724; 2932,061;    1,091;    0,864
1010,273; 2997,606;    1,273;    0,500
1010,821; 3117,788;    0,091;    1,409
1011,369; 2840,697;   -1,364;    1,318
1011,917; 2813,152;   -1,364;   -0,591
1012,465; 3095,333;    1,273;   -1,591
1013,013; 3218,515;    2,091;   -1,682
1013,561; 3089,242;    0,455;   -0,773
1014,109; 3129,242;   -1,909;    1,682
1014,657; 3015,788;    0,364;    0,591
1015,205; 3137,061;    1,636;   -0,955
1015,753; 3178,879;   -0,545;   -1,409
1016,301; 3217,879;   -2,636;    3,045
1016,848; 3215,970;   -1,273;    0,409
1017,396; 3244,152;    2,545;    0,045
1017,944; 3371,606;    1,182;    1,864
1018,491; 3141,242;    0,273;    1,409
1019,039; 3278,152;    0,455;    0,591
1019,586; 3208,333;   -1,364;    1,682
1020,134; 3310,061;    0,455;    1,500
1020,681; 3326,424;    0,182;   -1,136
1021,228; 3333,879;    2,909;   -2,227
1021,776; 3186,424;    1,182;   -1,136
1022,323; 3384,515;    0,455;    0,773
1022,870; 3304,242;   -1,000;   -0,045
1023,417; 3223,061;    2,636;    1,864
1023,964; 3370,970;    2,636;    1,227
1024,511; 3203,697;    1,000;    0,773
1025,058; 3018,061;    3,182;   -0,045
1025,605; 3060,788;   -2,273;    3,136
1026,152; 3286,152;    1,727;   -0,591
1026,699; 3019,606;    1,818;    1,318
1027,245; 3178,152;   -0,091;    0,318
1027,792; 3372,061;   -1,000;    1,409
1028,339; 3264,152;    2,364;   -0,045
1028,885; 3114,333;    1,000;   -0,227
1029,432; 3050,333;   -0,091;    0,227
1029,978; 3123,424;   -1,000;   -1,591
1030,525; 3028,606;    1,000;    0,409
1031,071; 3256,061;   -1,364;    1,136
1031,618; 3370,879;    0,364;    1,682
1032,164; 3173,970;   -0,091;    3,045
1032,710; 3206,606;    1,636;   -1,500
1033,256; 3137,697;   -0,636;   -0,136
1033,803; 3123,152;   -0,545;    1,500
1034,349; 2860,515;   -1,364;    0,136
1034,895; 2999,242;    0,000;   -0,318
1035,441; 2971,515;   -0,818;    0,318
1035,987; 2973,152;   -2,364;   -0,682
1036,533; 2981,333;   -1,455;   -0,955
1037,078; 3171,515;    1,455;    1,682
1037,624; 2987,242;    2,455;   -0,955
1038,170; 3027,788;    0,455;   -0,318
1038,716; 2936,061;    1,636;   -0,409
1039,261; 2836,152;   -2,273;   -0,773
1039,807; 2792,333;   -0,091;    3,409
1040,352; 2862,242;   -1,909;   -0,318
1040,898; 2891,515;   -1,545;   -0,682
1041,443; 2811,970;   -1,455;   -2,591
1041,989; 2842,424;    1,091;    1,591
1042,534; 2719,242;   -0,364;    2,591
1043,079; 2834,788;    2,909;    0,955
1043,625; 2647,879;    1,818;    0,500
1044,170; 2679,606;   -1,364;    1,045
1044,715; 2926,152;    2,455;    0,955
1045,260; 2743,242;    2,182;   -0,955
1045,805; 2779,242;    1,182;   -0,591
1046,350; 2721,788;    1,364;   -0,409
1046,895; 2686,788;    2,909;    1,591
1047,440; 2636,606;    5,364;    0,409
1047,985; 2546,970;    2,818;   -0,955
1048,530; 2462,970;    1,545;    1,227
1049,074; 2514,333;    0,000;    0,318
1049,619; 2494,424;   -1,364;    1,955
1050,164; 2304,333;    0,455;    0,227
1050,708; 2336,242;   -0,455;    0,045
1051,253; 2705,697;    1,273;   -2,227
1051,797; 2425,606;    0,818;   -1,318
1052,342; 2431,061;   -1,182;    1,045
1052,886; 2433,424;    0,364;   -1,409
1053,430; 2322,152;   -1,364;    0,136
1053,975; 2333,788;   -0,818;   -0,318
1054,519; 2297,424;   -0,727;    3,227
1055,063; 2308,879;    0,909;    1,318
1055,607; 2199,879;   -0,182;    0,227
1056,151; 2229,061;    2,909;    1,682
1056,695; 2148,424;    2,273;   -1,136
1057,239; 2209,697;   -1,727;   -0,682
1057,783; 2223,606;    0,818;   -1,500
1058,327; 2149,333;    0,000;    1,409
1058,871; 2391,788;   -0,545;    1,318
1059,415; 2110,879;   -0,818;   -0,045
1059,958; 2376,606;    1,455;    2,591
1060,502; 2083,515;   -1,000;   -0,773
1061,046; 1985,424;    0,364;   -0,955
1061,589; 1978,515;   -3,000;   -1,136
1062,133; 1860,970;   -1,273;    1,864
1062,676; 1788,242;    1,182;    0,864
1063,220; 1788,970;    1,091;    0,500
1063,763; 1809,424;    0,909;    1,136
1064,306; 1901,697;   -0,909;    1,864
1064,849; 1795,879;   -0,909;    0,591
1065,393; 1793,152;    2,000;   -1,500
1065,936; 1887,061;    0,182;   -0,409
1066,479; 1778,970;   -1,455;    1,318
1067,022; 1804,788;   -0,273;   -0,227
1067,565; 1703,333;   -0,091;   -1,318
1068,108; 1745,970;    0,727;   -0,591
1068,651; 1717,606;   -0,636;    1,409
1069,194; 1640,970;   -0,455;   -1,682
1069,736; 1640,879;   -1,273;    0,955
1070,279; 1608,333;   -1,364;   -0,500
1070,822; 1665,242;   -2,000;   -0,318
1071,364; 1750,970;   -0,364;    1,318
1071,907; 1581,152;   -0,727;    3,227
1072,450; 1501,333;    0,000;   -0,045
1072,992; 1480,242;   -0,273;    3,136
1073,535; 1621,515;    2,091;    2,136
1074,077; 1417,424;   -0,727;    2,045
1074,619; 1379,242;   -1,364;    0,591
1075,161; 1417,788;   -1,091;    1,500
1075,704; 1581,061;    1,545;    1,227
1076,246; 1405,879;   -0,182;    0,682
1076,788; 1334,061;   -0,364;    1,773
1077,330; 1399,788;    1,273;    2,136
1077,872; 1366,333;    0,909;    0,955
1078,414; 1581,788;    2,727;    0,773
1078,956; 1316,788;    1,273;   -0,227
1079,498; 1572,152;    1,636;    0,318
1080,040; 1277,879;    1,909;   -1,318
1080,581; 1222,788;    1,636;   -0,318
1081,123; 1148,061;    0,091;   -0,773
1081,665; 1200,061;   -1,182;   -0,955
1082,206; 1487,788;    1,364;   -0,500
1082,748; 1338,697;    0,727;    2,045
1083,289; 1233,152;   -2,000;    1,318
1083,831; 1132,333;   -0,545;    0,227
1084,372; 1179,788;    0,000;    0,591
1084,913; 1173,515;    1,091;    0,864
1085,455; 1150,242;   -1,909;   -2,045
1085,996; 1125,697;   -2,273;    0,136
1086,537; 1134,515;   -0,091;    0,864
1087,078; 1166,515;   -0,909;   -2,136
1087,619; 1211,970;   -1,273;    0,227
1088,160; 1129,515;    0,000;    1,318
1088,701; 1114,606;   -1,091;    0,682
1089,242; 1051,970;    1,364;   -2,227
1089,783; 1142,606;   -0,273;    1,409
1090,324; 1106,424;    0,455;    0,682
1090,865;  988,242;    2,727;   -0,409
1091,405;  964,606;    0,727;    2,227
1091,946;  982,970;    0,182;   -0,955
1092,487;  910,970;    0,818;   -1,409
1093,027; 1082,242;   -1,364;   -1,500
1093,568;  939,424;   -0,364;    1,227
1094,108; 1033,515;    0,273;    1,773
1094,649;  972,424;   -1,182;    0,136
1095,189;  908,606;   -0,636;   -0,682
1095,729;  861,152;   -0,091;    0,955
1096,269;  875,333;    0,727;   -0,955
1096,810; 1179,152;   -1,364;    0,500
1097,350; 1007,242;    1,364;   -0,773
1097,890;  907,424;    0,364;    1,227
1098,430; 1158,152;    2,364;    2,864
1098,970; 1028,697;    2,182;    1,682
1099,510;  886,606;    0,545;   -2,318
1100,050;  827,970;    1,000;   -1,591
1100,589;  796,061;   -0,727;   -0,318
1101,129;  911,970;    0,818;   -0,955
1101,669; 1053,061;    1,727;    2,136
1102,209;  881,606;   -0,091;    2,227
1102,748;  834,788;    0,000;    0,955
1103,288;  820,242;    1,273;   -1,227
1103,827;  862,606;    3,091;   -2,227
1104,367;  747,697;   -0,091;   -2,409
1104,906;  707,515;    1,364;   -1,136
1105,445;  770,879;    0,636;   -1,136
1105,985;  723,333;   -0,727;    1,500
1106,524;  769,788;   -1,727;   -0,682
1107,063;  725,879;   -2,727;    1,409
1107,602;  709,333;   -1,909;   -1,500
1108,141;  637,515;   -1,909;    1,500
1108,680;  738,061;   -3,455;   -0,591
1109,219;  666,788;   -0,909;   -0,500
1109,758;  668,788;    0,455;    0,682
1110,297;  645,152;    1,000;   -0,682
1110,836;  591,697;   -0,727;    0,955
1111,375;  754,242;   -2,545;    0,409
1111,913;  772,152;   -1,000;    0,773
1112,452;  703,515;   -0,273;    0,136
1112,991;  580,606;    1,091;    1,955
1113,529;  546,515;   -0,818;   -0,045
1114,068;  615,333;   -0,273;    2,955
1114,606;  521,788;   -0,364;   -0,955
1115,144;  678,788;   -1,273;    1,045
1115,683;  609,606;   -0,727;    0,318
1116,221;  660,061;   -0,455;   -0,864
1116,759;  572,152;    0,636;   -0,864
1117,297;  768,606;    0,000;    1,864
1117,836;  576,424;   -2,182;   -1,227
1118,374;  592,606;    0,182;   -0,682
1118,912;  524,333;    0,909;    2,682
1119,450;  508,970;    1,000;    0,864
1119,988;  569,424;    1,545;    2,136
1120,525; 1023,333;    5,091;    3,318
1121,063;  715,697;    1,182;    1,864
1121,601;  531,333;   -0,909;   -1,227
1122,139;  493,879;   -0,727;   -2,045
1122,676;  684,697;   -0,727;    2,773
1123,214;  617,424;   -1,182;    4,409
1123,751;  423,515;    1,727;    2,227
1124,289;  546,424;   -0,091;   -0,409
1124,826;  433,242;    1,727;    0,227
1125,364;  357,061;    1,727;   -0,955
1125,901;  536,788;    1,182;    1,227
1126,438;  646,152;    0,818;    0,955
1126,975;  373,515;   -0,727;   -0,773
1127,513;  436,788;    0,273;    2,136
1128,050;  341,242;    1,636;   -0,682
1128,587;  442,697;    2,000;   -0,227
1129,124;  488,697;    0,091;    1,318
1129,661;  366,970;    0,273;    0,227
1130,198;  527,606;    1,636;    0,773
1130,734;  475,424;    0,182;    1,409
1131,271;  333,061;   -0,909;    0,864
1131,808;  508,242;    2,909;    3,045
1132,345;  365,333;    1,545;    0,318
1132,881;  240,879;   -1,545;   -1,864
1133,418;  385,970;    0,727;   -1,136
1133,954;  318,697;    2,455;   -2,682
1134,491;  392,061;    1,364;   -0,773
1135,027;  293,152;    2,364;    0,864
1135,564;  386,606;    0,273;    2,955
1136,100;  365,242;    0,364;    2,136
1136,636;  250,152;   -1,273;   -1,045
1137,172;  339,788;    0,000;   -1,045
1137,708;  276,970;   -1,364;   -1,045
1138,245;  275,970;    1,273;   -1,227
1138,781;  232,242;    1,091;   -3,318
1139,317;  295,606;    1,273;   -1,409
1139,852;  279,424;    3,091;    0,136
1140,388;  395,515;   -1,182;   -0,409
1140,924;  287,152;   -1,091;   -2,227
1141,460;  218,515;   -1,636;    0,136
1141,996;  157,333;   -1,364;    2,682
1142,531;  200,788;    1,364;    3,318
1143,067;  421,242;    1,182;    1,045
1143,602;  470,606;   -0,091;   -0,318
1144,138;  317,061;   -2,636;    1,045
1144,673;  190,697;   -1,455;    1,409
1145,209;  253,424;   -1,909;   -0,318
1145,744;  181,242;   -0,727;    0,864
1146,279;  308,879;    1,818;   -0,136
1146,815;  225,333;    1,545;   -2,682
1147,350;  272,424;   -1,364;    0,045
1147,885;  185,152;   -0,818;   -1,318
1148,420;  176,788;   -2,273;    0,773
1148,955;  159,061;   -1,727;    1,864
1149,490;  190,515;   -0,909;   -1,591
1150,025;  168,061;    0,455;   -1,773
1150,560;  282,061;    1,091;   -0,955
1151,094;  247,697;    1,455;   -0,591
1151,629;  258,788;    1,636;    0,864
1152,164;  182,152;    1,364;    1,318
1152,698;  143,242;   -0,182;   -0,136
1153,233;  103,788;    0,091;   -0,682
1153,767;  153,970;   -3,000;   -2,318
1154,302;  198,879;   -1,455;    1,773
1154,836;  191,697;   -0,455;   -2,136
1155,371;  249,879;   -1,364;    3,682
1155,905;  202,515;   -0,636;    1,682
1156,439;  171,061;   -0,636;   -0,500
1156,973;  197,424;    0,364;    0,318
1157,507;  134,242;   -0,364;    0,682
1158,042;  174,879;   -0,727;    1,045
1158,576;  211,515;    0,182;    1,773
1159,110;  201,242;   -0,818;    2,409
1159,643;  176,970;    0,636;   -0,045
1160,177;  118,879;   -1,545;    1,500

