
Integration time [ms]:   0,040
Averaging Nr. [scans]: 11
Smoothing Nr. [pixels]: 0
Data measured with spectrometer [name]: 7318044SP
Wave   ;Sample   ;Dark     ;Reference
[nm]   ;[counts] ;[counts] ;[counts] 

186,757;   30,621;   31,551;    1,318
187,357;   64,672;   22,551;    0,955
187,958;   35,300;   15,460;   -1,591
188,558;   79,881;    8,915;   -1,227
189,159;   43,145;    6,733;   -4,500
189,759;   16,561;    7,278;   -3,591
190,360;   20,269;    2,824;   -2,136
190,960;   59,635;    2,915;   -4,136
191,560;   69,076;    3,189;   -6,591
192,161;  304,697;    4,372;   -3,500
192,761;  157,722;    4,010;   -3,227
193,361;   95,367;    1,556;   -3,773
193,962;  150,153;    2,010;   -2,682
194,562;   65,910;    1,189;   -3,955
195,162;   99,585;   -2,448;   -2,227
195,762;  254,245;   -3,176;   -0,045
196,362;  194,863;    1,370;   -2,500
196,963;   77,089;    2,006;   -0,864
197,563;  139,433;    1,551;   -0,955
198,163;   81,130;    0,096;   -0,682
198,763;   99,151;    1,733;   -0,500
199,363;  187,864;    3,096;   -0,500
199,963;  161,966;    0,369;    0,409
200,563;  134,168;    2,823;   -1,409
201,163;  107,115;    3,277;   -0,227
201,763;  201,085;    3,732;    0,318
202,363;  142,925;    1,459;    1,500
202,963;  237,813;    1,459;    1,045
203,563;  340,234;    0,277;    0,500
204,162;  194,803;    2,096;   -1,864
204,762;  190,790;    0,550;    0,591
205,362;  157,018;    3,004;    1,955
205,962;  251,018;    3,096;    1,955
206,562;  255,178;    1,823;    2,318
207,161;  219,369;   -0,087;    0,318
207,761;  369,392;    1,277;    2,409
208,361;  255,724;   -0,268;    1,409
208,960;  341,758;    0,459;    1,500
209,560;  411,989;    1,277;    1,591
210,160;  396,814;    0,550;    1,864
210,759;  360,786;    4,186;    1,227
211,359;  370,716;    1,459;    1,045
211,958;  631,650;    1,277;    2,045
212,558;  706,614;    1,732;    1,864
213,157;  555,784;    1,822;    1,500
213,757;  985,661;    3,822;   -0,227
214,356;  696,143;    1,277;   -0,409
214,956; 1018,027;    3,095;    0,409
215,555;  656,419;    2,095;    2,136
216,154;  592,815;   -2,723;   -0,591
216,754;  608,894;    0,277;    0,773
217,353;  734,098;   -0,268;   -1,045
217,952;  602,877;   -0,178;    0,318
218,552;  840,428;    1,368;   -0,773
219,151;  740,533;    0,277;    0,955
219,750;  745,257;    0,004;   -0,227
220,349;  857,062;   -0,451;    1,045
220,948;  926,692;   -1,360;    1,136
221,548;  936,392;    0,913;    1,227
222,147; 1058,212;   -0,087;   -0,409
222,746; 1331,765;   -0,451;   -0,955
223,345; 1211,159;    0,731;    0,500
223,944; 1215,376;   -0,451;    0,773
224,543; 1370,388;    1,004;   -1,409
225,142; 1508,702;    0,094;    0,136
225,741; 1409,567;   -0,814;    1,045
226,340; 1416,993;   -0,451;   -0,955
226,939; 1860,382;   -0,996;   -0,136
227,538; 1825,491;   -0,360;   -0,773
228,137; 1960,665;   -0,814;    0,864
228,735; 2092,023;   -0,541;    1,227
229,334; 1843,829;   -0,905;   -0,227
229,933; 2215,815;    0,459;    0,591
230,532; 2334,288;    1,186;   -0,409
231,131; 2383,454;    1,732;    0,318
231,729; 2511,694;   -2,450;   -2,318
232,328; 2632,825;   -0,723;   -1,500
232,927; 2685,567;    1,004;   -0,500
233,525; 2812,125;    3,640;    0,045
234,124; 3036,256;    2,368;   -1,591
234,723; 3068,213;    0,913;   -1,045
235,321; 3190,732;    2,277;    0,136
235,920; 3397,154;    1,186;   -1,227
236,518; 3664,946;    3,459;    0,318
237,117; 3850,184;    0,004;   -0,227
237,715; 4015,348;    0,640;   -0,500
238,314; 4054,579;   -0,087;   -2,318
238,912; 4165,338;   -0,723;   -1,409
239,510; 4206,132;    0,459;   -1,227
240,109; 4395,279;    0,004;    3,773
240,707; 4421,731;   -0,996;    1,227
241,305; 4787,442;    0,550;    0,136
241,904; 4998,533;   -0,178;   -2,045
242,502; 4940,096;   -0,632;   -0,227
243,100; 4922,700;   -0,087;   -0,955
243,698; 5197,319;    0,732;    1,682
244,297; 5357,562;   -0,632;    0,682
244,895; 5213,992;   -0,269;   -2,318
245,493; 5521,020;    2,186;   -0,591
246,091; 5590,237;    1,368;   -1,318
246,689; 5575,867;    1,004;    0,591
247,287; 5765,647;    0,822;   -1,136
247,885; 6061,494;   -1,451;    1,227
248,483; 6215,154;    1,822;   -0,500
249,081; 6334,849;    0,185;    1,591
249,679; 6465,494;   -0,178;    1,682
250,277; 6742,270;   -1,723;    0,864
250,875; 6713,160;   -1,087;   -1,045
251,473; 6760,222;   -1,178;    0,500
252,071; 6980,699;    1,459;    1,045
252,669; 7131,830;   -1,814;    0,318
253,267; 7411,490;   -0,087;    0,773
253,864; 7388,101;   -0,360;    0,682
254,462; 7244,749;    1,640;    1,591
255,060; 7220,083;   -0,269;    1,318
255,658; 7569,557;    0,822;   -0,136
256,255; 7992,095;    0,186;   -2,045
256,853; 7873,585;   -0,269;    1,409
257,451; 7869,281;    0,822;    1,864
258,048; 8129,887;    1,822;    1,864
258,646; 7906,925;    1,731;   -1,045
259,243; 8106,676;   -0,087;    2,227
259,841; 8157,804;   -0,814;    0,318
260,438; 8071,559;   -0,087;    0,864
261,036; 8770,328;   -1,905;    1,409
261,633; 8682,569;   -0,087;    2,227
262,231; 8447,299;    2,731;   -0,045
262,828; 8530,740;   -0,905;    1,136
263,425; 8599,511;    0,913;   -0,591
264,023; 8849,901;    0,186;    0,045
264,620; 8385,640;   -0,360;   -0,318
265,217; 8717,291;   -2,087;    3,136
265,815; 8872,292;   -1,905;    2,136
266,412; 8649,576;    0,731;    0,136
267,009; 8664,184;   -1,451;    0,773
267,606; 8560,379;    0,822;   -0,955
268,203; 8552,203;   -0,269;   -0,591
268,801; 8839,220;    1,731;    0,591
269,398; 9155,636;   -0,360;    2,500
269,995; 9131,922;    0,277;    1,591
270,592; 8904,589;   -0,632;   -0,500
271,189; 9100,032;    0,186;    0,409
271,786; 9255,004;   -0,632;    1,227
272,383; 9076,158;   -1,087;    0,227
272,980; 9287,436;    0,277;    0,318
273,577; 9770,153;    0,004;    1,227
274,174; 9320,573;    0,822;    2,591
274,771; 9299,285;   -0,814;   -0,773
275,367; 9453,601;    2,277;    1,409
275,964; 9377,374;    0,731;   -0,500
276,561; 9500,757;    1,549;   -1,045
277,158; 9725,585;    0,095;   -1,773
277,755; 9857,577;    2,185;    0,409
278,351; 9250,192;   -0,451;   -1,500
278,948; 9589,993;   -0,815;    0,045
279,545; 9575,407;   -1,360;    2,318
280,141;10204,439;   -1,723;   -2,045
280,738;10085,091;   -0,451;   -0,136
281,334;10339,272;   -1,633;    0,591
281,931; 9713,166;   -0,087;   -1,318
282,528; 9818,714;    0,822;   -0,500
283,124;10549,295;   -1,087;   -0,500
283,721;10439,142;   -0,451;    1,409
284,317;10248,782;    0,185;    2,500
284,913;10793,485;   -1,360;    0,591
285,510;10994,394;    0,640;   -0,318
286,106;11040,011;   -2,269;   -0,955
286,703;10646,761;   -0,360;    1,955
287,299;10835,622;   -1,451;   -0,591
287,895;11054,945;    0,822;   -1,045
288,491;11673,272;    0,186;    2,136
289,088;11378,203;   -2,360;    2,409
289,684;11443,739;   -1,723;    1,500
290,280;11443,875;    0,368;    0,682
290,876;11527,329;    1,822;    5,500
291,472;11438,163;    1,276;    2,227
292,068;11541,932;    1,367;    0,227
292,665;11293,440;    2,095;    0,773
293,261;10897,317;    0,276;    2,136
293,857;11241,681;    2,913;    2,136
294,453;11202,627;    3,550;    0,955
295,049;11045,542;   -0,268;    1,955
295,644;11093,860;    0,095;    0,136
296,240;11027,816;   -0,905;   -0,136
296,836;11079,502;   -0,995;    0,318
297,432;11342,517;    1,096;   -0,500
298,028;11371,672;    0,732;    0,773
298,624;11767,429;    1,459;    1,864
299,220;12072,888;    2,368;    0,591
299,815;11745,570;    1,005;   -0,409
300,411;11531,724;    0,914;    1,773
301,007;11531,836;    1,368;    0,227
301,602;11589,391;   -0,541;   -2,318
302,198;11741,776;    0,732;   -0,773
302,794;12123,201;    1,187;   -0,500
303,389;12255,856;   -1,177;    1,045
303,985;12296,841;    0,550;    1,409
304,580;12253,468;    1,459;    1,591
305,176;12243,237;   -3,086;    0,136
305,771;12197,051;   -1,268;   -1,227
306,367;12002,333;    4,095;    0,136
306,962;12359,300;    0,641;    1,500
307,558;12102,599;   -0,450;    0,136
308,153;12037,788;    1,095;   -1,136
308,748;12263,447;   -0,814;    1,682
309,344;12224,457;   -0,632;   -1,318
309,939;12326,162;   -1,905;   -1,318
310,534;12628,036;   -0,086;   -1,682
311,130;12567,791;    0,459;   -2,500
311,725;12331,657;    1,004;   -0,500
312,320;12643,280;    2,459;    0,045
312,915;12455,679;    1,459;   -1,045
313,510;12543,150;    1,550;   -0,500
314,105;13034,496;    1,096;    1,409
314,700;12452,636;   -3,086;   -1,045
315,295;12059,195;   -0,904;    0,045
315,890;11621,833;    1,277;    0,864
316,485;12001,124;   -0,359;   -0,318
317,080;12155,130;   -3,086;    1,591
317,675;12704,013;    2,005;   -0,682
318,270;12087,897;    5,550;    3,318
318,865;12107,527;    3,278;    3,045
319,460;11927,813;   -0,904;    0,591
320,055;12212,077;   -0,541;   -1,227
320,650;11868,105;   -1,995;   -0,591
321,244;11910,834;   -0,177;   -1,409
321,839;12886,472;   -1,541;   -0,227
322,434;12768,916;   -1,086;   -1,591
323,029;12358,959;    1,732;    1,591
323,623;12185,174;    1,550;    0,773
324,218;11956,099;    2,368;    1,409
324,812;11861,753;    1,096;    1,591
325,407;11648,177;   -0,814;    2,045
326,002;11557,702;    0,277;   -0,409
326,596;11882,254;    0,914;    1,318
327,191;12092,399;    0,823;   -1,045
327,785;11668,890;   -0,813;   -0,227
328,379;11890,977;    1,368;    0,136
328,974;11696,555;    0,914;   -3,955
329,568;11873,882;    0,186;   -2,409
330,163;11692,640;    2,096;    1,045
330,757;12105,564;    2,459;    1,591
331,351;11409,348;    0,459;    0,682
331,945;11684,923;    0,914;    1,409
332,540;11315,354;   -1,723;   -0,591
333,134;11435,725;   -1,086;    0,773
333,728;11688,595;    0,005;    0,318
334,322;12020,361;   -1,177;   -0,864
334,916;11346,032;    0,277;    0,955
335,510;11669,096;   -0,450;   -0,136
336,105;11909,035;   -1,086;    1,591
336,699;11617,099;   -1,086;    0,591
337,293;11541,170;   -1,723;    0,318
337,887;11702,221;   -2,723;    1,955
338,481;11828,017;    0,459;    0,591
339,074;11975,844;   -0,359;    2,682
339,668;11797,691;   -1,632;    1,227
340,262;12032,036;    1,732;    3,227
340,856;11553,969;    1,822;   -0,682
341,450;10943,537;    1,004;    1,864
342,044;11842,624;    1,459;    0,136
342,637;11630,642;    0,913;   -2,136
343,231;11482,618;   -2,360;    0,682
343,825;11452,184;   -1,086;   -0,591
344,419;11389,050;   -1,995;    0,500
345,012;11118,028;    2,459;    4,045
345,606;11158,232;    4,641;    1,591
346,199;11012,186;   -1,813;   -0,227
346,793;10519,033;    1,914;    2,045
347,386;10726,442;   -0,813;   -1,136
347,980;10763,720;   -0,268;   -0,045
348,573;10516,864;    2,278;    0,409
349,167;10195,632;    5,278;    4,773
349,760;10568,040;    2,914;    2,682
350,354;10498,698;   -0,813;    1,136
350,947;10258,494;    1,096;    1,682
351,540; 9932,605;   -0,358;   -1,409
352,134; 9880,527;    1,096;    1,136
352,727; 9954,144;   -0,086;    1,136
353,320; 9746,953;    0,005;    0,591
353,913; 9591,385;   -1,995;    1,864
354,507; 9772,324;    0,823;   -1,227
355,100; 9823,015;    0,460;    0,864
355,693; 9021,065;    2,005;    2,409
356,286; 9045,975;    0,823;    2,773
356,879; 9411,961;   -0,722;    1,227
357,472; 9035,284;   -0,904;    1,500
358,065; 9252,610;   -0,722;    2,500
358,658; 9127,682;   -0,540;    2,318
359,251; 8794,967;   -1,631;   -0,591
359,844; 8262,865;   -1,904;   -1,136
360,437; 8445,995;   -2,995;    0,045
361,030; 8727,117;    1,369;   -0,682
361,623; 8335,168;    2,824;    0,318
362,215; 8351,170;   -0,086;    2,045
362,808; 8190,206;   -2,358;   -1,682
363,401; 8390,360;   -2,449;    0,136
363,994; 8145,274;   -0,631;   -1,500
364,586; 8066,677;    0,824;   -1,500
365,179; 8262,328;   -0,449;   -1,136
365,772; 7732,342;   -1,995;    2,045
366,364; 8051,602;    1,915;   -3,227
366,957; 8270,325;    2,279;   -0,045
367,549; 8268,649;    2,188;   -0,864
368,142; 7929,316;    1,825;   -1,500
368,734; 8113,502;    0,734;   -2,136
369,327; 8069,296;    1,643;   -0,500
369,919; 8013,156;   -1,538;    0,409
370,512; 7777,263;   -1,083;   -0,500
371,104; 7519,440;   -0,901;    1,591
371,696; 7718,948;    1,191;   -0,955
372,289; 7782,263;    0,373;    1,136
372,881; 7934,187;   -2,080;    1,318
373,473; 7848,535;   -2,170;    1,136
374,066; 7649,669;   -0,169;    0,500
374,658; 7519,113;    0,378;    1,136
375,250; 7866,441;    0,653;   -1,409
375,842; 7718,232;    0,473;   -0,045
376,434; 7605,485;   -0,435;   -0,409
377,026; 8180,791;    0,204;   -2,500
377,618; 8075,287;   -0,158;   -0,682
378,210; 7906,412;   -0,338;   -1,955
378,802; 7782,785;    0,754;   -0,591
379,394; 7730,573;    1,846;    0,682
379,986; 8319,496;    1,393;   -0,955
380,578; 8417,749;   -0,153;    0,773
381,170; 7758,366;   -0,972;    0,045
381,762; 7717,598;    0,755;    1,409
382,354; 7910,331;   -0,065;   -1,318
382,945; 8038,115;   -2,976;    0,318
383,537; 8210,350;   -2,705;   -1,955
384,129; 8230,872;   -2,160;   -1,136
384,721; 8380,092;   -0,252;    0,955
385,312; 8317,541;   -0,161;   -0,955
385,904; 8401,510;   -2,706;    1,591
386,496; 7778,396;   -0,979;    1,045
387,087; 7891,392;    1,022;    2,500
387,679; 7941,126;   -1,160;    0,045
388,270; 8088,715;    2,840;    2,045
388,862; 8206,025;    1,295;   -0,318
389,453; 8106,420;   -0,887;    1,045
390,045; 8382,569;   -0,705;   -2,682
390,636; 8307,101;    0,204;   -0,591
391,227; 8190,943;   -0,523;   -0,045
391,819; 8276,772;    0,204;    0,773
392,410; 8339,703;    1,022;    0,045
393,001; 8283,618;   -0,979;   -1,591
393,593; 8562,831;    1,930;   -0,045
394,184; 8384,539;    1,385;   -0,409
394,775; 8307,850;    1,839;    2,136
395,366; 8532,328;    1,385;    0,773
395,957; 8511,202;    0,113;    0,136
396,548; 8847,086;   -0,342;    2,682
397,139; 9166,117;   -2,433;    0,591
397,730; 8888,102;   -1,888;    0,955
398,321; 8953,246;   -1,252;    0,955
398,912; 8963,327;   -0,615;    0,136
399,503; 9063,074;   -3,524;   -1,409
400,094; 8497,294;    0,294;    1,682
400,685; 8359,345;   -0,433;    0,045
401,276; 8435,843;    0,930;   -0,955
401,867; 8769,594;   -0,888;    0,773
402,458; 8880,162;   -2,251;   -2,318
403,048; 8855,545;    1,112;    0,591
403,639; 8465,358;    0,840;    0,864
404,230; 8687,226;    2,476;    0,318
404,821; 8622,347;   -0,615;    0,045
405,411; 8727,488;    1,203;   -2,591
406,002; 8318,589;   -1,252;   -1,136
406,592; 8137,649;    2,294;    0,045
407,183; 8499,516;    0,566;   -1,500
407,774; 8409,315;    3,475;   -0,136
408,364; 8715,774;    0,930;    0,409
408,954; 8324,444;    0,384;    1,227
409,545; 8380,881;    1,021;    1,045
410,135; 7918,686;    1,293;    0,500
410,726; 8072,565;    1,838;    0,318
411,316; 8456,225;    0,111;    0,773
411,906; 8150,571;   -0,253;   -0,409
412,497; 7619,653;   -1,070;   -0,045
413,087; 8220,185;   -1,980;   -0,227
413,677; 8636,324;   -0,707;    3,864
414,267; 8476,722;    0,656;    1,409
414,857; 8498,304;   -2,980;    4,227
415,448; 8781,065;    0,839;    0,500
416,038; 8470,946;    0,020;   -0,591
416,628; 8455,943;   -0,889;    0,409
417,218; 7877,540;    0,565;    3,318
417,808; 8146,485;    0,202;   -0,409
418,398; 8599,069;    0,020;    2,682
418,988; 8650,612;    2,020;    0,591
419,578; 8897,874;   -0,707;    1,409
420,168; 9233,129;   -1,343;   -0,955
420,757; 8820,734;   -1,343;   -1,500
421,347; 8518,200;    0,111;   -0,227
421,937; 8695,305;    2,292;    1,409
422,527; 8579,292;    0,838;   -0,773
423,116; 8420,277;   -0,253;   -0,045
423,706; 8808,414;   -1,889;    0,318
424,296; 8768,766;    1,384;    0,682
424,885; 9179,766;   -0,071;   -3,045
425,475; 9493,674;    1,474;   -2,864
426,065; 9390,604;   -0,980;   -0,318
426,654; 9001,097;   -0,435;   -0,318
427,244; 9121,731;    0,020;    1,409
427,833; 8554,507;    1,383;   -0,500
428,423; 9055,180;   -0,526;    1,136
429,012; 9792,980;   -0,344;   -1,136
429,601; 9307,733;   -1,344;    0,136
430,191; 9581,790;    1,292;    4,318
430,780; 9213,069;   -0,344;   -0,409
431,369; 9129,284;    0,746;   -0,045
431,959; 9779,346;   -1,254;    0,500
432,548; 9594,761;   -1,163;   -0,045
433,137; 9700,742;   -1,254;   -1,318
433,726;10216,233;    0,292;    0,500
434,315; 9557,982;   -0,526;    2,409
434,905; 9652,710;   -1,254;    1,409
435,494; 9549,895;    0,746;    0,955
436,083;10040,685;   -0,981;   -0,955
436,672; 9926,303;    0,110;    0,500
437,261; 9455,676;    0,292;   -1,955
437,850; 9572,311;    1,383;    0,682
438,439; 9552,502;    3,291;    1,955
439,027; 9387,186;    3,655;    1,773
439,616; 9717,612;    2,927;    1,227
440,205; 9619,010;    0,200;   -2,136
440,794; 9713,551;    2,109;   -0,045
441,383; 9992,124;   -1,346;   -0,591
441,971; 9848,191;   -2,436;    0,591
442,560; 9680,913;    0,563;   -1,773
443,149; 9452,281;    0,379;   -1,318
443,737; 9600,676;   -0,074;   -2,318
444,326; 9847,840;    0,018;    0,318
444,915; 9911,206;   -1,982;    0,864
445,503;10316,776;   -2,891;   -0,318
446,092; 9568,279;    0,382;    2,136
446,680;10127,187;    0,382;    0,318
447,269;10292,391;   -0,346;   -0,318
447,857;10076,512;    0,018;   -1,773
448,445;10174,041;    0,563;    1,318
449,034;10411,128;   -1,528;   -1,136
449,622;10557,043;   -1,073;    3,500
450,210; 9725,848;    2,017;    2,227
450,799;10289,526;    0,290;   -0,591
451,387;10254,697;    1,381;   -0,591
451,975; 9878,631;    2,654;    0,864
452,563; 9957,036;    3,472;    2,318
453,151;10030,938;   -0,528;   -1,227
453,739; 9965,062;   -1,347;    0,136
454,328; 9773,042;    2,381;   -2,136
454,916; 9494,262;    2,562;   -0,136
455,504; 9702,931;    1,017;    1,227
456,092; 9865,339;    0,017;   -1,591
456,679; 9853,416;    1,472;    0,682
457,267; 9719,627;    4,017;    1,045
457,855; 9945,486;    1,017;    1,409
458,443; 9730,085;   -0,165;    1,682
459,031; 9827,631;    0,108;    2,409
459,619;10286,702;   -1,801;    2,864
460,206;10473,425;    0,835;    2,045
460,794;10557,996;   -2,983;   -0,227
461,382;10749,209;   -0,529;   -0,864
461,970;10339,054;    1,198;    1,864
462,557;10384,801;   -0,711;   -0,682
463,145;10536,248;   -3,165;   -1,682
463,732;10699,532;    2,016;   -1,045
464,320;10669,618;   -0,075;   -3,045
464,907;10314,168;    2,743;   -0,773
465,495;10203,697;    0,743;   -1,227
466,082;10397,087;   -1,984;   -0,045
466,670;10331,111;   -2,529;    1,227
467,257;10710,444;   -1,711;    2,045
467,844;10846,621;   -0,075;    0,045
468,432;10866,223;    0,834;    3,500
469,019;10371,632;    0,925;   -1,773
469,606;10839,231;    0,470;    3,682
470,193;10648,052;   -1,439;    0,227
470,780;10188,026;   -2,075;    0,864
471,368;10581,076;   -1,257;   -0,773
471,955;10385,295;    1,379;   -0,682
472,542;10022,575;    0,652;   -1,136
473,129;10226,935;   -0,166;    0,136
473,716; 9968,588;    1,470;    0,591
474,303;10196,509;    0,652;   -0,864
474,890;10469,370;   -1,439;   -0,500
475,477;10487,416;   -1,621;    0,409
476,064;10394,682;    1,106;   -1,591
476,650;10314,980;    0,288;    0,318
477,237;10184,980;   -0,258;    0,955
477,824;10314,775;   -1,076;    0,864
478,411;10363,206;   -1,894;   -0,318
478,997;10551,981;    0,560;   -0,773
479,584;10622,402;    1,196;   -0,409
480,171;11327,330;   -0,440;   -0,773
480,757;10997,343;    2,651;    0,773
481,344;11305,946;    0,469;    0,409
481,931;10834,038;    1,105;    1,045
482,517;11808,651;   -1,258;    0,318
483,104;12390,460;    1,106;    2,864
483,690;12717,297;   -1,804;    0,045
484,276;13103,825;   -0,895;    0,227
484,863;12859,565;    2,469;    1,136
485,449;13459,025;   -0,077;    0,318
486,035;13491,263;   -1,986;   -0,136
486,622;13917,500;   -0,895;    0,045
487,208;13853,097;    1,378;    1,500
487,794;13719,244;    0,741;    0,318
488,380;13821,565;    0,105;   -1,409
488,967;13881,709;   -1,168;   -0,409
489,553;13959,645;   -1,895;   -1,409
490,139;14165,443;    1,559;    0,773
490,725;13577,655;    0,741;   -0,227
491,311;13114,593;    3,287;    3,045
491,897;12439,338;   -0,986;    1,500
492,483;12235,873;    0,105;    1,227
493,069;11972,693;    3,923;    0,864
493,655;11961,567;    1,650;    0,682
494,241;11913,505;    1,377;   -0,955
494,826;12314,003;    0,287;   -1,045
495,412;11729,581;    2,559;   -0,682
495,998;11934,524;   -0,805;   -0,318
496,584;12108,296;    0,377;    1,045
497,169;12093,512;    1,014;   -0,682
497,755;12078,970;    0,650;    1,227
498,341;12618,324;    0,559;    0,318
498,926;12141,661;    1,832;    1,955
499,512;12321,533;    1,286;    2,955
500,097;12514,237;    0,195;   -0,318
500,683;12490,801;   -0,350;    2,136
501,268;12827,664;   -0,169;   -0,955
501,854;12558,795;   -0,169;    1,227
502,439;12516,236;   -0,624;   -1,773
503,024;12695,174;    0,195;    0,500
503,610;12796,734;   -0,078;   -0,682
504,195;12816,924;    0,558;    1,955
504,780;12967,779;    2,922;    1,227
505,366;12764,834;    3,013;    2,864
505,951;12473,355;    0,740;    1,045
506,536;12531,805;   -3,260;   -3,682
507,121;12493,038;    0,285;   -0,318
507,706;13026,420;    2,376;    1,045
508,291;13424,088;    2,649;    1,136
508,876;12915,088;   -0,988;    2,591
509,461;12351,962;   -0,169;   -0,773
510,046;12755,152;    0,194;    0,318
510,631;13022,504;   -0,351;   -0,773
511,216;12692,010;    2,467;   -0,500
511,801;13059,337;   -0,442;    2,591
512,386;13375,429;    0,740;    0,500
512,971;13317,416;   -2,988;    0,955
513,555;12835,723;   -0,897;   -1,500
514,140;13680,434;   -0,442;   -3,136
514,725;13676,140;   -0,715;   -1,136
515,309;13811,922;   -0,533;    0,318
515,894;13260,248;   -0,624;   -2,227
516,479;13694,490;   -0,624;   -0,955
517,063;13542,890;    0,376;    1,227
517,648;13685,641;    1,012;   -1,136
518,232;13340,969;   -0,261;   -1,409
518,817;13669,949;   -0,079;    1,682
519,401;13900,426;    2,194;    0,591
519,985;13403,832;    1,103;    1,136
520,570;13284,155;    0,830;   -1,955
521,154;13551,116;    2,102;    0,591
521,738;13749,284;   -2,352;    2,409
522,323;14347,170;   -0,170;    1,682
522,907;14065,870;    0,466;   -0,136
523,491;13779,979;    0,557;    0,955
524,075;13787,868;    2,284;    0,591
524,659;13834,071;    1,466;    0,591
525,243;13291,218;    1,739;    0,409
525,827;13566,115;    0,648;   -0,045
526,411;14438,798;   -1,989;   -0,136
526,995;14634,281;   -0,352;    1,409
527,579;14226,776;   -0,443;   -1,045
528,163;14549,178;    0,375;   -1,500
528,747;14420,511;    2,466;   -0,773
529,331;14766,877;   -0,080;   -1,409
529,915;14990,858;    1,738;    0,955
530,499;14968,372;   -0,807;    1,227
531,082;14626,401;   -0,534;    1,591
531,666;14084,094;    1,374;    0,773
532,250;14782,400;    1,284;    2,682
532,833;15101,122;    0,920;    2,773
533,417;14985,530;   -1,807;    0,864
534,001;14939,314;    1,647;   -0,318
534,584;15624,745;    0,374;    0,500
535,168;15538,006;    0,465;    1,409
535,751;15575,405;    0,647;    0,045
536,334;15037,096;   -0,898;   -0,409
536,918;15619,474;    0,011;    1,591
537,501;15714,103;   -0,899;    1,318
538,085;15683,873;   -0,444;    1,045
538,668;15875,307;    0,829;    2,409
539,251;16197,378;    1,829;    3,773
539,834;16191,354;    0,101;    0,773
540,418;16110,555;   -1,990;    4,318
541,001;16253,383;   -0,990;    1,773
541,584;16239,998;    2,101;    2,227
542,167;15917,429;    1,374;    2,955
542,750;16100,516;    1,919;   -0,773
543,333;15656,228;    0,555;    2,136
543,916;16451,309;    0,192;    2,500
544,499;17127,792;   -1,354;    0,227
545,082;17100,505;    1,374;    3,591
545,665;17242,671;    1,919;    1,500
546,248;17598,955;    1,010;   -0,318
546,830;17250,984;   -0,445;    1,955
547,413;17678,635;    1,010;   -0,773
547,996;18235,772;    0,555;    0,500
548,579;17991,933;    0,919;    0,955
549,161;17787,646;    1,828;    2,682
549,744;17577,626;   -0,809;    0,409
550,326;18097,365;   -0,809;   -1,136
550,909;17832,781;    2,737;    0,591
551,492;18245,056;   -0,263;    0,227
552,074;18049,679;   -0,173;   -1,318
552,657;18629,108;    2,373;    0,045
553,239;18383,319;   -0,173;   -0,773
553,821;18307,926;   -1,082;    1,045
554,404;17794,796;    1,282;    1,136
554,986;18144,414;    0,464;    1,045
555,568;18779,626;    1,191;   -0,955
556,151;18004,515;    1,191;   -0,227
556,733;18218,748;   -0,264;   -0,864
557,315;18682,759;    0,100;    0,500
557,897;18507,975;    0,554;   -0,500
558,479;18613,656;   -1,991;    1,318
559,061;18706,109;   -0,719;   -0,864
559,643;19024,720;   -0,264;    0,045
560,225;19429,067;    1,645;    2,864
560,807;19452,811;    0,918;    0,318
561,389;18972,542;    0,554;    2,318
561,971;19707,225;    0,463;    2,136
562,553;19511,875;   -1,628;    1,591
563,135;19652,071;   -0,537;    1,136
563,717;19276,124;    3,372;    1,136
564,298;19991,307;    3,645;   -0,045
564,880;19717,716;    0,645;   -1,409
565,462;19917,716;    0,645;    1,318
566,043;21065,095;   -0,446;    2,318
566,625;20600,089;    1,918;    1,227
567,207;20421,652;    1,099;    1,682
567,788;21604,773;   -1,264;    1,500
568,370;22468,891;    1,917;   -0,500
568,951;22262,873;    0,190;    0,227
569,533;23153,521;   -0,628;   -0,500
570,114;23613,454;   -0,446;    0,682
570,695;24137,780;   -0,174;   -1,318
571,277;24611,125;   -0,265;   -1,682
571,858;25370,279;    2,008;   -1,136
572,439;26328,350;    1,554;   -1,045
573,021;26485,065;    2,099;   -2,773
573,602;27010,350;   -1,265;    0,318
574,183;27967,669;   -2,083;    2,227
574,764;28105,801;   -1,629;    0,409
575,345;28694,867;    0,917;   -0,136
575,926;29394,898;   -0,356;    0,136
576,507;29320,344;    1,099;   -0,227
577,088;30489,494;    3,099;    1,682
577,669;30451,031;    0,735;    1,955
578,250;31202,578;    0,644;   -1,045
578,831;31882,024;   -1,356;   -2,227
579,412;32140,010;   -0,810;    0,955
579,993;33107,087;    1,008;    0,227
580,573;33502,671;   -0,629;   -0,955
581,154;32446,978;    0,735;   -0,591
581,735;33281,992;    0,644;    0,773
582,315;32772,174;   -0,629;    2,136
582,896;33082,255;   -0,174;    1,227
583,477;32554,400;    0,189;    1,227
584,057;32750,237;    0,553;    0,955
584,638;33107,633;    2,553;    2,318
585,218;33066,679;   -0,538;    2,682
585,799;33218,572;    0,281;   -0,227
586,379;33246,585;    0,372;    1,591
586,959;31999,188;    0,735;    0,318
587,540;31304,090;   -0,629;    2,227
588,120;30784,382;    1,007;   -0,045
588,700;29747,367;    2,553;    2,136
589,281;30008,788;    0,462;   -0,955
589,861;29968,857;    0,099;   -1,682
590,441;29820,618;    2,371;   -2,682
591,021;28767,627;   -0,265;   -2,591
591,601;29008,666;   -0,537;    0,500
592,181;28955,220;   -0,719;   -0,773
592,761;28277,227;    0,007;    1,409
593,341;28186,877;   -0,901;    0,045
593,921;28170,643;   -0,265;    1,591
594,501;28054,221;   -0,538;    1,318
595,081;27883,209;    0,917;   -0,318
595,661;28230,698;   -1,447;    0,955
596,240;28760,244;   -0,537;    0,136
596,820;28430,889;    0,372;    1,955
597,400;28616,803;    2,008;    0,773
597,980;28809,046;    2,008;    1,045
598,559;28840,239;    2,735;   -0,227
599,139;28538,094;   -0,174;   -1,227
599,718;28451,094;   -0,174;   -0,409
600,298;28678,272;    0,735;    0,682
600,877;28885,700;    2,917;    1,409
601,457;29188,618;    2,281;    1,136
602,036;29046,842;    0,190;    2,045
602,616;29372,767;    0,644;    1,682
603,195;29651,249;   -0,355;    3,500
603,774;29201,798;   -0,901;    2,045
604,354;29124,050;    0,826;   -0,500
604,933;28572,830;    0,463;    1,864
605,512;28680,127;    3,554;    0,591
606,091;28731,720;   -0,537;    3,773
606,671;29616,865;    0,281;    0,773
607,250;28645,422;    1,644;    3,136
607,829;28854,011;    2,372;    3,227
608,408;28720,766;    1,190;    2,591
608,987;27755,852;    1,281;    3,409
609,566;28061,340;   -1,265;   -2,500
610,145;28147,571;   -1,082;    0,682
610,723;28529,446;    4,372;    6,864
611,302;27814,252;   -0,446;    1,682
611,881;27290,119;    5,008;   11,227
612,460;28169,650;    1,645;    3,955
613,039;28573,198;   -0,082;    2,045
613,617;27302,976;    1,736;    4,773
614,196;27514,682;    1,099;    1,227
614,775;27799,699;    1,009;    2,409
615,353;27734,873;    0,736;    0,864
615,932;27460,132;    0,100;    2,409
616,510;28036,239;    0,554;    0,591
617,089;27595,481;    7,100;   17,591
617,667;27343,683;    2,372;    6,136
618,246;27193,371;   -1,537;    1,318
618,824;27351,090;   -3,355;   -0,955
619,402;26915,550;   -2,900;   -1,773
619,981;27409,745;   -0,173;   -1,045
620,559;27327,658;    0,009;    1,682
621,137;26866,480;   -0,718;    1,864
621,715;26843,718;   -1,173;   -0,682
622,293;26745,624;   -0,537;   -0,773
622,871;27211,032;   -0,718;    0,500
623,450;26778,166;    0,373;   -0,864
624,028;26641,139;    0,191;   -0,955
624,606;26264,559;   -1,718;    1,682
625,183;26688,079;   -1,536;   -1,136
625,761;26271,619;    1,009;    1,136
626,339;26577,284;    1,373;    2,591
626,917;26991,492;   -0,172;   -0,045
627,495;27010,361;   -0,354;    1,318
628,073;26423,121;   -0,263;    2,864
628,650;26137,324;    0,100;    2,136
629,228;26570,356;    0,373;    4,409
629,806;25979,154;    2,282;    1,136
630,383;26281,474;    1,464;   -0,318
630,961;26023,186;    2,555;   -0,955
631,539;25795,611;    2,464;    0,227
632,116;25043,277;   11,373;   15,409
632,694;25662,668;    2,555;    6,500
633,271;26021,962;    0,828;    2,682
633,848;25891,683;    1,828;    2,045
634,426;25960,778;   -1,081;    1,773
635,003;25086,620;    1,101;   -0,409
635,580;25340,050;    1,192;    3,682
636,158;25897,641;    3,737;    1,227
636,735;25862,085;    0,555;   -0,500
637,312;26025,771;   -0,809;   -0,682
637,889;26129,261;   -4,354;   -0,682
638,466;25605,196;   -3,990;   -0,409
639,043;25595,872;    2,101;   -1,136
639,620;25969,379;   -2,262;   -0,955
640,197;26298,930;    1,100;    1,682
640,774;26406,991;   -0,172;    1,136
641,351;26813,324;    0,737;    1,136
641,928;26219,293;   -0,627;    1,409
642,505;25869,535;    0,828;   -0,500
643,082;26026,959;   -1,718;    1,227
643,658;25003,110;   -0,718;    1,500
644,235;25824,170;    1,191;    2,500
644,812;26063,231;    1,918;    0,773
645,388;25783,109;   -0,991;    1,409
645,965;25910,806;   -0,809;    1,682
646,542;26023,866;   -1,445;   -0,227
647,118;25976,290;    1,009;   -0,955
647,695;26254,623;   -0,263;    1,136
648,271;26164,138;   -0,536;    0,500
648,848;26490,471;    0,736;    2,227
649,424;26332,440;    0,827;    1,318
650,000;26114,864;   -0,354;   -1,045
650,577;25866,379;   -0,627;   -0,955
651,153;26360,439;   -1,809;    0,955
651,729;27363,772;    1,191;    0,864
652,305;27576,832;    0,645;    2,773
652,881;31966,347;   -0,082;    1,136
653,458;39030,862;    1,100;    0,227
654,034;43087,286;    0,282;    1,591
654,610;44790,255;    0,554;    0,773
655,186;46210,225;    0,645;    3,045
655,762;45895,012;   -0,991;    0,409
656,338;45925,436;    0,100;    0,136
656,913;46930,496;   -0,082;    0,409
657,489;46176,375;    0,827;   -0,318
658,065;46147,253;   -0,173;   -1,591
658,641;46794,132;   -0,900;   -0,864
659,217;46120,556;   -0,991;    0,409
659,792;45522,525;    0,645;   -0,409
660,368;45797,676;   -2,173;   -0,682
660,944;45439,918;   -2,082;    1,227
661,519;40951,706;   -0,628;    0,409
662,095;34774,857;   -1,719;    0,591
662,670;29788,372;    1,281;   -0,136
663,246;28468,978;    1,009;   -0,409
663,821;27665,311;    0,281;    1,682
664,396;27202,280;    0,009;    1,864
664,972;27410,977;    0,009;   -0,500
665,547;27705,128;    1,372;    0,136
666,122;27767,824;   -1,082;    0,318
666,698;28030,430;   -0,173;    0,318
667,273;27416,036;   -0,173;    0,136
667,848;28225,733;    2,372;    1,500
668,423;28023,884;    2,190;    2,318
668,998;28619,762;    2,827;   -0,682
669,573;29130,550;   -3,264;   -1,500
670,148;28934,428;   -1,446;   -0,682
670,723;28777,761;   -1,810;    0,318
671,298;29176,731;    2,372;    1,045
671,873;29339,518;   -0,082;   -0,136
672,448;29297,669;    0,645;    0,136
673,023;29613,275;   -1,992;   -0,227
673,597;29931,244;    0,827;    2,318
674,172;29720,668;   -0,355;    0,318
674,747;29198,910;    0,372;   -1,045
675,321;29039,607;   -0,628;    3,318
675,896;28616,940;    0,645;    1,045
676,471;29657,455;    2,645;    1,591
677,045;29422,879;   -1,264;    0,682
677,620;29443,575;    0,190;    1,136
678,194;29774,090;   -2,628;    1,136
678,769;29269,151;   -1,083;   -0,318
679,343;29541,665;   -0,628;    1,773
679,917;29416,453;   -1,446;    1,955
680,492;29480,513;    0,826;    3,227
681,066;29668,210;    3,372;    0,409
681,640;29710,179;    1,463;   -0,318
682,214;30509,967;    0,735;    0,500
682,788;30033,300;   -1,356;   -0,773
683,363;29964,996;   -1,810;    1,682
683,937;29752,329;   -1,719;   -0,318
684,511;30457,390;    0,463;   -0,591
685,085;30174,814;   -1,356;    0,318
685,659;29969,510;   -2,538;    0,864
686,232;30175,570;   -0,356;   -0,318
686,806;29908,540;   -0,901;    0,409
687,380;30593,055;   -0,174;    0,591
687,954;30803,024;   -1,174;    1,136
688,528;30469,266;   -0,719;    1,955
689,101;31227,054;   -3,992;    1,045
689,675;30808,932;   -0,356;   -0,136
690,249;30194,720;   -0,719;    0,409
690,822;30483,962;    0,280;    0,318
691,396;30673,386;   -0,265;    1,227
691,969;30032,901;    1,280;    0,136
692,543;30515,597;   -0,447;   -1,955
693,116;30173,748;   -0,265;   -1,409
693,690;30026,627;    0,099;    0,500
694,263;30636,233;   -1,083;    2,955
694,836;30630,384;    1,371;    3,591
695,410;29235,808;   -0,265;    1,773
695,983;29719,050;    0,189;    0,591
696,556;29727,655;   -0,447;   -1,045
697,129;30173,988;   -0,356;    1,409
697,703;29745,140;   -1,629;    1,955
698,276;29714,382;    1,462;   -0,773
698,849;29513,715;    1,280;    1,409
699,422;29914,502;   -1,083;    0,591
699,995;29596,017;    0,007;    0,136
700,568;30120,077;   -0,629;    3,045
701,140;30150,683;   -2,811;    1,682
701,713;29819,743;   -0,174;    2,409
702,286;29626,076;   -0,538;    0,864
702,859;29500,864;   -0,902;   -0,591
703,432;28637,288;    0,825;    0,682
704,004;29117,984;    0,462;    0,318
704,577;29019,590;   -0,629;    0,136
705,150;29587,014;    0,189;    2,500
705,722;29320,984;   -0,356;   -3,227
706,295;29147,407;   -0,175;   -0,591
706,867;29004,286;   -0,175;    1,955
707,440;29179,983;   -1,720;   -0,409
708,012;29454,770;    0,462;    0,591
708,584;29362,649;    2,462;    0,227
709,157;29678,163;    1,825;   -0,591
709,729;29330,678;    2,280;    2,045
710,301;30206,011;    0,734;    0,045
710,874;30204,162;   -1,447;   -0,227
711,446;29082,677;    0,371;    0,864
712,018;28993,374;    0,098;    0,500
712,590;28698,343;   -1,993;    1,682
713,162;29308,494;    0,825;    1,318
713,734;29499,736;    1,825;   -2,045
714,306;29411,797;   -1,902;   -0,409
714,878;28067,221;    0,825;    0,864
715,450;28855,372;    0,643;    0,864
716,022;29138,159;    1,552;    1,318
716,593;29262,765;    0,189;    0,591
717,165;29225,371;   -3,175;   -1,227
717,737;28950,704;    0,280;    0,409
718,309;28611,128;    0,280;   -0,045
718,880;28585,370;   -0,539;   -1,409
719,452;28791,339;   -0,175;   -1,591
720,024;28316,036;    0,734;   -0,591
720,595;28912,096;   -2,902;    0,955
721,167;28449,611;    0,370;   -2,045
721,738;27955,762;   -0,812;   -1,045
722,309;27931,459;   -0,993;   -1,227
722,881;27742,883;   -1,357;    0,773
723,452;28389,398;   -2,630;    2,864
724,023;28514,731;   -0,721;    2,682
724,595;28352,609;    0,007;    0,682
725,166;28079,851;    0,007;   -0,409
725,737;27727,093;    1,734;    0,227
726,308;27768,335;   -0,266;    0,318
726,879;28245,759;   -1,630;    1,227
727,450;28080,183;    0,552;   -0,045
728,021;28043,334;    3,097;    0,682
728,592;27879,940;    0,734;    0,500
729,163;28240,818;    0,643;   -0,136
729,734;28229,606;    0,188;   -0,227
730,305;28531,212;    1,734;    0,136
730,876;28870,272;    0,188;    2,955
731,447;28587,241;    2,188;    2,682
732,017;28692,302;    1,097;    1,864
732,588;28182,180;    0,734;    1,227
733,159;28350,059;    0,643;   -1,045
733,729;28183,119;    0,006;    0,409
734,300;27495,270;    0,915;    0,864
734,870;27947,603;    3,461;    0,591
735,441;28462,391;    0,370;   -0,591
736,011;28225,178;    0,643;   -1,591
736,582;28168,693;   -0,812;    0,045
737,152;27683,390;   -1,721;   -2,045
737,722;28094,177;   -0,267;   -0,682
738,293;27840,328;   -1,358;    1,318
738,863;27690,843;    2,461;    2,318
739,433;27502,813;    5,279;    0,318
740,003;28166,509;   -0,994;   -0,682
740,573;27536,842;    2,097;   -1,591
741,143;27454,902;   -1,085;    0,318
741,713;28289,781;    1,188;   -0,500
742,283;27977,478;    0,915;    1,591
742,853;27741,720;    1,915;    1,591
743,423;27174,780;    1,733;    0,045
743,993;27312,749;   -0,358;    1,500
744,563;26695,719;    0,097;   -0,864
745,133;26663,415;   -0,812;   -0,864
745,702;27332,476;   -0,267;    1,773
746,272;26550,627;   -0,176;    0,591
746,842;26308,323;   -1,358;   -0,591
747,411;26807,838;   -0,267;   -0,318
747,981;26975,171;    0,097;    0,500
748,551;27000,231;    2,278;   -1,045
749,120;26834,564;    0,642;   -0,227
749,690;27189,807;   -0,631;    2,409
750,259;27528,503;    1,369;    2,955
750,828;27469,291;    1,551;   -1,955
751,398;27747,169;    1,278;   -0,045
751,967;27212,320;    2,187;    0,409
752,536;27486,381;   -0,813;   -0,227
753,105;27883,532;    0,096;    0,227
753,675;27652,956;    0,096;    1,773
754,244;27608,380;   -0,904;    3,591
754,813;27627,622;    0,551;    1,227
755,382;27248,591;    0,460;    0,955
755,951;27806,924;    1,551;    3,682
756,520;27301,075;   -0,085;    1,864
757,089;27829,499;    0,278;    0,500
757,658;28016,378;    1,733;    1,227
758,227;28070,711;    1,096;    0,318
758,795;28411,498;    1,187;    1,136
759,364;28585,195;   -0,086;   -0,591
759,933;27589,710;   -1,176;   -0,045
760,501;27134,134;    0,733;   -1,318
761,070;27610,558;   -2,813;   -1,409
761,639;28331,981;   -1,904;    1,318
762,207;27649,860;    1,551;   -0,955
762,776;27570,920;    0,369;    0,864
763,344;27497,253;   -0,995;    0,591
763,913;26617,859;   -0,722;    1,409
764,481;27384,828;    1,005;   -0,136
765,049;27149,343;   -1,358;    1,409
765,618;27066,585;   -0,086;    0,318
766,186;27173,555;    0,278;    0,136
766,754;27394,160;    0,005;    1,864
767,322;26372,130;   -1,995;    0,409
767,890;26411,372;   -0,722;   -1,773
768,459;26768,250;   -2,177;   -0,318
769,027;26936,038;    1,641;    3,409
769,595;25915,734;    3,278;    2,591
770,163;26305,522;    3,823;    2,955
770,730;26123,855;    0,732;   -0,136
771,298;25973,097;    0,187;   -1,409
771,866;26044,066;   -1,541;    4,955
772,434;26341,945;   -0,631;   -1,864
773,002;26470,369;    0,005;    0,682
773,569;26129,793;    0,914;    1,682
774,137;25965,853;   -0,268;   -0,045
774,705;26746,641;    0,278;   -0,136
775,272;26215,519;    0,641;    0,682
775,840;25983,034;   -0,177;    2,682
776,407;25521,549;    0,277;    1,955
776,975;25086,245;   -0,632;    0,318
777,542;26122,942;   -1,086;   -0,045
778,110;25951,366;   -1,268;   -0,045
778,677;25688,426;   -2,359;   -0,864
779,244;25418,759;    2,186;    1,045
779,812;25544,547;    1,823;    0,864
780,379;25420,243;    0,005;    1,136
780,946;25620,667;    1,005;   -0,773
781,513;25927,455;   -1,450;    0,318
782,080;25345,151;   -0,086;    2,864
782,647;26055,848;   -0,268;    3,045
783,214;25633,090;   -0,177;    3,864
783,781;25277,059;   -0,723;   -0,682
784,348;25135,392;   -0,632;    1,500
784,915;25657,180;   -3,177;    0,318
785,482;25411,695;    1,368;    2,591
786,049;25830,846;    0,186;   -0,591
786,615;25960,997;    0,277;   -0,955
787,182;25720,421;    0,186;   -0,682
787,749;25366,481;   -2,814;    1,409
788,315;24666,905;   -1,632;   -0,409
788,882;24989,420;    1,550;   -1,227
789,448;25639,390;    1,732;   -0,955
790,015;25673,086;    1,095;    3,227
790,581;25201,237;    1,459;    0,227
791,148;25128,661;    0,641;    1,045
791,714;25442,358;   -0,541;    3,136
792,280;25060,873;    0,186;    1,591
792,847;24646,206;    0,550;    2,500
793,413;25199,448;   -0,269;   -0,318
793,979;24656,599;    3,459;   -1,318
794,545;24784,477;    4,459;    2,682
795,111;24138,083;    2,186;    1,318
795,678;24329,871;    0,731;   -1,682
796,244;23960,022;    3,368;    0,136
796,810;24552,446;    1,731;    0,773
797,375;24242,142;    0,549;   -2,136
797,941;24284,748;   -0,541;    0,591
798,507;24451,354;   -0,451;   -0,955
799,073;24016,778;   -0,360;    0,591
799,639;24078,202;   -2,632;    3,136
800,205;24077,535;    0,095;    2,682
800,770;23638,777;    0,640;    1,773
801,336;23723,746;    1,368;   -0,955
801,901;23343,079;    4,549;    3,136
802,467;23915,230;   -0,542;    2,045
803,033;23310,291;   -0,087;    0,864
803,598;23507,078;    1,913;   -1,045
804,163;23515,957;    1,095;   -0,318
804,729;23505,472;   -0,178;    1,136
805,294;23889,168;    0,822;    2,227
805,859;23682,501;    0,731;   -0,409
806,425;23148,107;    1,186;    2,682
806,990;22827,258;    2,186;    4,318
807,555;23379,955;   -1,451;    2,591
808,120;23225,560;    0,822;   -0,409
808,685;23264,803;    0,185;   -2,500
809,250;22715,863;    0,004;   -0,500
809,815;23066,105;    1,913;    0,682
810,380;23649,165;   -0,269;    1,591
810,945;24190,680;   -1,087;    2,045
811,510;23377,013;    2,094;    1,591
812,075;23031,346;   -0,633;   -1,409
812,640;23051,315;    2,003;    1,409
813,204;23098,921;    0,822;   -0,227
813,769;23601,527;    2,094;   -0,045
814,334;22999,496;    0,458;    0,864
814,898;23062,466;    0,367;    0,591
815,463;22944,526;    1,276;   -0,773
816,027;22911,859;   -0,724;   -2,318
816,592;22994,465;    0,640;   -2,045
817,156;22448,798;    2,094;    1,136
817,721;22326,767;    4,276;    2,318
818,285;22278,009;    2,912;    1,500
818,849;22905,342;   -1,451;    1,682
819,414;22879,948;   -0,269;    2,955
819,978;22464,463;   -1,269;    1,773
820,542;23029,068;    2,003;    0,500
821,106;22735,401;   -0,815;    0,682
821,670;22814,098;   -0,815;    2,591
822,234;22519,522;   -0,270;    1,409
822,798;21933,037;    0,003;    0,500
823,362;21879,915;   -0,633;    4,227
823,926;21160,430;    0,094;    1,136
824,490;21355,490;   -0,997;   -0,682
825,054;21821,005;   -0,088;   -1,136
825,618;21433,974;   -1,542;   -1,500
826,181;21354,035;    0,458;   -1,318
826,745;21318,640;    1,367;   -1,045
827,309;21663,155;    1,185;    1,318
827,872;21004,488;    1,367;    0,955
828,436;21992,094;    1,185;   -0,773
828,999;22033,063;   -0,997;    1,227
829,563;20826,851;   -0,179;    1,136
830,126;20654,275;   -0,179;   -0,591
830,690;20659,335;   -1,997;    2,864
831,253;20216,395;   -0,543;    2,227
831,816;20358,819;   -1,906;    0,500
832,380;20296,061;    0,185;    0,864
832,943;20490,303;   -1,361;   -0,500
833,506;19999,727;    2,639;   -1,227
834,069;20785,697;    3,912;   -0,955
834,632;20867,302;    1,730;    1,318
835,195;20776,545;    1,003;    0,955
835,758;19927,150;   -0,997;    1,955
836,321;19789,301;    0,730;   -1,045
836,884;19882,362;   -0,725;   -0,955
837,447;19942,604;   -2,816;    1,773
838,010;20170,210;    0,366;    3,227
838,573;20499,906;   -1,179;    0,773
839,135;20450,603;   -1,361;   -0,955
839,698;19872,481;    1,275;    0,409
840,261;19378,905;    1,003;   -0,227
840,823;19200,784;   -0,543;    0,864
841,386;19509,571;   -0,452;   -2,409
841,948;19412,177;   -1,361;    1,773
842,511;19118,783;    0,912;    1,682
843,073;19242,298;    1,912;    0,227
843,636;19066,721;   -0,361;   -0,227
844,198;19006,509;    0,911;    0,591
844,760;19127,024;    1,093;    1,955
845,322;18722,084;    0,548;    1,136
845,885;19142,599;    0,730;    0,591
846,447;19638,023;   -1,998;    0,227
847,009;19210,447;    1,911;   -0,682
847,571;19552,780;    0,820;   -2,045
848,133;19632,931;   -1,089;   -1,864
848,695;19473,082;   -0,543;    1,409
849,257;19016,506;   -1,089;   -1,682
849,819;19175,657;   -0,998;   -0,409
850,381;19224,899;   -0,725;   -0,864
850,942;19594,778;    1,093;   -0,591
851,504;19559,111;    1,184;    0,227
852,066;19595,989;    1,275;   -1,591
852,628;19100,322;   -0,180;    1,955
853,189;18696,928;    1,638;    2,682
853,751;18810,079;   -0,907;    1,409
854,312;18623,867;   -0,453;   -1,682
854,874;19114,200;   -2,089;   -0,773
855,435;19644,896;   -0,907;   -1,682
855,997;19789,411;   -1,816;   -0,136
856,558;19019,381;    0,366;    1,773
857,119;19168,714;    0,820;    2,864
857,681;18883,683;    0,002;    0,318
858,242;18924,652;    1,911;   -2,136
858,803;19317,440;    0,456;   -0,773
859,364;19895,591;    0,184;   -4,773
859,925;19248,469;   -2,453;   -0,955
860,486;19155,257;   -0,453;   -0,955
861,047;18887,772;   -0,544;   -1,227
861,608;18643,014;   -1,089;   -0,773
862,169;18760,801;    0,638;   -0,045
862,730;18568,498;    0,456;    1,409
863,291;18784,467;   -0,635;   -0,500
863,852;19225,346;   -0,635;    1,955
864,412;18679,770;   -0,271;   -0,864
864,973;17173,921;   -0,089;    0,500
865,534;17062,890;   -1,726;    0,227
866,094;18591,223;    1,820;    0,227
866,655;18232,102;    1,274;    3,318
867,215;18540,253;    0,274;    0,136
867,776;18396,313;    0,547;   -0,136
868,336;18497,283;   -1,453;    0,136
868,897;17938,070;    2,638;    1,682
869,457;17619,949;    1,365;    0,318
870,017;17875,918;    0,547;   -1,227
870,578;18442,615;   -0,817;    0,773
871,138;18110,584;   -2,089;   -0,955
871,698;17651,099;   -0,817;   -1,318
872,258;17483,159;   -0,453;   -2,864
872,818;17866,219;    2,729;    0,045
873,378;17869,189;    0,638;    1,045
873,938;17379,795;    0,547;    0,500
874,498;17711,037;    0,274;   -1,955
875,058;17606,824;    2,183;    1,773
875,618;17484,703;    1,910;   -2,682
876,177;17409,217;    1,274;    0,136
876,737;16995,460;   -0,090;    1,955
877,297;17004,065;    0,183;    1,955
877,856;17048,216;   -0,362;    0,318
878,416;16964,640;    1,183;   -0,136
878,976;17173,064;   -1,817;    0,409
879,535;17364,034;    0,092;    3,136
880,095;17081,094;   -0,544;    0,045
880,654;17208,154;   -1,090;    1,318
881,213;17261,033;    2,456;    1,500
881,773;16922,184;    2,637;    2,682
882,332;17260,153;    3,365;    5,136
882,891;17152,486;    3,092;    2,136
883,451;17607,910;   -1,272;    1,682
884,010;17058,698;   -2,908;   -0,409
884,569;17135,667;   -0,999;   -0,045
885,128;17248,364;    2,819;   -1,864
885,687;17275,788;    4,455;    0,682
886,246;16984,211;    1,455;    2,136
886,805;16800,454;    2,455;    2,045
887,364;17124,332;   -0,999;   -0,500
887,922;17496,120;   -1,181;    0,045
888,481;16967,362;   -1,545;    0,591
889,040;17275,967;    1,183;    2,136
889,599;17974,755;    2,455;    1,409
890,157;18033,633;    1,455;    2,409
890,716;17722,876;   -0,090;    0,227
891,274;17514,936;    0,092;   -1,136
891,833;17928,723;    1,546;    0,864
892,391;17826,784;   -0,454;    0,500
892,950;17904,208;    1,819;   -0,773
893,508;18274,086;    0,455;   -0,409
894,067;17606,692;    0,637;    0,136
894,625;17521,297;   -0,636;   -1,500
895,183;17794,994;   -0,363;   -0,682
895,741;17706,145;    1,728;   -1,773
896,299;17508,933;   -0,545;   -2,409
896,858;17701,539;    0,819;   -1,591
897,416;17841,235;    2,728;   -1,318
897,974;17582,932;    1,819;    0,318
898,532;17683,810;    6,091;    2,682
899,089;17573,961;    2,091;   -0,682
899,647;17644,022;   -1,454;    1,318
900,205;17366,991;    1,182;    1,045
900,763;17553,233;   -0,454;    0,227
901,321;17572,384;    2,364;   -1,409
901,878;17009,445;   -1,000;   -0,773
902,436;16886,141;   -1,363;    1,318
902,994;17227,838;    4,728;    3,682
903,551;16675,535;    0,728;    0,409
904,109;17090,868;    0,182;   -1,409
904,666;16651,564;    2,455;    1,045
905,224;16485,079;    0,182;   -0,409
905,781;16204,412;    0,727;   -0,318
906,338;16331,836;   -1,363;    1,045
906,895;16278,169;    0,637;    2,045
907,453;16161,684;    1,727;    1,136
908,010;16192,562;   -0,909;    0,409
908,567;15808,077;    1,273;    0,591
909,124;15348,865;    0,364;   -1,500
909,681;15410,379;   -2,909;    0,682
910,238;15543,076;    0,636;   -1,318
910,795;15917,682;   -0,273;   -1,136
911,352;15504,045;   -2,909;   -2,682
911,909;14878,227;   -1,364;   -0,864
912,466;15369,318;   -3,182;    1,500
913,022;14987,773;   -1,636;    0,500
913,579;15330,682;   -0,909;    2,045
914,136;15041,500;    1,636;    0,955
914,692;15326,318;    0,091;   -1,227
915,249;14931,227;    1,455;    0,409
915,806;15188,136;    0,182;    1,955
916,362;14893,955;    1,909;    1,864
916,918;14435,682;    2,000;    1,045
917,475;14407,045;   -1,182;    0,955
918,031;14500,591;    3,364;   -0,045
918,587;13923,227;   -0,909;   -0,318
919,144;14172,500;   -2,273;    0,227
919,700;14503,591;    1,727;    0,773
920,256;14046,136;    0,727;    0,045
920,812;13701,318;   -0,727;   -1,045
921,368;13710,500;   -1,727;   -1,045
921,924;13343,591;    0,182;   -0,136
922,480;12884,136;   -0,545;    1,227
923,036;13503,591;    1,273;    1,955
923,592;13444,500;    0,455;    0,318
924,148;13329,136;    0,455;   -0,955
924,704;12620,409;   -1,364;   -0,409
925,259;12928,682;   -0,273;    0,591
925,815;12711,409;    1,455;    0,500
926,371;12220,318;    2,909;    1,409
926,926;12053,318;    2,091;    0,591
927,482;11689,955;   -1,364;    0,773
928,037;11541,227;    0,909;    2,045
928,593;11793,045;    1,636;    1,045
929,148;11673,136;   -1,818;   -1,500
929,704;11178,136;   -1,455;   -0,500
930,259;11374,864;    0,091;   -0,136
930,814;10432,591;   -0,818;    1,955
931,369;10112,864;    1,091;   -0,773
931,925; 9986,409;   -0,091;    0,136
932,480; 9900,045;   -2,818;   -2,591
933,035; 9757,318;    0,545;   -0,318
933,590; 9538,409;    0,364;   -1,773
934,145; 9147,591;   -1,364;   -0,318
934,700; 9491,227;    0,455;   -0,591
935,255; 9289,409;   -0,091;    0,045
935,809; 8540,500;    3,182;    0,864
936,364; 7681,500;   -0,455;   -0,136
936,919; 7646,773;    0,455;   -1,773
937,474; 7539,227;    1,455;    0,136
938,028; 7313,136;   -1,636;    1,136
938,583; 6732,500;    1,818;    4,682
939,138; 7028,500;    2,091;    2,136
939,692; 6454,227;    1,636;   -1,136
940,247; 6123,136;   -0,727;   -1,045
940,801; 5672,500;   -0,636;    0,227
941,355; 5574,136;   -0,364;    2,591
941,910; 5249,500;   -0,273;   -2,136
942,464; 5316,136;   -0,818;   -0,318
943,018; 5090,136;    1,000;   -0,227
943,572; 5046,045;    2,545;   -0,682
944,126; 4444,409;    0,091;   -0,409
944,681; 4340,591;    3,091;    0,227
945,235; 4335,500;    1,000;   -0,591
945,789; 4285,227;    0,364;   -1,864
946,342; 4352,591;    0,455;   -0,591
946,896; 4171,318;   -2,273;    0,955
947,450; 3941,955;    1,545;   -0,227
948,004; 4109,591;    1,727;   -0,045
948,558; 4122,591;    0,273;   -0,864
949,111; 4045,682;   -0,273;   -0,318
949,665; 4056,227;    1,636;   -0,682
950,219; 3946,864;   -0,091;   -1,045
950,772; 4023,864;   -1,909;    1,864
951,326; 3900,591;    0,545;   -0,955
951,879; 4024,773;    0,727;   -2,318
952,433; 4037,500;    0,000;    2,227
952,986; 3880,227;    2,909;    0,682
953,539; 3840,864;   -0,273;    0,591
954,093; 3785,955;    0,545;   -1,318
954,646; 3909,500;    0,909;    1,318
955,199; 3726,409;    0,000;   -0,500
955,752; 3598,591;   -0,455;    1,773
956,305; 3539,318;   -0,091;    2,955
956,858; 3693,955;    0,818;   -0,318
957,411; 3884,045;   -0,545;    2,136
957,964; 3720,500;    1,364;    2,136
958,517; 3726,955;   -1,545;    3,136
959,070; 3546,864;   -0,455;    1,955
959,623; 3624,318;    1,091;    1,500
960,176; 3371,591;    1,727;    2,045
960,728; 3351,409;   -2,727;    0,773
961,281; 3425,682;    0,545;    0,500
961,834; 3464,591;   -0,909;    0,864
962,386; 3375,227;    1,727;    1,045
962,939; 3304,591;    0,364;   -0,318
963,491; 3438,227;    0,455;    1,136
964,043; 3312,682;    1,182;    2,409
964,596; 3428,591;   -1,000;    2,227
965,148; 3259,409;   -1,000;    1,773
965,700; 3208,045;    1,091;   -0,227
966,253; 3368,227;   -0,636;    0,318
966,805; 3193,864;   -2,273;    0,773
967,357; 3250,864;    1,091;   -1,500
967,909; 3205,864;    0,455;   -1,227
968,461; 3328,227;    0,545;    3,136
969,013; 3256,500;   -0,182;   -0,864
969,565; 3324,045;   -0,455;   -1,136
970,117; 3354,864;   -0,364;    1,045
970,669; 3224,864;    0,182;   -0,136
971,220; 3106,682;   -0,455;   -1,500
971,772; 2999,136;   -0,636;   -0,318
972,324; 3108,864;    0,091;   -0,500
972,876; 3072,500;    0,818;   -0,045
973,427; 3199,682;    1,909;   -1,045
973,979; 3175,591;   -0,727;   -2,500
974,530; 3219,864;    1,818;    1,318
975,082; 3213,136;   -0,545;    1,682
975,633; 3104,227;    1,091;    1,682
976,184; 3249,864;    0,909;    0,773
976,736; 3050,136;    0,091;    0,227
977,287; 2840,227;   -0,909;   -0,500
977,838; 3023,773;    0,909;   -0,318
978,389; 3085,409;   -1,000;   -0,500
978,940; 2955,682;    0,545;   -0,409
979,491; 2996,409;    0,091;   -0,500
980,042; 2958,682;    0,182;    3,045
980,593; 3002,591;   -2,545;    0,227
981,144; 3045,318;    2,545;   -0,500
981,695; 3007,227;    1,455;    1,500
982,246; 2981,955;   -0,273;    1,045
982,797; 3150,591;   -1,727;    0,682
983,347; 3239,773;    0,364;    0,591
983,898; 3417,682;    3,091;    0,409
984,449; 3228,955;    2,182;    0,773
984,999; 3138,682;    1,455;   -1,136
985,550; 2914,955;    0,182;   -0,318
986,100; 2969,864;   -0,455;   -0,318
986,651; 3001,591;   -0,818;    0,045
987,201; 2982,136;   -1,000;   -0,591
987,751; 3050,591;    0,818;    2,864
988,302; 3029,591;    2,636;    1,500
988,852; 3071,773;    0,455;   -1,136
989,402; 3097,227;    0,091;    0,682
989,952; 3001,318;   -2,182;    0,864
990,502; 3116,864;   -0,091;    0,682
991,052; 3105,409;   -0,727;    0,045
991,602; 2962,864;   -2,909;    1,318
992,152; 2965,864;    0,455;    0,682
992,702; 2938,045;    1,364;   -0,045
993,252; 2851,227;   -3,000;   -0,500
993,802; 2944,591;   -0,273;    1,318
994,352; 3184,682;   -1,545;    1,136
994,901; 3282,227;   -0,182;    3,227
995,451; 3182,409;   -0,182;    0,318
996,000; 3286,500;    1,636;    0,318
996,550; 2999,682;    2,273;    0,227
997,100; 2994,591;    1,273;   -0,045
997,649; 3268,591;    2,182;    0,955
998,198; 2899,682;    1,727;   -1,500
998,748; 3071,045;    1,091;   -2,318
999,297; 3001,409;   -0,818;   -0,409
999,846; 3067,773;    1,000;   -0,773
1000,395; 3120,136;   -0,818;    0,500
1000,945; 3052,955;    1,818;   -0,773
1001,494; 3134,409;    2,364;    0,682
1002,043; 3141,864;    4,636;    0,864
1002,592; 2993,136;   -1,091;    1,955
1003,141; 3139,773;   -0,455;   -0,682
1003,690; 3003,773;    1,727;    0,500
1004,238; 3072,500;    1,455;   -0,045
1004,787; 2716,500;    1,364;    1,227
1005,336; 2936,682;    0,364;    0,682
1005,885; 3097,318;    1,364;   -2,773
1006,433; 3235,409;    0,545;    0,955
1006,982; 3279,136;    0,455;    1,682
1007,531; 3200,682;   -1,818;   -0,227
1008,079; 3164,864;   -2,273;    0,500
1008,627; 3315,409;   -1,455;    0,409
1009,176; 3055,773;    0,000;   -1,955
1009,724; 3097,773;    1,091;    0,864
1010,273; 3124,591;    1,273;    0,500
1010,821; 3264,045;    0,091;    1,409
1011,369; 3010,318;   -1,364;    1,318
1011,917; 2976,773;   -1,364;   -0,591
1012,465; 3261,318;    1,273;   -1,591
1013,013; 3383,227;    2,091;   -1,682
1013,561; 3230,500;    0,455;   -0,773
1014,109; 3278,500;   -1,909;    1,682
1014,657; 3156,500;    0,364;    0,591
1015,205; 3299,955;    1,636;   -0,955
1015,753; 3345,864;   -0,545;   -1,409
1016,301; 3380,955;   -2,636;    3,045
1016,848; 3372,318;   -1,273;    0,409
1017,396; 3413,318;    2,545;    0,045
1017,944; 3531,318;    1,182;    1,864
1018,491; 3293,500;    0,273;    1,409
1019,039; 3423,227;    0,455;    0,591
1019,586; 3383,500;   -1,364;    1,682
1020,134; 3476,500;    0,455;    1,500
1020,681; 3503,955;    0,182;   -1,136
1021,228; 3520,864;    2,909;   -2,227
1021,776; 3335,864;    1,182;   -1,136
1022,323; 3565,500;    0,455;    0,773
1022,870; 3488,136;   -1,000;   -0,045
1023,417; 3368,591;    2,636;    1,864
1023,964; 3545,591;    2,636;    1,227
1024,511; 3368,955;    1,000;    0,773
1025,058; 3160,318;    3,182;   -0,045
1025,605; 3206,500;   -2,273;    3,136
1026,152; 3417,955;    1,727;   -0,591
1026,699; 3164,045;    1,818;    1,318
1027,245; 3356,682;   -0,091;    0,318
1027,792; 3561,409;   -1,000;    1,409
1028,339; 3413,227;    2,364;   -0,045
1028,885; 3271,045;    1,000;   -0,227
1029,432; 3219,773;   -0,091;    0,227
1029,978; 3269,864;   -1,000;   -1,591
1030,525; 3196,773;    1,000;    0,409
1031,071; 3453,773;   -1,364;    1,136
1031,618; 3524,773;    0,364;    1,682
1032,164; 3333,591;   -0,091;    3,045
1032,710; 3358,864;    1,636;   -1,500
1033,256; 3297,318;   -0,636;   -0,136
1033,803; 3304,682;   -0,545;    1,500
1034,349; 3003,136;   -1,364;    0,136
1034,895; 3140,773;    0,000;   -0,318
1035,441; 3130,773;   -0,818;    0,318
1035,987; 3129,045;   -2,364;   -0,682
1036,533; 3123,318;   -1,455;   -0,955
1037,078; 3307,591;    1,455;    1,682
1037,624; 3130,136;    2,455;   -0,955
1038,170; 3174,045;    0,455;   -0,318
1038,716; 3065,318;    1,636;   -0,409
1039,261; 3000,500;   -2,273;   -0,773
1039,807; 2945,318;   -0,091;    3,409
1040,352; 2990,136;   -1,909;   -0,318
1040,898; 3027,773;   -1,545;   -0,682
1041,443; 2957,591;   -1,455;   -2,591
1041,989; 2936,591;    1,091;    1,591
1042,534; 2834,409;   -0,364;    2,591
1043,079; 2967,227;    2,909;    0,955
1043,625; 2744,409;    1,818;    0,500
1044,170; 2788,773;   -1,364;    1,045
1044,715; 3037,500;    2,455;    0,955
1045,260; 2861,864;    2,182;   -0,955
1045,805; 2918,682;    1,182;   -0,591
1046,350; 2855,682;    1,364;   -0,409
1046,895; 2795,864;    2,909;    1,591
1047,440; 2741,591;    5,364;    0,409
1047,985; 2665,045;    2,818;   -0,955
1048,530; 2578,773;    1,545;    1,227
1049,074; 2627,591;    0,000;    0,318
1049,619; 2607,136;   -1,364;    1,955
1050,164; 2419,227;    0,455;    0,227
1050,708; 2470,136;   -0,455;    0,045
1051,253; 2824,773;    1,273;   -2,227
1051,797; 2530,227;    0,818;   -1,318
1052,342; 2559,864;   -1,182;    1,045
1052,886; 2543,227;    0,364;   -1,409
1053,430; 2425,045;   -1,364;    0,136
1053,975; 2431,955;   -0,818;   -0,318
1054,519; 2435,591;   -0,727;    3,227
1055,063; 2427,500;    0,909;    1,318
1055,607; 2305,409;   -0,182;    0,227
1056,151; 2333,318;    2,909;    1,682
1056,695; 2248,136;    2,273;   -1,136
1057,239; 2317,227;   -1,727;   -0,682
1057,783; 2318,773;    0,818;   -1,500
1058,327; 2262,682;    0,000;    1,409
1058,871; 2488,864;   -0,545;    1,318
1059,415; 2187,955;   -0,818;   -0,045
1059,958; 2437,227;    1,455;    2,591
1060,502; 2181,045;   -1,000;   -0,773
1061,046; 2086,136;    0,364;   -0,955
1061,589; 2075,773;   -3,000;   -1,136
1062,133; 1954,682;   -1,273;    1,864
1062,676; 1891,045;    1,182;    0,864
1063,220; 1888,318;    1,091;    0,500
1063,763; 1896,591;    0,909;    1,136
1064,306; 1986,955;   -0,909;    1,864
1064,849; 1871,318;   -0,909;    0,591
1065,393; 1877,955;    2,000;   -1,500
1065,936; 1983,955;    0,182;   -0,409
1066,479; 1880,318;   -1,455;    1,318
1067,022; 1907,955;   -0,273;   -0,227
1067,565; 1800,773;   -0,091;   -1,318
1068,108; 1828,045;    0,727;   -0,591
1068,651; 1801,591;   -0,636;    1,409
1069,194; 1720,955;   -0,455;   -1,682
1069,736; 1719,955;   -1,273;    0,955
1070,279; 1700,955;   -1,364;   -0,500
1070,822; 1744,045;   -2,000;   -0,318
1071,364; 1813,500;   -0,364;    1,318
1071,907; 1658,864;   -0,727;    3,227
1072,450; 1571,955;    0,000;   -0,045
1072,992; 1539,682;   -0,273;    3,136
1073,535; 1683,227;    2,091;    2,136
1074,077; 1485,318;   -0,727;    2,045
1074,619; 1440,227;   -1,364;    0,591
1075,161; 1474,045;   -1,091;    1,500
1075,704; 1644,045;    1,545;    1,227
1076,246; 1458,955;   -0,182;    0,682
1076,788; 1393,955;   -0,364;    1,773
1077,330; 1476,045;    1,273;    2,136
1077,872; 1412,136;    0,909;    0,955
1078,414; 1635,318;    2,727;    0,773
1078,956; 1384,045;    1,273;   -0,227
1079,498; 1624,500;    1,636;    0,318
1080,040; 1337,682;    1,909;   -1,318
1080,581; 1284,500;    1,636;   -0,318
1081,123; 1202,773;    0,091;   -0,773
1081,665; 1265,864;   -1,182;   -0,955
1082,206; 1549,318;    1,364;   -0,500
1082,748; 1418,136;    0,727;    2,045
1083,289; 1299,682;   -2,000;    1,318
1083,831; 1190,864;   -0,545;    0,227
1084,372; 1210,318;    0,000;    0,591
1084,913; 1219,409;    1,091;    0,864
1085,455; 1204,227;   -1,909;   -2,045
1085,996; 1169,409;   -2,273;    0,136
1086,537; 1181,136;   -0,091;    0,864
1087,078; 1223,591;   -0,909;   -2,136
1087,619; 1272,136;   -1,273;    0,227
1088,160; 1180,864;    0,000;    1,318
1088,701; 1162,864;   -1,091;    0,682
1089,242; 1110,955;    1,364;   -2,227
1089,783; 1197,227;   -0,273;    1,409
1090,324; 1165,409;    0,455;    0,682
1090,865; 1039,227;    2,727;   -0,409
1091,405; 1019,955;    0,727;    2,227
1091,946; 1036,500;    0,182;   -0,955
1092,487;  967,864;    0,818;   -1,409
1093,027; 1133,409;   -1,364;   -1,500
1093,568;  989,955;   -0,364;    1,227
1094,108; 1075,591;    0,273;    1,773
1094,649; 1010,955;   -1,182;    0,136
1095,189;  951,045;   -0,636;   -0,682
1095,729;  903,136;   -0,091;    0,955
1096,269;  908,318;    0,727;   -0,955
1096,810; 1213,682;   -1,364;    0,500
1097,350; 1047,864;    1,364;   -0,773
1097,890;  950,955;    0,364;    1,227
1098,430; 1197,500;    2,364;    2,864
1098,970; 1065,318;    2,182;    1,682
1099,510;  936,500;    0,545;   -2,318
1100,050;  859,318;    1,000;   -1,591
1100,589;  827,227;   -0,727;   -0,318
1101,129;  947,136;    0,818;   -0,955
1101,669; 1099,591;    1,727;    2,136
1102,209;  922,500;   -0,091;    2,227
1102,748;  881,682;    0,000;    0,955
1103,288;  869,045;    1,273;   -1,227
1103,827;  893,227;    3,091;   -2,227
1104,367;  767,409;   -0,091;   -2,409
1104,906;  730,409;    1,364;   -1,136
1105,445;  803,955;    0,636;   -1,136
1105,985;  739,591;   -0,727;    1,500
1106,524;  793,773;   -1,727;   -0,682
1107,063;  767,318;   -2,727;    1,409
1107,602;  740,864;   -1,909;   -1,500
1108,141;  664,864;   -1,909;    1,500
1108,680;  761,045;   -3,455;   -0,591
1109,219;  699,409;   -0,909;   -0,500
1109,758;  703,773;    0,455;    0,682
1110,297;  670,864;    1,000;   -0,682
1110,836;  620,136;   -0,727;    0,955
1111,375;  773,864;   -2,545;    0,409
1111,913;  806,591;   -1,000;    0,773
1112,452;  732,773;   -0,273;    0,136
1112,991;  614,136;    1,091;    1,955
1113,529;  571,409;   -0,818;   -0,045
1114,068;  636,955;   -0,273;    2,955
1114,606;  549,318;   -0,364;   -0,955
1115,144;  703,409;   -1,273;    1,045
1115,683;  639,227;   -0,727;    0,318
1116,221;  687,682;   -0,455;   -0,864
1116,759;  605,864;    0,636;   -0,864
1117,297;  798,045;    0,000;    1,864
1117,836;  604,864;   -2,182;   -1,227
1118,374;  606,773;    0,182;   -0,682
1118,912;  548,955;    0,909;    2,682
1119,450;  536,409;    1,000;    0,864
1119,988;  590,955;    1,545;    2,136
1120,525; 1045,773;    5,091;    3,318
1121,063;  743,682;    1,182;    1,864
1121,601;  549,955;   -0,909;   -1,227
1122,139;  505,955;   -0,727;   -2,045
1122,676;  702,318;   -0,727;    2,773
1123,214;  628,136;   -1,182;    4,409
1123,751;  434,591;    1,727;    2,227
1124,289;  569,045;   -0,091;   -0,409
1124,826;  445,500;    1,727;    0,227
1125,364;  377,136;    1,727;   -0,955
1125,901;  557,227;    1,182;    1,227
1126,438;  663,409;    0,818;    0,955
1126,975;  397,773;   -0,727;   -0,773
1127,513;  462,227;    0,273;    2,136
1128,050;  370,773;    1,636;   -0,682
1128,587;  469,955;    2,000;   -0,227
1129,124;  512,864;    0,091;    1,318
1129,661;  377,955;    0,273;    0,227
1130,198;  542,409;    1,636;    0,773
1130,734;  496,136;    0,182;    1,409
1131,271;  340,136;   -0,909;    0,864
1131,808;  522,955;    2,909;    3,045
1132,345;  392,136;    1,545;    0,318
1132,881;  263,773;   -1,545;   -1,864
1133,418;  399,136;    0,727;   -1,136
1133,954;  337,136;    2,455;   -2,682
1134,491;  407,682;    1,364;   -0,773
1135,027;  312,955;    2,364;    0,864
1135,564;  406,500;    0,273;    2,955
1136,100;  379,318;    0,364;    2,136
1136,636;  273,136;   -1,273;   -1,045
1137,172;  368,500;    0,000;   -1,045
1137,708;  291,227;   -1,364;   -1,045
1138,245;  297,318;    1,273;   -1,227
1138,781;  239,773;    1,091;   -3,318
1139,317;  321,318;    1,273;   -1,409
1139,852;  303,500;    3,091;    0,136
1140,388;  424,136;   -1,182;   -0,409
1140,924;  301,318;   -1,091;   -2,227
1141,460;  238,318;   -1,636;    0,136
1141,996;  173,682;   -1,364;    2,682
1142,531;  218,045;    1,364;    3,318
1143,067;  439,136;    1,182;    1,045
1143,602;  489,682;   -0,091;   -0,318
1144,138;  335,136;   -2,636;    1,045
1144,673;  202,773;   -1,455;    1,409
1145,209;  267,591;   -1,909;   -0,318
1145,744;  191,318;   -0,727;    0,864
1146,279;  323,227;    1,818;   -0,136
1146,815;  253,409;    1,545;   -2,682
1147,350;  288,409;   -1,364;    0,045
1147,885;  202,591;   -0,818;   -1,318
1148,420;  195,318;   -2,273;    0,773
1148,955;  177,682;   -1,727;    1,864
1149,490;  198,500;   -0,909;   -1,591
1150,025;  180,591;    0,455;   -1,773
1150,560;  293,227;    1,091;   -0,955
1151,094;  258,318;    1,455;   -0,591
1151,629;  274,318;    1,636;    0,864
1152,164;  202,045;    1,364;    1,318
1152,698;  160,500;   -0,182;   -0,136
1153,233;  110,955;    0,091;   -0,682
1153,767;  163,500;   -3,000;   -2,318
1154,302;  211,227;   -1,455;    1,773
1154,836;  204,045;   -0,455;   -2,136
1155,371;  261,227;   -1,364;    3,682
1155,905;  210,682;   -0,636;    1,682
1156,439;  174,955;   -0,636;   -0,500
1156,973;  207,864;    0,364;    0,318
1157,507;  141,227;   -0,364;    0,682
1158,042;  180,136;   -0,727;    1,045
1158,576;  228,409;    0,182;    1,773
1159,110;  213,591;   -0,818;    2,409
1159,643;  172,136;    0,636;   -0,045
1160,177;  120,591;   -1,545;    1,500

