
Integration time [ms]:   0,050
Averaging Nr. [scans]: 11
Smoothing Nr. [pixels]: 0
Data measured with spectrometer [name]: 7318044SP
Wave   ;Sample   ;Dark     ;Reference
[nm]   ;[counts] ;[counts] ;[counts] 

186,757;  -11,697;   38,161;    1,318
187,357;   20,827;   26,706;    0,955
187,958;    1,726;   17,252;   -1,591
188,558;   45,474;   12,979;   -1,227
189,159;   26,480;   10,070;   -4,500
189,759;    6,351;    5,797;   -3,591
190,360;    7,544;    6,797;   -2,136
190,960;   41,576;    5,706;   -4,136
191,560;   54,357;    2,614;   -6,591
192,161;  289,116;    5,885;   -3,500
192,761;  132,180;    5,520;   -3,227
193,361;   78,201;    3,065;   -3,773
193,962;  138,458;    1,612;   -2,682
194,562;   68,950;   -0,114;   -3,955
195,162;   99,902;   -0,567;   -2,227
195,762;  262,250;    2,433;   -0,045
196,362;  212,314;    1,706;   -2,500
196,963;   85,891;    1,706;   -0,864
197,563;  166,934;    1,252;   -0,955
198,163;  112,244;   -0,111;   -0,682
198,763;  131,367;   -0,020;   -0,500
199,363;  232,988;    3,616;   -0,500
199,963;  194,613;    2,162;    0,409
200,563;  167,715;    6,344;   -1,409
201,163;  150,560;    5,435;   -0,227
201,763;  242,897;    1,435;    0,318
202,363;  188,458;    0,980;    1,500
202,963;  294,153;    1,526;    1,045
203,563;  409,399;    0,344;    0,500
204,162;  256,330;    1,889;   -1,864
204,762;  242,560;    2,071;    0,591
205,362;  220,710;    0,708;    1,955
205,962;  322,464;    3,435;    1,955
206,562;  327,784;    1,889;    2,318
207,161;  297,859;    1,708;    0,318
207,761;  447,362;    4,435;    2,409
208,361;  325,068;    1,889;    1,409
208,960;  415,004;    2,889;    1,500
209,560;  503,121;    0,435;    1,591
210,160;  481,410;    5,071;    1,864
210,759;  461,571;    0,708;    1,227
211,359;  451,838;   -0,474;    1,045
211,958;  726,063;    3,526;    2,045
212,558;  815,030;    0,799;    1,864
213,157;  648,191;   -0,929;    1,500
213,757; 1113,234;    5,617;   -0,227
214,356;  808,453;    1,708;   -0,409
214,956; 1158,266;    3,526;    0,409
215,555;  787,260;    0,617;    2,136
216,154;  710,020;   -0,292;   -0,591
216,754;  733,282;    1,253;    0,773
217,353;  885,865;   -0,383;   -1,045
217,952;  748,159;    2,072;    0,318
218,552;  973,437;    0,254;   -0,773
219,151;  890,351;   -1,110;    0,955
219,750;  894,153;    0,890;   -0,227
220,349; 1066,250;   -2,292;    1,045
220,948; 1109,416;    1,163;    1,136
221,548; 1169,223;    0,617;    1,227
222,147; 1295,865;   -1,292;   -0,409
222,746; 1590,127;    1,254;   -0,955
223,345; 1459,426;   -1,019;    0,500
223,944; 1499,929;    1,163;    0,773
224,543; 1692,041;    4,072;   -1,409
225,142; 1807,137;    1,345;    0,136
225,741; 1742,389;    1,163;    1,045
226,340; 1771,539;    1,254;   -0,955
226,939; 2271,672;    2,708;   -0,136
227,538; 2308,041;    1,163;   -0,773
228,137; 2441,961;    0,435;    0,864
228,735; 2658,410;    0,435;    1,227
229,334; 2378,218;   -0,474;   -0,227
229,933; 2771,747;    0,799;    0,591
230,532; 2910,137;   -1,201;   -0,409
231,131; 2972,672;    1,253;    0,318
231,729; 3163,357;    1,163;   -2,318
232,328; 3368,127;    0,435;   -1,500
232,927; 3472,790;    4,526;   -0,500
233,525; 3624,501;    0,981;    0,045
234,124; 3857,924;    1,890;   -1,591
234,723; 3948,694;    1,617;   -1,045
235,321; 4129,747;    1,163;    0,136
235,920; 4410,453;    2,526;   -1,227
236,518; 4693,688;    1,072;    0,318
237,117; 4980,014;    2,890;   -0,227
237,715; 5171,918;    1,163;   -0,500
238,314; 5190,790;    1,708;   -2,318
238,912; 5304,458;    0,526;   -1,409
239,510; 5379,255;    1,162;   -1,227
240,109; 5589,961;   -0,474;    3,773
240,707; 5660,319;   -0,474;    1,227
241,305; 6130,843;   -0,383;    0,136
241,904; 6324,389;   -0,292;   -2,045
242,502; 6263,587;    3,253;   -0,227
243,100; 6281,998;    3,344;   -0,955
243,698; 6576,720;    2,799;    1,682
244,297; 6753,496;   -0,656;    0,682
244,895; 6579,282;   -0,474;   -2,318
245,493; 6940,485;    2,981;   -0,591
246,091; 7037,068;    5,163;   -1,318
246,689; 7025,063;    2,163;    0,591
247,287; 7204,571;   -0,019;   -1,136
247,885; 7573,314;   -1,019;    1,227
248,483; 7682,988;   -0,201;   -0,500
249,081; 7854,929;    0,981;    1,591
249,679; 8045,212;   -1,019;    1,682
250,277; 8335,731;   -2,292;    0,864
250,875; 8285,004;    0,617;   -1,045
251,473; 8381,779;   -0,019;    0,500
252,071; 8535,806;   -0,383;    1,045
252,669; 8733,838;   -1,565;    0,318
253,267; 9078,111;    1,618;    0,773
253,864; 9054,934;    0,617;    0,682
254,462; 8848,025;    1,526;    1,591
255,060; 8879,089;    0,072;    1,318
255,658; 9261,838;   -3,292;   -0,136
256,255; 9704,474;   -0,201;   -2,045
256,853; 9540,223;    2,345;    1,409
257,451; 9580,656;    1,981;    1,864
258,048; 9844,175;    2,072;    1,864
258,646; 9611,202;    0,436;   -1,045
259,243; 9806,678;    2,981;    2,227
259,841; 9896,175;    1,799;    0,318
260,438; 9740,105;    0,254;    0,864
261,036;10580,351;    0,617;    1,409
261,633;10499,485;    1,526;    2,227
262,231;10201,399;   -0,110;   -0,045
262,828;10316,405;   -0,383;    1,136
263,425;10368,891;   -1,928;   -0,591
264,023;10664,180;    1,436;    0,045
264,620;10187,100;    1,526;   -0,318
265,217;10557,571;    2,890;    3,136
265,815;10703,100;    2,527;    2,136
266,412;10447,127;    0,072;    0,136
267,009;10509,196;    0,526;    0,773
267,606;10400,929;    0,345;   -0,955
268,203;10380,314;   -0,383;   -0,591
268,801;10690,865;   -0,474;    0,591
269,398;11017,271;   -0,564;    2,500
269,995;11011,678;    0,890;    1,591
270,592;10745,159;    0,799;   -0,500
271,189;11022,849;    1,981;    0,409
271,786;11159,656;    2,072;    1,227
272,383;10951,817;   -0,383;    0,227
272,980;11186,266;    1,617;    0,318
273,577;11752,913;    2,162;    1,227
274,174;11270,694;    1,435;    2,591
274,771;11223,747;    1,890;   -0,773
275,367;11385,817;    3,253;    1,409
275,964;11360,945;   -0,565;   -0,500
276,561;11500,581;   -2,474;   -1,045
277,158;11796,849;    1,799;   -1,773
277,755;11865,747;   -0,110;    0,409
278,351;11181,651;    0,436;   -1,500
278,948;11548,619;   -0,201;    0,045
279,545;11606,405;    0,527;    2,318
280,141;12248,907;    1,254;   -2,045
280,738;12092,555;    2,435;   -0,136
281,334;12392,544;   -0,383;    0,591
281,931;11765,052;    2,890;   -1,318
282,528;11874,330;    4,072;   -0,500
283,124;12689,116;    3,345;   -0,500
283,721;12584,030;    0,709;    1,409
284,317;12377,758;    0,163;    2,500
284,913;12939,827;   -0,110;    0,591
285,510;13207,918;    2,890;   -0,318
286,106;13257,453;    2,345;   -0,955
286,703;12788,298;    0,072;    1,955
287,299;13003,175;    1,254;   -0,591
287,895;13287,223;    0,890;   -1,045
288,491;13951,726;    0,163;    2,136
289,088;13631,287;    0,163;    2,409
289,684;13669,929;    2,890;    1,500
290,280;13695,528;    1,890;    0,682
290,876;13773,972;    0,163;    5,500
291,472;13663,881;    2,163;    2,227
292,068;13785,736;    1,254;    0,227
292,665;13523,993;   -0,564;    0,773
293,261;13055,496;   -1,292;    2,136
293,857;13458,244;    4,072;    2,136
294,453;13425,742;   -0,928;    0,955
295,049;13294,966;    0,253;    1,955
295,644;13286,811;   -1,292;    0,136
296,240;13201,506;    0,162;   -0,136
296,836;13248,116;   -0,747;    0,318
297,432;13582,597;    2,980;   -0,500
298,028;13567,025;    0,435;    0,773
298,624;14008,859;    0,889;    1,864
299,220;14368,234;    0,435;    0,591
299,815;13978,271;    0,526;   -0,409
300,411;13771,057;    0,435;    1,773
301,007;13740,009;    1,889;    0,227
301,602;13821,186;    2,071;   -2,318
302,198;14007,228;    1,435;   -0,773
302,794;14335,458;    1,526;   -0,500
303,389;14491,202;    1,071;    1,045
303,985;14573,731;    1,253;    1,409
304,580;14516,089;    0,889;    1,591
305,176;14507,207;    0,344;    0,136
305,771;14465,742;   -0,929;   -1,227
306,367;14235,838;    3,071;    0,136
306,962;14657,276;    2,889;    1,500
307,558;14374,485;    2,435;    0,136
308,153;14369,212;   -0,383;   -1,136
308,748;14574,239;    0,162;    1,682
309,344;14520,325;    0,253;   -1,318
309,939;14633,309;    2,071;   -1,318
310,534;14965,271;   -2,020;   -1,682
311,130;14901,309;   -0,656;   -2,500
311,725;14632,260;    0,526;   -0,500
312,320;14947,710;    1,253;    0,045
312,915;14789,186;    2,890;   -1,045
313,510;14836,934;    0,526;   -0,500
314,105;15435,667;   -3,565;    1,409
314,700;14786,164;   -1,656;   -1,045
315,295;14383,544;   -0,020;    0,045
315,890;13879,084;   -0,292;    0,864
316,485;14253,907;    0,253;   -0,318
317,080;14383,742;   -0,929;    1,591
317,675;14962,806;    3,071;   -0,682
318,270;14271,801;    6,889;    3,318
318,865;14311,795;    2,435;    3,045
319,460;14110,063;   -1,565;    0,591
320,055;14394,169;   -2,565;   -1,227
320,650;14038,020;   -1,838;   -0,591
321,244;14042,287;    0,889;   -1,409
321,839;15119,453;    0,980;   -0,227
322,434;14976,437;   -0,111;   -1,591
323,029;14573,678;   -0,474;    1,591
323,623;14420,603;    0,798;    0,773
324,218;14124,640;    2,707;    1,409
324,812;14031,827;    0,889;    1,591
325,407;13836,244;   -0,929;    2,045
326,002;13769,405;    0,526;   -0,409
326,596;14070,694;   -0,656;    1,318
327,191;14364,833;   -0,383;   -1,045
327,785;13897,694;   -0,747;   -0,227
328,379;14132,410;   -0,383;    0,136
328,974;13912,715;    1,798;   -3,955
329,568;14159,137;    2,889;   -2,409
330,163;13943,538;    2,435;    1,045
330,757;14355,982;    0,253;    1,591
331,351;13647,774;   -0,292;    0,682
331,945;13923,817;   -0,383;    1,409
332,540;13416,415;    1,617;   -0,591
333,134;13585,597;    3,344;    0,773
333,728;13847,202;    2,799;    0,318
334,322;14188,977;    0,889;   -0,864
334,916;13441,806;    0,344;    0,955
335,510;13811,613;   -0,111;   -0,136
336,105;14066,014;   -0,929;    1,591
336,699;13714,159;   -1,292;    0,591
337,293;13655,945;    1,071;    0,318
337,887;13811,105;    0,071;    1,955
338,481;13901,169;    2,980;    0,591
339,074;14071,982;    2,071;    2,682
339,668;13847,833;   -0,110;    1,227
340,262;14088,271;    7,708;    3,227
340,856;13585,191;    1,708;   -0,682
341,450;12907,025;    0,708;    1,864
342,044;13881,127;    1,799;    0,136
342,637;13622,506;    1,162;   -2,136
343,231;13437,266;   -1,474;    0,682
343,825;13358,335;   -0,747;   -0,591
344,419;13275,212;   -0,474;    0,500
345,012;12990,196;    2,889;    4,045
345,606;13064,859;   -0,656;    1,591
346,199;12882,640;   -0,111;   -0,227
346,793;12325,854;    2,525;    2,045
347,386;12544,608;    0,889;   -1,136
347,980;12529,367;   -0,838;   -0,045
348,573;12293,795;   -1,748;    0,409
349,167;11885,303;    6,161;    4,773
349,760;12278,800;    2,252;    2,682
350,354;12244,854;    1,616;    1,136
350,947;11914,544;    2,798;    1,682
351,540;11613,020;    0,616;   -1,409
352,134;11564,560;   -1,111;    1,136
352,727;11584,977;   -0,657;    1,136
353,320;11405,073;    2,343;    0,591
353,913;11268,592;   -1,929;    1,864
354,507;11435,982;    0,434;   -1,227
355,100;11423,223;    0,071;    0,864
355,693;10487,116;    4,798;    2,409
356,286;10584,464;    0,980;    2,773
356,879;11023,993;   -0,475;    1,227
357,472;10559,314;    0,980;    1,500
358,065;10729,469;    3,161;    2,500
358,658;10681,260;    0,798;    2,318
359,251;10301,907;    0,252;   -0,591
359,844; 9692,362;    0,343;   -1,136
360,437; 9838,656;    0,252;    0,045
361,030;10157,966;    0,525;   -0,682
361,623; 9661,490;    0,434;    0,318
362,215; 9698,394;    0,979;    2,045
362,808; 9571,972;   -2,293;   -1,682
363,401; 9784,688;    0,798;    0,136
363,994; 9478,426;    3,252;   -1,500
364,586; 9388,576;    0,888;   -1,500
365,179; 9607,603;   -0,203;   -1,136
365,772; 9058,661;   -0,930;    2,045
366,364; 9363,870;    1,524;   -3,227
366,957; 9596,806;    1,342;   -0,045
367,549; 9607,865;   -0,203;   -0,864
368,142; 9199,276;    0,978;   -1,500
368,734; 9444,314;    2,523;   -2,136
369,327; 9378,667;    2,341;   -0,500
369,919; 9278,004;   -1,659;    0,409
370,512; 9021,961;   -1,023;   -0,500
371,104; 8739,105;    2,704;    1,591
371,696; 8919,046;    1,703;   -0,955
372,289; 9052,405;    0,157;    1,136
372,881; 9177,041;    1,156;    1,318
373,473; 9115,725;    4,064;    1,136
374,066; 8887,159;    1,336;    0,500
374,658; 8706,848;    0,879;    1,136
375,250; 9102,415;   -1,668;   -1,409
375,842; 8926,009;   -0,124;   -0,045
376,434; 8808,939;   -2,762;   -0,409
377,026; 9453,426;   -1,855;   -2,500
377,618; 9326,639;    0,779;   -0,682
378,210; 9164,827;    3,141;   -1,955
378,802; 9018,035;    3,412;   -0,591
379,394; 8940,367;    3,411;    0,682
379,986; 9596,629;    1,138;   -0,955
380,578; 9697,629;    1,410;    0,773
381,170; 8961,907;    0,320;    0,045
381,762; 8916,233;   -0,224;    1,409
382,354; 9167,297;   -0,223;   -1,318
382,945; 9279,319;    0,870;    0,318
383,537; 9445,142;    1,144;   -1,955
384,129; 9403,281;    0,963;   -1,136
384,721; 9650,645;    0,418;    0,955
385,312; 9580,704;   -1,399;   -0,955
385,904; 9651,057;   -0,945;    1,591
386,496; 8971,693;    0,691;    1,045
387,087; 9110,912;    0,418;    2,500
387,679; 9174,757;   -0,401;    0,045
388,270; 9326,089;   -2,401;    2,045
388,862; 9422,570;   -0,401;   -0,318
389,453; 9296,971;    1,054;    1,045
390,045; 9592,303;    3,236;   -2,682
390,636; 9571,944;    0,144;   -0,591
391,227; 9396,399;    2,054;   -0,045
391,819; 9481,581;    0,781;    0,773
392,410; 9568,041;    0,600;    0,045
393,001; 9503,089;    1,600;   -1,591
393,593; 9803,110;    0,600;   -0,045
394,184; 9624,372;    0,873;   -0,409
394,775; 9577,682;    1,146;    2,136
395,366; 9765,549;    1,782;    0,773
395,957; 9814,265;   -2,400;    0,136
396,548;10170,768;    1,054;    2,682
397,139;10495,918;    2,236;    0,591
397,730;10174,506;    0,873;    0,955
398,321;10242,361;    0,509;    0,955
398,912;10235,891;   -0,764;    0,136
399,503;10364,003;   -1,945;   -1,409
400,094; 9725,666;   -1,582;    1,682
400,685; 9551,009;    3,600;    0,045
401,276; 9681,966;   -0,400;   -0,955
401,867;10010,795;   -1,127;    0,773
402,458;10147,287;    1,509;   -2,318
403,048;10126,196;    0,146;    0,591
403,639; 9705,030;    1,509;    0,864
404,230; 9900,966;    0,691;    0,318
404,821; 9804,185;   -0,127;    0,045
405,411; 9944,404;   -0,763;   -2,591
406,002; 9498,148;    3,237;   -1,136
406,592; 9306,736;    2,691;    0,045
407,183; 9650,490;    0,328;   -1,500
407,774; 9588,843;    1,419;   -0,136
408,364; 9958,763;    2,600;    0,409
408,954; 9496,244;   -0,036;    1,227
409,545; 9551,410;    1,873;    1,045
410,135; 9026,923;   -1,581;    0,500
410,726; 9244,768;    0,783;    0,318
411,316; 9683,362;    2,237;    0,773
411,906; 9340,693;    0,146;   -0,409
412,497; 8720,891;   -0,490;   -0,045
413,087; 9388,511;    0,783;   -0,227
413,677; 9838,800;   -2,490;    3,864
414,267; 9654,201;   -1,035;    1,409
414,857; 9650,324;    0,419;    4,227
415,448; 9960,570;   -0,763;    0,500
416,038; 9618,447;   -2,945;   -0,591
416,628; 9576,693;    0,965;    0,409
417,218; 8994,645;   -1,762;    3,318
417,808; 9302,222;    0,965;   -0,409
418,398; 9824,896;   -1,035;    2,682
418,988; 9828,618;   -2,217;    0,591
419,578;10093,164;    3,601;    1,409
420,168;10471,886;    0,692;   -0,955
420,757;10014,511;    0,964;   -1,500
421,347; 9661,554;    1,601;   -0,227
421,937; 9854,570;    3,329;    1,409
422,527; 9756,003;    2,602;   -0,773
423,116; 9523,378;    2,692;   -0,045
423,706; 9969,233;    2,965;    0,318
424,296; 9927,586;    1,601;    0,682
424,885;10392,586;    1,510;   -3,045
425,475;10726,848;    1,147;   -2,864
426,065;10651,597;   -1,489;   -0,318
426,654;10220,789;    0,329;   -0,318
427,244;10307,538;    1,147;    1,409
427,833; 9701,864;    1,056;   -0,500
428,423;10236,698;    0,147;    1,136
429,012;11088,752;    2,420;   -1,136
429,601;10531,223;    2,057;    0,136
430,191;10799,388;    2,511;    4,318
430,780;10403,586;   -1,671;   -0,409
431,369;10305,410;    1,329;   -0,045
431,959;10985,741;    1,693;    0,500
432,548;10770,517;   -1,398;   -0,045
433,137;10928,581;    0,329;   -1,318
433,726;11460,442;    0,148;    0,500
434,315;10811,367;    0,148;    2,409
434,905;10881,613;    0,693;    1,409
435,494;10799,447;    3,148;    0,955
436,083;11299,982;    1,420;   -0,955
436,672;11107,319;    1,148;    0,500
437,261;10640,041;    0,512;   -1,955
437,850;10718,592;   -1,125;    0,682
438,439;10709,303;    2,239;    1,955
439,027;10538,346;    3,421;    1,773
439,616;10978,666;    2,239;    1,227
440,205;10861,169;    0,057;   -2,136
440,794;10949,602;   -0,306;   -0,045
441,383;11225,340;    1,603;   -0,591
441,971;11063,046;   -0,306;    0,591
442,560;10871,752;    0,603;   -1,773
443,149;10685,656;    3,060;   -1,318
443,737;10841,827;    0,968;   -2,318
444,326;11099,313;    0,331;    0,318
444,915;11118,682;   -1,851;    0,864
445,503;11559,442;    0,058;   -0,318
446,092;10790,848;    7,876;    2,136
446,680;11373,201;    1,876;    0,318
447,269;11587,399;   -1,487;   -0,318
447,857;11334,142;    2,240;   -1,773
448,445;11444,939;    2,149;    1,318
449,034;11689,212;    0,876;   -1,136
449,622;11808,217;    1,240;    3,500
450,210;10899,993;    3,149;    2,227
450,799;11514,394;    2,604;   -0,591
451,387;11465,832;    1,786;   -0,591
451,975;11086,864;   -1,305;    0,864
452,563;11188,736;    0,422;    2,318
453,151;11250,800;   -1,032;   -1,227
453,739;11158,442;   -1,577;    0,136
454,328;10981,158;    0,604;   -2,136
454,916;10644,912;    1,150;   -0,136
455,504;10848,955;    3,513;    1,227
456,092;11027,281;    2,150;   -1,591
456,679;11036,265;    0,604;    0,682
457,267;10893,645;    3,604;    1,045
457,855;11107,677;    3,241;    1,409
458,443;10886,624;   -0,304;    1,682
459,031;10987,271;    1,332;    2,409
459,619;11486,351;   -3,577;    2,864
460,206;11634,522;   -0,759;    2,045
460,794;11725,811;   -0,668;   -0,227
461,382;12001,367;    0,878;   -0,864
461,970;11497,576;    0,605;    1,864
462,557;11561,324;    0,878;   -0,682
463,145;11789,324;   -0,304;   -1,682
463,732;11883,132;    2,514;   -1,045
464,320;11835,838;    1,514;   -3,045
464,907;11494,212;    0,423;   -0,773
465,495;11414,891;    2,696;   -1,227
466,082;11551,399;    2,060;   -0,045
466,670;11444,693;    2,605;    1,227
467,257;11870,928;    0,060;    2,045
467,844;12062,554;    1,514;    0,045
468,432;12064,789;   -0,031;    3,500
469,019;11512,634;    1,606;   -1,773
469,606;12010,699;    0,969;    3,682
470,193;11819,495;    2,151;    0,227
470,780;11344,763;    0,333;    0,864
471,368;11739,982;   -1,212;   -0,773
471,955;11476,207;    1,060;   -0,682
472,542;11108,014;   -0,303;   -1,136
473,129;11333,843;   -0,485;    0,136
473,716;11093,137;    0,060;    0,591
474,303;11294,511;    1,333;   -0,864
474,890;11624,704;    2,333;   -0,500
475,477;11625,832;   -0,576;    0,409
476,064;11524,806;    0,697;   -1,591
476,650;11434,485;    2,152;    0,318
477,237;11311,485;    1,879;    0,955
477,824;11497,912;    3,879;    0,864
478,411;11490,891;    0,606;   -0,318
478,997;11669,832;    0,606;   -0,773
479,584;11765,506;   -0,666;   -0,409
480,171;12546,442;    1,243;   -0,773
480,757;12176,800;   -0,848;    0,773
481,344;12483,602;    0,334;    0,409
481,931;12008,185;   -0,393;    1,045
482,517;13052,367;    0,425;    0,318
483,104;13700,292;    1,334;    2,864
483,690;14094,035;    0,243;    0,045
484,276;14471,458;    0,698;    0,227
484,863;14215,752;    2,152;    1,136
485,449;14907,736;    0,152;    0,318
486,035;14842,517;   -0,666;   -0,136
486,622;15289,677;   -2,393;    0,045
487,208;15236,720;    1,334;    1,500
487,794;15119,581;    0,971;    0,318
488,380;15207,351;    0,698;   -1,409
488,967;15257,741;   -1,120;   -0,409
489,553;15305,324;   -1,029;   -1,409
490,139;15493,939;    0,971;    0,773
490,725;14940,421;    0,789;   -0,227
491,311;14446,634;    1,516;    3,045
491,897;13641,469;   -0,665;    1,500
492,483;13369,816;    0,426;    1,227
493,069;13104,458;    5,426;    0,864
493,655;13148,137;    1,789;    0,682
494,241;13004,351;    1,517;   -0,955
494,826;13432,137;    0,335;   -1,045
495,412;12893,987;    0,335;   -0,682
495,998;13035,624;    0,971;   -0,318
496,584;13212,495;    2,244;    1,045
497,169;13201,886;    2,335;   -0,682
497,755;13157,228;    1,244;    1,227
498,341;13736,699;    2,153;    0,318
498,926;13286,752;    2,881;    1,955
499,512;13521,298;   -0,028;    2,955
500,097;13645,207;   -0,574;   -0,318
500,683;13590,506;   -0,028;    2,136
501,268;13949,276;    1,881;   -0,955
501,854;13655,854;   -0,119;    1,227
502,439;13576,549;   -0,573;   -1,773
503,024;13742,501;    1,608;    0,500
503,610;13867,608;    1,335;   -0,682
504,195;13881,517;    1,245;    1,955
504,780;13974,207;    2,335;    1,227
505,366;13783,175;    4,063;    2,864
505,951;13486,923;   -1,119;    1,045
506,536;13532,832;    1,427;   -3,682
507,121;13539,346;    1,699;   -0,318
507,706;14071,544;   -0,392;    1,045
508,291;14463,747;   -2,937;    1,136
508,876;13930,618;   -0,482;    2,591
509,461;13358,870;    1,427;   -0,773
510,046;13781,790;   -0,391;    0,318
510,631;14036,971;   -0,119;   -0,773
511,216;13686,196;   -0,664;   -0,500
511,801;14083,271;   -0,755;    2,591
512,386;14365,618;    0,972;    0,500
512,971;14302,677;    0,427;    0,955
513,555;13878,725;    1,154;   -1,500
514,140;14684,340;    1,336;   -3,136
514,725;14684,661;    1,791;   -1,136
515,309;14838,811;    1,064;    0,318
515,894;14268,319;   -0,300;   -2,227
516,479;14714,827;    1,973;   -0,955
517,063;14568,415;    0,882;    1,227
517,648;14748,073;    0,155;   -1,136
518,232;14291,640;   -1,300;   -1,409
518,817;14639,618;    1,337;    1,682
519,401;14916,009;    0,700;    0,591
519,985;14365,875;    2,700;    1,136
520,570;14246,549;   -0,118;   -1,955
521,154;14609,774;    0,064;    0,591
521,738;14762,469;    1,064;    2,409
522,323;15329,469;   -0,390;    1,682
522,907;15062,421;    2,428;   -0,136
523,491;14771,073;    1,155;    0,955
524,075;14824,324;    0,428;    0,591
524,659;14860,629;    0,973;    0,591
525,243;14241,683;    0,883;    0,409
525,827;14515,298;    0,883;   -0,045
526,411;15396,720;    1,155;   -0,136
526,995;15655,832;    0,337;    1,409
527,579;15217,848;    1,974;   -1,045
528,163;15542,148;    0,428;   -1,500
528,747;15480,394;    1,065;   -0,773
529,331;15792,127;    0,883;   -1,409
529,915;15976,100;    2,338;    0,955
530,499;15949,431;    0,247;    1,227
531,082;15616,656;    1,065;    1,591
531,666;15043,046;    0,520;    0,773
532,250;15772,827;    0,428;    2,682
532,833;16152,260;    0,610;    2,773
533,417;15990,848;    1,247;    0,864
534,001;15888,528;    0,429;   -0,318
534,584;16618,854;    1,974;    0,500
535,168;16477,570;    3,247;    1,409
535,751;16539,356;    4,520;    0,045
536,334;15954,768;    4,520;   -0,409
536,918;16585,784;    1,974;    1,591
537,501;16709,132;    1,520;    1,318
538,085;16724,624;    1,702;    1,045
538,668;16865,148;    0,883;    2,409
539,251;17180,945;    3,156;    3,773
539,834;17228,378;    0,156;    0,773
540,418;17159,651;    3,247;    4,318
541,001;17277,939;    2,702;    1,773
541,584;17295,522;    1,429;    2,227
542,167;16998,795;    0,702;    2,955
542,750;17177,784;    0,793;   -0,773
543,333;16721,656;    1,429;    2,136
543,916;17548,025;   -0,298;    2,500
544,499;18158,410;    2,520;    0,227
545,082;18161,576;    0,248;    3,591
545,665;18295,929;   -0,207;    1,500
546,248;18630,020;    0,520;   -0,318
546,830;18315,052;   -1,752;    1,955
547,413;18732,688;    0,157;   -0,773
547,996;19310,544;    0,157;    0,500
548,579;19074,784;   -0,843;    0,955
549,161;18928,223;    0,884;    2,682
549,744;18728,009;    0,612;    0,409
550,326;19210,656;    0,885;   -1,136
550,909;18963,881;    2,339;    0,591
551,492;19409,988;    0,521;    0,227
552,074;19144,501;   -0,024;   -1,318
552,657;19744,111;    2,430;    0,045
553,239;19511,137;   -3,024;   -0,773
553,821;19428,667;   -1,570;    1,045
554,404;18917,255;   -0,024;    1,136
554,986;19281,410;    2,248;    1,045
555,568;19901,346;    0,430;   -0,955
556,151;19072,143;    4,067;   -0,227
556,733;19279,838;   -1,388;   -0,864
557,315;19753,918;    4,703;    0,500
557,897;19549,865;    0,521;   -0,500
558,479;19708,544;    1,703;    1,318
559,061;19817,159;    1,067;   -0,864
559,643;20165,961;   -0,297;    0,045
560,225;20555,966;   -0,388;    2,864
560,807;20575,961;    0,340;    0,318
561,389;20071,324;   -1,206;    2,318
561,971;20845,891;   -0,660;    2,136
562,553;20662,378;    0,613;    1,591
563,135;20801,394;    1,249;    1,136
563,717;20346,538;    3,158;    1,136
564,298;21103,351;    3,976;   -0,045
564,880;20839,004;    0,340;   -1,409
565,462;21013,822;    1,977;    1,318
566,043;22224,950;   -0,933;    2,318
566,625;21755,490;    4,067;    1,227
567,207;21597,132;    0,704;    1,682
567,788;22767,341;   -0,114;    1,500
568,370;23602,897;   -1,841;   -0,500
568,951;23444,164;   -0,569;    0,227
569,533;24358,972;    0,977;   -0,500
570,114;24896,758;   -0,296;    0,682
570,695;25407,330;   -0,478;   -1,318
571,277;25922,303;   -0,205;   -1,682
571,858;26743,191;    2,704;   -1,136
572,439;27712,180;    0,795;   -1,045
573,021;27898,314;    0,432;   -2,773
573,602;28410,790;    1,795;    0,318
574,183;29355,464;   -0,114;    2,227
574,764;29568,143;    2,068;    0,409
575,345;30126,201;    0,250;   -0,136
575,926;30756,613;    2,704;    0,136
576,507;30772,784;    2,704;   -0,227
577,088;31866,570;    1,704;    1,682
577,669;31948,276;    1,704;    1,955
578,250;32748,736;   -0,750;   -1,045
578,831;33414,613;   -0,841;   -2,227
579,412;33699,800;   -1,205;    0,955
579,993;34681,330;    1,432;    0,227
580,573;35088,185;   -0,023;   -0,955
581,154;33979,950;    1,613;   -0,591
581,735;34837,330;    0,341;    0,773
582,315;34306,603;    0,523;    2,136
582,896;34636,688;   -1,750;    1,227
583,477;34116,544;    0,614;    1,227
584,057;34286,116;    1,159;    0,955
584,638;34517,966;   -2,750;    2,318
585,218;34594,196;    2,886;    2,682
585,799;34696,367;    1,977;   -0,227
586,379;34686,752;    1,250;    1,591
586,959;33471,891;    2,613;    0,318
587,540;32733,137;    0,432;    2,227
588,120;32137,137;   -1,113;   -0,045
588,700;31067,137;    2,977;    2,136
589,281;31469,121;    1,250;   -0,955
589,861;31371,004;   -0,296;   -1,682
590,441;31107,950;   -1,477;   -2,682
591,021;30060,234;    1,432;   -2,591
591,601;30290,929;    0,431;    0,500
592,181;30312,212;   -1,296;   -0,773
592,761;29608,811;    2,250;    1,409
593,341;29465,399;    1,522;    0,045
593,921;29395,720;   -0,569;    1,591
594,501;29285,560;    1,250;    1,318
595,081;29126,014;    0,522;   -0,318
595,661;29454,132;    1,068;    0,955
596,240;30020,052;   -1,023;    0,136
596,820;29547,164;    2,613;    1,955
597,400;29808,421;    1,977;    0,773
597,980;30058,768;   -0,750;    1,045
598,559;30107,950;    0,341;   -0,227
599,139;29777,437;   -0,750;   -1,227
599,718;29650,164;    0,795;   -0,409
600,298;29951,619;   -2,387;    0,682
600,877;30096,512;    4,795;    1,409
601,457;30435,078;    0,340;    1,136
602,036;30283,105;    1,795;    2,045
602,616;30560,399;    2,250;    1,682
603,195;30841,709;    0,431;    3,500
603,774;30336,619;   -0,296;    2,045
604,354;30258,779;    2,522;   -0,500
604,933;29723,095;    0,250;    1,864
605,512;29885,945;    2,340;    0,591
606,091;29911,640;    1,886;    3,773
606,671;30695,143;    0,249;    0,773
607,250;29797,790;    1,431;    3,136
607,829;30045,212;    1,158;    3,227
608,408;29932,870;    4,613;    2,591
608,987;28922,431;    2,704;    3,409
609,566;29238,137;    0,341;   -2,500
610,145;29353,875;    2,885;    0,682
610,723;29732,111;    1,613;    6,864
611,302;28881,020;    1,067;    1,682
611,881;28412,790;    5,158;   11,227
612,460;29273,410;    0,795;    3,955
613,039;29702,699;    1,703;    2,045
613,617;28355,175;    0,886;    4,773
614,196;28560,624;    1,613;    1,227
614,775;28937,838;    1,249;    2,409
615,353;28887,565;   -1,660;    0,864
615,932;28547,367;    0,249;    2,409
616,510;29177,014;    0,158;    0,591
617,089;28682,806;    8,794;   17,591
617,667;28399,918;    4,885;    6,136
618,246;28210,250;   -1,115;    1,318
618,824;28378,330;    1,612;   -0,955
619,402;27922,426;    0,431;   -1,773
619,981;28378,811;    1,067;   -1,045
620,559;28299,004;    0,794;    1,682
621,137;27842,549;    3,067;    1,864
621,715;27762,512;    3,703;   -0,682
622,293;27672,966;    1,885;   -0,773
622,871;28197,009;    0,340;    0,500
623,450;27765,159;    0,430;   -0,864
624,028;27627,576;   -0,388;   -0,955
624,606;27247,731;    2,339;    1,682
625,183;27653,715;   -0,661;   -1,136
625,761;27263,255;    1,885;    1,136
626,339;27525,726;    2,339;    2,591
626,917;27942,052;    0,339;   -0,045
627,495;27980,282;    2,794;    1,318
628,073;27394,415;    5,248;    2,864
628,650;27072,693;    3,067;    2,136
629,228;27552,260;    1,248;    4,409
629,806;26914,522;   -0,024;    1,136
630,383;27161,217;    0,066;   -0,318
630,961;26921,918;   -2,206;   -0,955
631,539;26637,811;   -2,479;    0,227
632,116;25845,282;   12,703;   15,409
632,694;26533,228;    4,885;    6,500
633,271;26829,089;    1,975;    2,682
633,848;26735,709;    1,430;    2,045
634,426;26834,367;    1,521;    1,773
635,003;25888,506;   -0,207;   -0,409
635,580;26194,212;    1,884;    3,682
636,158;26776,512;    3,793;    1,227
636,735;26720,576;    3,339;   -0,500
637,312;26915,431;    0,521;   -0,682
637,889;26994,763;    2,248;   -0,682
638,466;26472,635;    0,066;   -0,409
639,043;26458,966;    1,702;   -1,136
639,620;26795,929;    0,611;   -0,955
640,197;27124,324;    1,612;    1,682
640,774;27239,110;    1,430;    1,136
641,351;27640,896;    0,612;    1,136
641,928;27069,500;    2,794;    1,409
642,505;26674,286;    0,794;   -0,500
643,082;26770,253;    1,885;    1,227
643,658;25764,221;    1,157;    1,500
644,235;26542,371;   -2,479;    2,500
644,812;26824,611;    1,794;    0,773
645,388;26597,215;    1,612;    1,409
645,965;26679,910;    1,521;    1,682
646,542;26747,696;    3,430;   -0,227
647,118;26745,936;    3,703;   -0,955
647,695;27083,904;    0,339;    1,136
648,271;26985,417;   -2,115;    0,500
648,848;27263,567;    0,248;    2,227
649,424;27069,625;    0,976;    1,318
650,000;26817,775;   -0,388;   -1,045
650,577;26672,651;    0,158;   -0,955
651,153;27111,619;   -1,115;    0,955
651,729;28060,859;    0,521;    0,864
652,305;28319,009;    1,339;    2,773
652,881;32957,795;   -1,297;    1,136
653,458;40169,944;    0,249;    0,227
654,034;44226,821;    0,703;    1,591
654,610;45799,334;    0,339;    0,773
655,186;47210,029;    1,612;    3,045
655,762;46887,633;   -1,842;    0,409
656,338;46961,601;    0,703;    0,136
656,913;48011,750;   -0,297;    0,409
657,489;47322,173;    0,249;   -0,318
658,065;47331,504;    0,794;   -1,591
658,641;47867,199;    2,158;   -0,864
659,217;47059,985;    2,067;    0,409
659,792;46475,952;   -1,751;   -0,409
660,368;46777,829;   -0,388;   -0,682
660,944;46430,251;    1,794;    1,227
661,519;41716,855;    0,522;    0,409
662,095;35249,278;   -0,206;    0,591
662,670;30340,609;   -0,206;   -0,136
663,246;29125,122;   -0,660;   -0,409
663,821;28370,544;    0,431;    1,682
664,396;27837,148;    0,613;    1,864
664,972;28107,389;   -0,660;   -0,500
665,547;28438,356;    3,794;    0,136
666,122;28438,142;    1,340;    0,318
666,698;28731,019;    2,431;    0,318
667,273;28018,896;    0,885;    0,136
667,848;28889,682;    0,340;    1,500
668,423;28656,831;    1,795;    2,318
668,998;29307,253;    0,976;   -0,682
669,573;29852,494;    2,067;   -1,500
670,148;29643,007;    1,885;   -0,682
670,723;29416,520;   -0,024;    0,318
671,298;29867,851;   -1,296;    1,045
671,873;30001,001;   -0,296;   -0,136
672,448;29918,059;    1,704;    0,136
673,023;30239,845;    0,249;   -0,227
673,597;30548,176;    2,704;    2,318
674,172;30289,053;    2,431;    0,318
674,747;29835,021;   -0,205;   -1,045
675,321;29684,443;   -0,933;    3,318
675,896;29274,411;    2,158;    1,045
676,471;30210,651;    2,522;    1,591
677,045;29955,073;   -0,296;    0,682
677,620;30057,223;    2,158;    1,136
678,194;30322,009;    0,249;    1,136
678,769;29887,340;    0,886;   -0,318
679,343;30107,308;   -0,023;    1,773
679,917;29961,185;    0,340;    1,955
680,492;30037,607;    0,249;    3,227
681,066;30233,029;    0,613;    0,409
681,640;30269,269;    1,795;   -0,318
682,214;31056,601;    2,340;    0,500
682,788;30569,114;    0,613;   -0,773
683,363;30560,263;    1,977;    1,682
683,937;30255,231;    0,886;   -0,318
684,511;31028,108;   -1,023;   -0,591
685,085;30746,803;   -1,478;    0,318
685,659;30510,407;    1,431;    0,864
686,232;30737,283;    1,159;   -0,318
686,806;30452,433;    2,159;    0,409
687,380;31098,128;   -1,932;    0,591
687,954;31344,914;    2,432;    1,136
688,528;31072,609;    2,613;    1,955
689,101;31855,122;    0,432;    1,045
689,675;31372,271;    0,886;   -0,136
690,249;30785,875;    3,432;    0,409
690,822;31070,752;    1,159;    0,318
691,396;31143,447;    2,068;    1,227
691,969;30573,051;    2,523;    0,136
692,543;31074,746;   -0,568;   -1,955
693,116;30712,986;   -0,659;   -1,409
693,690;30546,681;   -0,296;    0,500
694,263;31127,558;    2,341;    2,955
694,836;31179,344;    2,795;    3,591
695,410;29715,584;    1,159;    1,773
695,983;30201,461;    1,614;    0,591
696,556;30233,247;   -0,750;   -1,045
697,129;30619,124;   -1,114;    1,409
697,703;30242,819;    1,341;    1,955
698,276;30220,605;    1,705;   -0,773
698,849;29963,300;   -1,023;    1,409
699,422;30358,904;    1,250;    0,591
699,995;30012,598;   -0,659;    0,136
700,568;30584,021;   -0,204;    3,045
701,140;30587,170;   -1,841;    1,682
701,713;30261,774;    0,341;    2,409
702,286;30027,560;    0,796;    0,864
702,859;29935,255;    0,614;   -0,591
703,432;29054,405;   -0,841;    0,682
704,004;29579,190;    1,978;    0,318
704,577;29431,431;    1,068;    0,136
705,150;30007,489;    0,887;    2,500
705,722;29745,548;    1,523;   -3,227
706,295;29562,061;    1,432;   -0,591
706,867;29377,847;    0,250;    1,955
707,440;29576,815;   -0,113;   -0,409
708,012;29907,055;   -0,022;    0,591
708,584;29734,114;    2,705;    0,227
709,157;30044,990;    1,160;   -0,591
709,729;29749,685;    1,069;    2,045
710,301;30630,744;   -1,204;    0,045
710,874;30582,621;    0,341;   -0,227
711,446;29446,225;   -0,295;    0,864
712,018;29377,556;   -3,022;    0,500
712,590;29055,069;   -0,204;    1,682
713,162;29645,764;   -0,477;    1,318
713,734;29880,550;    1,796;   -2,045
714,306;29797,427;    0,342;   -0,409
714,878;28455,940;   -0,295;    0,864
715,450;29290,453;   -0,113;    0,864
716,022;29563,875;    2,433;    1,318
716,593;29762,661;    0,978;    0,591
717,165;29645,083;    1,796;   -1,227
717,737;29304,869;    0,796;    0,409
718,309;28996,655;    1,160;   -0,045
718,880;28932,623;   -1,295;   -1,409
719,452;29194,408;    0,887;   -1,591
720,024;28714,376;    1,705;   -0,591
720,595;29269,344;    2,978;    0,955
721,167;28782,948;    1,160;   -2,045
721,738;28284,097;    2,069;   -1,045
722,309;28170,156;    1,251;   -1,227
722,881;27993,942;    2,705;    0,773
723,452;28717,000;    1,251;    2,864
724,023;28867,877;    1,524;    2,682
724,595;28645,845;    2,342;    0,682
725,166;28398,449;    1,524;   -0,409
725,737;28013,326;    1,887;    0,227
726,308;28124,930;    0,797;    0,318
726,879;28543,625;    1,069;    1,227
727,450;28369,774;   -2,022;   -0,045
728,021;28319,287;    1,069;    0,682
728,592;28185,800;    1,160;    0,500
729,163;28477,223;    1,433;   -0,136
729,734;28429,372;    2,160;   -0,227
730,305;28827,249;    0,615;    0,136
730,876;29174,489;    0,888;    2,955
731,447;28901,002;    0,797;    2,682
732,017;29010,425;   -0,840;    1,864
732,588;28542,756;   -0,021;    1,227
733,159;28687,724;    3,615;   -1,045
733,729;28499,418;    1,251;    0,409
734,300;27780,932;    0,160;    0,864
734,870;28211,808;   -1,385;    0,591
735,441;28742,867;    0,888;   -0,591
736,011;28485,198;    1,070;   -1,591
736,582;28467,530;    1,251;    0,045
737,152;27850,952;    0,979;   -2,045
737,722;28348,919;    1,070;   -0,682
738,293;28118,160;   -2,021;    1,318
738,863;27982,128;    1,797;    2,318
739,433;27777,186;    4,524;    0,318
740,003;28417,608;    1,524;   -0,682
740,573;27789,031;    2,252;   -1,591
741,143;27674,453;    3,615;    0,318
741,713;28475,784;    0,252;   -0,500
742,283;28191,115;    1,706;    1,591
742,853;27920,265;    0,524;    1,591
743,423;27411,778;    0,161;    0,045
743,993;27527,927;    1,070;    1,500
744,563;26849,532;    2,524;   -0,864
745,133;26829,954;   -0,112;   -0,864
745,702;27590,649;    2,797;    1,773
746,272;26711,071;    0,434;    0,591
746,842;26505,402;   -0,748;   -0,591
747,411;26919,552;   -0,839;   -0,318
747,981;27137,156;   -0,930;    0,500
748,551;27174,305;   -0,021;   -1,045
749,120;27071,637;   -0,112;   -0,227
749,690;27386,968;    2,161;    2,409
750,259;27675,572;    0,979;    2,955
750,828;27607,358;    4,070;   -1,955
751,398;27875,144;   -0,112;   -0,045
751,967;27370,202;    2,888;    0,409
752,536;27566,988;    1,161;   -0,227
753,105;28045,138;   -1,384;    0,227
753,675;27826,196;   -0,112;    1,773
754,244;27769,709;    0,888;    3,591
754,813;27777,768;    0,979;    1,227
755,382;27392,463;    0,798;    0,955
755,951;27881,521;   -0,112;    3,682
756,520;27446,853;    2,525;    1,864
757,089;28035,729;    1,888;    0,500
757,658;28150,424;    2,434;    1,227
758,227;28205,392;   -1,111;    0,318
758,795;28478,723;   -1,021;    1,136
759,364;28714,782;    0,525;   -0,591
759,933;27702,931;    1,343;   -0,045
760,501;27223,535;    0,252;   -1,318
761,070;27787,139;   -0,293;   -1,409
761,639;28428,380;    1,434;    1,318
762,207;27702,257;    0,889;   -0,955
762,776;27666,497;    2,889;    0,864
763,344;27629,283;    0,071;    0,591
763,913;26740,341;    1,616;    1,409
764,481;27500,582;    1,980;   -0,136
765,049;27265,277;    0,616;    1,409
765,618;27150,972;    1,434;    0,318
766,186;27249,030;    2,434;    0,136
766,754;27407,180;    1,798;    1,864
767,322;26373,511;    1,162;    0,409
767,890;26409,115;    0,525;   -1,773
768,459;26815,265;    2,616;   -0,318
769,027;26993,960;    2,525;    3,409
769,595;25977,836;    2,616;    2,591
770,163;26351,895;    3,344;    2,955
770,730;26110,135;    2,525;   -0,136
771,298;25999,558;    1,162;   -1,409
771,866;26081,707;    0,253;    4,955
772,434;26400,038;    1,162;   -1,864
773,002;26529,642;    2,616;    0,682
773,569;26163,428;    1,071;    1,682
774,137;25975,487;    0,889;   -0,045
774,705;26823,273;   -0,747;   -0,136
775,272;26248,240;    0,253;    0,682
775,840;26031,390;   -0,111;    2,682
776,407;25574,630;   -0,293;    1,955
776,975;25110,689;    1,162;    0,318
777,542;26180,838;    2,162;   -0,045
778,110;26034,806;    0,707;   -0,045
778,677;25642,774;    1,071;   -0,864
779,244;25369,105;   -1,020;    1,045
779,812;25514,164;    0,980;    0,864
780,379;25372,768;    2,435;    1,136
780,946;25627,553;    2,617;   -0,773
781,513;25981,521;   -0,565;    0,318
782,080;25278,762;    1,253;    2,864
782,647;26022,002;    1,708;    3,045
783,214;25624,515;   -0,201;    3,864
783,781;25210,574;    1,708;   -0,682
784,348;25092,632;    0,253;    1,500
784,915;25542,964;   -1,474;    0,318
785,482;25296,022;    2,708;    2,591
786,049;25739,535;    1,071;   -0,591
786,615;25867,867;    1,708;   -0,955
787,182;25619,834;   -3,201;   -0,682
787,749;25344,802;   -2,201;    1,409
788,315;24590,951;    0,253;   -0,409
788,882;24875,555;    0,981;   -1,227
789,448;25562,978;    1,435;   -0,955
790,015;25582,218;    1,799;    3,227
790,581;25124,822;    0,708;    0,227
791,148;25022,153;    1,344;    1,045
791,714;25258,394;   -1,019;    3,136
792,280;24969,998;    3,708;    1,591
792,847;24505,602;   -0,928;    2,500
793,413;25084,751;   -0,110;   -0,318
793,979;24603,537;    1,526;   -1,318
794,545;24691,323;    2,981;    2,682
795,111;24036,563;    2,435;    1,318
795,678;24190,895;    3,526;   -1,682
796,244;23891,590;    2,799;    0,136
796,810;24454,012;    0,799;    0,773
797,375;24157,798;   -0,292;   -2,136
797,941;24215,675;   -1,110;    0,591
798,507;24343,097;    0,254;   -0,955
799,073;23920,792;    2,708;    0,591
799,639;23948,759;    1,435;    3,136
800,205;23980,363;   -1,565;    2,682
800,770;23521,149;    1,345;    1,773
801,336;23527,481;    2,981;   -0,955
801,901;23237,812;    6,072;    3,136
802,467;23816,416;    0,526;    2,045
803,033;23118,202;   -0,019;    0,864
803,598;23314,715;    1,072;   -1,045
804,163;23385,319;    0,708;   -0,318
804,729;23290,287;   -0,110;    1,136
805,294;23669,254;    1,072;    2,227
805,859;23474,222;    0,890;   -0,409
806,425;22941,281;    3,890;    2,682
806,990;22626,612;    1,890;    4,318
807,555;23150,307;   -0,110;    2,591
808,120;23058,911;   -1,292;   -0,409
808,685;23074,697;    1,072;   -2,500
809,250;22566,028;    2,072;   -0,500
809,815;22912,087;   -0,201;    0,682
810,380;23474,327;    0,981;    1,591
810,945;23952,295;    2,890;    2,045
811,510;23175,444;   -0,200;    1,591
812,075;22863,048;    2,800;   -1,409
812,640;22879,289;    3,709;    1,409
813,204;22890,711;    2,163;   -0,227
813,769;23415,315;    0,254;   -0,045
814,334;22774,010;    0,527;    0,864
814,898;22850,341;    1,981;    0,591
815,463;22715,218;    0,981;   -0,773
816,027;22698,367;    1,345;   -2,318
816,592;22798,153;    2,163;   -2,045
817,156;22325,757;   -2,200;    1,136
817,721;22124,543;    0,982;    2,318
818,285;22083,147;    0,618;    1,500
818,849;22804,842;   -0,018;    1,682
819,414;22689,992;    0,073;    2,955
819,978;22202,596;   -0,291;    1,773
820,542;22825,381;    2,891;    0,500
821,106;22485,167;    2,800;    0,682
821,670;22554,135;    2,709;    2,591
822,234;22261,830;    1,073;    1,409
822,798;21681,161;   -0,836;    0,500
823,362;21693,129;    1,527;    4,227
823,926;20937,551;   -0,018;    1,136
824,490;21138,064;    3,527;   -0,682
825,054;21633,214;    2,527;   -1,136
825,618;21217,636;   -1,200;   -1,500
826,181;21178,876;    0,982;   -1,318
826,745;21056,208;   -0,745;   -1,045
827,309;21436,084;    2,255;    1,318
827,872;20855,598;    0,527;    0,955
828,436;21839,020;    1,982;   -0,773
828,999;21935,806;    2,436;    1,227
829,563;20710,773;   -0,654;    1,136
830,126;20516,650;   -0,018;   -0,591
830,690;20533,163;    0,709;    2,864
831,253;20046,222;   -0,473;    2,227
831,816;20157,008;   -0,018;    0,500
832,380;20083,066;    1,164;    0,864
832,943;20285,943;    3,073;   -0,500
833,506;19810,002;    0,255;   -1,227
834,069;20605,969;    2,164;   -0,955
834,632;20664,846;   -2,200;    1,318
835,195;20535,268;    1,346;    0,955
835,758;19768,690;    0,709;    1,955
836,321;19588,840;    1,073;   -1,045
836,884;19665,989;   -1,291;   -0,955
837,447;19710,321;    0,528;    1,773
838,010;19967,379;    1,800;    3,227
838,573;20291,892;    0,528;    0,773
839,135;20210,042;   -0,109;   -0,955
839,698;19663,646;    2,528;    0,409
840,261;19173,705;    0,255;   -0,227
840,823;19017,672;   -0,927;    0,864
841,386;19287,276;   -0,018;   -2,409
841,948;19120,698;    0,255;    1,773
842,511;18878,666;    0,255;    1,682
843,073;19027,452;    2,982;    0,227
843,636;18872,874;    0,619;   -0,227
844,198;18787,206;    1,255;    0,591
844,760;18905,719;    0,619;    1,955
845,322;18525,141;    0,164;    1,136
845,885;18956,199;   -0,290;    0,591
846,447;19410,894;    0,710;    0,227
847,009;18971,226;    3,983;   -0,682
847,571;19304,375;    1,346;   -2,045
848,133;19384,434;   -0,199;   -1,864
848,695;19219,401;    2,346;    1,409
849,257;18744,278;    1,346;   -1,682
849,819;18952,610;    2,983;   -0,409
850,381;19022,850;    1,801;   -0,864
850,942;19350,545;    1,892;   -0,591
851,504;19214,785;    0,983;    0,227
852,066;19294,298;    1,619;   -1,591
852,628;18871,448;    0,165;    1,955
853,189;18379,961;    0,256;    2,682
853,751;18529,656;   -0,654;    1,409
854,312;18356,715;    1,256;   -1,682
854,874;18865,410;   -0,108;   -0,773
855,435;19323,286;    0,528;   -1,682
855,997;19467,708;    3,983;   -0,136
856,558;18733,585;    0,801;    1,773
857,119;18863,371;   -0,744;    2,864
857,681;18548,339;   -0,108;    0,318
858,242;18607,943;    1,347;   -2,136
858,803;19079,547;    1,074;   -0,773
859,364;19597,424;    0,892;   -4,773
859,925;18948,937;   -0,290;   -0,955
860,486;18822,541;    0,529;   -0,955
861,047;18540,599;    0,165;   -1,227
861,608;18377,112;    0,165;   -0,773
862,169;18558,535;   -0,562;   -0,045
862,730;18351,502;   -0,290;    1,409
863,291;18594,106;    0,438;   -0,500
863,852;18904,983;   -0,926;    1,955
864,412;18394,769;   -1,835;   -0,864
864,973;16953,919;    1,892;    0,500
865,534;16786,341;    2,074;    0,227
866,094;18292,945;    2,620;    0,227
866,655;17933,731;    4,711;    3,318
867,215;18249,789;    0,074;    0,136
867,776;18120,302;   -1,199;   -0,136
868,336;18218,997;    1,529;    0,136
868,897;17613,329;    3,438;    1,682
869,457;17406,842;    3,256;    0,318
870,017;17665,718;    2,438;   -1,227
870,578;18168,959;    1,893;    0,773
871,138;17769,654;    2,620;   -0,955
871,698;17313,531;   -0,562;   -1,318
872,258;17161,953;    0,711;   -2,864
872,818;17549,830;    2,347;    0,045
873,378;17494,434;   -2,198;    1,045
873,938;17047,765;    4,984;    0,500
874,498;17392,096;    1,256;   -1,955
875,058;17259,155;    4,347;    1,773
875,618;17124,577;    1,438;   -2,682
876,177;17067,727;   -0,471;    0,136
876,737;16633,785;   -0,289;    1,955
877,297;16623,753;    2,711;    1,955
877,856;16668,902;    2,529;    0,318
878,416;16637,234;    2,438;   -0,136
878,976;16870,201;    3,438;    0,409
879,535;17026,078;    4,529;    3,136
880,095;16771,046;    1,347;    0,045
880,654;16864,468;    0,347;    1,318
881,213;16979,526;    2,347;    1,500
881,773;16605,040;    1,984;    2,682
882,332;16942,280;    6,075;    5,136
882,891;16840,884;    0,711;    2,136
883,451;17286,215;   -2,016;    1,682
884,010;16744,638;   -1,107;   -0,409
884,569;16823,242;   -2,289;   -0,045
885,128;16919,846;   -0,743;   -1,864
885,687;17023,995;   -0,743;    0,682
886,246;16718,690;    2,620;    2,136
886,805;16450,658;    1,620;    2,045
887,364;16778,171;    1,166;   -0,500
887,922;17124,957;   -0,016;    0,045
888,481;16616,924;    1,530;    0,591
889,040;16928,438;    3,711;    2,136
889,599;17631,769;    2,166;    1,409
890,157;17713,282;    2,166;    2,409
890,716;17342,068;    2,166;    0,227
891,274;17118,854;    0,075;   -1,136
891,833;17494,549;    1,166;    0,864
892,391;17383,425;    1,802;    0,500
892,950;17519,302;    0,166;   -0,773
893,508;17878,906;    0,984;   -0,409
894,067;17206,692;   -0,379;    0,136
894,625;17168,205;   -1,016;   -1,500
895,183;17360,991;   -0,198;   -0,682
895,741;17283,322;    2,257;   -1,773
896,299;17137,835;    1,621;   -2,409
896,858;17328,349;    1,530;   -1,591
897,416;17409,225;    0,166;   -1,318
897,974;17156,102;   -2,197;    0,318
898,532;17315,706;    6,530;    2,682
899,089;17162,674;    0,621;   -0,682
899,647;17252,823;    0,530;    1,318
900,205;16942,155;    0,257;    1,045
900,763;17138,940;    2,166;    0,227
901,321;17193,181;    3,530;   -1,409
901,878;16589,421;    3,257;   -0,773
902,436;16440,389;    0,257;    1,318
902,994;16814,811;    6,712;    3,682
903,551;16265,324;    1,439;    0,409
904,109;16671,292;    1,530;   -1,409
904,666;16264,623;    1,439;    1,045
905,224;16078,591;    3,894;   -0,409
905,781;15817,922;   -0,470;   -0,318
906,338;15879,981;    0,167;    1,045
906,895;15844,039;    1,894;    2,045
907,453;15794,825;    2,348;    1,136
908,010;15780,611;    3,348;    0,409
908,567;15429,670;   -0,561;    0,591
909,124;14933,728;    2,439;   -1,500
909,681;14995,969;   -1,288;    0,682
910,238;15171,845;   -0,106;   -1,318
910,795;15486,268;   -1,561;   -1,136
911,352;15138,904;   -0,379;   -2,682
911,909;14565,359;    2,803;   -0,864
912,466;15000,995;    1,985;    1,500
913,022;14551,540;   -0,924;    0,500
913,579;14935,540;   -0,470;    2,045
914,136;14598,086;   -2,561;    0,955
914,692;14959,722;    1,530;   -1,227
915,249;14499,359;    0,530;    0,409
915,806;14746,177;    1,803;    1,955
916,362;14453,359;    0,894;    1,864
916,918;14014,995;    2,439;    1,045
917,475;14025,540;    1,621;    0,955
918,031;14143,268;    0,076;   -0,045
918,587;13587,449;    0,621;   -0,318
919,144;13780,904;   -0,379;    0,227
919,700;14062,268;    0,167;    0,773
920,256;13676,631;    0,439;    0,045
920,812;13281,086;    1,439;   -1,045
921,368;13300,904;    1,348;   -1,045
921,924;12968,813;    0,439;   -0,136
922,480;12490,268;    0,076;    1,227
923,036;13115,268;   -0,652;    1,955
923,592;13097,904;    0,621;    0,318
924,148;12983,086;    1,894;   -0,955
924,704;12313,177;    0,258;   -0,409
925,259;12585,995;   -0,561;    0,591
925,815;12335,449;    3,803;    0,500
926,371;11907,631;    3,530;    1,409
926,926;11757,449;    1,621;    0,591
927,482;11378,359;    1,621;    0,773
928,037;11259,995;   -0,833;    2,045
928,593;11553,540;    0,258;    1,045
929,148;11381,722;    1,167;   -1,500
929,704;10900,359;    2,439;   -0,500
930,259;11102,268;    0,894;   -0,136
930,814;10155,722;    1,803;    1,955
931,369; 9845,904;    0,258;   -0,773
931,925; 9729,177;   -1,924;    0,136
932,480; 9640,631;    3,076;   -2,591
933,035; 9528,449;    3,985;   -0,318
933,590; 9255,449;   -1,742;   -1,773
934,145; 8933,268;   -1,288;   -0,318
934,700; 9299,268;    0,348;   -0,591
935,255; 9079,722;    4,803;    0,045
935,809; 8346,177;    6,258;    0,864
936,364; 7504,540;    2,167;   -0,136
936,919; 7485,268;    2,348;   -1,773
937,474; 7355,904;    1,348;    0,136
938,028; 7133,086;    3,076;    1,136
938,583; 6564,449;    6,348;    4,682
939,138; 6870,904;    0,167;    2,136
939,692; 6331,813;   -1,015;   -1,136
940,247; 5998,631;    1,167;   -1,045
940,801; 5558,177;    0,621;    0,227
941,355; 5465,904;    0,439;    2,591
941,910; 5132,722;    0,712;   -2,136
942,464; 5205,995;    2,712;   -0,318
943,018; 4990,449;    3,258;   -0,227
943,572; 4943,268;    2,803;   -0,682
944,126; 4346,449;   -0,924;   -0,409
944,681; 4234,177;    0,712;    0,227
945,235; 4225,449;    2,167;   -0,591
945,789; 4181,177;    1,258;   -1,864
946,342; 4245,359;   -0,561;   -0,591
946,896; 4076,449;    0,348;    0,955
947,450; 3848,359;   -0,561;   -0,227
948,004; 4032,813;    1,076;   -0,045
948,558; 4056,086;    1,258;   -0,864
949,111; 3947,813;   -1,197;   -0,318
949,665; 3971,722;   -0,106;   -0,682
950,219; 3845,268;    0,621;   -1,045
950,772; 3921,540;    0,258;    1,864
951,326; 3841,177;   -1,106;   -0,955
951,879; 3947,359;    1,076;   -2,318
952,433; 3987,449;    1,348;    2,227
952,986; 3816,995;    0,348;    0,682
953,539; 3765,268;    1,530;    0,591
954,093; 3687,449;    0,985;   -1,318
954,646; 3815,631;   -0,288;    1,318
955,199; 3632,086;    1,258;   -0,500
955,752; 3520,904;    1,985;    1,773
956,305; 3487,631;    0,894;    2,955
956,858; 3640,359;    0,621;   -0,318
957,411; 3829,177;    3,621;    2,136
957,964; 3656,995;    2,076;    2,136
958,517; 3630,722;    0,985;    3,136
959,070; 3462,086;   -1,197;    1,955
959,623; 3526,995;    1,076;    1,500
960,176; 3316,995;    0,712;    2,045
960,728; 3270,177;    1,712;    0,773
961,281; 3358,631;    2,258;    0,500
961,834; 3382,086;   -0,833;    0,864
962,386; 3314,904;    1,258;    1,045
962,939; 3213,631;    3,439;   -0,318
963,491; 3386,722;    2,621;    1,136
964,043; 3237,359;    0,076;    2,409
964,596; 3359,449;    1,712;    2,227
965,148; 3179,449;   -0,379;    1,773
965,700; 3120,995;   -0,015;   -0,227
966,253; 3286,722;   -0,833;    0,318
966,805; 3117,449;    1,894;    0,773
967,357; 3167,268;    0,439;   -1,500
967,909; 3102,631;    1,167;   -1,227
968,461; 3224,086;    0,894;    3,136
969,013; 3142,813;   -1,561;   -0,864
969,565; 3234,813;    1,803;   -1,136
970,117; 3313,449;    3,803;    1,045
970,669; 3134,359;    3,258;   -0,136
971,220; 3008,631;    2,167;   -1,500
971,772; 2933,631;    1,348;   -0,318
972,324; 3050,359;   -1,197;   -0,500
972,876; 2993,177;    0,167;   -0,045
973,427; 3112,359;   -1,197;   -1,045
973,979; 3112,813;    0,076;   -2,500
974,530; 3134,359;    0,803;    1,318
975,082; 3139,086;    2,167;    1,682
975,633; 3031,359;    2,894;    1,682
976,184; 3178,813;    2,076;    0,773
976,736; 2978,631;    0,348;    0,227
977,287; 2765,904;    0,258;   -0,500
977,838; 2950,449;   -0,924;   -0,318
978,389; 2989,359;    0,803;   -0,500
978,940; 2857,268;    1,258;   -0,409
979,491; 2869,268;    2,258;   -0,500
980,042; 2840,540;   -0,652;    3,045
980,593; 2921,177;    1,894;    0,227
981,144; 2966,177;    3,530;   -0,500
981,695; 2942,631;   -0,470;    1,500
982,246; 2903,359;   -1,833;    1,045
982,797; 3052,268;   -0,561;    0,682
983,347; 3173,359;    2,167;    0,591
983,898; 3333,631;    4,167;    0,409
984,449; 3134,177;    2,530;    0,773
984,999; 3062,177;    1,894;   -1,136
985,550; 2819,177;    3,167;   -0,318
986,100; 2875,813;    0,712;   -0,318
986,651; 2887,359;    0,258;    0,045
987,201; 2865,177;    0,894;   -0,591
987,751; 2972,904;   -0,288;    2,864
988,302; 2940,904;   -0,379;    1,500
988,852; 2963,904;    1,985;   -1,136
989,402; 3017,631;    0,985;    0,682
989,952; 2921,540;    1,621;    0,864
990,502; 3011,722;    1,076;    0,682
991,052; 2990,086;   -0,106;    0,045
991,602; 2835,449;    1,167;    1,318
992,152; 2844,995;    2,803;    0,682
992,702; 2834,086;    1,167;   -0,045
993,252; 2741,995;    0,076;   -0,500
993,802; 2835,722;    1,167;    1,318
994,352; 3097,722;   -0,742;    1,136
994,901; 3189,449;    1,076;    3,227
995,451; 3081,631;   -1,197;    0,318
996,000; 3171,086;    1,076;    0,318
996,550; 2881,177;    2,894;    0,227
997,100; 2900,086;   -0,561;   -0,045
997,649; 3177,268;   -0,197;    0,955
998,198; 2800,177;   -0,288;   -1,500
998,748; 2981,449;    0,348;   -2,318
999,297; 2894,540;    0,985;   -0,409
999,846; 3001,722;    1,894;   -0,773
1000,395; 3036,540;    1,530;    0,500
1000,945; 2962,631;    1,076;   -0,773
1001,494; 3028,449;    0,167;    0,682
1002,043; 3024,177;    0,712;    0,864
1002,592; 2888,177;    3,439;    1,955
1003,141; 3026,268;    2,439;   -0,682
1003,690; 2859,359;    1,258;    0,500
1004,238; 2938,904;   -0,106;   -0,045
1004,787; 2567,813;   -1,288;    1,227
1005,336; 2803,177;    1,621;    0,682
1005,885; 2943,813;   -0,197;   -2,773
1006,433; 3103,813;   -0,470;    0,955
1006,982; 3183,540;    2,167;    1,682
1007,531; 3093,268;    2,712;   -0,227
1008,079; 3036,540;    0,258;    0,500
1008,627; 3189,995;    1,621;    0,409
1009,176; 2921,995;    0,076;   -1,955
1009,724; 2965,177;   -2,742;    0,864
1010,273; 3018,449;    1,076;    0,500
1010,821; 3151,722;    1,076;    1,409
1011,369; 2881,540;    0,076;    1,318
1011,917; 2851,268;   -0,833;   -0,591
1012,465; 3143,177;    2,530;   -1,591
1013,013; 3231,813;    0,439;   -1,682
1013,561; 3104,268;   -1,288;   -0,773
1014,109; 3150,268;   -0,833;    1,682
1014,657; 3006,631;    1,348;    0,591
1015,205; 3146,359;    0,894;   -0,955
1015,753; 3194,086;    0,258;   -1,409
1016,301; 3218,995;    2,621;    3,045
1016,848; 3230,086;    2,167;    0,409
1017,396; 3249,449;    1,621;    0,045
1017,944; 3380,995;    2,621;    1,864
1018,491; 3147,359;   -0,197;    1,409
1019,039; 3312,995;   -0,652;    0,591
1019,586; 3211,540;    0,076;    1,682
1020,134; 3298,359;    0,712;    1,500
1020,681; 3324,813;    2,894;   -1,136
1021,228; 3355,540;   -0,561;   -2,227
1021,776; 3192,995;   -0,833;   -1,136
1022,323; 3396,086;    0,803;    0,773
1022,870; 3331,449;   -0,470;   -0,045
1023,417; 3215,813;    2,076;    1,864
1023,964; 3369,268;    0,621;    1,227
1024,511; 3195,995;   -0,652;    0,773
1025,058; 3003,268;    0,439;   -0,045
1025,605; 3072,995;   -1,742;    3,136
1026,152; 3275,359;   -0,106;   -0,591
1026,699; 3002,359;    0,167;    1,318
1027,245; 3173,268;    2,439;    0,318
1027,792; 3396,449;    0,712;    1,409
1028,339; 3275,631;    4,076;   -0,045
1028,885; 3110,540;    3,621;   -0,227
1029,432; 3050,540;   -0,106;    0,227
1029,978; 3115,904;    1,348;   -1,591
1030,525; 3012,904;    1,621;    0,409
1031,071; 3288,268;    0,348;    1,136
1031,618; 3373,631;    1,258;    1,682
1032,164; 3157,268;    2,076;    3,045
1032,710; 3196,631;    0,076;   -1,500
1033,256; 3124,268;    0,712;   -0,136
1033,803; 3110,449;   -0,288;    1,500
1034,349; 2858,086;    1,803;    0,136
1034,895; 3005,086;    2,621;   -0,318
1035,441; 2971,813;    0,439;    0,318
1035,987; 2974,268;   -2,288;   -0,682
1036,533; 2968,631;   -0,197;   -0,955
1037,078; 3179,722;    4,712;    1,682
1037,624; 3002,359;    2,439;   -0,955
1038,170; 3027,722;    1,712;   -0,318
1038,716; 2926,631;    2,167;   -0,409
1039,261; 2838,995;    2,167;   -0,773
1039,807; 2778,631;   -0,015;    3,409
1040,352; 2835,631;   -1,288;   -0,318
1040,898; 2871,086;    0,167;   -0,682
1041,443; 2787,177;    0,803;   -2,591
1041,989; 2802,086;    3,621;    1,591
1042,534; 2701,268;    0,985;    2,591
1043,079; 2821,268;    1,985;    0,955
1043,625; 2601,631;    0,258;    0,500
1044,170; 2639,086;    2,439;    1,045
1044,715; 2904,268;    0,167;    0,955
1045,260; 2712,813;   -0,833;   -0,955
1045,805; 2760,722;    0,258;   -0,591
1046,350; 2714,813;    0,530;   -0,409
1046,895; 2682,268;    0,803;    1,591
1047,440; 2616,904;    1,530;    0,409
1047,985; 2529,995;   -1,197;   -0,955
1048,530; 2427,540;    1,348;    1,227
1049,074; 2496,813;    2,803;    0,318
1049,619; 2485,995;   -0,924;    1,955
1050,164; 2299,540;    1,076;    0,227
1050,708; 2348,359;    2,621;    0,045
1051,253; 2698,904;    3,258;   -2,227
1051,797; 2427,904;   -0,197;   -1,318
1052,342; 2445,268;    1,348;    1,045
1052,886; 2412,540;    1,803;   -1,409
1053,430; 2303,813;    2,167;    0,136
1053,975; 2318,995;    0,894;   -0,318
1054,519; 2300,449;    1,803;    3,227
1055,063; 2299,359;    3,621;    1,318
1055,607; 2184,268;    1,348;    0,227
1056,151; 2210,449;    0,530;    1,682
1056,695; 2138,086;   -1,833;   -1,136
1057,239; 2201,359;   -1,197;   -0,682
1057,783; 2197,540;    2,258;   -1,500
1058,327; 2161,631;    3,076;    1,409
1058,871; 2395,177;    3,985;    1,318
1059,415; 2090,086;   -0,561;   -0,045
1059,958; 2334,995;    2,985;    2,591
1060,502; 2065,722;    1,348;   -0,773
1061,046; 1956,359;    1,712;   -0,955
1061,589; 1943,359;    2,803;   -1,136
1062,133; 1836,086;    0,985;    1,864
1062,676; 1789,904;    1,439;    0,864
1063,220; 1790,631;    0,985;    0,500
1063,763; 1806,086;    2,985;    1,136
1064,306; 1868,813;    0,985;    1,864
1064,849; 1773,177;    2,076;    0,591
1065,393; 1763,177;    2,894;   -1,500
1065,936; 1895,177;    2,530;   -0,409
1066,479; 1771,449;    2,621;    1,318
1067,022; 1797,813;    1,894;   -0,227
1067,565; 1693,177;   -1,197;   -1,318
1068,108; 1715,631;    1,258;   -0,591
1068,651; 1707,359;   -2,470;    1,409
1069,194; 1635,722;   -1,106;   -1,682
1069,736; 1624,540;    3,803;    0,955
1070,279; 1602,540;   -1,652;   -0,500
1070,822; 1652,268;    1,530;   -0,318
1071,364; 1727,995;    0,530;    1,318
1071,907; 1550,540;    0,348;    3,227
1072,450; 1481,086;    0,258;   -0,045
1072,992; 1467,631;   -0,561;    3,136
1073,535; 1595,722;    0,167;    2,136
1074,077; 1397,904;    2,985;    2,045
1074,619; 1365,813;    0,985;    0,591
1075,161; 1383,268;   -0,561;    1,500
1075,704; 1570,177;    0,258;    1,227
1076,246; 1376,813;    1,530;    0,682
1076,788; 1299,449;   -1,015;    1,773
1077,330; 1381,086;   -2,106;    2,136
1077,872; 1325,813;   -1,924;    0,955
1078,414; 1572,449;    3,712;    0,773
1078,956; 1294,449;    0,167;   -0,227
1079,498; 1530,449;    0,439;    0,318
1080,040; 1227,904;    0,985;   -1,318
1080,581; 1195,086;    0,621;   -0,318
1081,123; 1148,177;   -0,106;   -0,773
1081,665; 1198,995;    3,803;   -0,955
1082,206; 1467,268;    3,258;   -0,500
1082,748; 1332,177;    3,258;    2,045
1083,289; 1217,086;    0,167;    1,318
1083,831; 1134,722;    0,258;    0,227
1084,372; 1149,631;    0,894;    0,591
1084,913; 1151,359;    3,348;    0,864
1085,455; 1125,995;    1,530;   -2,045
1085,996; 1095,268;    0,530;    0,136
1086,537; 1108,086;    0,985;    0,864
1087,078; 1151,631;    0,439;   -2,136
1087,619; 1183,177;   -1,652;    0,227
1088,160; 1101,086;    1,439;    1,318
1088,701; 1095,268;   -0,742;    0,682
1089,242; 1032,540;   -0,561;   -2,227
1089,783; 1117,540;   -0,561;    1,409
1090,324; 1099,449;   -0,833;    0,682
1090,865;  979,631;   -1,924;   -0,409
1091,405;  963,904;   -0,561;    2,227
1091,946;  996,086;   -0,197;   -0,955
1092,487;  920,268;   -1,288;   -1,409
1093,027; 1069,631;    1,803;   -1,500
1093,568;  928,995;    2,258;    1,227
1094,108; 1007,086;    0,621;    1,773
1094,649;  954,995;   -0,470;    0,136
1095,189;  888,086;    1,167;   -0,682
1095,729;  843,995;    0,712;    0,955
1096,269;  857,540;    1,258;   -0,955
1096,810; 1156,359;   -0,197;    0,500
1097,350;  981,631;   -0,561;   -0,773
1097,890;  890,904;    2,985;    1,227
1098,430; 1134,086;    4,985;    2,864
1098,970; 1012,177;    1,894;    1,682
1099,510;  890,995;   -0,833;   -2,318
1100,050;  807,813;    0,258;   -1,591
1100,589;  776,540;    0,076;   -0,318
1101,129;  896,813;    0,894;   -0,955
1101,669; 1030,268;    2,803;    2,136
1102,209;  873,086;    1,530;    2,227
1102,748;  824,995;    3,439;    0,955
1103,288;  808,268;    0,712;   -1,227
1103,827;  834,813;    3,530;   -2,227
1104,367;  711,995;    1,712;   -2,409
1104,906;  684,449;   -1,015;   -1,136
1105,445;  747,359;    0,985;   -1,136
1105,985;  696,268;   -0,652;    1,500
1106,524;  743,722;    1,530;   -0,682
1107,063;  713,268;    1,167;    1,409
1107,602;  703,722;    1,894;   -1,500
1108,141;  621,268;    1,621;    1,500
1108,680;  712,449;    3,985;   -0,591
1109,219;  652,722;    0,167;   -0,500
1109,758;  651,813;    4,167;    0,682
1110,297;  634,177;   -1,106;   -0,682
1110,836;  583,631;    1,439;    0,955
1111,375;  732,086;    0,348;    0,409
1111,913;  734,722;    0,985;    0,773
1112,452;  685,540;    0,894;    0,136
1112,991;  572,359;    1,076;    1,955
1113,529;  531,540;    0,167;   -0,045
1114,068;  598,359;    0,439;    2,955
1114,606;  502,722;   -0,561;   -0,955
1115,144;  658,177;    1,530;    1,045
1115,683;  598,904;    1,985;    0,318
1116,221;  649,995;    2,076;   -0,864
1116,759;  567,268;    1,621;   -0,864
1117,297;  740,359;    1,621;    1,864
1117,836;  556,268;    1,985;   -1,227
1118,374;  562,540;    0,258;   -0,682
1118,912;  509,813;    0,439;    2,682
1119,450;  494,904;    0,985;    0,864
1119,988;  548,086;    3,348;    2,136
1120,525;  998,449;    7,258;    3,318
1121,063;  692,722;    0,530;    1,864
1121,601;  503,904;    1,076;   -1,227
1122,139;  465,540;    1,076;   -2,045
1122,676;  655,268;   -1,652;    2,773
1123,214;  584,540;    0,712;    4,409
1123,751;  409,722;    0,621;    2,227
1124,289;  540,268;    0,894;   -0,409
1124,826;  405,540;   -0,379;    0,227
1125,364;  350,449;    0,712;   -0,955
1125,901;  528,359;    6,258;    1,227
1126,438;  607,631;    3,530;    0,955
1126,975;  358,722;    2,985;   -0,773
1127,513;  419,086;    2,621;    2,136
1128,050;  346,722;   -0,561;   -0,682
1128,587;  434,904;    1,348;   -0,227
1129,124;  465,359;   -0,015;    1,318
1129,661;  345,177;   -1,924;    0,227
1130,198;  501,359;    2,439;    0,773
1130,734;  447,995;   -0,379;    1,409
1131,271;  322,177;   -1,197;    0,864
1131,808;  472,268;    1,621;    3,045
1132,345;  349,631;    4,530;    0,318
1132,881;  246,631;   -0,561;   -1,864
1133,418;  369,086;    0,348;   -1,136
1133,954;  316,359;    0,712;   -2,682
1134,491;  372,995;    1,712;   -0,773
1135,027;  284,995;    2,167;    0,864
1135,564;  371,722;    1,439;    2,955
1136,100;  346,268;   -0,742;    2,136
1136,636;  246,540;   -1,015;   -1,045
1137,172;  326,086;    0,894;   -1,045
1137,708;  269,722;   -1,561;   -1,045
1138,245;  263,904;    0,803;   -1,227
1138,781;  227,177;    1,803;   -3,318
1139,317;  284,722;    1,894;   -1,409
1139,852;  277,631;    3,076;    0,136
1140,388;  377,359;    2,076;   -0,409
1140,924;  267,359;    1,076;   -2,227
1141,460;  217,995;   -0,288;    0,136
1141,996;  157,995;   -0,652;    2,682
1142,531;  201,904;    1,076;    3,318
1143,067;  403,449;    1,167;    1,045
1143,602;  449,904;    3,439;   -0,318
1144,138;  300,268;    0,803;    1,045
1144,673;  187,359;    1,621;    1,409
1145,209;  248,268;    2,894;   -0,318
1145,744;  169,449;    0,803;    0,864
1146,279;  296,540;    1,530;   -0,136
1146,815;  215,086;    1,530;   -2,682
1147,350;  252,631;   -0,924;    0,045
1147,885;  171,995;   -1,924;   -1,318
1148,420;  182,449;    2,439;    0,773
1148,955;  166,359;   -1,470;    1,864
1149,490;  190,813;   -1,106;   -1,591
1150,025;  169,540;   -1,106;   -1,773
1150,560;  264,449;   -0,288;   -0,955
1151,094;  226,359;    0,258;   -0,591
1151,629;  236,449;   -3,742;    0,864
1152,164;  163,995;   -1,288;    1,318
1152,698;  137,904;    1,258;   -0,136
1153,233;  104,813;   -1,379;   -0,682
1153,767;  140,177;   -0,288;   -2,318
1154,302;  187,359;   -0,379;    1,773
1154,836;  185,722;    0,803;   -2,136
1155,371;  225,086;    2,258;    3,682
1155,905;  189,540;    1,985;    1,682
1156,439;  156,904;    0,530;   -0,500
1156,973;  189,359;    0,439;    0,318
1157,507;  124,540;   -1,742;    0,682
1158,042;  154,631;   -0,652;    1,045
1158,576;  193,995;   -0,561;    1,773
1159,110;  184,904;    0,076;    2,409
1159,643;  162,086;   -2,470;   -0,045
1160,177;  104,086;   -2,015;    1,500

