
Integration time [ms]:   0,050
Averaging Nr. [scans]: 11
Smoothing Nr. [pixels]: 0
Data measured with spectrometer [name]: 7318044SP
Wave   ;Sample   ;Dark     ;Reference
[nm]   ;[counts] ;[counts] ;[counts] 

186,757;   -9,764;   38,161;    1,318
187,357;   28,055;   26,706;    0,955
187,958;   10,170;   17,252;   -1,591
188,558;   63,661;   12,979;   -1,227
189,159;   31,827;   10,070;   -4,500
189,759;    0,777;    5,797;   -3,591
190,360;    2,471;    6,797;   -2,136
190,960;   43,262;    5,706;   -4,136
191,560;   60,215;    2,614;   -6,591
192,161;  298,605;    5,885;   -3,500
192,761;  144,228;    5,520;   -3,227
193,361;   88,347;    3,065;   -3,773
193,962;  142,550;    1,612;   -2,682
194,562;   74,906;   -0,114;   -3,955
195,162;  111,143;   -0,567;   -2,227
195,762;  277,503;    2,433;   -0,045
196,362;  221,134;    1,706;   -2,500
196,963;   90,057;    1,706;   -0,864
197,563;  157,676;    1,252;   -0,955
198,163;  112,864;   -0,111;   -0,682
198,763;  131,830;   -0,020;   -0,500
199,363;  233,657;    3,616;   -0,500
199,963;  207,584;    2,162;    0,409
200,563;  181,538;    6,344;   -1,409
201,163;  163,991;    5,435;   -0,227
201,763;  259,190;    1,435;    0,318
202,363;  192,469;    0,980;    1,500
202,963;  306,594;    1,526;    1,045
203,563;  423,376;    0,344;    0,500
204,162;  263,799;    1,889;   -1,864
204,762;  255,978;    2,071;    0,591
205,362;  234,965;    0,708;    1,955
205,962;  333,249;    3,435;    1,955
206,562;  337,958;    1,889;    2,318
207,161;  304,287;    1,708;    0,318
207,761;  466,357;    4,435;    2,409
208,361;  333,283;    1,889;    1,409
208,960;  429,319;    2,889;    1,500
209,560;  518,113;    0,435;    1,591
210,160;  501,543;    5,071;    1,864
210,759;  476,249;    0,708;    1,227
211,359;  472,335;   -0,474;    1,045
211,958;  757,769;    3,526;    2,045
212,558;  848,499;    0,799;    1,864
213,157;  683,054;   -0,929;    1,500
213,757; 1151,060;    5,617;   -0,227
214,356;  837,950;    1,708;   -0,409
214,956; 1199,032;    3,526;    0,409
215,555;  821,406;    0,617;    2,136
216,154;  739,987;   -0,292;   -0,591
216,754;  775,684;    1,253;    0,773
217,353;  930,794;   -0,383;   -1,045
217,952;  796,044;    2,072;    0,318
218,552; 1025,877;    0,254;   -0,773
219,151;  939,998;   -1,110;    0,955
219,750;  954,622;    0,890;   -0,227
220,349; 1133,007;   -2,292;    1,045
220,948; 1169,304;    1,163;    1,136
221,548; 1255,061;    0,617;    1,227
222,147; 1380,114;   -1,292;   -0,409
222,746; 1665,078;    1,254;   -0,955
223,345; 1559,333;   -1,019;    0,500
223,944; 1604,472;    1,163;    0,773
224,543; 1805,463;    4,072;   -1,409
225,142; 1925,866;    1,345;    0,136
225,741; 1864,995;    1,163;    1,045
226,340; 1887,740;    1,254;   -0,955
226,939; 2408,175;    2,708;   -0,136
227,538; 2473,259;    1,163;   -0,773
228,137; 2609,567;    0,435;    0,864
228,735; 2871,825;    0,435;    1,227
229,334; 2565,887;   -0,474;   -0,227
229,933; 2975,169;    0,799;    0,591
230,532; 3135,355;   -1,201;   -0,409
231,131; 3181,454;    1,253;    0,318
231,729; 3391,822;    1,163;   -2,318
232,328; 3617,833;    0,435;   -1,500
232,927; 3761,785;    4,526;   -0,500
233,525; 3937,258;    0,981;    0,045
234,124; 4191,411;    1,890;   -1,591
234,723; 4271,892;    1,617;   -1,045
235,321; 4487,911;    1,163;    0,136
235,920; 4801,928;    2,526;   -1,227
236,518; 5093,583;    1,072;    0,318
237,117; 5390,314;    2,890;   -0,227
237,715; 5607,139;    1,163;   -0,500
238,314; 5624,945;    1,708;   -2,318
238,912; 5724,162;    0,526;   -1,409
239,510; 5831,648;    1,162;   -1,227
240,109; 6041,975;   -0,474;    3,773
240,707; 6140,832;   -0,474;    1,227
241,305; 6619,516;   -0,383;    0,136
241,904; 6879,788;   -0,292;   -2,045
242,502; 6835,378;    3,253;   -0,227
243,100; 6812,019;    3,344;   -0,955
243,698; 7112,299;    2,799;    1,682
244,297; 7312,629;   -0,656;    0,682
244,895; 7147,155;   -0,474;   -2,318
245,493; 7531,176;    2,981;   -0,591
246,091; 7632,173;    5,163;   -1,318
246,689; 7630,522;    2,163;    0,591
247,287; 7834,108;   -0,019;   -1,136
247,885; 8212,039;   -1,019;    1,227
248,483; 8350,876;   -0,201;   -0,500
249,081; 8520,648;    0,981;    1,591
249,679; 8719,079;   -1,019;    1,682
250,277; 9031,845;   -2,292;    0,864
250,875; 9032,942;    0,617;   -1,045
251,473; 9060,454;   -0,019;    0,500
252,071; 9300,331;   -0,383;    1,045
252,669; 9499,836;   -1,565;    0,318
253,267; 9855,428;    1,618;    0,773
253,864; 9814,017;    0,617;    0,682
254,462; 9584,177;    1,526;    1,591
255,060; 9658,467;    0,072;    1,318
255,658;10067,382;   -3,292;   -0,136
256,255;10487,639;   -0,201;   -2,045
256,853;10338,130;    2,345;    1,409
257,451;10401,692;    1,981;    1,864
258,048;10642,073;    2,072;    1,864
258,646;10425,617;    0,436;   -1,045
259,243;10630,676;    2,981;    2,227
259,841;10730,361;    1,799;    0,318
260,438;10574,382;    0,254;    0,864
261,036;11455,951;    0,617;    1,409
261,633;11404,047;    1,526;    2,227
262,231;11133,736;   -0,110;   -0,045
262,828;11227,575;   -0,383;    1,136
263,425;11294,043;   -1,928;   -0,591
264,023;11614,194;    1,436;    0,045
264,620;11088,133;    1,526;   -0,318
265,217;11485,851;    2,890;    3,136
265,815;11627,528;    2,527;    2,136
266,412;11350,244;    0,072;    0,136
267,009;11450,950;    0,526;    0,773
267,606;11283,162;    0,345;   -0,955
268,203;11302,682;   -0,383;   -0,591
268,801;11669,220;   -0,474;    0,591
269,398;12003,755;   -0,564;    2,500
269,995;12007,030;    0,890;    1,591
270,592;11713,286;    0,799;   -0,500
271,189;11989,154;    1,981;    0,409
271,786;12194,639;    2,072;    1,227
272,383;11940,617;   -0,383;    0,227
272,980;12165,308;    1,617;    0,318
273,577;12747,745;    2,162;    1,227
274,174;12299,930;    1,435;    2,591
274,771;12242,563;    1,890;   -0,773
275,367;12388,276;    3,253;    1,409
275,964;12362,159;   -0,565;   -0,500
276,561;12549,608;   -2,474;   -1,045
277,158;12840,897;    1,799;   -1,773
277,755;12926,284;   -0,110;    0,409
278,351;12228,329;    0,436;   -1,500
278,948;12611,962;   -0,201;    0,045
279,545;12673,456;    0,527;    2,318
280,141;13332,451;    1,254;   -2,045
280,738;13217,988;    2,435;   -0,136
281,334;13539,573;   -0,383;    0,591
281,931;12864,025;    2,890;   -1,318
282,528;12984,532;    4,072;   -0,500
283,124;13837,450;    3,345;   -0,500
283,721;13740,148;    0,709;    1,409
284,317;13537,292;    0,163;    2,500
284,913;14142,960;   -0,110;    0,591
285,510;14386,324;    2,890;   -0,318
286,106;14408,733;    2,345;   -0,955
286,703;13971,700;    0,072;    1,955
287,299;14177,179;    1,254;   -0,591
287,895;14469,350;    0,890;   -1,045
288,491;15188,391;    0,163;    2,136
289,088;14837,034;    0,163;    2,409
289,684;14909,654;    2,890;    1,500
290,280;14960,134;    1,890;    0,682
290,876;15013,719;    0,163;    5,500
291,472;14912,387;    2,163;    2,227
292,068;15000,581;    1,254;    0,227
292,665;14696,179;   -0,564;    0,773
293,261;14227,274;   -1,292;    2,136
293,857;14684,377;    4,072;    2,136
294,453;14649,881;   -0,928;    0,955
295,049;14495,140;    0,253;    1,955
295,644;14514,791;   -1,292;    0,136
296,240;14437,050;    0,162;   -0,136
296,836;14504,635;   -0,747;    0,318
297,432;14849,677;    2,980;   -0,500
298,028;14868,839;    0,435;    0,773
298,624;15303,861;    0,889;    1,864
299,220;15682,693;    0,435;    0,591
299,815;15278,668;    0,526;   -0,409
300,411;14996,595;    0,435;    1,773
301,007;15041,431;    1,889;    0,227
301,602;15128,084;    2,071;   -2,318
302,198;15295,011;    1,435;   -0,773
302,794;15696,977;    1,526;   -0,500
303,389;15904,749;    1,071;    1,045
303,985;15971,849;    1,253;    1,409
304,580;15872,326;    0,889;    1,591
305,176;15877,832;    0,344;    0,136
305,771;15842,091;   -0,929;   -1,227
306,367;15617,523;    3,071;    0,136
306,962;16061,811;    2,889;    1,500
307,558;15794,104;    2,435;    0,136
308,153;15757,847;   -0,383;   -1,136
308,748;16013,814;    0,162;    1,682
309,344;15979,013;    0,253;   -1,318
309,939;16043,097;    2,071;   -1,318
310,534;16416,555;   -2,020;   -1,682
311,130;16358,354;   -0,656;   -2,500
311,725;16100,563;    0,526;   -0,500
312,320;16421,623;    1,253;    0,045
312,915;16247,479;    2,890;   -1,045
313,510;16294,340;    0,526;   -0,500
314,105;16927,035;   -3,565;    1,409
314,700;16233,790;   -1,656;   -1,045
315,295;15820,053;   -0,020;    0,045
315,890;15339,963;   -0,292;    0,864
316,485;15704,592;    0,253;   -0,318
317,080;15834,204;   -0,929;    1,591
317,675;16446,547;    3,071;   -0,682
318,270;15666,175;    6,889;    3,318
318,865;15772,615;    2,435;    3,045
319,460;15559,230;   -1,565;    0,591
320,055;15855,356;   -2,565;   -1,227
320,650;15449,884;   -1,838;   -0,591
321,244;15535,703;    0,889;   -1,409
321,839;16599,925;    0,980;   -0,227
322,434;16486,169;   -0,111;   -1,591
323,029;16039,557;   -0,474;    1,591
323,623;15858,905;    0,798;    0,773
324,218;15576,726;    2,707;    1,409
324,812;15462,810;    0,889;    1,591
325,407;15253,867;   -0,929;    2,045
326,002;15167,861;    0,526;   -0,409
326,596;15504,473;   -0,656;    1,318
327,191;15768,060;   -0,383;   -1,045
327,785;15282,200;   -0,747;   -0,227
328,379;15544,368;   -0,383;    0,136
328,974;15346,130;    1,798;   -3,955
329,568;15530,587;    2,889;   -2,409
330,163;15294,622;    2,435;    1,045
330,757;15743,511;    0,253;    1,591
331,351;15027,293;   -0,292;    0,682
331,945;15264,599;   -0,383;    1,409
332,540;14800,398;    1,617;   -0,591
333,134;14933,232;    3,344;    0,773
333,728;15233,636;    2,799;    0,318
334,322;15642,465;    0,889;   -0,864
334,916;14881,086;    0,344;    0,955
335,510;15189,844;   -0,111;   -0,136
336,105;15503,696;   -0,929;    1,591
336,699;15153,988;   -1,292;    0,591
337,293;15043,840;    1,071;    0,318
337,887;15216,840;    0,071;    1,955
338,481;15293,873;    2,980;    0,591
339,074;15447,799;    2,071;    2,682
339,668;15246,690;   -0,110;    1,227
340,262;15481,009;    7,708;    3,227
340,856;14982,653;    1,708;   -0,682
341,450;14255,842;    0,708;    1,864
342,044;15279,476;    1,799;    0,136
342,637;14996,520;    1,162;   -2,136
343,231;14869,671;   -1,474;    0,682
343,825;14760,064;   -0,747;   -0,591
344,419;14652,687;   -0,474;    0,500
345,012;14351,408;    2,889;    4,045
345,606;14377,557;   -0,656;    1,591
346,199;14218,219;   -0,111;   -0,227
346,793;13655,291;    2,525;    2,045
347,386;13881,033;    0,889;   -1,136
347,980;13869,695;   -0,838;   -0,045
348,573;13611,879;   -1,748;    0,409
349,167;13175,032;    6,161;    4,773
349,760;13573,097;    2,252;    2,682
350,354;13594,166;    1,616;    1,136
350,947;13237,966;    2,798;    1,682
351,540;12887,517;    0,616;   -1,409
352,134;12811,769;   -1,111;    1,136
352,727;12878,712;   -0,657;    1,136
353,320;12672,969;    2,343;    0,591
353,913;12547,638;   -1,929;    1,864
354,507;12696,257;    0,434;   -1,227
355,100;12662,441;    0,071;    0,864
355,693;11704,623;    4,798;    2,409
356,286;11742,027;    0,980;    2,773
356,879;12184,672;   -0,475;    1,227
357,472;11707,752;    0,980;    1,500
358,065;11927,571;    3,161;    2,500
358,658;11843,203;    0,798;    2,318
359,251;11437,050;    0,252;   -0,591
359,844;10799,072;    0,343;   -1,136
360,437;10950,526;    0,252;    0,045
361,030;11287,561;    0,525;   -0,682
361,623;10762,289;    0,434;    0,318
362,215;10802,017;    0,979;    2,045
362,808;10652,923;   -2,293;   -1,682
363,401;10870,135;    0,798;    0,136
363,994;10538,604;    3,252;   -1,500
364,586;10461,939;    0,888;   -1,500
365,179;10693,617;   -0,203;   -1,136
365,772;10102,403;   -0,930;    2,045
366,364;10458,800;    1,524;   -3,227
366,957;10679,304;    1,342;   -0,045
367,549;10688,707;   -0,203;   -0,864
368,142;10282,248;    0,978;   -1,500
368,734;10468,727;    2,523;   -2,136
369,327;10443,447;    2,341;   -0,500
369,919;10338,834;   -1,659;    0,409
370,512;10048,252;   -1,023;   -0,500
371,104; 9721,312;    2,704;    1,591
371,696; 9887,207;    1,703;   -0,955
372,289;10033,970;    0,157;    1,136
372,881;10222,450;    1,156;    1,318
373,473;10174,987;    4,064;    1,136
374,066; 9911,421;    1,336;    0,500
374,658; 9717,149;    0,879;    1,136
375,250;10190,949;   -1,668;   -1,409
375,842; 9982,048;   -0,124;   -0,045
376,434; 9836,152;   -2,762;   -0,409
377,026;10522,410;   -1,855;   -2,500
377,618;10374,503;    0,779;   -0,682
378,210;10210,659;    3,141;   -1,955
378,802;10036,279;    3,412;   -0,591
379,394; 9944,473;    3,411;    0,682
379,986;10679,356;    1,138;   -0,955
380,578;10812,999;    1,410;    0,773
381,170;10011,374;    0,320;    0,045
381,762; 9972,731;   -0,224;    1,409
382,354;10251,870;   -0,223;   -1,318
382,945;10362,543;    0,870;    0,318
383,537;10553,657;    1,144;   -1,955
384,129;10518,774;    0,963;   -1,136
384,721;10749,579;    0,418;    0,955
385,312;10680,371;   -1,399;   -0,955
385,904;10758,166;   -0,945;    1,591
386,496;10055,392;    0,691;    1,045
387,087;10211,129;    0,418;    2,500
387,679;10235,337;   -0,401;    0,045
388,270;10379,453;   -2,401;    2,045
388,862;10527,997;   -0,401;   -0,318
389,453;10393,395;    1,054;    1,045
390,045;10696,269;    3,236;   -2,682
390,636;10672,562;    0,144;   -0,591
391,227;10496,064;    2,054;   -0,045
391,819;10587,769;    0,781;    0,773
392,410;10693,179;    0,600;    0,045
393,001;10596,261;    1,600;   -1,591
393,593;10917,699;    0,600;   -0,045
394,184;10774,018;    0,873;   -0,409
394,775;10731,341;    1,146;    2,136
395,366;10965,956;    1,782;    0,773
395,957;10978,971;   -2,400;    0,136
396,548;11356,354;    1,054;    2,682
397,139;11654,855;    2,236;    0,591
397,730;11331,801;    0,873;    0,955
398,321;11424,791;    0,509;    0,955
398,912;11441,853;   -0,764;    0,136
399,503;11541,768;   -1,945;   -1,409
400,094;10894,221;   -1,582;    1,682
400,685;10771,767;    3,600;    0,045
401,276;10865,104;   -0,400;   -0,955
401,867;11220,293;   -1,127;    0,773
402,458;11296,130;    1,509;   -2,318
403,048;11272,760;    0,146;    0,591
403,639;10838,212;    1,509;    0,864
404,230;11057,097;    0,691;    0,318
404,821;11012,314;   -0,127;    0,045
405,411;11154,432;   -0,763;   -2,591
406,002;10652,734;    3,237;   -1,136
406,592;10452,466;    2,691;    0,045
407,183;10794,261;    0,328;   -1,500
407,774;10710,579;    1,419;   -0,136
408,364;11101,229;    2,600;    0,409
408,954;10632,629;   -0,036;    1,227
409,545;10686,494;    1,873;    1,045
410,135;10136,998;   -1,581;    0,500
410,726;10351,861;    0,783;    0,318
411,316;10770,568;    2,237;    0,773
411,906;10440,200;    0,146;   -0,409
412,497; 9772,781;   -0,490;   -0,045
413,087;10511,063;    0,783;   -0,227
413,677;10984,351;   -2,490;    3,864
414,267;10773,621;   -1,035;    1,409
414,857;10799,164;    0,419;    4,227
415,448;11098,081;   -0,763;    0,500
416,038;10768,190;   -2,945;   -0,591
416,628;10751,307;    0,965;    0,409
417,218;10087,842;   -1,762;    3,318
417,808;10382,385;    0,965;   -0,409
418,398;10947,344;   -1,035;    2,682
418,988;10969,110;   -2,217;    0,591
419,578;11271,041;    3,601;    1,409
420,168;11698,503;    0,692;   -0,955
420,757;11204,207;    0,964;   -1,500
421,347;10813,525;    1,601;   -0,227
421,937;11018,334;    3,329;    1,409
422,527;10918,344;    2,602;   -0,773
423,116;10701,819;    2,692;   -0,045
423,706;11168,703;    2,965;    0,318
424,296;11147,128;    1,601;    0,682
424,885;11630,582;    1,510;   -3,045
425,475;11976,258;    1,147;   -2,864
426,065;11877,173;   -1,489;   -0,318
426,654;11462,030;    0,329;   -0,318
427,244;11542,443;    1,147;    1,409
427,833;10908,340;    1,056;   -0,500
428,423;11475,196;    0,147;    1,136
429,012;12387,867;    2,420;   -1,136
429,601;11817,563;    2,057;    0,136
430,191;12073,760;    2,511;    4,318
430,780;11662,009;   -1,671;   -0,409
431,369;11517,305;    1,329;   -0,045
431,959;12299,505;    1,693;    0,500
432,548;12024,221;   -1,398;   -0,045
433,137;12217,671;    0,329;   -1,318
433,726;12798,992;    0,148;    0,500
434,315;12053,817;    0,148;    2,409
434,905;12174,079;    0,693;    1,409
435,494;12049,455;    3,148;    0,955
436,083;12586,667;    1,420;   -0,955
436,672;12397,844;    1,148;    0,500
437,261;11869,952;    0,512;   -1,955
437,850;11993,678;   -1,125;    0,682
438,439;11985,370;    2,239;    1,955
439,027;11772,307;    3,421;    1,773
439,616;12211,091;    2,239;    1,227
440,205;12142,776;    0,057;   -2,136
440,794;12276,256;   -0,306;   -0,045
441,383;12526,590;    1,603;   -0,591
441,971;12388,167;   -0,306;    0,591
442,560;12245,920;    0,603;   -1,773
443,149;12009,296;    3,060;   -1,318
443,737;12142,621;    0,968;   -2,318
444,326;12402,509;    0,331;    0,318
444,915;12495,835;   -1,851;    0,864
445,503;12901,400;    0,058;   -0,318
446,092;12129,608;    7,876;    2,136
446,680;12726,193;    1,876;    0,318
447,269;12954,564;   -1,487;   -0,318
447,857;12657,768;    2,240;   -1,773
448,445;12810,542;    2,149;    1,318
449,034;13068,762;    0,876;   -1,136
449,622;13195,140;    1,240;    3,500
450,210;12245,774;    3,149;    2,227
450,799;12870,241;    2,604;   -0,591
451,387;12832,940;    1,786;   -0,591
451,975;12375,050;   -1,305;    0,864
452,563;12435,386;    0,422;    2,318
453,151;12564,178;   -1,032;   -1,227
453,739;12432,747;   -1,577;    0,136
454,328;12264,884;    0,604;   -2,136
454,916;11885,337;    1,150;   -0,136
455,504;12110,605;    3,513;    1,227
456,092;12322,540;    2,150;   -1,591
456,679;12344,094;    0,604;    0,682
457,267;12145,753;    3,604;    1,045
457,855;12426,894;    3,241;    1,409
458,443;12198,521;   -0,304;    1,682
459,031;12285,573;    1,332;    2,409
459,619;12808,346;   -3,577;    2,864
460,206;12998,423;   -0,759;    2,045
460,794;13072,574;   -0,668;   -0,227
461,382;13334,051;    0,878;   -0,864
461,970;12883,254;    0,605;    1,864
462,557;12911,987;    0,878;   -0,682
463,145;13136,516;   -0,304;   -1,682
463,732;13301,716;    2,514;   -1,045
464,320;13282,014;    1,514;   -3,045
464,907;12840,210;    0,423;   -0,773
465,495;12696,973;    2,696;   -1,227
466,082;12886,641;    2,060;   -0,045
466,670;12801,973;    2,605;    1,227
467,257;13242,302;    0,060;    2,045
467,844;13417,107;    1,514;    0,045
468,432;13418,655;   -0,031;    3,500
469,019;12872,669;    1,606;   -1,773
469,606;13367,216;    0,969;    3,682
470,193;13132,803;    2,151;    0,227
470,780;12620,613;    0,333;    0,864
471,368;13045,550;   -1,212;   -0,773
471,955;12806,872;    1,060;   -0,682
472,542;12374,199;   -0,303;   -1,136
473,129;12639,925;   -0,485;    0,136
473,716;12377,241;    0,060;    0,591
474,303;12605,725;    1,333;   -0,864
474,890;12984,544;    2,333;   -0,500
475,477;12926,883;   -0,576;    0,409
476,064;12821,129;    0,697;   -1,591
476,650;12779,109;    2,152;    0,318
477,237;12600,381;    1,879;    0,955
477,824;12803,960;    3,879;    0,864
478,411;12849,264;    0,606;   -0,318
478,997;13056,240;    0,606;   -0,773
479,584;13128,284;   -0,666;   -0,409
480,171;13941,470;    1,243;   -0,773
480,757;13586,358;   -0,848;    0,773
481,344;13883,192;    0,334;    0,409
481,931;13374,169;   -0,393;    1,045
482,517;14507,304;    0,425;    0,318
483,104;15271,157;    1,334;    2,864
483,690;15676,747;    0,243;    0,045
484,276;16148,652;    0,698;    0,227
484,863;15904,097;    2,152;    1,136
485,449;16570,281;    0,152;    0,318
486,035;16566,830;   -0,666;   -0,136
486,622;17071,248;   -2,393;    0,045
487,208;17006,601;    1,334;    1,500
487,794;16906,462;    0,971;    0,318
488,380;17002,125;    0,698;   -1,409
488,967;17029,609;   -1,120;   -0,409
489,553;17020,590;   -1,029;   -1,409
490,139;17217,948;    0,971;    0,773
490,725;16632,658;    0,789;   -0,227
491,311;16074,368;    1,516;    3,045
491,897;15232,230;   -0,665;    1,500
492,483;14931,565;    0,426;    1,227
493,069;14567,618;    5,426;    0,864
493,655;14551,660;    1,789;    0,682
494,241;14464,551;    1,517;   -0,955
494,826;14985,030;    0,335;   -1,045
495,412;14390,065;    0,335;   -0,682
495,998;14521,363;    0,971;   -0,318
496,584;14669,388;    2,244;    1,045
497,169;14689,606;    2,335;   -0,682
497,755;14586,375;    1,244;    1,227
498,341;15194,592;    2,153;    0,318
498,926;14716,156;    2,881;    1,955
499,512;14967,811;   -0,028;    2,955
500,097;15124,128;   -0,574;   -0,318
500,683;15040,132;   -0,028;    2,136
501,268;15453,743;    1,881;   -0,955
501,854;15108,793;   -0,119;    1,227
502,439;15041,025;   -0,573;   -1,773
503,024;15276,058;    1,608;    0,500
503,610;15375,594;    1,335;   -0,682
504,195;15399,428;    1,245;    1,955
504,780;15482,347;    2,335;    1,227
505,366;15266,168;    4,063;    2,864
505,951;14978,267;   -1,119;    1,045
506,536;14979,759;    1,427;   -3,682
507,121;14965,799;    1,699;   -0,318
507,706;15544,026;   -0,392;    1,045
508,291;15978,827;   -2,937;    1,136
508,876;15428,765;   -0,482;    2,591
509,461;14830,728;    1,427;   -0,773
510,046;15257,795;   -0,391;    0,318
510,631;15528,090;   -0,119;   -0,773
511,216;15154,352;   -0,664;   -0,500
511,801;15548,405;   -0,755;    2,591
512,386;15900,991;    0,972;    0,500
512,971;15852,858;    0,427;    0,955
513,555;15346,724;    1,154;   -1,500
514,140;16255,772;    1,336;   -3,136
514,725;16276,118;    1,791;   -1,136
515,309;16392,938;    1,064;    0,318
515,894;15738,707;   -0,300;   -2,227
516,479;16198,400;    1,973;   -0,955
517,063;16040,176;    0,882;    1,227
517,648;16198,235;    0,155;   -1,136
518,232;15830,538;   -1,300;   -1,409
518,817;16188,351;    1,337;    1,682
519,401;16405,863;    0,700;    0,591
519,985;15857,564;    2,700;    1,136
520,570;15728,955;   -0,118;   -1,955
521,154;16036,854;    0,064;    0,591
521,738;16253,085;    1,064;    2,409
522,323;16892,038;   -0,390;    1,682
522,907;16610,914;    2,428;   -0,136
523,491;16292,050;    1,155;    0,955
524,075;16269,226;    0,428;    0,591
524,659;16359,101;    0,973;    0,591
525,243;15726,650;    0,883;    0,409
525,827;16009,296;    0,883;   -0,045
526,411;16937,919;    1,155;   -0,136
526,995;17219,122;    0,337;    1,409
527,579;16782,305;    1,974;   -1,045
528,163;17082,030;    0,428;   -1,500
528,747;16983,775;    1,065;   -0,773
529,331;17330,373;    0,883;   -1,409
529,915;17565,731;    2,338;    0,955
530,499;17515,423;    0,247;    1,227
531,082;17192,275;    1,065;    1,591
531,666;16593,267;    0,520;    0,773
532,250;17355,678;    0,428;    2,682
532,833;17731,704;    0,610;    2,773
533,417;17603,223;    1,247;    0,864
534,001;17587,175;    0,429;   -0,318
534,584;18346,065;    1,974;    0,500
535,168;18139,399;    3,247;    1,409
535,751;18208,590;    4,520;    0,045
536,334;17643,813;    4,520;   -0,409
536,918;18320,714;    1,974;    1,591
537,501;18427,465;    1,520;    1,318
538,085;18376,023;    1,702;    1,045
538,668;18565,290;    0,883;    2,409
539,251;18924,466;    3,156;    3,773
539,834;18958,953;    0,156;    0,773
540,418;18867,583;    3,247;    4,318
541,001;19054,520;    2,702;    1,773
541,584;19064,269;    1,429;    2,227
542,167;18706,768;    0,702;    2,955
542,750;18907,845;    0,793;   -0,773
543,333;18445,206;    1,429;    2,136
543,916;19306,825;   -0,298;    2,500
544,499;19982,483;    2,520;    0,227
545,082;19983,856;    0,248;    3,591
545,665;20174,046;   -0,207;    1,500
546,248;20563,296;    0,520;   -0,318
546,830;20232,460;   -1,752;    1,955
547,413;20660,855;    0,157;   -0,773
547,996;21214,103;    0,157;    0,500
548,579;20971,409;   -0,843;    0,955
549,161;20818,600;    0,884;    2,682
549,744;20576,452;    0,612;    0,409
550,326;21141,027;    0,885;   -1,136
550,909;20865,107;    2,339;    0,591
551,492;21316,484;    0,521;    0,227
552,074;21071,442;   -0,024;   -1,318
552,657;21649,331;    2,430;    0,045
553,239;21398,132;   -3,024;   -0,773
553,821;21318,018;   -1,570;    1,045
554,404;20775,553;   -0,024;    1,136
554,986;21173,094;    2,248;    1,045
555,568;21798,350;    0,430;   -0,955
556,151;20992,889;    4,067;   -0,227
556,733;21189,657;   -1,388;   -0,864
557,315;21735,856;    4,703;    0,500
557,897;21582,489;    0,521;   -0,500
558,479;21700,735;    1,703;    1,318
559,061;21785,632;    1,067;   -0,864
559,643;22181,209;   -0,297;    0,045
560,225;22594,086;   -0,388;    2,864
560,807;22632,573;    0,340;    0,318
561,389;22102,353;   -1,206;    2,318
561,971;22854,368;   -0,660;    2,136
562,553;22656,410;    0,613;    1,591
563,135;22796,764;    1,249;    1,136
563,717;22406,169;    3,158;    1,136
564,298;23208,533;    3,976;   -0,045
564,880;22921,860;    0,340;   -1,409
565,462;23162,496;    1,977;    1,318
566,043;24398,044;   -0,933;    2,318
566,625;23937,939;    4,067;    1,227
567,207;23855,113;    0,704;    1,682
567,788;25136,369;   -0,114;    1,500
568,370;26058,339;   -1,841;   -0,500
568,951;25917,801;   -0,569;    0,227
569,533;26903,363;    0,977;   -0,500
570,114;27433,031;   -0,296;    0,682
570,695;28032,969;   -0,478;   -1,318
571,277;28751,692;   -0,205;   -1,682
571,858;29526,216;    2,704;   -1,136
572,439;30601,807;    0,795;   -1,045
573,021;30879,170;    0,432;   -2,773
573,602;31490,341;    1,795;    0,318
574,183;32511,589;   -0,114;    2,227
574,764;32833,419;    2,068;    0,409
575,345;33471,035;    0,250;   -0,136
575,926;34183,576;    2,704;    0,136
576,507;34241,509;    2,704;   -0,227
577,088;35389,564;    1,704;    1,682
577,669;35476,718;    1,704;    1,955
578,250;36314,953;   -0,750;   -1,045
578,831;37142,237;   -0,841;   -2,227
579,412;37496,076;   -1,205;    0,955
579,993;38473,449;    1,432;    0,227
580,573;38820,590;   -0,023;   -0,955
581,154;37729,586;    1,613;   -0,591
581,735;38626,305;    0,341;    0,773
582,315;38148,123;    0,523;    2,136
582,896;38485,964;   -1,750;    1,227
583,477;37925,682;    0,614;    1,227
584,057;38099,777;    1,159;    0,955
584,638;38439,813;   -2,750;    2,318
585,218;38365,384;    2,886;    2,682
585,799;38519,938;    1,977;   -0,227
586,379;38471,292;    1,250;    1,591
586,959;37124,023;    2,613;    0,318
587,540;36303,451;    0,432;    2,227
588,120;35676,808;   -1,113;   -0,045
588,700;34451,777;    2,977;    2,136
589,281;34730,247;    1,250;   -0,955
589,861;34700,279;   -0,296;   -1,682
590,441;34488,094;   -1,477;   -2,682
591,021;33398,071;    1,432;   -2,591
591,601;33556,587;    0,431;    0,500
592,181;33561,382;   -1,296;   -0,773
592,761;32744,789;    2,250;    1,409
593,341;32558,428;    1,522;    0,045
593,921;32484,256;   -0,569;    1,591
594,501;32370,422;    1,250;    1,318
595,081;32221,989;    0,522;   -0,318
595,661;32551,207;    1,068;    0,955
596,240;33109,713;   -1,023;    0,136
596,820;32723,196;    2,613;    1,955
597,400;32970,107;    1,977;    0,773
597,980;33255,267;   -0,750;    1,045
598,559;33278,427;    0,341;   -0,227
599,139;32912,879;   -0,750;   -1,227
599,718;32837,152;    0,795;   -0,409
600,298;33094,916;   -2,387;    0,682
600,877;33284,947;    4,795;    1,409
601,457;33601,612;    0,340;    1,136
602,036;33461,754;    1,795;    2,045
602,616;33714,798;    2,250;    1,682
603,195;34085,779;    0,431;    3,500
603,774;33597,832;   -0,296;    2,045
604,354;33517,553;    2,522;   -0,500
604,933;32862,452;    0,250;    1,864
605,512;32992,017;    2,340;    0,591
606,091;33055,731;    1,886;    3,773
606,671;33847,409;    0,249;    0,773
607,250;32854,257;    1,431;    3,136
607,829;33121,827;    1,158;    3,227
608,408;32992,303;    4,613;    2,591
608,987;31986,482;    2,704;    3,409
609,566;32257,586;    0,341;   -2,500
610,145;32361,324;    2,885;    0,682
610,723;32776,236;    1,613;    6,864
611,302;31917,258;    1,067;    1,682
611,881;31345,740;    5,158;   11,227
612,460;32243,385;    0,795;    3,955
613,039;32734,853;    1,703;    2,045
613,617;31355,376;    0,886;    4,773
614,196;31560,966;    1,613;    1,227
614,775;31892,606;    1,249;    2,409
615,353;31845,409;   -1,660;    0,864
615,932;31487,327;    0,249;    2,409
616,510;32059,046;    0,158;    0,591
617,089;31533,790;    8,794;   17,591
617,667;31249,342;    4,885;    6,136
618,246;31077,654;   -1,115;    1,318
618,824;31232,769;    1,612;   -0,955
619,402;30766,511;    0,431;   -1,773
619,981;31288,865;    1,067;   -1,045
620,559;31187,606;    0,794;    1,682
621,137;30638,932;    3,067;    1,864
621,715;30596,935;    3,703;   -0,682
622,293;30463,700;    1,885;   -0,773
622,871;30954,947;    0,340;    0,500
623,450;30464,426;    0,430;   -0,864
624,028;30403,081;   -0,388;   -0,955
624,606;29934,772;    2,339;    1,682
625,183;30389,349;   -0,661;   -1,136
625,761;29975,879;    1,885;    1,136
626,339;30228,083;    2,339;    2,591
626,917;30645,479;    0,339;   -0,045
627,495;30705,831;    2,794;    1,318
628,073;30102,736;    5,248;    2,864
628,650;29776,691;    3,067;    2,136
629,228;30239,311;    1,248;    4,409
629,806;29529,448;   -0,024;    1,136
630,383;29757,071;    0,066;   -0,318
630,961;29532,210;   -2,206;   -0,955
631,539;29225,188;   -2,479;    0,227
632,116;28453,028;   12,703;   15,409
632,694;29115,100;    4,885;    6,500
633,271;29387,118;    1,975;    2,682
633,848;29292,779;    1,430;    2,045
634,426;29358,754;    1,521;    1,773
635,003;28453,097;   -0,207;   -0,409
635,580;28765,947;    1,884;    3,682
636,158;29356,779;    3,793;    1,227
636,735;29301,517;    3,339;   -0,500
637,312;29465,727;    0,521;   -0,682
637,889;29591,645;    2,248;   -0,682
638,466;29046,040;    0,066;   -0,409
639,043;29009,284;    1,702;   -1,136
639,620;29326,052;    0,611;   -0,955
640,197;29685,347;    1,612;    1,682
640,774;29841,884;    1,430;    1,136
641,351;30251,421;    0,612;    1,136
641,928;29608,957;    2,794;    1,409
642,505;29268,039;    0,794;   -0,500
643,082;29454,758;    1,885;    1,227
643,658;28378,112;    1,157;    1,500
644,235;29128,558;   -2,479;    2,500
644,812;29448,458;    1,794;    0,773
645,388;29152,268;    1,612;    1,409
645,965;29255,804;    1,521;    1,682
646,542;29346,705;    3,430;   -0,227
647,118;29329,332;    3,703;   -0,955
647,695;29628,869;    0,339;    1,136
648,271;29488,587;   -2,115;    0,500
648,848;29854,578;    0,248;    2,227
649,424;29662,024;    0,976;    1,318
650,000;29402,561;   -0,388;   -1,045
650,577;29236,188;    0,158;   -0,955
651,153;29785,997;   -1,115;    0,955
651,729;30821,807;    0,521;    0,864
652,305;31158,252;    1,339;    2,773
652,881;36494,971;   -1,297;    1,136
653,458;44653,508;    0,249;    0,227
654,034;49325,499;    0,703;    1,591
654,610;51173,672;    0,339;    0,773
655,186;52628,208;    1,612;    3,045
655,762;52414,108;   -1,842;    0,409
656,338;52522,372;    0,703;    0,136
656,913;53596,545;   -0,297;    0,409
657,489;52835,809;    0,249;   -0,318
658,065;52823,982;    0,794;   -1,591
658,641;53338,882;    2,158;   -0,864
659,217;52495,601;    2,067;    0,409
659,792;51785,228;   -1,751;   -0,409
660,368;52098,310;   -0,388;   -0,682
660,944;51702,665;    1,794;    1,227
661,519;46313,656;    0,522;    0,409
662,095;38970,102;   -0,206;    0,591
662,670;33371,366;   -0,206;   -0,136
663,246;31908,812;   -0,660;   -0,409
663,821;31060,530;    0,431;    1,682
664,396;30507,521;    0,613;    1,864
664,972;30806,603;   -0,660;   -0,500
665,547;31099,322;    3,794;    0,136
666,122;31097,767;    1,340;    0,318
666,698;31420,395;    2,431;    0,318
667,273;30714,750;    0,885;    0,136
667,848;31562,468;    0,340;    1,500
668,423;31336,187;    1,795;    2,318
668,998;32000,359;    0,976;   -0,682
669,573;32587,987;    2,067;   -1,500
670,148;32331,433;    1,885;   -0,682
670,723;32192,969;   -0,024;    0,318
671,298;32701,779;   -1,296;    1,045
671,873;32795,588;   -0,296;   -0,136
672,448;32733,943;    1,704;    0,136
673,023;33123,116;    0,249;   -0,227
673,597;33388,016;    2,704;    2,318
674,172;33132,734;    2,431;    0,318
674,747;32632,180;   -0,205;   -1,045
675,321;32518,535;   -0,933;    3,318
675,896;31981,981;    2,158;    1,045
676,471;33047,699;    2,522;    1,591
677,045;32829,417;   -0,296;    0,682
677,620;32932,772;    2,158;    1,136
678,194;33241,945;    0,249;    1,136
678,769;32814,936;    0,886;   -0,318
679,343;32993,109;   -0,023;    1,773
679,917;32805,555;    0,340;    1,955
680,492;32976,546;    0,249;    3,227
681,066;33190,628;    0,613;    0,409
681,640;33200,438;    1,795;   -0,318
682,214;34097,610;    2,340;    0,500
682,788;33507,874;    0,613;   -0,773
683,363;33444,593;    1,977;    1,682
683,937;33118,311;    0,886;   -0,318
684,511;33975,393;   -1,023;   -0,591
685,085;33740,384;   -1,478;    0,318
685,659;33456,194;    1,431;    0,864
686,232;33654,912;    1,159;   -0,318
686,806;33347,358;    2,159;    0,409
687,380;34077,531;   -1,932;    0,591
687,954;34357,795;    2,432;    1,136
688,528;34001,695;    2,613;    1,955
689,101;34770,777;    0,432;    1,045
689,675;34364,768;    0,886;   -0,136
690,249;33676,032;    3,432;    0,409
690,822;33981,478;    1,159;    0,318
691,396;34077,469;    2,068;    1,227
691,969;33524,733;    2,523;    0,136
692,543;33977,906;   -0,568;   -1,955
693,116;33626,806;   -0,659;   -1,409
693,690;33463,434;   -0,296;    0,500
694,263;34046,061;    2,341;    2,955
694,836;34068,234;    2,795;    3,591
695,410;32682,043;    1,159;    1,773
695,983;33177,580;    1,614;    0,591
696,556;33128,389;   -0,750;   -1,045
697,129;33513,653;   -1,114;    1,409
697,703;33150,281;    1,341;    1,955
698,276;33109,726;    1,705;   -0,773
698,849;32847,445;   -1,023;    1,409
699,422;33280,254;    1,250;    0,591
699,995;32901,791;   -0,659;    0,136
700,568;33472,782;   -0,204;    3,045
701,140;33493,591;   -1,841;    1,682
701,713;33170,128;    0,341;    2,409
702,286;32877,937;    0,796;    0,864
702,859;32831,565;    0,614;   -0,591
703,432;31870,374;   -0,841;    0,682
704,004;32451,092;    1,978;    0,318
704,577;32324,084;    1,068;    0,136
705,150;32899,347;    0,887;    2,500
705,722;32742,702;    1,523;   -3,227
706,295;32484,512;    1,432;   -0,591
706,867;32264,321;    0,250;    1,955
707,440;32503,130;   -0,113;   -0,409
708,012;32755,758;   -0,022;    0,591
708,584;32658,931;    2,705;    0,227
709,157;33018,467;    1,160;   -0,591
709,729;32591,095;    1,069;    2,045
710,301;33517,086;   -1,204;    0,045
710,874;33512,532;    0,341;   -0,227
711,446;32350,796;   -0,295;    0,864
712,018;32222,241;   -3,022;    0,500
712,590;31936,232;   -0,204;    1,682
713,162;32465,860;   -0,477;    1,318
713,734;32724,215;    1,796;   -2,045
714,306;32607,115;    0,342;   -0,409
714,878;31263,288;   -0,295;    0,864
715,450;32130,006;   -0,113;    0,864
716,022;32371,725;    2,433;    1,318
716,593;32470,716;    0,978;    0,591
717,165;32416,434;    1,796;   -1,227
717,737;32147,516;    0,796;    0,409
718,309;31814,417;    1,160;   -0,045
718,880;31742,862;   -1,295;   -1,409
719,452;31976,399;    0,887;   -1,591
720,024;31409,481;    1,705;   -0,591
720,595;32016,018;    2,978;    0,955
721,167;31604,827;    1,160;   -2,045
721,738;31088,636;    2,069;   -1,045
722,309;30946,537;    1,251;   -1,227
722,881;30702,346;    2,705;    0,773
723,452;31393,882;    1,251;    2,864
724,023;31675,237;    1,524;    2,682
724,595;31402,956;    2,342;    0,682
725,166;31128,220;    1,524;   -0,409
725,737;30704,211;    1,887;    0,227
726,308;30767,384;    0,797;    0,318
726,879;31270,284;    1,069;    1,227
727,450;31103,002;   -2,022;   -0,045
728,021;31070,266;    1,069;    0,682
728,592;30888,712;    1,160;    0,500
729,163;31250,067;    1,433;   -0,136
729,734;31231,058;    2,160;   -0,227
730,305;31628,322;    0,615;    0,136
730,876;32015,131;    0,888;    2,955
731,447;31676,759;    0,797;    2,682
732,017;31825,295;   -0,840;    1,864
732,588;31290,014;   -0,021;    1,227
733,159;31463,914;    3,615;   -1,045
733,729;31358,996;    1,251;    0,409
734,300;30533,714;    0,160;    0,864
734,870;30996,615;   -1,385;    0,591
735,441;31590,424;    0,888;   -0,591
736,011;31289,415;    1,070;   -1,591
736,582;31216,043;    1,251;    0,045
737,152;30658,852;    0,979;   -2,045
737,722;31153,388;    1,070;   -0,682
738,293;30849,834;   -2,021;    1,318
738,863;30742,007;    1,797;    2,318
739,433;30463,816;    4,524;    0,318
740,003;31132,899;    1,524;   -0,682
740,573;30493,890;    2,252;   -1,591
741,143;30473,335;    3,615;    0,318
741,713;31238,145;    0,252;   -0,500
742,283;30918,590;    1,706;    1,591
742,853;30623,400;    0,524;    1,591
743,423;30116,300;    0,161;    0,045
743,993;30228,564;    1,070;    1,500
744,563;29497,373;    2,524;   -0,864
745,133;29472,910;   -0,112;   -0,864
745,702;30193,446;    2,797;    1,773
746,272;29328,619;    0,434;    0,591
746,842;29091,792;   -0,748;   -0,591
747,411;29583,874;   -0,839;   -0,318
747,981;29812,320;   -0,930;    0,500
748,551;29883,493;   -0,021;   -1,045
749,120;29643,939;   -0,112;   -0,227
749,690;30048,384;    2,161;    2,409
750,259;30357,012;    0,979;    2,955
750,828;30269,094;    4,070;   -1,955
751,398;30515,903;   -0,112;   -0,045
751,967;29974,895;    2,888;    0,409
752,536;30230,158;    1,161;   -0,227
753,105;30725,240;   -1,384;    0,227
753,675;30481,504;   -0,112;    1,773
754,244;30435,677;    0,888;    3,591
754,813;30518,759;    0,979;    1,227
755,382;30135,841;    0,798;    0,955
755,951;30639,651;   -0,112;    3,682
756,520;30163,006;    2,525;    1,864
757,089;30789,542;    1,888;    0,500
757,658;30970,624;    2,434;    1,227
758,227;30911,343;   -1,111;    0,318
758,795;31292,152;   -1,021;    1,136
759,364;31507,961;    0,525;   -0,591
759,933;30491,134;    1,343;   -0,045
760,501;30000,035;    0,252;   -1,318
761,070;30442,480;   -0,293;   -1,409
761,639;31224,835;    1,434;    1,318
762,207;30480,008;    0,889;   -0,955
762,776;30424,272;    2,889;    0,864
763,344;30367,899;    0,071;    0,591
763,913;29429,709;    1,616;    1,409
764,481;30194,063;    1,980;   -0,136
765,049;29954,509;    0,616;    1,409
765,618;29837,500;    1,434;    0,318
766,186;29915,673;    2,434;    0,136
766,754;30140,392;    1,798;    1,864
767,322;29062,656;    1,162;    0,409
767,890;29044,829;    0,525;   -1,773
768,459;29445,820;    2,616;   -0,318
769,027;29638,720;    2,525;    3,409
769,595;28653,438;    2,616;    2,591
770,163;29060,339;    3,344;    2,955
770,730;28737,330;    2,525;   -0,136
771,298;28538,775;    1,162;   -1,409
771,866;28660,858;    0,253;    4,955
772,434;28973,667;    1,162;   -1,864
773,002;29117,749;    2,616;    0,682
773,569;28734,376;    1,071;    1,682
774,137;28571,731;    0,889;   -0,045
774,705;29422,631;   -0,747;   -0,136
775,272;28849,168;    0,253;    0,682
775,840;28603,341;   -0,111;    2,682
776,407;28060,423;   -0,293;    1,955
776,975;27642,778;    1,162;    0,318
777,542;28724,860;    2,162;   -0,045
778,110;28545,760;    0,707;   -0,045
778,677;28149,842;    1,071;   -0,864
779,244;27897,561;   -1,020;    1,045
779,812;28086,097;    0,980;    0,864
780,379;27887,634;    2,435;    1,136
780,946;28086,898;    2,617;   -0,773
781,513;28463,525;   -0,565;    0,318
782,080;27732,698;    1,253;    2,864
782,647;28522,326;    1,708;    3,045
783,214;28078,862;   -0,201;    3,864
783,781;27705,853;    1,708;   -0,682
784,348;27601,299;    0,253;    1,500
784,915;28086,290;   -1,474;    0,318
785,482;27805,191;    2,708;    2,591
786,049;28237,636;    1,071;   -0,591
786,615;28372,264;    1,708;   -0,955
787,182;28141,528;   -3,201;   -0,682
787,749;27757,064;   -2,201;    1,409
788,315;27066,692;    0,253;   -0,409
788,882;27379,047;    0,981;   -1,227
789,448;28037,220;    1,435;   -0,955
790,015;28079,302;    1,799;    3,227
790,581;27563,656;    0,708;    0,227
791,148;27477,011;    1,344;    1,045
791,714;27745,002;   -1,019;    3,136
792,280;27393,448;    3,708;    1,591
792,847;26933,166;   -0,928;    2,500
793,413;27603,703;   -0,110;   -0,318
793,979;27084,331;    1,526;   -1,318
794,545;27115,867;    2,981;    2,682
795,111;26458,131;    2,435;    1,318
795,678;26670,213;    3,526;   -1,682
796,244;26282,659;    2,799;    0,136
796,810;26874,923;    0,799;    0,773
797,375;26592,641;   -0,292;   -2,136
797,941;26582,450;   -1,110;    0,591
798,507;26704,987;    0,254;   -0,955
799,073;26229,524;    2,708;    0,591
799,639;26297,697;    1,435;    3,136
800,205;26283,324;   -1,565;    2,682
800,770;25767,224;    1,345;    1,773
801,336;25857,397;    2,981;   -0,955
801,901;25539,116;    6,072;    3,136
802,467;26140,380;    0,526;    2,045
803,033;25444,007;   -0,019;    0,864
803,598;25662,726;    1,072;   -1,045
804,163;25724,626;    0,708;   -0,318
804,729;25599,162;   -0,110;    1,136
805,294;25996,063;    1,072;    2,227
805,859;25829,963;    0,890;   -0,409
806,425;25257,500;    3,890;    2,682
806,990;24938,945;    1,890;    4,318
807,555;25459,391;   -0,110;    2,591
808,120;25351,291;   -1,292;   -0,409
808,685;25394,737;    1,072;   -2,500
809,250;24840,637;    2,072;   -0,500
809,815;25191,446;   -0,201;    0,682
810,380;25756,619;    0,981;    1,591
810,945;26292,429;    2,890;    2,045
811,510;25411,056;   -0,200;    1,591
812,075;25099,047;    2,800;   -1,409
812,640;25105,402;    3,709;    1,409
813,204;25158,302;    2,163;   -0,227
813,769;25686,021;    0,254;   -0,045
814,334;25081,648;    0,527;    0,864
814,898;25150,367;    1,981;    0,591
815,463;24972,358;    0,981;   -0,773
816,027;24934,531;    1,345;   -2,318
816,592;25040,613;    2,163;   -2,045
817,156;24468,513;   -2,200;    1,136
817,721;24321,323;    0,982;    2,318
818,285;24265,586;    0,618;    1,500
818,849;24949,214;   -0,018;    1,682
819,414;24821,023;    0,073;    2,955
819,978;24367,287;   -0,291;    1,773
820,542;25009,369;    2,891;    0,500
821,106;24720,360;    2,800;    0,682
821,670;24764,806;    2,709;    2,591
822,234;24451,524;    1,073;    1,409
822,798;23800,243;   -0,836;    0,500
823,362;23726,052;    1,527;    4,227
823,926;23025,316;   -0,018;    1,136
824,490;23269,762;    3,527;   -0,682
825,054;23724,753;    2,527;   -1,136
825,618;23351,744;   -1,200;   -1,500
826,181;23241,644;    0,982;   -1,318
826,745;23074,908;   -0,745;   -1,045
827,309;23479,536;    2,255;    1,318
827,872;22858,163;    0,527;    0,955
828,436;23908,609;    1,982;   -0,773
828,999;23941,782;    2,436;    1,227
829,563;22727,500;   -0,654;    1,136
830,126;22480,310;   -0,018;   -0,591
830,690;22505,392;    0,709;    2,864
831,253;22008,565;   -0,473;    2,227
831,816;22139,829;   -0,018;    0,500
832,380;22053,002;    1,164;    0,864
832,943;22199,902;    3,073;   -0,500
833,506;21727,529;    0,255;   -1,227
834,069;22562,339;    2,164;   -0,955
834,632;22629,057;   -2,200;    1,318
835,195;22479,412;    1,346;    0,955
835,758;21664,312;    0,709;    1,955
836,321;21482,940;    1,073;   -1,045
836,884;21600,567;   -1,291;   -0,955
837,447;21614,831;    0,528;    1,773
838,010;21868,913;    1,800;    3,227
838,573;22202,541;    0,528;    0,773
839,135;22138,895;   -0,109;   -0,955
839,698;21580,250;    2,528;    0,409
840,261;21033,878;    0,255;   -0,227
840,823;20916,778;   -0,927;    0,864
841,386;21183,133;   -0,018;   -2,409
841,948;21027,215;    0,255;    1,773
842,511;20738,024;    0,255;    1,682
843,073;20895,652;    2,982;    0,227
843,636;20712,188;    0,619;   -0,227
844,198;20631,998;    1,255;    0,591
844,760;20743,716;    0,619;    1,955
845,322;20365,343;    0,164;    1,136
845,885;20831,880;   -0,290;    0,591
846,447;21303,598;    0,710;    0,227
847,009;20822,226;    3,983;   -0,682
847,571;21175,581;    1,346;   -2,045
848,133;21233,572;   -0,199;   -1,864
848,695;21031,654;    2,346;    1,409
849,257;20538,009;    1,346;   -1,682
849,819;20749,909;    2,983;   -0,409
850,381;20810,173;    1,801;   -0,864
850,942;21204,346;    1,892;   -0,591
851,504;21118,701;    0,983;    0,227
852,066;21155,965;    1,619;   -1,591
852,628;20698,047;    0,165;    1,955
853,189;20240,947;    0,256;    2,682
853,751;20410,665;   -0,654;    1,409
854,312;20226,202;    1,256;   -1,682
854,874;20770,466;   -0,108;   -0,773
855,435;21267,821;    0,528;   -1,682
855,997;21416,630;    3,983;   -0,136
856,558;20664,712;    0,801;    1,773
857,119;20779,976;   -0,744;    2,864
857,681;20437,421;   -0,108;    0,318
858,242;20444,776;    1,347;   -2,136
858,803;20901,222;    1,074;   -0,773
859,364;21467,759;    0,892;   -4,773
859,925;20778,477;   -0,290;   -0,955
860,486;20697,741;    0,529;   -0,955
861,047;20406,459;    0,165;   -1,227
861,608;20144,723;    0,165;   -0,773
862,169;20319,260;   -0,562;   -0,045
862,730;20086,524;   -0,290;    1,409
863,291;20344,060;    0,438;   -0,500
863,852;20664,688;   -0,926;    1,955
864,412;20121,497;   -1,835;   -0,864
864,973;18601,670;    1,892;    0,500
865,534;18428,661;    2,074;    0,227
866,094;20048,652;    2,620;    0,227
866,655;19685,734;    4,711;    3,318
867,215;19968,907;    0,074;    0,136
867,776;19817,535;   -1,199;   -0,136
868,336;19886,435;    1,529;    0,136
868,897;19303,517;    3,438;    1,682
869,457;19039,417;    3,256;    0,318
870,017;19332,500;    2,438;   -1,227
870,578;19903,945;    1,893;    0,773
871,138;19510,209;    2,620;   -0,955
871,698;19017,928;   -0,562;   -1,318
872,258;18850,101;    0,711;   -2,864
872,818;19230,183;    2,347;    0,045
873,378;19209,901;   -2,198;    1,045
873,938;18789,529;    4,984;    0,500
874,498;19086,247;    1,256;   -1,955
875,058;18968,602;    4,347;    1,773
875,618;18842,138;    1,438;   -2,682
876,177;18779,948;   -0,471;    0,136
876,737;18351,757;   -0,289;    1,955
877,297;18303,566;    2,711;    1,955
877,856;18307,557;    2,529;    0,318
878,416;18275,458;    2,438;   -0,136
878,976;18543,994;    3,438;    0,409
879,535;18746,531;    4,529;    3,136
880,095;18433,068;    1,347;    0,045
880,654;18583,059;    0,347;    1,318
881,213;18636,504;    2,347;    1,500
881,773;18252,768;    1,984;    2,682
882,332;18661,214;    6,075;    5,136
882,891;18516,114;    0,711;    2,136
883,451;19016,014;   -2,016;    1,682
884,010;18421,824;   -1,107;   -0,409
884,569;18520,724;   -2,289;   -0,045
885,128;18653,170;   -0,743;   -1,864
885,687;18692,888;   -0,743;    0,682
886,246;18346,697;    2,620;    2,136
886,805;18110,325;    1,620;    2,045
887,364;18474,225;    1,166;   -0,500
887,922;18882,489;   -0,016;    0,045
888,481;18336,480;    1,530;    0,591
889,040;18644,471;    3,711;    2,136
889,599;19358,372;    2,166;    1,409
890,157;19430,363;    2,166;    2,409
890,716;19091,263;    2,166;    0,227
891,274;18857,891;    0,075;   -1,136
891,833;19266,973;    1,166;    0,864
892,391;19144,055;    1,802;    0,500
892,950;19304,137;    0,166;   -0,773
893,508;19648,764;    0,984;   -0,409
894,067;19008,937;   -0,379;    0,136
894,625;18882,383;   -1,016;   -1,500
895,183;19082,556;   -0,198;   -0,682
895,741;19020,638;    2,257;   -1,773
896,299;18856,356;    1,621;   -2,409
896,858;19018,711;    1,530;   -1,591
897,416;19115,611;    0,166;   -1,318
897,974;18871,603;   -2,197;    0,318
898,532;19017,503;    6,530;    2,682
899,089;18836,494;    0,621;   -0,682
899,647;18967,485;    0,530;    1,318
900,205;18666,658;    0,257;    1,045
900,763;18880,013;    2,166;    0,227
901,321;18856,368;    3,530;   -1,409
901,878;18260,450;    3,257;   -0,773
902,436;18066,532;    0,257;    1,318
902,994;18474,432;    6,712;    3,682
903,551;17893,878;    1,439;    0,409
904,109;18301,414;    1,530;   -1,409
904,666;17878,678;    1,439;    1,045
905,224;17721,306;    3,894;   -0,409
905,781;17413,751;   -0,470;   -0,318
906,338;17522,652;    0,167;    1,045
906,895;17411,461;    1,894;    2,045
907,453;17331,725;    2,348;    1,136
908,010;17318,534;    3,348;    0,409
908,567;16939,071;   -0,561;    0,591
909,124;16484,516;    2,439;   -1,500
909,681;16553,871;   -1,288;    0,682
910,238;16670,135;   -0,106;   -1,318
910,795;16991,399;   -1,561;   -1,136
911,352;16609,763;   -0,379;   -2,682
911,909;15952,308;    2,803;   -0,864
912,466;16513,399;    1,985;    1,500
913,022;16037,763;   -0,924;    0,500
913,579;16382,490;   -0,470;    2,045
914,136;16050,581;   -2,561;    0,955
914,692;16428,126;    1,530;   -1,227
915,249;16019,308;    0,530;    0,409
915,806;16221,581;    1,803;    1,955
916,362;15878,035;    0,894;    1,864
916,918;15443,490;    2,439;    1,045
917,475;15459,399;    1,621;    0,955
918,031;15571,399;    0,076;   -0,045
918,587;14952,035;    0,621;   -0,318
919,144;15165,308;   -0,379;    0,227
919,700;15512,944;    0,167;    0,773
920,256;15055,672;    0,439;    0,045
920,812;14624,490;    1,439;   -1,045
921,368;14610,944;    1,348;   -1,045
921,924;14250,490;    0,439;   -0,136
922,480;13761,126;    0,076;    1,227
923,036;14425,035;   -0,652;    1,955
923,592;14369,672;    0,621;    0,318
924,148;14238,490;    1,894;   -0,955
924,704;13559,854;    0,258;   -0,409
925,259;13814,126;   -0,561;    0,591
925,815;13532,217;    3,803;    0,500
926,371;13077,035;    3,530;    1,409
926,926;12950,672;    1,621;    0,591
927,482;12514,490;    1,621;    0,773
928,037;12333,035;   -0,833;    2,045
928,593;12663,854;    0,258;    1,045
929,148;12479,035;    1,167;   -1,500
929,704;11975,672;    2,439;   -0,500
930,259;12173,399;    0,894;   -0,136
930,814;11174,490;    1,803;    1,955
931,369;10838,763;    0,258;   -0,773
931,925;10763,490;   -1,924;    0,136
932,480;10643,581;    3,076;   -2,591
933,035;10494,035;    3,985;   -0,318
933,590;10234,763;   -1,742;   -1,773
934,145; 9848,581;   -1,288;   -0,318
934,700;10245,581;    0,348;   -0,591
935,255; 9998,581;    4,803;    0,045
935,809; 9226,672;    6,258;    0,864
936,364; 8275,126;    2,167;   -0,136
936,919; 8223,217;    2,348;   -1,773
937,474; 8091,672;    1,348;    0,136
938,028; 7838,217;    3,076;    1,136
938,583; 7227,308;    6,348;    4,682
939,138; 7552,581;    0,167;    2,136
939,692; 6964,035;   -1,015;   -1,136
940,247; 6607,126;    1,167;   -1,045
940,801; 6090,672;    0,621;    0,227
941,355; 5998,035;    0,439;    2,591
941,910; 5640,672;    0,712;   -2,136
942,464; 5739,490;    2,712;   -0,318
943,018; 5484,126;    3,258;   -0,227
943,572; 5415,308;    2,803;   -0,682
944,126; 4796,763;   -0,924;   -0,409
944,681; 4681,944;    0,712;    0,227
945,235; 4670,763;    2,167;   -0,591
945,789; 4617,126;    1,258;   -1,864
946,342; 4671,217;   -0,561;   -0,591
946,896; 4502,035;    0,348;    0,955
947,450; 4257,399;   -0,561;   -0,227
948,004; 4407,126;    1,076;   -0,045
948,558; 4461,944;    1,258;   -0,864
949,111; 4362,854;   -1,197;   -0,318
949,665; 4374,763;   -0,106;   -0,682
950,219; 4222,581;    0,621;   -1,045
950,772; 4305,944;    0,258;    1,864
951,326; 4239,854;   -1,106;   -0,955
951,879; 4347,217;    1,076;   -2,318
952,433; 4344,672;    1,348;    2,227
952,986; 4188,944;    0,348;    0,682
953,539; 4140,126;    1,530;    0,591
954,093; 4076,854;    0,985;   -1,318
954,646; 4198,490;   -0,288;    1,318
955,199; 4011,399;    1,258;   -0,500
955,752; 3851,763;    1,985;    1,773
956,305; 3820,308;    0,894;    2,955
956,858; 4020,399;    0,621;   -0,318
957,411; 4194,126;    3,621;    2,136
957,964; 3993,308;    2,076;    2,136
958,517; 3990,399;    0,985;    3,136
959,070; 3818,854;   -1,197;    1,955
959,623; 3876,854;    1,076;    1,500
960,176; 3624,490;    0,712;    2,045
960,728; 3591,399;    1,712;    0,773
961,281; 3673,399;    2,258;    0,500
961,834; 3720,854;   -0,833;    0,864
962,386; 3631,672;    1,258;    1,045
962,939; 3547,581;    3,439;   -0,318
963,491; 3709,854;    2,621;    1,136
964,043; 3563,035;    0,076;    2,409
964,596; 3688,854;    1,712;    2,227
965,148; 3499,308;   -0,379;    1,773
965,700; 3434,035;   -0,015;   -0,227
966,253; 3606,217;   -0,833;    0,318
966,805; 3412,490;    1,894;    0,773
967,357; 3487,217;    0,439;   -1,500
967,909; 3422,217;    1,167;   -1,227
968,461; 3567,854;    0,894;    3,136
969,013; 3475,763;   -1,561;   -0,864
969,565; 3556,581;    1,803;   -1,136
970,117; 3576,399;    3,803;    1,045
970,669; 3450,035;    3,258;   -0,136
971,220; 3313,035;    2,167;   -1,500
971,772; 3224,308;    1,348;   -0,318
972,324; 3327,672;   -1,197;   -0,500
972,876; 3294,217;    0,167;   -0,045
973,427; 3402,763;   -1,197;   -1,045
973,979; 3388,581;    0,076;   -2,500
974,530; 3447,126;    0,803;    1,318
975,082; 3447,854;    2,167;    1,682
975,633; 3313,944;    2,894;    1,682
976,184; 3464,672;    2,076;    0,773
976,736; 3255,035;    0,348;    0,227
977,287; 3016,944;    0,258;   -0,500
977,838; 3232,763;   -0,924;   -0,318
978,389; 3295,308;    0,803;   -0,500
978,940; 3168,944;    1,258;   -0,409
979,491; 3196,126;    2,258;   -0,500
980,042; 3146,308;   -0,652;    3,045
980,593; 3213,672;    1,894;    0,227
981,144; 3257,035;    3,530;   -0,500
981,695; 3200,217;   -0,470;    1,500
982,246; 3159,399;   -1,833;    1,045
982,797; 3357,399;   -0,561;    0,682
983,347; 3480,399;    2,167;    0,591
983,898; 3609,217;    4,167;    0,409
984,449; 3415,672;    2,530;    0,773
984,999; 3352,672;    1,894;   -1,136
985,550; 3080,944;    3,167;   -0,318
986,100; 3168,126;    0,712;   -0,318
986,651; 3191,035;    0,258;    0,045
987,201; 3156,763;    0,894;   -0,591
987,751; 3263,308;   -0,288;    2,864
988,302; 3224,763;   -0,379;    1,500
988,852; 3257,399;    1,985;   -1,136
989,402; 3272,672;    0,985;    0,682
989,952; 3199,126;    1,621;    0,864
990,502; 3326,035;    1,076;    0,682
991,052; 3299,854;   -0,106;    0,045
991,602; 3154,490;    1,167;    1,318
992,152; 3138,308;    2,803;    0,682
992,702; 3112,763;    1,167;   -0,045
993,252; 3035,490;    0,076;   -0,500
993,802; 3116,490;    1,167;    1,318
994,352; 3398,581;   -0,742;    1,136
994,901; 3512,854;    1,076;    3,227
995,451; 3398,399;   -1,197;    0,318
996,000; 3474,490;    1,076;    0,318
996,550; 3166,308;    2,894;    0,227
997,100; 3166,581;   -0,561;   -0,045
997,649; 3462,490;   -0,197;    0,955
998,198; 3080,399;   -0,288;   -1,500
998,748; 3257,308;    0,348;   -2,318
999,297; 3177,672;    0,985;   -0,409
999,846; 3257,399;    1,894;   -0,773
1000,395; 3294,035;    1,530;    0,500
1000,945; 3223,581;    1,076;   -0,773
1001,494; 3309,854;    0,167;    0,682
1002,043; 3312,490;    0,712;    0,864
1002,592; 3161,581;    3,439;    1,955
1003,141; 3308,399;    2,439;   -0,682
1003,690; 3127,672;    1,258;    0,500
1004,238; 3230,308;   -0,106;   -0,045
1004,787; 2858,308;   -1,288;    1,227
1005,336; 3080,763;    1,621;    0,682
1005,885; 3245,672;   -0,197;   -2,773
1006,433; 3412,126;   -0,470;    0,955
1006,982; 3444,035;    2,167;    1,682
1007,531; 3365,944;    2,712;   -0,227
1008,079; 3344,035;    0,258;    0,500
1008,627; 3509,763;    1,621;    0,409
1009,176; 3210,399;    0,076;   -1,955
1009,724; 3241,035;   -2,742;    0,864
1010,273; 3289,672;    1,076;    0,500
1010,821; 3443,035;    1,076;    1,409
1011,369; 3137,308;    0,076;    1,318
1011,917; 3124,035;   -0,833;   -0,591
1012,465; 3409,672;    2,530;   -1,591
1013,013; 3567,399;    0,439;   -1,682
1013,561; 3407,854;   -1,288;   -0,773
1014,109; 3439,217;   -0,833;    1,682
1014,657; 3313,944;    1,348;    0,591
1015,205; 3461,854;    0,894;   -0,955
1015,753; 3508,854;    0,258;   -1,409
1016,301; 3558,763;    2,621;    3,045
1016,848; 3534,944;    2,167;    0,409
1017,396; 3575,581;    1,621;    0,045
1017,944; 3726,672;    2,621;    1,864
1018,491; 3468,126;   -0,197;    1,409
1019,039; 3598,217;   -0,652;    0,591
1019,586; 3538,217;    0,076;    1,682
1020,134; 3639,308;    0,712;    1,500
1020,681; 3659,854;    2,894;   -1,136
1021,228; 3687,944;   -0,561;   -2,227
1021,776; 3505,399;   -0,833;   -1,136
1022,323; 3705,672;    0,803;    0,773
1022,870; 3650,035;   -0,470;   -0,045
1023,417; 3514,490;    2,076;    1,864
1023,964; 3716,126;    0,621;    1,227
1024,511; 3509,672;   -0,652;    0,773
1025,058; 3293,126;    0,439;   -0,045
1025,605; 3362,672;   -1,742;    3,136
1026,152; 3571,944;   -0,106;   -0,591
1026,699; 3294,581;    0,167;    1,318
1027,245; 3472,581;    2,439;    0,318
1027,792; 3741,944;    0,712;    1,409
1028,339; 3571,944;    4,076;   -0,045
1028,885; 3440,035;    3,621;   -0,227
1029,432; 3358,854;   -0,106;    0,227
1029,978; 3416,399;    1,348;   -1,591
1030,525; 3297,217;    1,621;    0,409
1031,071; 3604,399;    0,348;    1,136
1031,618; 3672,581;    1,258;    1,682
1032,164; 3454,490;    2,076;    3,045
1032,710; 3496,854;    0,076;   -1,500
1033,256; 3422,944;    0,712;   -0,136
1033,803; 3425,126;   -0,288;    1,500
1034,349; 3125,672;    1,803;    0,136
1034,895; 3288,581;    2,621;   -0,318
1035,441; 3255,035;    0,439;    0,318
1035,987; 3269,399;   -2,288;   -0,682
1036,533; 3247,581;   -0,197;   -0,955
1037,078; 3454,490;    4,712;    1,682
1037,624; 3274,308;    2,439;   -0,955
1038,170; 3313,490;    1,712;   -0,318
1038,716; 3183,581;    2,167;   -0,409
1039,261; 3104,763;    2,167;   -0,773
1039,807; 3044,490;   -0,015;    3,409
1040,352; 3106,944;   -1,288;   -0,318
1040,898; 3174,035;    0,167;   -0,682
1041,443; 3091,035;    0,803;   -2,591
1041,989; 3061,126;    3,621;    1,591
1042,534; 2963,308;    0,985;    2,591
1043,079; 3107,944;    1,985;    0,955
1043,625; 2853,763;    0,258;    0,500
1044,170; 2882,581;    2,439;    1,045
1044,715; 3152,126;    0,167;    0,955
1045,260; 2974,399;   -0,833;   -0,955
1045,805; 3038,126;    0,258;   -0,591
1046,350; 2986,126;    0,530;   -0,409
1046,895; 2896,581;    0,803;    1,591
1047,440; 2836,035;    1,530;    0,409
1047,985; 2754,308;   -1,197;   -0,955
1048,530; 2670,490;    1,348;    1,227
1049,074; 2732,581;    2,803;    0,318
1049,619; 2718,126;   -0,924;    1,955
1050,164; 2487,126;    1,076;    0,227
1050,708; 2550,854;    2,621;    0,045
1051,253; 2895,763;    3,258;   -2,227
1051,797; 2610,490;   -0,197;   -1,318
1052,342; 2663,126;    1,348;    1,045
1052,886; 2621,672;    1,803;   -1,409
1053,430; 2532,399;    2,167;    0,136
1053,975; 2539,944;    0,894;   -0,318
1054,519; 2509,308;    1,803;    3,227
1055,063; 2493,672;    3,621;    1,318
1055,607; 2370,217;    1,348;    0,227
1056,151; 2402,763;    0,530;    1,682
1056,695; 2340,854;   -1,833;   -1,136
1057,239; 2402,763;   -1,197;   -0,682
1057,783; 2383,854;    2,258;   -1,500
1058,327; 2330,763;    3,076;    1,409
1058,871; 2563,944;    3,985;    1,318
1059,415; 2254,854;   -0,561;   -0,045
1059,958; 2491,126;    2,985;    2,591
1060,502; 2245,308;    1,348;   -0,773
1061,046; 2158,035;    1,712;   -0,955
1061,589; 2145,944;    2,803;   -1,136
1062,133; 2013,944;    0,985;    1,864
1062,676; 1919,763;    1,439;    0,864
1063,220; 1928,308;    0,985;    0,500
1063,763; 1936,490;    2,985;    1,136
1064,306; 2024,490;    0,985;    1,864
1064,849; 1907,490;    2,076;    0,591
1065,393; 1926,035;    2,894;   -1,500
1065,936; 2047,944;    2,530;   -0,409
1066,479; 1937,854;    2,621;    1,318
1067,022; 1958,581;    1,894;   -0,227
1067,565; 1859,854;   -1,197;   -1,318
1068,108; 1893,035;    1,258;   -0,591
1068,651; 1853,490;   -2,470;    1,409
1069,194; 1780,944;   -1,106;   -1,682
1069,736; 1765,308;    3,803;    0,955
1070,279; 1751,490;   -1,652;   -0,500
1070,822; 1782,944;    1,530;   -0,318
1071,364; 1852,581;    0,530;    1,318
1071,907; 1683,217;    0,348;    3,227
1072,450; 1615,490;    0,258;   -0,045
1072,992; 1589,217;   -0,561;    3,136
1073,535; 1710,672;    0,167;    2,136
1074,077; 1529,581;    2,985;    2,045
1074,619; 1484,763;    0,985;    0,591
1075,161; 1504,944;   -0,561;    1,500
1075,704; 1691,126;    0,258;    1,227
1076,246; 1494,399;    1,530;    0,682
1076,788; 1417,672;   -1,015;    1,773
1077,330; 1520,217;   -2,106;    2,136
1077,872; 1460,035;   -1,924;    0,955
1078,414; 1664,672;    3,712;    0,773
1078,956; 1402,490;    0,167;   -0,227
1079,498; 1636,581;    0,439;    0,318
1080,040; 1331,217;    0,985;   -1,318
1080,581; 1307,490;    0,621;   -0,318
1081,123; 1245,035;   -0,106;   -0,773
1081,665; 1292,854;    3,803;   -0,955
1082,206; 1574,944;    3,258;   -0,500
1082,748; 1444,581;    3,258;    2,045
1083,289; 1331,854;    0,167;    1,318
1083,831; 1221,944;    0,258;    0,227
1084,372; 1247,126;    0,894;    0,591
1084,913; 1246,035;    3,348;    0,864
1085,455; 1240,035;    1,530;   -2,045
1085,996; 1191,308;    0,530;    0,136
1086,537; 1202,581;    0,985;    0,864
1087,078; 1250,944;    0,439;   -2,136
1087,619; 1271,217;   -1,652;    0,227
1088,160; 1190,399;    1,439;    1,318
1088,701; 1187,217;   -0,742;    0,682
1089,242; 1107,399;   -0,561;   -2,227
1089,783; 1215,763;   -0,561;    1,409
1090,324; 1176,854;   -0,833;    0,682
1090,865; 1065,854;   -1,924;   -0,409
1091,405; 1056,763;   -0,561;    2,227
1091,946; 1081,308;   -0,197;   -0,955
1092,487; 1004,399;   -1,288;   -1,409
1093,027; 1158,490;    1,803;   -1,500
1093,568; 1000,399;    2,258;    1,227
1094,108; 1082,944;    0,621;    1,773
1094,649; 1036,763;   -0,470;    0,136
1095,189;  976,308;    1,167;   -0,682
1095,729;  918,490;    0,712;    0,955
1096,269;  931,581;    1,258;   -0,955
1096,810; 1241,763;   -0,197;    0,500
1097,350; 1046,308;   -0,561;   -0,773
1097,890;  959,126;    2,985;    1,227
1098,430; 1211,672;    4,985;    2,864
1098,970; 1079,126;    1,894;    1,682
1099,510;  959,672;   -0,833;   -2,318
1100,050;  876,854;    0,258;   -1,591
1100,589;  835,308;    0,076;   -0,318
1101,129;  955,217;    0,894;   -0,955
1101,669; 1086,217;    2,803;    2,136
1102,209;  928,581;    1,530;    2,227
1102,748;  890,763;    3,439;    0,955
1103,288;  868,217;    0,712;   -1,227
1103,827;  895,308;    3,530;   -2,227
1104,367;  773,399;    1,712;   -2,409
1104,906;  736,581;   -1,015;   -1,136
1105,445;  810,581;    0,985;   -1,136
1105,985;  752,944;   -0,652;    1,500
1106,524;  792,763;    1,530;   -0,682
1107,063;  762,944;    1,167;    1,409
1107,602;  759,672;    1,894;   -1,500
1108,141;  678,126;    1,621;    1,500
1108,680;  770,672;    3,985;   -0,591
1109,219;  707,126;    0,167;   -0,500
1109,758;  706,944;    4,167;    0,682
1110,297;  678,217;   -1,106;   -0,682
1110,836;  631,035;    1,439;    0,955
1111,375;  777,944;    0,348;    0,409
1111,913;  786,854;    0,985;    0,773
1112,452;  736,581;    0,894;    0,136
1112,991;  620,854;    1,076;    1,955
1113,529;  579,399;    0,167;   -0,045
1114,068;  637,944;    0,439;    2,955
1114,606;  541,035;   -0,561;   -0,955
1115,144;  698,308;    1,530;    1,045
1115,683;  640,490;    1,985;    0,318
1116,221;  697,490;    2,076;   -0,864
1116,759;  609,217;    1,621;   -0,864
1117,297;  787,672;    1,621;    1,864
1117,836;  616,581;    1,985;   -1,227
1118,374;  608,308;    0,258;   -0,682
1118,912;  555,035;    0,439;    2,682
1119,450;  536,944;    0,985;    0,864
1119,988;  588,217;    3,348;    2,136
1120,525; 1034,035;    7,258;    3,318
1121,063;  727,217;    0,530;    1,864
1121,601;  538,490;    1,076;   -1,227
1122,139;  502,217;    1,076;   -2,045
1122,676;  680,308;   -1,652;    2,773
1123,214;  626,581;    0,712;    4,409
1123,751;  457,308;    0,621;    2,227
1124,289;  574,035;    0,894;   -0,409
1124,826;  438,854;   -0,379;    0,227
1125,364;  372,308;    0,712;   -0,955
1125,901;  555,490;    6,258;    1,227
1126,438;  654,854;    3,530;    0,955
1126,975;  395,126;    2,985;   -0,773
1127,513;  460,672;    2,621;    2,136
1128,050;  377,399;   -0,561;   -0,682
1128,587;  462,217;    1,348;   -0,227
1129,124;  502,672;   -0,015;    1,318
1129,661;  381,944;   -1,924;    0,227
1130,198;  534,399;    2,439;    0,773
1130,734;  477,944;   -0,379;    1,409
1131,271;  343,854;   -1,197;    0,864
1131,808;  515,399;    1,621;    3,045
1132,345;  372,944;    4,530;    0,318
1132,881;  266,854;   -0,561;   -1,864
1133,418;  400,035;    0,348;   -1,136
1133,954;  346,581;    0,712;   -2,682
1134,491;  412,399;    1,712;   -0,773
1135,027;  307,126;    2,167;    0,864
1135,564;  390,763;    1,439;    2,955
1136,100;  374,672;   -0,742;    2,136
1136,636;  273,035;   -1,015;   -1,045
1137,172;  353,763;    0,894;   -1,045
1137,708;  286,490;   -1,561;   -1,045
1138,245;  288,672;    0,803;   -1,227
1138,781;  250,581;    1,803;   -3,318
1139,317;  311,944;    1,894;   -1,409
1139,852;  298,490;    3,076;    0,136
1140,388;  400,490;    2,076;   -0,409
1140,924;  287,217;    1,076;   -2,227
1141,460;  238,490;   -0,288;    0,136
1141,996;  174,672;   -0,652;    2,682
1142,531;  218,126;    1,076;    3,318
1143,067;  426,581;    1,167;    1,045
1143,602;  477,399;    3,439;   -0,318
1144,138;  323,035;    0,803;    1,045
1144,673;  198,854;    1,621;    1,409
1145,209;  267,217;    2,894;   -0,318
1145,744;  183,126;    0,803;    0,864
1146,279;  311,944;    1,530;   -0,136
1146,815;  239,126;    1,530;   -2,682
1147,350;  275,308;   -0,924;    0,045
1147,885;  185,217;   -1,924;   -1,318
1148,420;  191,308;    2,439;    0,773
1148,955;  170,126;   -1,470;    1,864
1149,490;  195,490;   -1,106;   -1,591
1150,025;  179,672;   -1,106;   -1,773
1150,560;  278,581;   -0,288;   -0,955
1151,094;  250,035;    0,258;   -0,591
1151,629;  248,490;   -3,742;    0,864
1152,164;  185,490;   -1,288;    1,318
1152,698;  146,217;    1,258;   -0,136
1153,233;  104,490;   -1,379;   -0,682
1153,767;  148,581;   -0,288;   -2,318
1154,302;  200,035;   -0,379;    1,773
1154,836;  204,944;    0,803;   -2,136
1155,371;  250,217;    2,258;    3,682
1155,905;  206,308;    1,985;    1,682
1156,439;  175,490;    0,530;   -0,500
1156,973;  209,763;    0,439;    0,318
1157,507;  148,126;   -1,742;    0,682
1158,042;  169,490;   -0,652;    1,045
1158,576;  211,308;   -0,561;    1,773
1159,110;  200,854;    0,076;    2,409
1159,643;  174,217;   -2,470;   -0,045
1160,177;  120,581;   -2,015;    1,500

