
Integration time [ms]:   0,050
Averaging Nr. [scans]: 11
Smoothing Nr. [pixels]: 0
Data measured with spectrometer [name]: 7318044SP
Wave   ;Sample   ;Dark     ;Reference
[nm]   ;[counts] ;[counts] ;[counts] 

186,757;  -15,030;   38,161;    1,318
187,357;   16,947;   26,706;    0,955
187,958;    2,118;   17,252;   -1,591
188,558;   44,414;   12,979;   -1,227
189,159;   13,327;   10,070;   -4,500
189,759;   -5,347;    5,797;   -3,591
190,360;   -3,614;    6,797;   -2,136
190,960;   20,687;    5,706;   -4,136
191,560;   36,186;    2,614;   -6,591
192,161;  257,562;    5,885;   -3,500
192,761;  107,517;    5,520;   -3,227
193,361;   51,627;    3,065;   -3,773
193,962;  107,894;    1,612;   -2,682
194,562;   38,865;   -0,114;   -3,955
195,162;   66,739;   -0,567;   -2,227
195,762;  213,001;    2,433;   -0,045
196,362;  157,430;    1,706;   -2,500
196,963;   47,736;    1,706;   -0,864
197,563;  115,329;    1,252;   -0,955
198,163;   62,642;   -0,111;   -0,682
198,763;   79,036;   -0,020;   -0,500
199,363;  164,202;    3,616;   -0,500
199,963;  126,740;    2,162;    0,409
200,563;  109,843;    6,344;   -1,409
201,163;   96,690;    5,435;   -0,227
201,763;  172,571;    1,435;    0,318
202,363;  123,043;    0,980;    1,500
202,963;  202,194;    1,526;    1,045
203,563;  306,712;    0,344;    0,500
204,162;  172,279;    1,889;   -1,864
204,762;  164,695;    2,071;    0,591
205,362;  138,843;    0,708;    1,955
205,962;  224,321;    3,435;    1,955
206,562;  220,099;    1,889;    2,318
207,161;  192,814;    1,708;    0,318
207,761;  334,040;    4,435;    2,409
208,361;  220,472;    1,889;    1,409
208,960;  304,863;    2,889;    1,500
209,560;  362,166;    0,435;    1,591
210,160;  354,272;    5,071;    1,864
210,759;  323,340;    0,708;    1,227
211,359;  319,338;   -0,474;    1,045
211,958;  575,015;    3,526;    2,045
212,558;  635,982;    0,799;    1,864
213,157;  484,144;   -0,929;    1,500
213,757;  899,462;    5,617;   -0,227
214,356;  615,043;    1,708;   -0,409
214,956;  926,126;    3,526;    0,409
215,555;  582,126;    0,617;    2,136
216,154;  510,249;   -0,292;   -0,591
216,754;  528,420;    1,253;    0,773
217,353;  650,637;   -0,383;   -1,045
217,952;  511,208;    2,072;    0,318
218,552;  728,122;    0,254;   -0,773
219,151;  621,583;   -1,110;    0,955
219,750;  623,660;    0,890;   -0,227
220,349;  712,390;   -2,292;    1,045
220,948;  799,466;    1,163;    1,136
221,548;  783,453;    0,617;    1,227
222,147;  894,004;   -1,292;   -0,409
222,746; 1165,268;    1,254;   -0,955
223,345; 1010,750;   -1,019;    0,500
223,944; 1030,433;    1,163;    0,773
224,543; 1162,453;    4,072;   -1,409
225,142; 1270,827;    1,345;    0,136
225,741; 1166,348;    1,163;    1,045
226,340; 1170,225;    1,254;   -0,955
226,939; 1558,356;    2,708;   -0,136
227,538; 1457,091;    1,163;   -0,773
228,137; 1623,372;    0,435;    0,864
228,735; 1677,730;    0,435;    1,227
229,334; 1414,355;   -0,474;   -0,227
229,933; 1786,794;    0,799;    0,591
230,532; 1873,911;   -1,201;   -0,409
231,131; 1935,626;    1,253;    0,318
231,729; 1930,403;    1,163;   -2,318
232,328; 1978,082;    0,435;   -1,500
232,927; 1997,380;    4,526;   -0,500
233,525; 2051,368;    0,981;    0,045
234,124; 2229,424;    1,890;   -1,591
234,723; 2213,831;    1,617;   -1,045
235,321; 2321,341;    1,163;    0,136
235,920; 2494,045;    2,526;   -1,227
236,518; 2749,191;    1,072;    0,318
237,117; 2817,790;    2,890;   -0,227
237,715; 2922,601;    1,163;   -0,500
238,314; 3002,654;    1,708;   -2,318
238,912; 3145,050;    0,526;   -1,409
239,510; 3143,846;    1,162;   -1,227
240,109; 3336,096;   -0,474;    3,773
240,707; 3381,182;   -0,474;    1,227
241,305; 3671,252;   -0,383;    0,136
241,904; 3879,434;   -0,292;   -2,045
242,502; 3931,541;    3,253;   -0,227
243,100; 3917,318;    3,344;   -0,955
243,698; 4150,220;    2,799;    1,682
244,297; 4333,361;   -0,656;    0,682
244,895; 4253,602;   -0,474;   -2,318
245,493; 4584,079;    2,981;   -0,591
246,091; 4675,298;    5,163;   -1,318
246,689; 4704,929;    2,163;    0,591
247,287; 4877,801;   -0,019;   -1,136
247,885; 5225,546;   -1,019;    1,227
248,483; 5335,854;   -0,201;   -0,500
249,081; 5500,254;    0,981;    1,591
249,679; 5695,446;   -1,019;    1,682
250,277; 5984,599;   -2,292;    0,864
250,875; 5987,141;    0,617;   -1,045
251,473; 6063,646;   -0,019;    0,500
252,071; 6256,490;   -0,383;    1,045
252,669; 6446,524;   -1,565;    0,318
253,267; 6728,345;    1,618;    0,773
253,864; 6682,710;    0,617;    0,682
254,462; 6614,711;    1,526;    1,591
255,060; 6622,684;    0,072;    1,318
255,658; 6953,978;   -3,292;   -0,136
256,255; 7379,159;   -0,201;   -2,045
256,853; 7258,455;    2,345;    1,409
257,451; 7275,068;    1,981;    1,864
258,048; 7580,950;    2,072;    1,864
258,646; 7326,251;    0,436;   -1,045
259,243; 7547,819;    2,981;    2,227
259,841; 7644,133;    1,799;    0,318
260,438; 7508,883;    0,254;    0,864
261,036; 8232,853;    0,617;    1,409
261,633; 8232,716;    1,526;    2,227
262,231; 8005,812;   -0,110;   -0,045
262,828; 8104,451;   -0,383;    1,136
263,425; 8165,758;   -1,928;   -0,591
264,023; 8453,230;    1,436;    0,045
264,620; 7985,786;    1,526;   -0,318
265,217; 8330,529;    2,890;    3,136
265,815; 8458,424;    2,527;    2,136
266,412; 8270,813;    0,072;    0,136
267,009; 8337,518;    0,526;    0,773
267,606; 8258,797;    0,345;   -0,955
268,203; 8237,816;   -0,383;   -0,591
268,801; 8531,550;   -0,474;    0,591
269,398; 8840,594;   -0,564;    2,500
269,995; 8821,542;    0,890;    1,591
270,592; 8600,024;    0,799;   -0,500
271,189; 8832,626;    1,981;    0,409
271,786; 8926,886;    2,072;    1,227
272,383; 8782,864;   -0,383;    0,227
272,980; 8966,587;    1,617;    0,318
273,577; 9446,231;    2,162;    1,227
274,174; 8984,921;    1,435;    2,591
274,771; 8972,705;    1,890;   -0,773
275,367; 9130,408;    3,253;    1,409
275,964; 9121,355;   -0,565;   -0,500
276,561; 9242,176;   -2,474;   -1,045
277,158; 9496,537;    1,799;   -1,773
277,755; 9628,799;   -0,110;    0,409
278,351; 8992,519;    0,436;   -1,500
278,948; 9326,489;   -0,201;    0,045
279,545; 9361,819;    0,527;    2,318
280,141;10052,774;    1,254;   -2,045
280,738; 9916,876;    2,435;   -0,136
281,334;10169,503;   -0,383;    0,591
281,931; 9591,651;    2,890;   -1,318
282,528; 9773,383;    4,072;   -0,500
283,124;10516,893;    3,345;   -0,500
283,721;10426,356;    0,709;    1,409
284,317;10285,993;    0,163;    2,500
284,913;10863,972;   -0,110;    0,591
285,510;11128,790;    2,890;   -0,318
286,106;11196,050;    2,345;   -0,955
286,703;10748,077;    0,072;    1,955
287,299;11014,497;    1,254;   -0,591
287,895;11287,273;    0,890;   -1,045
288,491;11952,322;    0,163;    2,136
289,088;11701,793;    0,163;    2,409
289,684;11792,978;    2,890;    1,500
290,280;11836,939;    1,890;    0,682
290,876;11973,748;    0,163;    5,500
291,472;11862,569;    2,163;    2,227
292,068;11997,880;    1,254;    0,227
292,665;11745,770;   -0,564;    0,773
293,261;11408,183;   -1,292;    2,136
293,857;11850,383;    4,072;    2,136
294,453;11827,243;   -0,928;    0,955
295,049;11696,553;    0,253;    1,955
295,644;11731,037;   -1,292;    0,136
296,240;11668,640;    0,162;   -0,136
296,836;11802,611;   -0,747;    0,318
297,432;12110,091;    2,980;   -0,500
298,028;12145,882;    0,435;    0,773
298,624;12578,355;    0,889;    1,864
299,220;12885,001;    0,435;    0,591
299,815;12549,221;    0,526;   -0,409
300,411;12390,463;    0,435;    1,773
301,007;12387,139;    1,889;    0,227
301,602;12485,590;    2,071;   -2,318
302,198;12636,357;    1,435;   -0,773
302,794;12993,953;    1,526;   -0,500
303,389;13168,787;    1,071;    1,045
303,985;13217,135;    1,253;    1,409
304,580;13188,038;    0,889;    1,591
305,176;13189,703;    0,344;    0,136
305,771;13156,057;   -0,929;   -1,227
306,367;12936,699;    3,071;    0,136
306,962;13305,681;    2,889;    1,500
307,558;13053,071;    2,435;    0,136
308,153;12966,709;   -0,383;   -1,136
308,748;13209,098;    0,162;    1,682
309,344;13179,550;    0,253;   -1,318
309,939;13297,715;    2,071;   -1,318
310,534;13579,587;   -2,020;   -1,682
311,130;13505,259;   -0,656;   -2,500
311,725;13188,484;    0,526;   -0,500
312,320;13509,932;    1,253;    0,045
312,915;13366,774;    2,890;   -1,045
313,510;13369,067;    0,526;   -0,500
314,105;13954,615;   -3,565;    1,409
314,700;13306,931;   -1,656;   -1,045
315,295;12939,856;   -0,020;    0,045
315,890;12445,761;   -0,292;    0,864
316,485;12772,223;    0,253;   -0,318
317,080;12921,510;   -0,929;    1,591
317,675;13429,483;    3,071;   -0,682
318,270;12773,202;    6,889;    3,318
318,865;12822,106;    2,435;    3,045
319,460;12640,921;   -1,565;    0,591
320,055;12892,934;   -2,565;   -1,227
320,650;12544,329;   -1,838;   -0,591
321,244;12598,234;    0,889;   -1,409
321,839;13547,948;    0,980;   -0,227
322,434;13449,751;   -0,111;   -1,591
323,029;13075,262;   -0,474;    1,591
323,623;12923,280;    0,798;    0,773
324,218;12678,042;    2,707;    1,409
324,812;12604,503;    0,889;    1,591
325,407;12392,103;   -0,929;    2,045
326,002;12311,718;    0,526;   -0,409
326,596;12665,824;   -0,656;    1,318
327,191;12924,873;   -0,383;   -1,045
327,785;12475,188;   -0,747;   -0,227
328,379;12774,178;   -0,383;    0,136
328,974;12544,119;    1,798;   -3,955
329,568;12825,086;    2,889;   -2,409
330,163;12590,305;    2,435;    1,045
330,757;13016,389;    0,253;    1,591
331,351;12383,997;   -0,292;    0,682
331,945;12668,674;   -0,383;    1,409
332,540;12245,639;    1,617;   -0,591
333,134;12411,458;    3,344;    0,773
333,728;12678,334;    2,799;    0,318
334,322;13094,745;    0,889;   -0,864
334,916;12368,850;    0,344;    0,955
335,510;12717,200;   -0,111;   -0,136
336,105;12992,509;   -0,929;    1,591
336,699;12687,746;   -1,292;    0,591
337,293;12617,443;    1,071;    0,318
337,887;12796,874;    0,071;    1,955
338,481;12890,029;    2,980;    0,591
339,074;13062,935;    2,071;    2,682
339,668;12867,330;   -0,110;    1,227
340,262;13162,041;    7,708;    3,227
340,856;12698,872;    1,708;   -0,682
341,450;12011,707;    0,708;    1,864
342,044;12968,534;    1,799;    0,136
342,637;12716,732;    1,162;   -2,136
343,231;12586,405;   -1,474;    0,682
343,825;12528,468;   -0,747;   -0,591
344,419;12465,252;   -0,474;    0,500
345,012;12212,599;    2,889;    4,045
345,606;12256,807;   -0,656;    1,591
346,199;12089,132;   -0,111;   -0,227
346,793;11599,527;    2,525;    2,045
347,386;11833,648;    0,889;   -1,136
347,980;11826,676;   -0,838;   -0,045
348,573;11571,284;   -1,748;    0,409
349,167;11207,518;    6,161;    4,773
349,760;11609,470;    2,252;    2,682
350,354;11583,791;    1,616;    1,136
350,947;11239,665;    2,798;    1,682
351,540;10943,505;    0,616;   -1,409
352,134;10905,593;   -1,111;    1,136
352,727;10937,921;   -0,657;    1,136
353,320;10728,016;    2,343;    0,591
353,913;10596,626;   -1,929;    1,864
354,507;10768,562;    0,434;   -1,227
355,100;10751,802;    0,071;    0,864
355,693; 9933,783;    4,798;    2,409
356,286; 9994,587;    0,980;    2,773
356,879;10360,935;   -0,475;    1,227
357,472; 9908,438;    0,980;    1,500
358,065;10122,592;    3,161;    2,500
358,658;10069,202;    0,798;    2,318
359,251; 9669,122;    0,252;   -0,591
359,844; 9052,575;    0,343;   -1,136
360,437; 9219,781;    0,252;    0,045
361,030; 9536,454;    0,525;   -0,682
361,623; 9085,975;    0,434;    0,318
362,215; 9120,607;    0,979;    2,045
362,808; 8945,913;   -2,293;   -1,682
363,401; 9117,082;    0,798;    0,136
363,994; 8823,637;    3,252;   -1,500
364,586; 8769,602;    0,888;   -1,500
365,179; 8967,900;   -0,203;   -1,136
365,772; 8419,511;   -0,930;    2,045
366,364; 8730,168;    1,524;   -3,227
366,957; 8938,009;    1,342;   -0,045
367,549; 8925,612;   -0,203;   -0,864
368,142; 8529,930;    0,978;   -1,500
368,734; 8766,054;    2,523;   -2,136
369,327; 8714,314;    2,341;   -0,500
369,919; 8611,284;   -1,659;    0,409
370,512; 8383,782;   -1,023;   -0,500
371,104; 8071,736;    2,704;    1,591
371,696; 8265,213;    1,703;   -0,955
372,289; 8362,929;    0,157;    1,136
372,881; 8509,373;    1,156;    1,318
373,473; 8413,321;    4,064;    1,136
374,066; 8188,192;    1,336;    0,500
374,658; 8060,405;    0,879;    1,136
375,250; 8429,406;   -1,668;   -1,409
375,842; 8243,885;   -0,124;   -0,045
376,434; 8110,251;   -2,762;   -0,409
377,026; 8742,713;   -1,855;   -2,500
377,618; 8616,629;    0,779;   -0,682
378,210; 8445,613;    3,141;   -1,955
378,802; 8266,261;    3,412;   -0,591
379,394; 8218,307;    3,411;    0,682
379,986; 8878,741;    1,138;   -0,955
380,578; 8976,648;    1,410;    0,773
381,170; 8203,572;    0,320;    0,045
381,762; 8170,637;   -0,224;    1,409
382,354; 8449,901;   -0,223;   -1,318
382,945; 8547,213;    0,870;    0,318
383,537; 8672,874;    1,144;   -1,955
384,129; 8679,574;    0,963;   -1,136
384,721; 8866,125;    0,418;    0,955
385,312; 8806,915;   -1,399;   -0,955
385,904; 8884,174;   -0,945;    1,591
386,496; 8199,625;    0,691;    1,045
387,087; 8335,748;    0,418;    2,500
387,679; 8401,772;   -0,401;    0,045
388,270; 8542,465;   -2,401;    2,045
388,862; 8657,766;   -0,401;   -0,318
389,453; 8523,530;    1,054;    1,045
390,045; 8842,498;    3,236;   -2,682
390,636; 8793,500;    0,144;   -0,591
391,227; 8610,231;    2,054;   -0,045
391,819; 8679,596;    0,781;    0,773
392,410; 8776,967;    0,600;    0,045
393,001; 8703,477;    1,600;   -1,591
393,593; 8972,409;    0,600;   -0,045
394,184; 8823,942;    0,873;   -0,409
394,775; 8761,889;    1,146;    2,136
395,366; 8977,206;    1,782;    0,773
395,957; 9002,829;   -2,400;    0,136
396,548; 9328,606;    1,054;    2,682
397,139; 9621,480;    2,236;    0,591
397,730; 9319,981;    0,873;    0,955
398,321; 9356,839;    0,509;    0,955
398,912; 9384,551;   -0,764;    0,136
399,503; 9497,118;   -1,945;   -1,409
400,094; 8924,965;   -1,582;    1,682
400,685; 8763,577;    3,600;    0,045
401,276; 8853,988;   -0,400;   -0,955
401,867; 9140,637;   -1,127;    0,773
402,458; 9252,127;    1,509;   -2,318
403,048; 9220,402;    0,146;    0,591
403,639; 8802,143;    1,509;    0,864
404,230; 9038,627;    0,691;    0,318
404,821; 8967,118;   -0,127;    0,045
405,411; 9071,157;   -0,763;   -2,591
406,002; 8631,627;    3,237;   -1,136
406,592; 8481,309;    2,691;    0,045
407,183; 8770,157;    0,328;   -1,500
407,774; 8667,599;    1,419;   -0,136
408,364; 9056,336;    2,600;    0,409
408,954; 8607,819;   -0,036;    1,227
409,545; 8633,439;    1,873;    1,045
410,135; 8093,682;   -1,581;    0,500
410,726; 8298,441;    0,783;    0,318
411,316; 8654,213;    2,237;    0,773
411,906; 8301,274;    0,146;   -0,409
412,497; 7764,468;   -0,490;   -0,045
413,087; 8375,816;    0,783;   -0,227
413,677; 8763,109;   -2,490;    3,864
414,267; 8564,237;   -1,035;    1,409
414,857; 8571,361;    0,419;    4,227
415,448; 8790,693;   -0,763;    0,500
416,038; 8451,026;   -2,945;   -0,591
416,628; 8401,911;    0,965;    0,409
417,218; 7843,683;   -1,762;    3,318
417,808; 8079,806;    0,965;   -0,409
418,398; 8548,662;   -1,035;    2,682
418,988; 8547,202;   -2,217;    0,591
419,578; 8740,019;    3,601;    1,409
420,168; 9053,557;    0,692;   -0,955
420,757; 8596,089;    0,964;   -1,500
421,347; 8216,959;    1,601;   -0,227
421,937; 8368,338;    3,329;    1,409
422,527; 8260,409;    2,602;   -0,773
423,116; 8027,870;    2,692;   -0,045
423,706; 8424,909;    2,965;    0,318
424,296; 8342,444;    1,601;    0,682
424,885; 8734,716;    1,510;   -3,045
425,475; 8969,162;    1,147;   -2,864
426,065; 8878,728;   -1,489;   -0,318
426,654; 8461,379;    0,329;   -0,318
427,244; 8530,943;    1,147;    1,409
427,833; 7965,814;    1,056;   -0,500
428,423; 8395,742;    0,147;    1,136
429,012; 9116,343;    2,420;   -1,136
429,601; 8571,179;    2,057;    0,136
430,191; 8796,161;    2,511;    4,318
430,780; 8332,630;   -1,671;   -0,409
431,369; 8265,457;    1,329;   -0,045
431,959; 8882,517;    1,693;    0,500
432,548; 8609,656;   -1,398;   -0,045
433,137; 8692,449;    0,329;   -1,318
433,726; 9173,218;    0,148;    0,500
434,315; 8516,235;    0,148;    2,409
434,905; 8585,303;    0,693;    1,409
435,494; 8458,771;    3,148;    0,955
436,083; 8871,304;    1,420;   -0,955
436,672; 8643,733;    1,148;    0,500
437,261; 8206,457;    0,512;   -1,955
437,850; 8292,279;   -1,125;    0,682
438,439; 8209,358;    2,239;    1,955
439,027; 8020,310;    3,421;    1,773
439,616; 8308,542;    2,239;    1,227
440,205; 8128,407;    0,057;   -2,136
440,794; 8111,388;   -0,306;   -0,045
441,383; 8297,219;    1,603;   -0,591
441,971; 8091,470;   -0,306;    0,591
442,560; 7859,360;    0,603;   -1,773
443,149; 7631,836;    3,060;   -1,318
443,737; 7708,442;    0,968;   -2,318
444,326; 7836,558;    0,331;    0,318
444,915; 7824,563;   -1,851;    0,864
445,503; 8118,321;    0,058;   -0,318
446,092; 7442,092;    7,876;    2,136
446,680; 7882,810;    1,876;    0,318
447,269; 8002,645;   -1,487;   -0,318
447,857; 7738,936;    2,240;   -1,773
448,445; 7775,733;    2,149;    1,318
449,034; 7918,369;    0,876;   -1,136
449,622; 7944,193;    1,240;    3,500
450,210; 7268,881;    3,149;    2,227
450,799; 7718,465;    2,604;   -0,591
451,387; 7579,359;    1,786;   -0,591
451,975; 7234,390;   -1,305;    0,864
452,563; 7344,896;    0,422;    2,318
453,151; 7298,872;   -1,032;   -1,227
453,739; 7136,699;   -1,577;    0,136
454,328; 7004,597;    0,604;   -2,136
454,916; 6719,625;    1,150;   -0,136
455,504; 6854,666;    3,513;    1,227
456,092; 6983,900;    2,150;   -1,591
456,679; 6872,794;    0,604;    0,682
457,267; 6848,721;    3,604;    1,045
457,855; 6907,845;    3,241;    1,409
458,443; 6634,430;   -0,304;    1,682
459,031; 6764,257;    1,332;    2,409
459,619; 7123,336;   -3,577;    2,864
460,206; 7124,145;   -0,759;    2,045
460,794; 7196,344;   -0,668;   -0,227
461,382; 7338,721;    0,878;   -0,864
461,970; 6958,202;    0,605;    1,864
462,557; 6992,860;    0,878;   -0,682
463,145; 7124,223;   -0,304;   -1,682
463,732; 7204,124;    2,514;   -1,045
464,320; 7041,378;    1,514;   -3,045
464,907; 6778,478;    0,423;   -0,773
465,495; 6626,253;    2,696;   -1,227
466,082; 6698,394;    2,060;   -0,045
466,670; 6546,597;    2,605;    1,227
467,257; 6906,924;    0,060;    2,045
467,844; 7047,278;    1,514;    0,045
468,432; 7038,332;   -0,031;    3,500
469,019; 6614,452;    1,606;   -1,773
469,606; 6933,060;    0,969;    3,682
470,193; 6755,679;    2,151;    0,227
470,780; 6401,307;    0,333;    0,864
471,368; 6596,892;   -1,212;   -0,773
471,955; 6404,661;    1,060;   -0,682
472,542; 6060,834;   -0,303;   -1,136
473,129; 6170,480;   -0,485;    0,136
473,716; 5953,137;    0,060;    0,591
474,303; 6004,329;    1,333;   -0,864
474,890; 6163,163;    2,333;   -0,500
475,477; 6171,201;   -0,576;    0,409
476,064; 6013,450;    0,697;   -1,591
476,650; 5855,127;    2,152;    0,318
477,237; 5663,218;    1,879;    0,955
477,824; 5747,828;    3,879;    0,864
478,411; 5661,352;    0,606;   -0,318
478,997; 5755,659;    0,606;   -0,773
479,584; 5710,699;   -0,666;   -0,409
480,171; 6182,088;    1,243;   -0,773
480,757; 5935,449;   -0,848;    0,773
481,344; 5991,431;    0,334;    0,409
481,931; 5554,476;   -0,393;    1,045
482,517; 6132,018;    0,425;    0,318
483,104; 6367,303;    1,334;    2,864
483,690; 6412,047;    0,243;    0,045
484,276; 6482,835;    0,698;    0,227
484,863; 6311,855;    2,152;    1,136
485,449; 6566,751;    0,152;    0,318
486,035; 6515,260;   -0,666;   -0,136
486,622; 6799,963;   -2,393;    0,045
487,208; 6656,644;    1,334;    1,500
487,794; 6577,052;    0,971;    0,318
488,380; 6663,732;    0,698;   -1,409
488,967; 6688,399;   -1,120;   -0,409
489,553; 6747,344;   -1,029;   -1,409
490,139; 6902,414;    0,971;    0,773
490,725; 6592,986;    0,789;   -0,227
491,311; 6375,563;    1,516;    3,045
491,897; 5946,762;   -0,665;    1,500
492,483; 6042,564;    0,426;    1,227
493,069; 6267,569;    5,426;    0,864
493,655; 6146,432;    1,789;    0,682
494,241; 6151,827;    1,517;   -0,955
494,826; 6508,248;    0,335;   -1,045
495,412; 6172,734;    0,335;   -0,682
495,998; 6449,830;    0,971;   -0,318
496,584; 6566,155;    2,244;    1,045
497,169; 6642,456;    2,335;   -0,682
497,755; 6762,438;    1,244;    1,227
498,341; 7363,086;    2,153;    0,318
498,926; 7196,960;    2,881;    1,955
499,512; 7492,876;   -0,028;    2,955
500,097; 7681,237;   -0,574;   -0,318
500,683; 7845,899;   -0,028;    2,136
501,268; 8378,124;    1,881;   -0,955
501,854; 8393,702;   -0,119;    1,227
502,439; 8507,036;   -0,573;   -1,773
503,024; 8837,259;    1,608;    0,500
503,610; 9095,548;    1,335;   -0,682
504,195; 9337,185;    1,245;    1,955
504,780; 9673,600;    2,335;    1,227
505,366; 9728,931;    4,063;    2,864
505,951; 9708,595;   -1,119;    1,045
506,536; 9968,867;    1,427;   -3,682
507,121;10119,834;    1,699;   -0,318
507,706;10827,214;   -0,392;    1,045
508,291;11377,782;   -2,937;    1,136
508,876;11049,659;   -0,482;    2,591
509,461;10736,090;    1,427;   -0,773
510,046;11331,010;   -0,391;    0,318
510,631;11727,826;   -0,119;   -0,773
511,216;11587,234;   -0,664;   -0,500
511,801;12143,488;   -0,755;    2,591
512,386;12507,838;    0,972;    0,500
512,971;12586,717;    0,427;    0,955
513,555;12279,673;    1,154;   -1,500
514,140;13186,834;    1,336;   -3,136
514,725;13337,340;    1,791;   -1,136
515,309;13605,761;    1,064;    0,318
515,894;13154,542;   -0,300;   -2,227
516,479;13691,415;    1,973;   -0,955
517,063;13595,275;    0,882;    1,227
517,648;13820,933;    0,155;   -1,136
518,232;13516,232;   -1,300;   -1,409
518,817;13938,756;    1,337;    1,682
519,401;14251,964;    0,700;    0,591
519,985;13784,648;    2,700;    1,136
520,570;13712,051;   -0,118;   -1,955
521,154;14064,913;    0,064;    0,591
521,738;14271,247;    1,064;    2,409
522,323;14930,971;   -0,390;    1,682
522,907;14676,744;    2,428;   -0,136
523,491;14422,851;    1,155;    0,955
524,075;14415,103;    0,428;    0,591
524,659;14533,315;    0,973;    0,591
525,243;13977,914;    0,883;    0,409
525,827;14288,985;    0,883;   -0,045
526,411;15186,042;    1,155;   -0,136
526,995;15449,519;    0,337;    1,409
527,579;15036,539;    1,974;   -1,045
528,163;15342,203;    0,428;   -1,500
528,747;15316,176;    1,065;   -0,773
529,331;15635,545;    0,883;   -1,409
529,915;15840,247;    2,338;    0,955
530,499;15816,760;    0,247;    1,227
531,082;15499,437;    1,065;    1,591
531,666;14936,014;    0,520;    0,773
532,250;15659,337;    0,428;    2,682
532,833;16020,045;    0,610;    2,773
533,417;15877,724;    1,247;    0,864
534,001;15855,224;    0,429;   -0,318
534,584;16604,188;    1,974;    0,500
535,168;16439,632;    3,247;    1,409
535,751;16483,960;    4,520;    0,045
536,334;15884,918;    4,520;   -0,409
536,918;16566,843;    1,974;    1,591
537,501;16683,283;    1,520;    1,318
538,085;16656,048;    1,702;    1,045
538,668;16822,300;    0,883;    2,409
539,251;17194,824;    3,156;    3,773
539,834;17225,530;    0,156;    0,773
540,418;17131,623;    3,247;    4,318
541,001;17268,911;    2,702;    1,773
541,584;17311,589;    1,429;    2,227
542,167;16969,495;    0,702;    2,955
542,750;17099,213;    0,793;   -0,773
543,333;16693,088;    1,429;    2,136
543,916;17519,727;   -0,298;    2,500
544,499;18134,568;    2,520;    0,227
545,082;18086,370;    0,248;    3,591
545,665;18297,359;   -0,207;    1,500
546,248;18682,360;    0,520;   -0,318
546,830;18334,937;   -1,752;    1,955
547,413;18756,758;    0,157;   -0,773
547,996;19324,978;    0,157;    0,500
548,579;19103,675;   -0,843;    0,955
549,161;18900,205;    0,884;    2,682
549,744;18695,265;    0,612;    0,409
550,326;19220,549;    0,885;   -1,136
550,909;18929,956;    2,339;    0,591
551,492;19292,789;    0,521;    0,227
552,074;19105,577;   -0,024;   -1,318
552,657;19730,914;    2,430;    0,045
553,239;19499,760;   -3,024;   -0,773
553,821;19362,560;   -1,570;    1,045
554,404;18847,786;   -0,024;    1,136
554,986;19274,851;    2,248;    1,045
555,568;19863,879;    0,430;   -0,955
556,151;19048,766;    4,067;   -0,227
556,733;19254,370;   -1,388;   -0,864
557,315;19793,726;    4,703;    0,500
557,897;19566,763;    0,521;   -0,500
558,479;19711,169;    1,703;    1,318
559,061;19834,696;    1,067;   -0,864
559,643;20140,770;   -0,297;    0,045
560,225;20537,408;   -0,388;    2,864
560,807;20590,497;    0,340;    0,318
561,389;20061,770;   -1,206;    2,318
561,971;20843,795;   -0,660;    2,136
562,553;20650,643;    0,613;    1,591
563,135;20753,840;    1,249;    1,136
563,717;20347,166;    3,158;    1,136
564,298;21154,071;    3,976;   -0,045
564,880;20839,546;    0,340;   -1,409
565,462;21008,819;    1,977;    1,318
566,043;22225,217;   -0,933;    2,318
566,625;21724,120;    4,067;    1,227
567,207;21603,036;    0,704;    1,682
567,788;22777,427;   -0,114;    1,500
568,370;23665,622;   -1,841;   -0,500
568,951;23486,342;   -0,569;    0,227
569,533;24393,244;    0,977;   -0,500
570,114;24889,389;   -0,296;    0,682
570,695;25413,783;   -0,478;   -1,318
571,277;25960,303;   -0,205;   -1,682
571,858;26740,826;    2,704;   -1,136
572,439;27711,359;    0,795;   -1,045
573,021;27885,862;    0,432;   -2,773
573,602;28442,064;    1,795;    0,318
574,183;29417,011;   -0,114;    2,227
574,764;29619,963;    2,068;    0,409
575,345;30102,386;    0,250;   -0,136
575,926;30787,341;    2,704;    0,136
576,507;30784,058;    2,704;   -0,227
577,088;31921,753;    1,704;    1,682
577,669;31978,552;    1,704;    1,955
578,250;32765,830;   -0,750;   -1,045
578,831;33412,346;   -0,841;   -2,227
579,412;33690,894;   -1,205;    0,955
579,993;34733,060;    1,432;    0,227
580,573;35078,916;   -0,023;   -0,955
581,154;33961,499;    1,613;   -0,591
581,735;34918,514;    0,341;    0,773
582,315;34372,151;    0,523;    2,136
582,896;34728,599;   -1,750;    1,227
583,477;34125,912;    0,614;    1,227
584,057;34324,574;    1,159;    0,955
584,638;34620,697;   -2,750;    2,318
585,218;34610,017;    2,886;    2,682
585,799;34705,460;    1,977;   -0,227
586,379;34737,299;    1,250;    1,591
586,959;33484,530;    2,613;    0,318
587,540;32776,233;    0,432;    2,227
588,120;32260,145;   -1,113;   -0,045
588,700;31113,143;    2,977;    2,136
589,281;31442,852;    1,250;   -0,955
589,861;31325,735;   -0,296;   -1,682
590,441;31141,590;   -1,477;   -2,682
591,021;30106,691;    1,432;   -2,591
591,601;30360,838;    0,431;    0,500
592,181;30288,667;   -1,296;   -0,773
592,761;29550,090;    2,250;    1,409
593,341;29517,402;    1,522;    0,045
593,921;29518,903;   -0,569;    1,591
594,501;29335,108;    1,250;    1,318
595,081;29160,106;    0,522;   -0,318
595,661;29492,497;    1,068;    0,955
596,240;30049,689;   -1,023;    0,136
596,820;29609,163;    2,613;    1,955
597,400;29837,331;    1,977;    0,773
597,980;30121,404;   -0,750;    1,045
598,559;30137,042;    0,341;   -0,227
599,139;29837,893;   -0,750;   -1,227
599,718;29742,802;    0,795;   -0,409
600,298;29971,711;   -2,387;    0,682
600,877;30140,875;    4,795;    1,409
601,457;30423,986;    0,340;    1,136
602,036;30319,651;    1,795;    2,045
602,616;30594,490;    2,250;    1,682
603,195;30895,344;    0,431;    3,500
603,774;30393,254;   -0,296;    2,045
604,354;30324,778;    2,522;   -0,500
604,933;29743,822;    0,250;    1,864
605,512;29922,853;    2,340;    0,591
606,091;29957,456;    1,886;    3,773
606,671;30806,050;    0,249;    0,773
607,250;29852,334;    1,431;    3,136
607,829;30095,936;    1,158;    3,227
608,408;29911,867;    4,613;    2,591
608,987;28950,789;    2,704;    3,409
609,566;29235,957;    0,341;   -2,500
610,145;29273,961;    2,885;    0,682
610,723;29749,651;    1,613;    6,864
611,302;28966,649;    1,067;    1,682
611,881;28396,238;    5,158;   11,227
612,460;29293,132;    0,795;    3,955
613,039;29714,328;    1,703;    2,045
613,617;28421,535;    0,886;    4,773
614,196;28571,527;    1,613;    1,227
614,775;28909,739;    1,249;    2,409
615,353;28856,738;   -1,660;    0,864
615,932;28572,631;    0,249;    2,409
616,510;29167,825;    0,158;    0,591
617,089;28682,343;    8,794;   17,591
617,667;28417,546;    4,885;    6,136
618,246;28195,331;   -1,115;    1,318
618,824;28369,321;    1,612;   -0,955
619,402;27944,781;    0,431;   -1,773
619,981;28427,073;    1,067;   -1,045
620,559;28313,538;    0,794;    1,682
621,137;27846,447;    3,067;    1,864
621,715;27799,956;    3,703;   -0,682
622,293;27718,592;    1,885;   -0,773
622,871;28207,180;    0,340;    0,500
623,450;27774,691;    0,430;   -0,864
624,028;27664,655;   -0,388;   -0,955
624,606;27251,809;    2,339;    1,682
625,183;27598,428;   -0,661;   -1,136
625,761;27178,787;    1,885;    1,136
626,339;27558,986;    2,339;    2,591
626,917;27939,036;    0,339;   -0,045
627,495;28012,630;    2,794;    1,318
628,073;27402,126;    5,248;    2,864
628,650;27115,951;    3,067;    2,136
629,228;27508,429;    1,248;    4,409
629,806;26887,326;   -0,024;    1,136
630,383;27146,838;    0,066;   -0,318
630,961;26932,994;   -2,206;   -0,955
631,539;26646,522;   -2,479;    0,227
632,116;25910,994;   12,703;   15,409
632,694;26550,667;    4,885;    6,500
633,271;26854,706;    1,975;    2,682
633,848;26750,328;    1,430;    2,045
634,426;26835,256;    1,521;    1,773
635,003;25939,846;   -0,207;   -0,409
635,580;26226,370;    1,884;    3,682
636,158;26765,854;    3,793;    1,227
636,735;26751,739;    3,339;   -0,500
637,312;26891,232;    0,521;   -0,682
637,889;27025,470;    2,248;   -0,682
638,466;26489,792;    0,066;   -0,409
639,043;26492,848;    1,702;   -1,136
639,620;26835,629;    0,611;   -0,955
640,197;27134,488;    1,612;    1,682
640,774;27255,910;    1,430;    1,136
641,351;27654,333;    0,612;    1,136
641,928;27076,119;    2,794;    1,409
642,505;26713,996;    0,794;   -0,500
643,082;26901,873;    1,885;    1,227
643,658;25840,114;    1,157;    1,500
644,235;26573,718;   -2,479;    2,500
644,812;26875,868;    1,794;    0,773
645,388;26630,654;    1,612;    1,409
645,965;26688,985;    1,521;    1,682
646,542;26779,226;    3,430;   -0,227
647,118;26796,739;    3,703;   -0,955
647,695;27077,707;    0,339;    1,136
648,271;27010,948;   -2,115;    0,500
648,848;27346,461;    0,248;    2,227
649,424;27094,520;    0,976;    1,318
650,000;26854,124;   -0,388;   -1,045
650,577;26704,274;    0,158;   -0,955
651,153;27173,787;   -1,115;    0,955
651,729;28096,392;    0,521;    0,864
652,305;28348,541;    1,339;    2,773
652,881;33038,600;   -1,297;    1,136
653,458;40221,113;    0,249;    0,227
654,034;44260,445;    0,703;    1,591
654,610;45882,413;    0,339;    0,773
655,186;47254,563;    1,612;    3,045
655,762;47009,712;   -1,842;    0,409
656,338;47050,044;    0,703;    0,136
656,913;48111,739;   -0,297;    0,409
657,489;47441,434;    0,249;   -0,318
658,065;47322,948;    0,794;   -1,591
658,641;47871,188;    2,158;   -0,864
659,217;47108,974;    2,067;    0,409
659,792;46513,215;   -1,751;   -0,409
660,368;46794,910;   -0,388;   -0,682
660,944;46447,787;    1,794;    1,227
661,519;41749,755;    0,522;    0,409
662,095;35317,905;   -0,206;    0,591
662,670;30320,509;   -0,206;   -0,136
663,246;29108,204;   -0,660;   -0,409
663,821;28386,081;    0,431;    1,682
664,396;27893,867;    0,613;    1,864
664,972;28155,017;   -0,660;   -0,500
665,547;28427,531;    3,794;    0,136
666,122;28439,862;    1,340;    0,318
666,698;28756,557;    2,431;    0,318
667,273;28090,071;    0,885;    0,136
667,848;28894,857;    0,340;    1,500
668,423;28712,188;    1,795;    2,318
668,998;29273,793;    0,976;   -0,682
669,573;29783,851;    2,067;   -1,500
670,148;29600,547;    1,885;   -0,682
670,723;29422,514;   -0,024;    0,318
671,298;29905,210;   -1,296;    1,045
671,873;30005,268;   -0,296;   -0,136
672,448;29901,055;    1,704;    0,136
673,023;30308,568;    0,249;   -0,227
673,597;30559,899;    2,704;    2,318
674,172;30345,231;    2,431;    0,318
674,747;29822,381;   -0,205;   -1,045
675,321;29702,167;   -0,933;    3,318
675,896;29209,589;    2,158;    1,045
676,471;30259,557;    2,522;    1,591
677,045;30035,525;   -0,296;    0,682
677,620;30007,039;    2,158;    1,136
678,194;30330,188;    0,249;    1,136
678,769;29905,247;    0,886;   -0,318
679,343;30136,397;   -0,023;    1,773
679,917;30038,001;    0,340;    1,955
680,492;30065,787;    0,249;    3,227
681,066;30251,664;    0,613;    0,409
681,640;30307,814;    1,795;   -0,318
682,214;31105,418;    2,340;    0,500
682,788;30597,659;    0,613;   -0,773
683,363;30531,172;    1,977;    1,682
683,937;30224,504;    0,886;   -0,318
684,511;31056,744;   -1,023;   -0,591
685,085;30795,530;   -1,478;    0,318
685,659;30527,135;    1,431;    0,864
686,232;30736,375;    1,159;   -0,318
686,806;30483,161;    2,159;    0,409
687,380;31151,493;   -1,932;    0,591
687,954;31390,643;    2,432;    1,136
688,528;31030,065;    2,613;    1,955
689,101;31845,124;    0,432;    1,045
689,675;31396,092;    0,886;   -0,136
690,249;30766,787;    3,432;    0,409
690,822;31093,755;    1,159;    0,318
691,396;31164,632;    2,068;    1,227
691,969;30576,600;    2,523;    0,136
692,543;31156,931;   -0,568;   -1,955
693,116;30814,172;   -0,659;   -1,409
693,690;30614,140;   -0,296;    0,500
694,263;31154,653;    2,341;    2,955
694,836;31183,894;    2,795;    3,591
695,410;29767,226;    1,159;    1,773
695,983;30277,921;    1,614;    0,591
696,556;30291,434;   -0,750;   -1,045
697,129;30663,129;   -1,114;    1,409
697,703;30234,370;    1,341;    1,955
698,276;30190,338;    1,705;   -0,773
698,849;29987,397;   -1,023;    1,409
699,422;30420,183;    1,250;    0,591
699,995;30062,969;   -0,659;    0,136
700,568;30594,937;   -0,204;    3,045
701,140;30598,087;   -1,841;    1,682
701,713;30336,418;    0,341;    2,409
702,286;30078,204;    0,796;    0,864
702,859;29930,899;    0,614;   -0,591
703,432;29090,595;   -0,841;    0,682
704,004;29629,653;    1,978;    0,318
704,577;29463,167;    1,068;    0,136
705,150;29962,680;    0,887;    2,500
705,722;29786,103;    1,523;   -3,227
706,295;29579,525;    1,432;   -0,591
706,867;29426,675;    0,250;    1,955
707,440;29610,552;   -0,113;   -0,409
708,012;29871,611;   -0,022;    0,591
708,584;29820,124;    2,705;    0,227
709,157;30153,910;    1,160;   -0,591
709,729;29826,423;    1,069;    2,045
710,301;30657,573;   -1,204;    0,045
710,874;30682,450;    0,341;   -0,227
711,446;29515,509;   -0,295;    0,864
712,018;29426,295;   -3,022;    0,500
712,590;29093,263;   -0,204;    1,682
713,162;29639,231;   -0,477;    1,318
713,734;29957,835;    1,796;   -2,045
714,306;29815,167;    0,342;   -0,409
714,878;28443,135;   -0,295;    0,864
715,450;29275,012;   -0,113;    0,864
716,022;29553,252;    2,433;    1,318
716,593;29718,129;    0,978;    0,591
717,165;29589,188;    1,796;   -1,227
717,737;29372,792;    0,796;    0,409
718,309;29013,851;    1,160;   -0,045
718,880;28964,728;   -1,295;   -1,409
719,452;29258,151;    0,887;   -1,591
720,024;28747,664;    1,705;   -0,591
720,595;29281,814;    2,978;    0,955
721,167;28801,327;    1,160;   -2,045
721,738;28283,477;    2,069;   -1,045
722,309;28240,717;    1,251;   -1,227
722,881;28041,322;    2,705;    0,773
723,452;28687,835;    1,251;    2,864
724,023;28875,258;    1,524;    2,682
724,595;28672,680;    2,342;    0,682
725,166;28381,830;    1,524;   -0,409
725,737;28006,616;    1,887;    0,227
726,308;28115,856;    0,797;    0,318
726,879;28537,461;    1,069;    1,227
727,450;28461,520;   -2,022;   -0,045
728,021;28398,487;    1,069;    0,682
728,592;28199,910;    1,160;    0,500
729,163;28517,332;    1,433;   -0,136
729,734;28488,846;    2,160;   -0,227
730,305;28854,814;    0,615;    0,136
730,876;29242,418;    0,888;    2,955
731,447;28890,477;    0,797;    2,682
732,017;29035,626;   -0,840;    1,864
732,588;28521,685;   -0,021;    1,227
733,159;28697,381;    3,615;   -1,045
733,729;28590,348;    1,251;    0,409
734,300;27822,589;    0,160;    0,864
734,870;28291,557;   -1,385;    0,591
735,441;28836,070;    0,888;   -0,591
736,011;28536,402;    1,070;   -1,591
736,582;28477,188;    1,251;    0,045
737,152;27934,883;    0,979;   -2,045
737,722;28391,033;    1,070;   -0,682
738,293;28135,637;   -2,021;    1,318
738,863;28001,878;    1,797;    2,318
739,433;27780,118;    4,524;    0,318
740,003;28387,814;    1,524;   -0,682
740,573;27770,236;    2,252;   -1,591
741,143;27781,204;    3,615;    0,318
741,713;28555,717;    0,252;   -0,500
742,283;28158,049;    1,706;    1,591
742,853;27913,562;    0,524;    1,591
743,423;27423,894;    0,161;    0,045
743,993;27558,498;    1,070;    1,500
744,563;26884,375;    2,524;   -0,864
745,133;26867,343;   -0,112;   -0,864
745,702;27608,038;    2,797;    1,773
746,272;26752,552;    0,434;    0,591
746,842;26539,974;   -0,748;   -0,591
747,411;26982,215;   -0,839;   -0,318
747,981;27168,092;   -0,930;    0,500
748,551;27241,787;   -0,021;   -1,045
749,120;27058,118;   -0,112;   -0,227
749,690;27438,632;    2,161;    2,409
750,259;27772,327;    0,979;    2,955
750,828;27611,840;    4,070;   -1,955
751,398;27886,808;   -0,112;   -0,045
751,967;27369,231;    2,888;    0,409
752,536;27583,562;    1,161;   -0,227
753,105;28042,530;   -1,384;    0,227
753,675;27862,953;   -0,112;    1,773
754,244;27803,466;    0,888;    3,591
754,813;27801,707;    0,979;    1,227
755,382;27443,947;    0,798;    0,955
755,951;27941,370;   -0,112;    3,682
756,520;27478,156;    2,525;    1,864
757,089;28022,578;    1,888;    0,500
757,658;28163,546;    2,434;    1,227
758,227;28177,150;   -1,111;    0,318
758,795;28517,118;   -1,021;    1,136
759,364;28821,632;    0,525;   -0,591
759,933;27722,327;    1,343;   -0,045
760,501;27278,568;    0,252;   -1,318
761,070;27726,263;   -0,293;   -1,409
761,639;28462,231;    1,434;    1,318
762,207;27762,380;    0,889;   -0,955
762,776;27680,803;    2,889;    0,864
763,344;27570,316;    0,071;    0,591
763,913;26727,557;    1,616;    1,409
764,481;27496,979;    1,980;   -0,136
765,049;27285,856;    0,616;    1,409
765,618;27180,642;    1,434;    0,318
766,186;27284,519;    2,434;    0,136
766,754;27436,851;    1,798;    1,864
767,322;26364,546;    1,162;    0,409
767,890;26393,514;    0,525;   -1,773
768,459;26848,482;    2,616;   -0,318
769,027;27031,450;    2,525;    3,409
769,595;25987,690;    2,616;    2,591
770,163;26399,567;    3,344;    2,955
770,730;26137,899;    2,525;   -0,136
771,298;26028,049;    1,162;   -1,409
771,866;26126,017;    0,253;    4,955
772,434;26393,257;    1,162;   -1,864
773,002;26560,043;    2,616;    0,682
773,569;26163,193;    1,071;    1,682
774,137;26006,434;    0,889;   -0,045
774,705;26767,311;   -0,747;   -0,136
775,272;26268,551;    0,253;    0,682
775,840;26047,519;   -0,111;    2,682
776,407;25564,578;   -0,293;    1,955
776,975;25149,455;    1,162;    0,318
777,542;26223,423;    2,162;   -0,045
778,110;26068,027;    0,707;   -0,045
778,677;25689,995;    1,071;   -0,864
779,244;25391,236;   -1,020;    1,045
779,812;25553,295;    0,980;    0,864
780,379;25364,444;    2,435;    1,136
780,946;25662,685;    2,617;   -0,773
781,513;26003,198;   -0,565;    0,318
782,080;25308,621;    1,253;    2,864
782,647;26050,316;    1,708;    3,045
783,214;25664,375;   -0,201;    3,864
783,781;25223,252;    1,708;   -0,682
784,348;25147,583;    0,253;    1,500
784,915;25591,370;   -1,474;    0,318
785,482;25347,701;    2,708;    2,591
786,049;25769,669;    1,071;   -0,591
786,615;25899,182;    1,708;   -0,955
787,182;25660,332;   -3,201;   -0,682
787,749;25325,482;   -2,201;    1,409
788,315;24621,632;    0,253;   -0,409
788,882;24919,599;    0,981;   -1,227
789,448;25614,204;    1,435;   -0,955
790,015;25629,626;    1,799;    3,227
790,581;25139,503;    0,708;    0,227
791,148;25009,562;    1,344;    1,045
791,714;25302,894;   -1,019;    3,136
792,280;25011,134;    3,708;    1,591
792,847;24547,829;   -0,928;    2,500
793,413;25095,161;   -0,110;   -0,318
793,979;24555,583;    1,526;   -1,318
794,545;24662,188;    2,981;    2,682
795,111;24040,974;    2,435;    1,318
795,678;24204,487;    3,526;   -1,682
796,244;23902,546;    2,799;    0,136
796,810;24493,423;    0,799;    0,773
797,375;24194,755;   -0,292;   -2,136
797,941;24217,541;   -1,110;    0,591
798,507;24337,690;    0,254;   -0,955
799,073;23888,204;    2,708;    0,591
799,639;23942,808;    1,435;    3,136
800,205;23992,685;   -1,565;    2,682
800,770;23553,198;    1,345;    1,773
801,336;23575,894;    2,981;   -0,955
801,901;23261,407;    6,072;    3,136
802,467;23854,284;    0,526;    2,045
803,033;23168,252;   -0,019;    0,864
803,598;23350,856;    1,072;   -1,045
804,163;23391,369;    0,708;   -0,318
804,729;23343,974;   -0,110;    1,136
805,294;23733,851;    1,072;    2,227
805,859;23542,091;    0,890;   -0,409
806,425;22998,968;    3,890;    2,682
806,990;22644,936;    1,890;    4,318
807,555;23145,722;   -0,110;    2,591
808,120;23032,418;   -1,292;   -0,409
808,685;23106,204;    1,072;   -2,500
809,250;22599,081;    2,072;   -0,500
809,815;22975,321;   -0,201;    0,682
810,380;23493,198;    0,981;    1,591
810,945;23956,075;    2,890;    2,045
811,510;23181,225;   -0,200;    1,591
812,075;22855,557;    2,800;   -1,409
812,640;22910,615;    3,709;    1,409
813,204;22942,311;    2,163;   -0,227
813,769;23461,915;    0,254;   -0,045
814,334;22808,701;    0,527;    0,864
814,898;22878,214;    1,981;    0,591
815,463;22744,910;    0,981;   -0,773
816,027;22742,423;    1,345;   -2,318
816,592;22835,391;    2,163;   -2,045
817,156;22343,541;   -2,200;    1,136
817,721;22111,327;    0,982;    2,318
818,285;22102,840;    0,618;    1,500
818,849;22810,172;   -0,018;    1,682
819,414;22664,594;    0,073;    2,955
819,978;22202,016;   -0,291;    1,773
820,542;22779,893;    2,891;    0,500
821,106;22551,134;    2,800;    0,682
821,670;22595,557;    2,709;    2,591
822,234;22290,524;    1,073;    1,409
822,798;21672,947;   -0,836;    0,500
823,362;21672,824;    1,527;    4,227
823,926;20956,519;   -0,018;    1,136
824,490;21146,032;    3,527;   -0,682
825,054;21640,000;    2,527;   -1,136
825,618;21263,877;   -1,200;   -1,500
826,181;21200,936;    0,982;   -1,318
826,745;21113,450;   -0,745;   -1,045
827,309;21451,508;    2,255;    1,318
827,872;20840,385;    0,527;    0,955
828,436;21895,808;    1,982;   -0,773
828,999;21948,685;    2,436;    1,227
829,563;20729,744;   -0,654;    1,136
830,126;20591,257;   -0,018;   -0,591
830,690;20561,861;    0,709;    2,864
831,253;20087,557;   -0,473;    2,227
831,816;20202,979;   -0,018;    0,500
832,380;20160,765;    1,164;    0,864
832,943;20378,733;    3,073;   -0,500
833,506;19845,337;    0,255;   -1,227
834,069;20656,578;    2,164;   -0,955
834,632;20684,273;   -2,200;    1,318
835,195;20565,605;    1,346;    0,955
835,758;19781,936;    0,709;    1,955
836,321;19586,086;    1,073;   -1,045
836,884;19685,417;   -1,291;   -0,955
837,447;19723,476;    0,528;    1,773
838,010;19972,899;    1,800;    3,227
838,573;20290,685;    0,528;    0,773
839,135;20208,380;   -0,109;   -0,955
839,698;19628,166;    2,528;    0,409
840,261;19132,498;    0,255;   -0,227
840,823;19005,375;   -0,927;    0,864
841,386;19337,070;   -0,018;   -2,409
841,948;19188,038;    0,255;    1,773
842,511;18919,006;    0,255;    1,682
843,073;19068,701;    2,982;    0,227
843,636;18841,123;    0,619;   -0,227
844,198;18769,273;    1,255;    0,591
844,760;18922,786;    0,619;    1,955
845,322;18536,572;    0,164;    1,136
845,885;18989,359;   -0,290;    0,591
846,447;19400,417;    0,710;    0,227
847,009;18947,385;    3,983;   -0,682
847,571;19330,717;    1,346;   -2,045
848,133;19399,685;   -0,199;   -1,864
848,695;19254,744;    2,346;    1,409
849,257;18773,712;    1,346;   -1,682
849,819;18996,679;    2,983;   -0,409
850,381;19010,466;    1,801;   -0,864
850,942;19369,797;    1,892;   -0,591
851,504;19281,583;    0,983;    0,227
852,066;19321,642;    1,619;   -1,591
852,628;18874,974;    0,165;    1,955
853,189;18393,941;    0,256;    2,682
853,751;18518,364;   -0,654;    1,409
854,312;18390,150;    1,256;   -1,682
854,874;18890,572;   -0,108;   -0,773
855,435;19380,904;    0,528;   -1,682
855,997;19548,054;    3,983;   -0,136
856,558;18780,203;    0,801;    1,773
857,119;18890,262;   -0,744;    2,864
857,681;18552,957;   -0,108;    0,318
858,242;18597,016;    1,347;   -2,136
858,803;19037,348;    1,074;   -0,773
859,364;19658,952;    0,892;   -4,773
859,925;18951,284;   -0,290;   -0,955
860,486;18864,797;    0,529;   -0,955
861,047;18600,129;    0,165;   -1,227
861,608;18385,369;    0,165;   -0,773
862,169;18580,428;   -0,562;   -0,045
862,730;18347,850;   -0,290;    1,409
863,291;18566,273;    0,438;   -0,500
863,852;18918,877;   -0,926;    1,955
864,412;18402,482;   -1,835;   -0,864
864,973;16988,268;    1,892;    0,500
865,534;16771,872;    2,074;    0,227
866,094;18296,658;    2,620;    0,227
866,655;17925,171;    4,711;    3,318
867,215;18234,776;    0,074;    0,136
867,776;18107,834;   -1,199;   -0,136
868,336;18198,711;    1,529;    0,136
868,897;17629,861;    3,438;    1,682
869,457;17381,920;    3,256;    0,318
870,017;17659,342;    2,438;   -1,227
870,578;18174,401;    1,893;    0,773
871,138;17758,187;    2,620;   -0,955
871,698;17335,337;   -0,562;   -1,318
872,258;17211,941;    0,711;   -2,864
872,818;17564,909;    2,347;    0,045
873,378;17550,695;   -2,198;    1,045
873,938;17081,663;    4,984;    0,500
874,498;17399,268;    1,256;   -1,955
875,058;17288,508;    4,347;    1,773
875,618;17120,658;    1,438;   -2,682
876,177;17074,353;   -0,471;    0,136
876,737;16674,503;   -0,289;    1,955
877,297;16660,834;    2,711;    1,955
877,856;16717,711;    2,529;    0,318
878,416;16616,497;    2,438;   -0,136
878,976;16836,738;    3,438;    0,409
879,535;17063,888;    4,529;    3,136
880,095;16798,765;    1,347;    0,045
880,654;16922,096;    0,347;    1,318
881,213;17004,519;    2,347;    1,500
881,773;16666,305;    1,984;    2,682
882,332;17002,000;    6,075;    5,136
882,891;16843,513;    0,711;    2,136
883,451;17306,481;   -2,016;    1,682
884,010;16759,177;   -1,107;   -0,409
884,569;16806,235;   -2,289;   -0,045
885,128;16959,022;   -0,743;   -1,864
885,687;17005,444;   -0,743;    0,682
886,246;16723,139;    2,620;    2,136
886,805;16487,925;    1,620;    2,045
887,364;16790,893;    1,166;   -0,500
887,922;17127,225;   -0,016;    0,045
888,481;16623,920;    1,530;    0,591
889,040;16971,070;    3,711;    2,136
889,599;17644,219;    2,166;    1,409
890,157;17726,278;    2,166;    2,409
890,716;17369,519;    2,166;    0,227
891,274;17114,396;    0,075;   -1,136
891,833;17556,727;    1,166;    0,864
892,391;17441,695;    1,802;    0,500
892,950;17525,481;    0,166;   -0,773
893,508;17896,086;    0,984;   -0,409
894,067;17295,417;   -0,379;    0,136
894,625;17182,476;   -1,016;   -1,500
895,183;17407,353;   -0,198;   -0,682
895,741;17353,230;    2,257;   -1,773
896,299;17160,925;    1,621;   -2,409
896,858;17313,075;    1,530;   -1,591
897,416;17446,043;    0,166;   -1,318
897,974;17153,920;   -2,197;    0,318
898,532;17296,160;    6,530;    2,682
899,089;17174,401;    0,621;   -0,682
899,647;17278,187;    0,530;    1,318
900,205;16957,701;    0,257;    1,045
900,763;17176,396;    2,166;    0,227
901,321;17182,091;    3,530;   -1,409
901,878;16596,695;    3,257;   -0,773
902,436;16484,481;    0,257;    1,318
902,994;16892,177;    6,712;    3,682
903,551;16312,781;    1,439;    0,409
904,109;16716,567;    1,530;   -1,409
904,666;16305,171;    1,439;    1,045
905,224;16091,503;    3,894;   -0,409
905,781;15851,380;   -0,470;   -0,318
906,338;15950,166;    0,167;    1,045
906,895;15876,225;    1,894;    2,045
907,453;15782,374;    2,348;    1,136
908,010;15781,797;    3,348;    0,409
908,567;15420,947;   -0,561;    0,591
909,124;14981,005;    2,439;   -1,500
909,681;15051,155;   -1,288;    0,682
910,238;15176,668;   -0,106;   -1,318
910,795;15504,000;   -1,561;   -1,136
911,352;15132,545;   -0,379;   -2,682
911,909;14543,000;    2,803;   -0,864
912,466;15036,727;    1,985;    1,500
913,022;14578,818;   -0,924;    0,500
913,579;14925,455;   -0,470;    2,045
914,136;14636,091;   -2,561;    0,955
914,692;14996,000;    1,530;   -1,227
915,249;14544,909;    0,530;    0,409
915,806;14740,273;    1,803;    1,955
916,362;14465,909;    0,894;    1,864
916,918;14035,091;    2,439;    1,045
917,475;14016,364;    1,621;    0,955
918,031;14141,182;    0,076;   -0,045
918,587;13598,818;    0,621;   -0,318
919,144;13819,727;   -0,379;    0,227
919,700;14135,727;    0,167;    0,773
920,256;13713,000;    0,439;    0,045
920,812;13312,000;    1,439;   -1,045
921,368;13300,091;    1,348;   -1,045
921,924;12988,727;    0,439;   -0,136
922,480;12512,818;    0,076;    1,227
923,036;13126,545;   -0,652;    1,955
923,592;13094,818;    0,621;    0,318
924,148;12985,091;    1,894;   -0,955
924,704;12337,545;    0,258;   -0,409
925,259;12606,818;   -0,561;    0,591
925,815;12313,727;    3,803;    0,500
926,371;11880,091;    3,530;    1,409
926,926;11778,818;    1,621;    0,591
927,482;11400,182;    1,621;    0,773
928,037;11262,182;   -0,833;    2,045
928,593;11548,545;    0,258;    1,045
929,148;11358,909;    1,167;   -1,500
929,704;10910,182;    2,439;   -0,500
930,259;11094,909;    0,894;   -0,136
930,814;10185,000;    1,803;    1,955
931,369; 9864,636;    0,258;   -0,773
931,925; 9765,364;   -1,924;    0,136
932,480; 9650,364;    3,076;   -2,591
933,035; 9530,182;    3,985;   -0,318
933,590; 9284,818;   -1,742;   -1,773
934,145; 8960,818;   -1,288;   -0,318
934,700; 9309,364;    0,348;   -0,591
935,255; 9087,909;    4,803;    0,045
935,809; 8358,727;    6,258;    0,864
936,364; 7488,455;    2,167;   -0,136
936,919; 7467,545;    2,348;   -1,773
937,474; 7369,636;    1,348;    0,136
938,028; 7128,545;    3,076;    1,136
938,583; 6570,000;    6,348;    4,682
939,138; 6898,818;    0,167;    2,136
939,692; 6363,091;   -1,015;   -1,136
940,247; 5998,636;    1,167;   -1,045
940,801; 5538,273;    0,621;    0,227
941,355; 5456,909;    0,439;    2,591
941,910; 5141,364;    0,712;   -2,136
942,464; 5236,455;    2,712;   -0,318
943,018; 5012,364;    3,258;   -0,227
943,572; 4954,727;    2,803;   -0,682
944,126; 4366,909;   -0,924;   -0,409
944,681; 4245,909;    0,712;    0,227
945,235; 4223,909;    2,167;   -0,591
945,789; 4167,091;    1,258;   -1,864
946,342; 4261,273;   -0,561;   -0,591
946,896; 4083,636;    0,348;    0,955
947,450; 3837,727;   -0,561;   -0,227
948,004; 4034,455;    1,076;   -0,045
948,558; 4058,545;    1,258;   -0,864
949,111; 3969,091;   -1,197;   -0,318
949,665; 3996,636;   -0,106;   -0,682
950,219; 3833,364;    0,621;   -1,045
950,772; 3938,182;    0,258;    1,864
951,326; 3868,000;   -1,106;   -0,955
951,879; 3956,545;    1,076;   -2,318
952,433; 3961,545;    1,348;    2,227
952,986; 3797,636;    0,348;    0,682
953,539; 3748,727;    1,530;    0,591
954,093; 3713,273;    0,985;   -1,318
954,646; 3837,636;   -0,288;    1,318
955,199; 3645,182;    1,258;   -0,500
955,752; 3507,727;    1,985;    1,773
956,305; 3465,545;    0,894;    2,955
956,858; 3658,818;    0,621;   -0,318
957,411; 3857,000;    3,621;    2,136
957,964; 3635,636;    2,076;    2,136
958,517; 3640,818;    0,985;    3,136
959,070; 3486,545;   -1,197;    1,955
959,623; 3531,818;    1,076;    1,500
960,176; 3304,364;    0,712;    2,045
960,728; 3290,909;    1,712;    0,773
961,281; 3363,091;    2,258;    0,500
961,834; 3401,000;   -0,833;    0,864
962,386; 3320,364;    1,258;    1,045
962,939; 3222,000;    3,439;   -0,318
963,491; 3379,818;    2,621;    1,136
964,043; 3256,364;    0,076;    2,409
964,596; 3370,636;    1,712;    2,227
965,148; 3211,273;   -0,379;    1,773
965,700; 3129,273;   -0,015;   -0,227
966,253; 3291,727;   -0,833;    0,318
966,805; 3130,545;    1,894;    0,773
967,357; 3185,455;    0,439;   -1,500
967,909; 3109,091;    1,167;   -1,227
968,461; 3221,545;    0,894;    3,136
969,013; 3171,182;   -1,561;   -0,864
969,565; 3240,364;    1,803;   -1,136
970,117; 3303,182;    3,803;    1,045
970,669; 3130,455;    3,258;   -0,136
971,220; 2998,727;    2,167;   -1,500
971,772; 2927,273;    1,348;   -0,318
972,324; 3040,818;   -1,197;   -0,500
972,876; 2998,273;    0,167;   -0,045
973,427; 3115,455;   -1,197;   -1,045
973,979; 3111,636;    0,076;   -2,500
974,530; 3139,000;    0,803;    1,318
975,082; 3142,455;    2,167;    1,682
975,633; 3026,818;    2,894;    1,682
976,184; 3187,909;    2,076;    0,773
976,736; 2985,727;    0,348;    0,227
977,287; 2756,091;    0,258;   -0,500
977,838; 2944,909;   -0,924;   -0,318
978,389; 3010,364;    0,803;   -0,500
978,940; 2888,636;    1,258;   -0,409
979,491; 2896,364;    2,258;   -0,500
980,042; 2841,455;   -0,652;    3,045
980,593; 2911,000;    1,894;    0,227
981,144; 2976,545;    3,530;   -0,500
981,695; 2942,455;   -0,470;    1,500
982,246; 2900,727;   -1,833;    1,045
982,797; 3057,455;   -0,561;    0,682
983,347; 3175,364;    2,167;    0,591
983,898; 3314,545;    4,167;    0,409
984,449; 3144,364;    2,530;    0,773
984,999; 3067,273;    1,894;   -1,136
985,550; 2825,818;    3,167;   -0,318
986,100; 2889,455;    0,712;   -0,318
986,651; 2912,364;    0,258;    0,045
987,201; 2891,909;    0,894;   -0,591
987,751; 2986,727;   -0,288;    2,864
988,302; 2950,273;   -0,379;    1,500
988,852; 2970,909;    1,985;   -1,136
989,402; 3016,364;    0,985;    0,682
989,952; 2922,364;    1,621;    0,864
990,502; 3030,909;    1,076;    0,682
991,052; 3007,455;   -0,106;    0,045
991,602; 2858,182;    1,167;    1,318
992,152; 2850,455;    2,803;    0,682
992,702; 2836,182;    1,167;   -0,045
993,252; 2756,182;    0,076;   -0,500
993,802; 2838,182;    1,167;    1,318
994,352; 3102,000;   -0,742;    1,136
994,901; 3184,818;    1,076;    3,227
995,451; 3095,364;   -1,197;    0,318
996,000; 3168,182;    1,076;    0,318
996,550; 2884,182;    2,894;    0,227
997,100; 2886,455;   -0,561;   -0,045
997,649; 3191,364;   -0,197;    0,955
998,198; 2806,545;   -0,288;   -1,500
998,748; 2993,636;    0,348;   -2,318
999,297; 2906,455;    0,985;   -0,409
999,846; 2974,000;    1,894;   -0,773
1000,395; 3018,636;    1,530;    0,500
1000,945; 2976,727;    1,076;   -0,773
1001,494; 3049,364;    0,167;    0,682
1002,043; 3050,000;    0,712;    0,864
1002,592; 2883,091;    3,439;    1,955
1003,141; 3019,818;    2,439;   -0,682
1003,690; 2863,273;    1,258;    0,500
1004,238; 2950,000;   -0,106;   -0,045
1004,787; 2587,909;   -1,288;    1,227
1005,336; 2807,273;    1,621;    0,682
1005,885; 2960,545;   -0,197;   -2,773
1006,433; 3112,727;   -0,470;    0,955
1006,982; 3185,727;    2,167;    1,682
1007,531; 3092,364;    2,712;   -0,227
1008,079; 3054,364;    0,258;    0,500
1008,627; 3185,364;    1,621;    0,409
1009,176; 2920,000;    0,076;   -1,955
1009,724; 2967,818;   -2,742;    0,864
1010,273; 3012,909;    1,076;    0,500
1010,821; 3140,909;    1,076;    1,409
1011,369; 2857,364;    0,076;    1,318
1011,917; 2850,364;   -0,833;   -0,591
1012,465; 3157,636;    2,530;   -1,591
1013,013; 3252,818;    0,439;   -1,682
1013,561; 3117,182;   -1,288;   -0,773
1014,109; 3155,455;   -0,833;    1,682
1014,657; 3024,909;    1,348;    0,591
1015,205; 3148,364;    0,894;   -0,955
1015,753; 3177,636;    0,258;   -1,409
1016,301; 3226,182;    2,621;    3,045
1016,848; 3235,273;    2,167;    0,409
1017,396; 3266,727;    1,621;    0,045
1017,944; 3382,909;    2,621;    1,864
1018,491; 3135,364;   -0,197;    1,409
1019,039; 3309,000;   -0,652;    0,591
1019,586; 3224,455;    0,076;    1,682
1020,134; 3312,455;    0,712;    1,500
1020,681; 3333,909;    2,894;   -1,136
1021,228; 3349,455;   -0,561;   -2,227
1021,776; 3185,000;   -0,833;   -1,136
1022,323; 3395,273;    0,803;    0,773
1022,870; 3349,727;   -0,470;   -0,045
1023,417; 3219,000;    2,076;    1,864
1023,964; 3388,727;    0,621;    1,227
1024,511; 3205,909;   -0,652;    0,773
1025,058; 3013,727;    0,439;   -0,045
1025,605; 3060,091;   -1,742;    3,136
1026,152; 3269,909;   -0,106;   -0,591
1026,699; 2994,909;    0,167;    1,318
1027,245; 3166,818;    2,439;    0,318
1027,792; 3408,182;    0,712;    1,409
1028,339; 3274,727;    4,076;   -0,045
1028,885; 3131,273;    3,621;   -0,227
1029,432; 3040,091;   -0,106;    0,227
1029,978; 3116,727;    1,348;   -1,591
1030,525; 3019,818;    1,621;    0,409
1031,071; 3268,364;    0,348;    1,136
1031,618; 3370,545;    1,258;    1,682
1032,164; 3153,545;    2,076;    3,045
1032,710; 3194,909;    0,076;   -1,500
1033,256; 3121,455;    0,712;   -0,136
1033,803; 3112,818;   -0,288;    1,500
1034,349; 2844,545;    1,803;    0,136
1034,895; 2997,909;    2,621;   -0,318
1035,441; 2966,455;    0,439;    0,318
1035,987; 2986,455;   -2,288;   -0,682
1036,533; 2979,364;   -0,197;   -0,955
1037,078; 3188,364;    4,712;    1,682
1037,624; 3008,727;    2,439;   -0,955
1038,170; 3026,727;    1,712;   -0,318
1038,716; 2916,455;    2,167;   -0,409
1039,261; 2843,727;    2,167;   -0,773
1039,807; 2779,364;   -0,015;    3,409
1040,352; 2845,000;   -1,288;   -0,318
1040,898; 2885,364;    0,167;   -0,682
1041,443; 2791,727;    0,803;   -2,591
1041,989; 2825,545;    3,621;    1,591
1042,534; 2719,273;    0,985;    2,591
1043,079; 2833,091;    1,985;    0,955
1043,625; 2598,727;    0,258;    0,500
1044,170; 2647,182;    2,439;    1,045
1044,715; 2898,545;    0,167;    0,955
1045,260; 2715,364;   -0,833;   -0,955
1045,805; 2772,818;    0,258;   -0,591
1046,350; 2738,091;    0,530;   -0,409
1046,895; 2671,727;    0,803;    1,591
1047,440; 2623,091;    1,530;    0,409
1047,985; 2527,455;   -1,197;   -0,955
1048,530; 2437,818;    1,348;    1,227
1049,074; 2530,909;    2,803;    0,318
1049,619; 2476,000;   -0,924;    1,955
1050,164; 2283,909;    1,076;    0,227
1050,708; 2335,909;    2,621;    0,045
1051,253; 2676,636;    3,258;   -2,227
1051,797; 2397,364;   -0,197;   -1,318
1052,342; 2429,364;    1,348;    1,045
1052,886; 2400,818;    1,803;   -1,409
1053,430; 2296,455;    2,167;    0,136
1053,975; 2311,364;    0,894;   -0,318
1054,519; 2282,545;    1,803;    3,227
1055,063; 2311,182;    3,621;    1,318
1055,607; 2191,455;    1,348;    0,227
1056,151; 2227,364;    0,530;    1,682
1056,695; 2143,909;   -1,833;   -1,136
1057,239; 2198,000;   -1,197;   -0,682
1057,783; 2205,727;    2,258;   -1,500
1058,327; 2168,727;    3,076;    1,409
1058,871; 2385,545;    3,985;    1,318
1059,415; 2087,636;   -0,561;   -0,045
1059,958; 2327,273;    2,985;    2,591
1060,502; 2074,273;    1,348;   -0,773
1061,046; 1984,636;    1,712;   -0,955
1061,589; 1947,455;    2,803;   -1,136
1062,133; 1840,364;    0,985;    1,864
1062,676; 1780,545;    1,439;    0,864
1063,220; 1787,455;    0,985;    0,500
1063,763; 1796,545;    2,985;    1,136
1064,306; 1858,273;    0,985;    1,864
1064,849; 1764,455;    2,076;    0,591
1065,393; 1769,273;    2,894;   -1,500
1065,936; 1884,636;    2,530;   -0,409
1066,479; 1759,818;    2,621;    1,318
1067,022; 1777,000;    1,894;   -0,227
1067,565; 1698,000;   -1,197;   -1,318
1068,108; 1730,000;    1,258;   -0,591
1068,651; 1698,000;   -2,470;    1,409
1069,194; 1634,364;   -1,106;   -1,682
1069,736; 1624,818;    3,803;    0,955
1070,279; 1594,909;   -1,652;   -0,500
1070,822; 1652,091;    1,530;   -0,318
1071,364; 1712,636;    0,530;    1,318
1071,907; 1545,273;    0,348;    3,227
1072,450; 1478,182;    0,258;   -0,045
1072,992; 1459,273;   -0,561;    3,136
1073,535; 1590,182;    0,167;    2,136
1074,077; 1401,364;    2,985;    2,045
1074,619; 1366,636;    0,985;    0,591
1075,161; 1389,364;   -0,561;    1,500
1075,704; 1567,455;    0,258;    1,227
1076,246; 1372,273;    1,530;    0,682
1076,788; 1304,091;   -1,015;    1,773
1077,330; 1392,636;   -2,106;    2,136
1077,872; 1347,727;   -1,924;    0,955
1078,414; 1569,455;    3,712;    0,773
1078,956; 1292,455;    0,167;   -0,227
1079,498; 1539,364;    0,439;    0,318
1080,040; 1246,364;    0,985;   -1,318
1080,581; 1205,273;    0,621;   -0,318
1081,123; 1139,545;   -0,106;   -0,773
1081,665; 1197,909;    3,803;   -0,955
1082,206; 1457,727;    3,258;   -0,500
1082,748; 1329,182;    3,258;    2,045
1083,289; 1215,636;    0,167;    1,318
1083,831; 1128,636;    0,258;    0,227
1084,372; 1159,182;    0,894;    0,591
1084,913; 1152,000;    3,348;    0,864
1085,455; 1129,091;    1,530;   -2,045
1085,996; 1093,727;    0,530;    0,136
1086,537; 1117,091;    0,985;    0,864
1087,078; 1149,273;    0,439;   -2,136
1087,619; 1196,273;   -1,652;    0,227
1088,160; 1105,091;    1,439;    1,318
1088,701; 1087,545;   -0,742;    0,682
1089,242; 1038,273;   -0,561;   -2,227
1089,783; 1129,091;   -0,561;    1,409
1090,324; 1094,000;   -0,833;    0,682
1090,865;  978,818;   -1,924;   -0,409
1091,405;  956,273;   -0,561;    2,227
1091,946;  994,273;   -0,197;   -0,955
1092,487;  917,182;   -1,288;   -1,409
1093,027; 1083,000;    1,803;   -1,500
1093,568;  929,545;    2,258;    1,227
1094,108;  995,818;    0,621;    1,773
1094,649;  961,364;   -0,470;    0,136
1095,189;  890,273;    1,167;   -0,682
1095,729;  839,273;    0,712;    0,955
1096,269;  860,455;    1,258;   -0,955
1096,810; 1163,273;   -0,197;    0,500
1097,350;  982,636;   -0,561;   -0,773
1097,890;  889,364;    2,985;    1,227
1098,430; 1141,091;    4,985;    2,864
1098,970; 1009,273;    1,894;    1,682
1099,510;  885,364;   -0,833;   -2,318
1100,050;  809,636;    0,258;   -1,591
1100,589;  767,818;    0,076;   -0,318
1101,129;  901,727;    0,894;   -0,955
1101,669; 1031,818;    2,803;    2,136
1102,209;  866,636;    1,530;    2,227
1102,748;  825,182;    3,439;    0,955
1103,288;  813,545;    0,712;   -1,227
1103,827;  837,000;    3,530;   -2,227
1104,367;  728,818;    1,712;   -2,409
1104,906;  686,545;   -1,015;   -1,136
1105,445;  753,455;    0,985;   -1,136
1105,985;  693,909;   -0,652;    1,500
1106,524;  739,909;    1,530;   -0,682
1107,063;  716,636;    1,167;    1,409
1107,602;  693,818;    1,894;   -1,500
1108,141;  621,000;    1,621;    1,500
1108,680;  710,727;    3,985;   -0,591
1109,219;  656,273;    0,167;   -0,500
1109,758;  652,273;    4,167;    0,682
1110,297;  631,364;   -1,106;   -0,682
1110,836;  584,545;    1,439;    0,955
1111,375;  729,909;    0,348;    0,409
1111,913;  739,727;    0,985;    0,773
1112,452;  681,727;    0,894;    0,136
1112,991;  577,727;    1,076;    1,955
1113,529;  540,182;    0,167;   -0,045
1114,068;  604,909;    0,439;    2,955
1114,606;  503,545;   -0,561;   -0,955
1115,144;  656,909;    1,530;    1,045
1115,683;  595,909;    1,985;    0,318
1116,221;  652,091;    2,076;   -0,864
1116,759;  557,182;    1,621;   -0,864
1117,297;  726,000;    1,621;    1,864
1117,836;  545,364;    1,985;   -1,227
1118,374;  556,909;    0,258;   -0,682
1118,912;  511,000;    0,439;    2,682
1119,450;  498,636;    0,985;    0,864
1119,988;  549,727;    3,348;    2,136
1120,525;  994,636;    7,258;    3,318
1121,063;  693,455;    0,530;    1,864
1121,601;  506,818;    1,076;   -1,227
1122,139;  456,727;    1,076;   -2,045
1122,676;  647,636;   -1,652;    2,773
1123,214;  587,091;    0,712;    4,409
1123,751;  405,636;    0,621;    2,227
1124,289;  537,455;    0,894;   -0,409
1124,826;  411,000;   -0,379;    0,227
1125,364;  346,000;    0,712;   -0,955
1125,901;  523,545;    6,258;    1,227
1126,438;  611,818;    3,530;    0,955
1126,975;  365,636;    2,985;   -0,773
1127,513;  419,091;    2,621;    2,136
1128,050;  337,000;   -0,561;   -0,682
1128,587;  425,727;    1,348;   -0,227
1129,124;  467,182;   -0,015;    1,318
1129,661;  343,727;   -1,924;    0,227
1130,198;  505,818;    2,439;    0,773
1130,734;  445,727;   -0,379;    1,409
1131,271;  313,545;   -1,197;    0,864
1131,808;  476,909;    1,621;    3,045
1132,345;  350,455;    4,530;    0,318
1132,881;  240,636;   -0,561;   -1,864
1133,418;  368,727;    0,348;   -1,136
1133,954;  316,182;    0,712;   -2,682
1134,491;  375,545;    1,712;   -0,773
1135,027;  284,273;    2,167;    0,864
1135,564;  355,636;    1,439;    2,955
1136,100;  336,909;   -0,742;    2,136
1136,636;  251,727;   -1,015;   -1,045
1137,172;  324,727;    0,894;   -1,045
1137,708;  266,818;   -1,561;   -1,045
1138,245;  264,182;    0,803;   -1,227
1138,781;  221,000;    1,803;   -3,318
1139,317;  279,455;    1,894;   -1,409
1139,852;  278,727;    3,076;    0,136
1140,388;  381,455;    2,076;   -0,409
1140,924;  277,636;    1,076;   -2,227
1141,460;  221,364;   -0,288;    0,136
1141,996;  157,364;   -0,652;    2,682
1142,531;  196,909;    1,076;    3,318
1143,067;  403,455;    1,167;    1,045
1143,602;  452,818;    3,439;   -0,318
1144,138;  300,091;    0,803;    1,045
1144,673;  184,818;    1,621;    1,409
1145,209;  239,727;    2,894;   -0,318
1145,744;  169,182;    0,803;    0,864
1146,279;  284,273;    1,530;   -0,136
1146,815;  216,636;    1,530;   -2,682
1147,350;  253,182;   -0,924;    0,045
1147,885;  176,091;   -1,924;   -1,318
1148,420;  178,273;    2,439;    0,773
1148,955;  154,909;   -1,470;    1,864
1149,490;  183,545;   -1,106;   -1,591
1150,025;  159,364;   -1,106;   -1,773
1150,560;  264,273;   -0,288;   -0,955
1151,094;  237,182;    0,258;   -0,591
1151,629;  237,091;   -3,742;    0,864
1152,164;  169,727;   -1,288;    1,318
1152,698;  137,909;    1,258;   -0,136
1153,233;   97,636;   -1,379;   -0,682
1153,767;  145,000;   -0,288;   -2,318
1154,302;  185,182;   -0,379;    1,773
1154,836;  185,636;    0,803;   -2,136
1155,371;  221,273;    2,258;    3,682
1155,905;  192,727;    1,985;    1,682
1156,439;  162,182;    0,530;   -0,500
1156,973;  190,000;    0,439;    0,318
1157,507;  130,545;   -1,742;    0,682
1158,042;  159,364;   -0,652;    1,045
1158,576;  197,091;   -0,561;    1,773
1159,110;  193,636;    0,076;    2,409
1159,643;  159,091;   -2,470;   -0,045
1160,177;  108,273;   -2,015;    1,500

