
Integration time [ms]:   0,050
Averaging Nr. [scans]: 11
Smoothing Nr. [pixels]: 0
Data measured with spectrometer [name]: 7318044SP
Wave   ;Sample   ;Dark     ;Reference
[nm]   ;[counts] ;[counts] ;[counts] 

186,757;  -29,535;   38,161;    1,318
187,357;   -3,005;   26,706;    0,955
187,958;  -23,797;   17,252;   -1,591
188,558;   11,253;   12,979;   -1,227
189,159;   -9,232;   10,070;   -4,500
189,759;  -29,555;    5,797;   -3,591
190,360;  -37,524;    6,797;   -2,136
190,960;   -9,034;    5,706;   -4,136
191,560;    2,404;    2,614;   -6,591
192,161;  193,122;    5,885;   -3,500
192,761;   59,898;    5,520;   -3,227
193,361;   14,096;    3,065;   -3,773
193,962;   47,549;    1,612;   -2,682
194,562;   -8,117;   -0,114;   -3,955
195,162;    9,472;   -0,567;   -2,227
195,762;  110,778;    2,433;   -0,045
196,362;   62,598;    1,706;   -2,500
196,963;  -11,559;    1,706;   -0,864
197,563;   29,177;    1,252;   -0,955
198,163;  -10,886;   -0,111;   -0,682
198,763;   -3,293;   -0,020;   -0,500
199,363;   39,081;    3,616;   -0,500
199,963;   14,573;    2,162;    0,409
200,563;    1,172;    6,344;   -1,409
201,163;  -13,820;    5,435;   -0,227
201,763;   14,376;    1,435;    0,318
202,363;   -9,521;    0,980;    1,500
202,963;   18,796;    1,526;    1,045
203,563;   63,571;    0,344;    0,500
204,162;    9,996;    1,889;   -1,864
204,762;    4,839;    2,071;    0,591
205,362;  -12,094;    0,708;    1,955
205,962;    8,256;    3,435;    1,955
206,562;    6,712;    1,889;    2,318
207,161;  -10,754;    1,708;    0,318
207,761;   55,566;    4,435;    2,409
208,361;    1,209;    1,889;    1,409
208,960;   13,979;    2,889;    1,500
209,560;    7,522;    0,435;    1,591
210,160;   18,488;    5,071;    1,864
210,759;    3,552;    0,708;    1,227
211,359;  -10,157;   -0,474;    1,045
211,958;   81,716;    3,526;    2,045
212,558;   86,351;    0,799;    1,864
213,157;   27,824;   -0,929;    1,500
213,757;  157,935;    5,617;   -0,227
214,356;   46,998;    1,708;   -0,409
214,956;  132,425;    3,526;    0,409
215,555;   29,558;    0,617;    2,136
216,154;   -0,589;   -0,292;   -0,591
216,754;    2,835;    1,253;    0,773
217,353;   11,295;   -0,383;   -1,045
217,952;  -29,973;    2,072;    0,318
218,552;   21,860;    0,254;   -0,773
219,151;   -5,738;   -1,110;    0,955
219,750;  -12,193;    0,890;   -0,227
220,349;  -13,462;   -2,292;    1,045
220,948;   42,935;    1,163;    1,136
221,548;   -6,686;    0,617;    1,227
222,147;   -3,546;   -1,292;   -0,409
222,746;   72,616;    1,254;   -0,955
223,345;   21,784;   -1,019;    0,500
223,944;   22,638;    1,163;    0,773
224,543;   26,984;    4,072;   -1,409
225,142;    3,965;    1,345;    0,136
225,741;    6,438;    1,163;    1,045
226,340;    9,096;    1,254;   -0,955
226,939;   57,787;    2,708;   -0,136
227,538;   10,245;    1,163;   -0,773
228,137;   63,719;    0,435;    0,864
228,735;   38,431;    0,435;    1,227
229,334;  -21,781;   -0,474;   -0,227
229,933;   63,593;    0,799;    0,591
230,532;   53,954;   -1,201;   -0,409
231,131;   83,048;    1,253;    0,318
231,729;   30,516;    1,163;   -2,318
232,328;    9,435;    0,435;   -1,500
232,927;   12,830;    4,526;   -0,500
233,525;    6,693;    0,981;    0,045
234,124;   22,464;    1,890;   -1,591
234,723;    3,132;    1,617;   -1,045
235,321;  -17,293;    1,163;    0,136
235,920;   -4,559;    2,526;   -1,227
236,518;   52,924;    1,072;    0,318
237,117;    1,021;    2,890;   -0,227
237,715;   10,562;    1,163;   -0,500
238,314;   13,000;    1,708;   -2,318
238,912;   56,490;    0,526;   -1,409
239,510;   30,520;    1,162;   -1,227
240,109;   74,015;   -0,474;    3,773
240,707;   51,329;   -0,474;    1,227
241,305;    0,018;   -0,383;    0,136
241,904;   31,563;   -0,292;   -2,045
242,502;   83,518;    3,253;   -0,227
243,100;   34,259;    3,344;   -0,955
243,698;   -6,836;    2,799;    1,682
244,297;   16,598;   -0,656;    0,682
244,895;    9,858;   -0,474;   -2,318
245,493;   74,249;    2,981;   -0,591
246,091;   86,879;    5,163;   -1,318
246,689;   35,864;    2,163;    0,591
247,287;   33,358;   -0,019;   -1,136
247,885;   18,848;   -1,019;    1,227
248,483;   -2,329;   -0,201;   -0,500
249,081;   29,013;    0,981;    1,591
249,679;   36,078;   -1,019;    1,682
250,277;    6,558;   -2,292;    0,864
250,875;   39,729;    0,617;   -1,045
251,473;    9,981;   -0,019;    0,500
252,071;   40,126;   -0,383;    1,045
252,669;   14,638;   -1,565;    0,318
253,267;   -0,930;    1,618;    0,773
253,864;    7,358;    0,617;    0,682
254,462;   52,438;    1,526;    1,591
255,060;   -3,730;    0,072;    1,318
255,658;   -7,998;   -3,292;   -0,136
256,255;    8,525;   -0,201;   -2,045
256,853;   24,575;    2,345;    1,409
257,451;    2,582;    1,981;    1,864
258,048;  158,777;    2,072;    1,864
258,646;   63,059;    0,436;   -1,045
259,243;   88,575;    2,981;    2,227
259,841;   40,527;    1,799;    0,318
260,438;   -5,082;    0,254;    0,864
261,036;   24,739;    0,617;    1,409
261,633;   -1,058;    1,526;    2,227
262,231;  -11,918;   -0,110;   -0,045
262,828;  -12,550;   -0,383;    1,136
263,425;   -7,435;   -1,928;   -0,591
264,023;   -7,457;    1,436;    0,045
264,620;   39,301;    1,526;   -0,318
265,217;   86,290;    2,890;    3,136
265,815;    7,710;    2,527;    2,136
266,412;   37,321;    0,072;    0,136
267,009;   32,657;    0,526;    0,773
267,606;   58,968;    0,345;   -0,955
268,203;    3,109;   -0,383;   -0,591
268,801;    8,658;   -0,474;    0,591
269,398;  -11,434;   -0,564;    2,500
269,995;   25,632;    0,890;    1,591
270,592;    5,254;    0,799;   -0,500
271,189;  -10,217;    1,981;    0,409
271,786;  -15,112;    2,072;    1,227
272,383;   48,407;   -0,383;    0,227
272,980;    4,471;    1,617;    0,318
273,577;   -7,748;    2,162;    1,227
274,174;  -12,924;    1,435;    2,591
274,771;   24,002;    1,890;   -0,773
275,367;  172,782;    3,253;    1,409
275,964;   72,401;   -0,565;   -0,500
276,561;   12,048;   -2,474;   -1,045
277,158;  -18,104;    1,799;   -1,773
277,755;   56,104;   -0,110;    0,409
278,351;   23,407;    0,436;   -1,500
278,948;   36,326;   -0,201;    0,045
279,545;   28,904;    0,527;    2,318
280,141;   64,429;    1,254;   -2,045
280,738;   66,789;    2,435;   -0,136
281,334;   11,020;   -0,383;    0,591
281,931;    2,401;    2,890;   -1,318
282,528;   45,723;    4,072;   -0,500
283,124;   61,620;    3,345;   -0,500
283,721;   53,158;    0,709;    1,409
284,317;   17,578;    0,163;    2,500
284,913;   61,971;   -0,110;    0,591
285,510;  109,698;    2,890;   -0,318
286,106;   67,190;    2,345;   -0,955
286,703;   23,608;    0,072;    1,955
287,299;    0,346;    1,254;   -0,591
287,895;   -1,846;    0,890;   -1,045
288,491;   -1,707;    0,163;    2,136
289,088;   28,214;    0,163;    2,409
289,684;   28,638;    2,890;    1,500
290,280;   91,747;    1,890;    0,682
290,876;   60,068;    0,163;    5,500
291,472;   41,841;    2,163;    2,227
292,068;   46,948;    1,254;    0,227
292,665;   15,618;   -0,564;    0,773
293,261;   -9,914;   -1,292;    2,136
293,857;   40,989;    4,072;    2,136
294,453;   15,578;   -0,928;    0,955
295,049;   82,167;    0,253;    1,955
295,644;   29,016;   -1,292;    0,136
296,240;  -10,735;    0,162;   -0,136
296,836;   15,018;   -0,747;    0,318
297,432;   56,958;    2,980;   -0,500
298,028;   53,120;    0,435;    0,773
298,624;   19,700;    0,889;    1,864
299,220;   22,436;    0,435;    0,591
299,815;   15,600;    0,526;   -0,409
300,411;   49,439;    0,435;    1,773
301,007;   61,983;    1,889;    0,227
301,602;    9,195;    2,071;   -2,318
302,198;   57,557;    1,435;   -0,773
302,794;   15,172;    1,526;   -0,500
303,389;   -2,327;    1,071;    1,045
303,985;    4,774;    1,253;    1,409
304,580;   57,611;    0,889;    1,591
305,176;   11,404;    0,344;    0,136
305,771;  -30,695;   -0,929;   -1,227
306,367;  127,741;    3,071;    0,136
306,962;   38,922;    2,889;    1,500
307,558;   62,760;    2,435;    0,136
308,153;   39,419;   -0,383;   -1,136
308,748;   -9,981;    0,162;    1,682
309,344;  110,413;    0,253;   -1,318
309,939;   97,764;    2,071;   -1,318
310,534;   16,952;   -2,020;   -1,682
311,130;    9,742;   -0,656;   -2,500
311,725;   -1,681;    0,526;   -0,500
312,320;    1,736;    1,253;    0,045
312,915;   30,877;    2,890;   -1,045
313,510;  118,643;    0,526;   -0,500
314,105;   27,135;   -3,565;    1,409
314,700;   -5,923;   -1,656;   -1,045
315,295;    7,611;   -0,020;    0,045
315,890;   -4,745;   -0,292;    0,864
316,485;   31,986;    0,253;   -0,318
317,080;    4,226;   -0,929;    1,591
317,675;  106,024;    3,071;   -0,682
318,270;  215,361;    6,889;    3,318
318,865;  126,982;    2,435;    3,045
319,460;   71,978;   -1,565;    0,591
320,055;    9,172;   -2,565;   -1,227
320,650;   10,877;   -1,838;   -0,591
321,244;    8,885;    0,889;   -1,409
321,839;    7,032;    0,980;   -0,227
322,434;   22,827;   -0,111;   -1,591
323,029;    9,291;   -0,474;    1,591
323,623;   -4,072;    0,798;    0,773
324,218;   80,093;    2,707;    1,409
324,812;   46,006;    0,889;    1,591
325,407;   34,614;   -0,929;    2,045
326,002;   94,155;    0,526;   -0,409
326,596;   73,849;   -0,656;    1,318
327,191;   14,896;   -0,383;   -1,045
327,785;   11,121;   -0,747;   -0,227
328,379;   -4,250;   -0,383;    0,136
328,974;   13,694;    1,798;   -3,955
329,568;   31,966;    2,889;   -2,409
330,163;   60,812;    2,435;    1,045
330,757;    4,451;    0,253;    1,591
331,351;  -14,137;   -0,292;    0,682
331,945;  -13,389;   -0,383;    1,409
332,540;   25,060;    1,617;   -0,591
333,134;   20,901;    3,344;    0,773
333,728;   30,298;    2,799;    0,318
334,322;   -4,064;    0,889;   -0,864
334,916;  -11,601;    0,344;    0,955
335,510;   46,232;   -0,111;   -0,136
336,105;   29,351;   -0,929;    1,591
336,699;   -7,621;   -1,292;    0,591
337,293;   18,242;    1,071;    0,318
337,887;   -0,956;    0,071;    1,955
338,481;   35,444;    2,980;    0,591
339,074;   72,020;    2,071;    2,682
339,668;   69,544;   -0,110;    1,227
340,262;  317,770;    7,708;    3,227
340,856;  127,335;    1,708;   -0,682
341,450;   10,620;    0,708;    1,864
342,044;   26,060;    1,799;    0,136
342,637;   65,197;    1,162;   -2,136
343,231;   28,016;   -1,474;    0,682
343,825;   12,818;   -0,747;   -0,591
344,419;   19,613;   -0,474;    0,500
345,012;  259,328;    2,889;    4,045
345,606;  143,200;   -0,656;    1,591
346,199;   23,581;   -0,111;   -0,227
346,793;   59,196;    2,525;    2,045
347,386;    8,864;    0,889;   -1,136
347,980;  -14,225;   -0,838;   -0,045
348,573;    1,584;   -1,748;    0,409
349,167;  151,999;    6,161;    4,773
349,760;   72,338;    2,252;    2,682
350,354;   44,742;    1,616;    1,136
350,947;   67,555;    2,798;    1,682
351,540;   31,378;    0,616;   -1,409
352,134;  -11,899;   -1,111;    1,136
352,727;   -6,120;   -0,657;    1,136
353,320;    3,577;    2,343;    0,591
353,913;  -24,568;   -1,929;    1,864
354,507;   47,509;    0,434;   -1,227
355,100;    5,689;    0,071;    0,864
355,693;  202,666;    4,798;    2,409
356,286;   75,722;    0,980;    2,773
356,879;   15,642;   -0,475;    1,227
357,472;   24,087;    0,980;    1,500
358,065;   32,078;    3,161;    2,500
358,658;  -15,010;    0,798;    2,318
359,251;  -24,070;    0,252;   -0,591
359,844;   42,032;    0,343;   -1,136
360,437;   72,684;    0,252;    0,045
361,030;    8,349;    0,525;   -0,682
361,623;    8,515;    0,434;    0,318
362,215;  111,795;    0,979;    2,045
362,808;   31,069;   -2,293;   -1,682
363,401;    4,175;    0,798;    0,136
363,994;  109,819;    3,252;   -1,500
364,586;   19,772;    0,888;   -1,500
365,179;    5,440;   -0,203;   -1,136
365,772;  -49,368;   -0,930;    2,045
366,364;    1,538;    1,524;   -3,227
366,957;   24,468;    1,342;   -0,045
367,549;   -0,863;   -0,203;   -0,864
368,142;   10,843;    0,978;   -1,500
368,734;    0,474;    2,523;   -2,136
369,327;  -24,545;    2,341;   -0,500
369,919;   -3,724;   -1,659;    0,409
370,512;    6,300;   -1,023;   -0,500
371,104;  158,307;    2,704;    1,591
371,696;  169,956;    1,703;   -0,955
372,289;   81,771;    0,157;    1,136
372,881;   50,725;    1,156;    1,318
373,473;  -15,886;    4,064;    1,136
374,066;   33,349;    1,336;    0,500
374,658;   11,026;    0,879;    1,136
375,250;  -37,946;   -1,668;   -1,409
375,842;   -6,909;   -0,124;   -0,045
376,434;  -43,381;   -2,762;   -0,409
377,026;  -46,106;   -1,855;   -2,500
377,618;  -17,263;    0,779;   -0,682
378,210;  -79,065;    3,141;   -1,955
378,802;  -93,635;    3,412;   -0,591
379,394;  242,387;    3,411;    0,682
379,986;   24,299;    1,138;   -0,955
380,578;  -60,348;    1,410;    0,773
381,170;  167,087;    0,320;    0,045
381,762;   97,888;   -0,224;    1,409
382,354;   65,049;   -0,223;   -1,318
382,945;   -3,617;    0,870;    0,318
383,537;  -25,193;    1,144;   -1,955
384,129;  -30,612;    0,963;   -1,136
384,721;   67,138;    0,418;    0,955
385,312;   11,409;   -1,399;   -0,955
385,904;   69,821;   -0,945;    1,591
386,496;    7,390;    0,691;    1,045
387,087;  124,634;    0,418;    2,500
387,679;   60,915;   -0,401;    0,045
388,270;   27,744;   -2,401;    2,045
388,862;   10,843;   -0,401;   -0,318
389,453;   -8,220;    1,054;    1,045
390,045;   -5,164;    3,236;   -2,682
390,636;  -94,524;    0,144;   -0,591
391,227;  -40,456;    2,054;   -0,045
391,819;  -57,740;    0,781;    0,773
392,410;  162,685;    0,600;    0,045
393,001;   -9,552;    1,600;   -1,591
393,593;   40,350;    0,600;   -0,045
394,184;   75,570;    0,873;   -0,409
394,775;  -16,289;    1,146;    2,136
395,366;  -77,605;    1,782;    0,773
395,957;   61,842;   -2,400;    0,136
396,548;  -27,122;    1,054;    2,682
397,139;   56,354;    2,236;    0,591
397,730;   -5,762;    0,873;    0,955
398,321;   11,698;    0,509;    0,955
398,912;  -41,507;   -0,764;    0,136
399,503;  -47,321;   -1,945;   -1,409
400,094;  -12,403;   -1,582;    1,682
400,685;  -21,601;    3,600;    0,045
401,276;  -51,542;   -0,400;   -0,955
401,867;  -64,250;   -1,127;    0,773
402,458; -101,154;    1,509;   -2,318
403,048;   10,585;    0,146;    0,591
403,639;  -39,073;    1,509;    0,864
404,230;   57,378;    0,691;    0,318
404,821;  106,225;   -0,127;    0,045
405,411;   32,173;   -0,763;   -2,591
406,002;  -47,258;    3,237;   -1,136
406,592;  152,581;    2,691;    0,045
407,183;   25,487;    0,328;   -1,500
407,774;    8,797;    1,419;   -0,136
408,364;  -26,104;    2,600;    0,409
408,954;   72,394;   -0,036;    1,227
409,545;   62,256;    1,873;    1,045
410,135;   32,960;   -1,581;    0,500
410,726;  -11,418;    0,783;    0,318
411,316;  143,538;    2,237;    0,773
411,906;   13,367;    0,146;   -0,409
412,497;   14,106;   -0,490;   -0,045
413,087;  -30,883;    0,783;   -0,227
413,677;  -80,201;   -2,490;    3,864
414,267;  -87,843;   -1,035;    1,409
414,857; -104,024;    0,419;    4,227
415,448;  -99,226;   -0,763;    0,500
416,038;  -76,568;   -2,945;   -0,591
416,628;  -37,247;    0,965;    0,409
417,218;   15,933;   -1,762;    3,318
417,808;  148,843;    0,965;   -0,409
418,398;   42,348;   -1,035;    2,682
418,988;  -60,156;   -2,217;    0,591
419,578;   23,401;    3,601;    1,409
420,168;  -41,148;    0,692;   -0,955
420,757;   73,355;    0,964;   -1,500
421,347;   -8,181;    1,601;   -0,227
421,937;  -31,828;    3,329;    1,409
422,527;   74,281;    2,602;   -0,773
423,116;  192,550;    2,692;   -0,045
423,706;  -30,649;    2,965;    0,318
424,296;  -66,225;    1,601;    0,682
424,885;   40,229;    1,510;   -3,045
425,475;    1,369;    1,147;   -2,864
426,065;  -82,535;   -1,489;   -0,318
426,654;  -88,743;    0,329;   -0,318
427,244;  136,193;    1,147;    1,409
427,833;   92,631;    1,056;   -0,500
428,423;   -6,312;    0,147;    1,136
429,012;    2,285;    2,420;   -1,136
429,601;  102,900;    2,057;    0,136
430,191;   10,717;    2,511;    4,318
430,780;  -77,953;   -1,671;   -0,409
431,369;   80,369;    1,329;   -0,045
431,959;   -6,700;    1,693;    0,500
432,548;  -58,164;   -1,398;   -0,045
433,137; -109,525;    0,329;   -1,318
433,726;  -43,300;    0,148;    0,500
434,315;  -21,651;    0,148;    2,409
434,905;   68,817;    0,693;    1,409
435,494;   63,818;    3,148;    0,955
436,083;  -48,713;    1,420;   -0,955
436,672;   36,472;    1,148;    0,500
437,261;  -12,135;    0,512;   -1,955
437,850;  186,403;   -1,125;    0,682
438,439;  225,755;    2,239;    1,955
439,027;  340,151;    3,421;    1,773
439,616;  255,403;    2,239;    1,227
440,205;   49,166;    0,057;   -2,136
440,794;    8,661;   -0,306;   -0,045
441,383;  -45,172;    1,603;   -0,591
441,971;  -67,415;   -0,306;    0,591
442,560;  -46,465;    0,603;   -1,773
443,149; -134,368;    3,060;   -1,318
443,737; -105,716;    0,968;   -2,318
444,326;  -75,874;    0,331;    0,318
444,915;  -31,915;   -1,851;    0,864
445,503;  -15,448;    0,058;   -0,318
446,092;  222,766;    7,876;    2,136
446,680;  149,178;    1,876;    0,318
447,269;   55,463;   -1,487;   -0,318
447,857;   46,861;    2,240;   -1,773
448,445;    7,368;    2,149;    1,318
449,034;  -41,416;    0,876;   -1,136
449,622;  -33,764;    1,240;    3,500
450,210;  213,897;    3,149;    2,227
450,799;  136,641;    2,604;   -0,591
451,387;   97,254;    1,786;   -0,591
451,975;   81,175;   -1,305;    0,864
452,563;  154,136;    0,422;    2,318
453,151;   -4,782;   -1,032;   -1,227
453,739;   33,722;   -1,577;    0,136
454,328;  130,578;    0,604;   -2,136
454,916;   62,768;    1,150;   -0,136
455,504;   77,573;    3,513;    1,227
456,092;  -17,319;    2,150;   -1,591
456,679;  -47,035;    0,604;    0,682
457,267;  341,363;    3,604;    1,045
457,855;   55,330;    3,241;    1,409
458,443;  -79,119;   -0,304;    1,682
459,031;   47,832;    1,332;    2,409
459,619;    7,415;   -3,577;    2,864
460,206;  -62,229;   -0,759;    2,045
460,794;  -54,797;   -0,668;   -0,227
461,382;  -21,482;    0,878;   -0,864
461,970;  -15,826;    0,605;    1,864
462,557;  -80,003;    0,878;   -0,682
463,145;   19,338;   -0,304;   -1,682
463,732;  237,285;    2,514;   -1,045
464,320;   40,507;    1,514;   -3,045
464,907;  159,515;    0,423;   -0,773
465,495;   78,763;    2,696;   -1,227
466,082;   10,769;    2,060;   -0,045
466,670;   33,376;    2,605;    1,227
467,257;  -54,379;    0,060;    2,045
467,844;   41,613;    1,514;    0,045
468,432;   12,801;   -0,031;    3,500
469,019;  -26,804;    1,606;   -1,773
469,606;   47,914;    0,969;    3,682
470,193;   77,341;    2,151;    0,227
470,780;   35,315;    0,333;    0,864
471,368;  -25,464;   -1,212;   -0,773
471,955;   65,125;    1,060;   -0,682
472,542;   27,378;   -0,303;   -1,136
473,129;  -64,091;   -0,485;    0,136
473,716;  -57,780;    0,060;    0,591
474,303;  -29,113;    1,333;   -0,864
474,890;  -16,628;    2,333;   -0,500
475,477;   72,810;   -0,576;    0,409
476,064;  -10,108;    0,697;   -1,591
476,650;   95,219;    2,152;    0,318
477,237;   10,856;    1,879;    0,955
477,824;  -12,744;    3,879;    0,864
478,411;  -80,351;    0,606;   -0,318
478,997;  -85,179;    0,606;   -0,773
479,584; -130,299;   -0,666;   -0,409
480,171;   23,608;    1,243;   -0,773
480,757;   65,240;   -0,848;    0,773
481,344;  -21,124;    0,334;    0,409
481,931;  -98,824;   -0,393;    1,045
482,517;   12,835;    0,425;    0,318
483,104;   89,211;    1,334;    2,864
483,690;  -27,561;    0,243;    0,045
484,276;  -44,187;    0,698;    0,227
484,863;  137,522;    2,152;    1,136
485,449;    4,180;    0,152;    0,318
486,035;  -40,541;   -0,666;   -0,136
486,622;   37,227;   -2,393;    0,045
487,208;  -32,957;    1,334;    1,500
487,794;  -96,175;    0,971;    0,318
488,380;  -92,143;    0,698;   -1,409
488,967;  -92,089;   -1,120;   -0,409
489,553;  -79,390;   -1,029;   -1,409
490,139;  -10,486;    0,971;    0,773
490,725;  -68,682;    0,789;   -0,227
491,311;  -24,430;    1,516;    3,045
491,897;  -50,839;   -0,665;    1,500
492,483;  -37,771;    0,426;    1,227
493,069;  369,097;    5,426;    0,864
493,655;   94,697;    1,789;    0,682
494,241;  -23,506;    1,517;   -0,955
494,826;   -7,951;    0,335;   -1,045
495,412;   46,266;    0,335;   -0,682
495,998;  -35,041;    0,971;   -0,318
496,584;    9,249;    2,244;    1,045
497,169;   29,110;    2,335;   -0,682
497,755;  -25,553;    1,244;    1,227
498,341;   91,731;    2,153;    0,318
498,926;  210,306;    2,881;    1,955
499,512;  -24,536;   -0,028;    2,955
500,097;  -32,240;   -0,574;   -0,318
500,683;  -13,243;   -0,028;    2,136
501,268;  -53,267;    1,881;   -0,955
501,854;  -26,937;   -0,119;    1,227
502,439;  -37,688;   -0,573;   -1,773
503,024;  -24,395;    1,608;    0,500
503,610;   -5,314;    1,335;   -0,682
504,195;  -52,655;    1,245;    1,955
504,780;   34,612;    2,335;    1,227
505,366;  100,975;    4,063;    2,864
505,951;   45,934;   -1,119;    1,045
506,536;  -22,396;    1,427;   -3,682
507,121;   19,910;    1,699;   -0,318
507,706;  -11,681;   -0,392;    1,045
508,291;  -53,778;   -2,937;    1,136
508,876;  -63,534;   -0,482;    2,591
509,461;  -24,038;    1,427;   -0,773
510,046;    9,117;   -0,391;    0,318
510,631;   22,674;   -0,119;   -0,773
511,216;  -43,964;   -0,664;   -0,500
511,801;   -1,022;   -0,755;    2,591
512,386;   20,853;    0,972;    0,500
512,971;   31,828;    0,427;    0,955
513,555;   51,410;    1,154;   -1,500
514,140;   15,099;    1,336;   -3,136
514,725;  119,282;    1,791;   -1,136
515,309;   34,190;    1,064;    0,318
515,894;  -32,043;   -0,300;   -2,227
516,479;   -5,343;    1,973;   -0,955
517,063;    1,336;    0,882;    1,227
517,648;  -37,875;    0,155;   -1,136
518,232;  -60,177;   -1,300;   -1,409
518,817;    9,545;    1,337;    1,682
519,401;   94,781;    0,700;    0,591
519,985;   70,295;    2,700;    1,136
520,570;  -12,666;   -0,118;   -1,955
521,154;   56,423;    0,064;    0,591
521,738;  176,672;    1,064;    2,409
522,323;   60,785;   -0,390;    1,682
522,907;   82,590;    2,428;   -0,136
523,491;   41,545;    1,155;    0,955
524,075;   45,722;    0,428;    0,591
524,659;  233,406;    0,973;    0,591
525,243;  221,684;    0,883;    0,409
525,827;  225,339;    0,883;   -0,045
526,411;  299,042;    1,155;   -0,136
526,995;  509,251;    0,337;    1,409
527,579;  669,093;    1,974;   -1,045
528,163;  699,010;    0,428;   -1,500
528,747; 1002,206;    1,065;   -0,773
529,331; 1099,710;    0,883;   -1,409
529,915; 1071,077;    2,338;    0,955
530,499; 1402,314;    0,247;    1,227
531,082; 1732,062;    1,065;    1,591
531,666; 1987,264;    0,520;    0,773
532,250; 2313,474;    0,428;    2,682
532,833; 2812,879;    0,610;    2,773
533,417; 3018,399;    1,247;    0,864
534,001; 3380,636;    0,429;   -0,318
534,584; 4111,630;    1,974;    0,500
535,168; 4414,600;    3,247;    1,409
535,751; 5025,678;    4,520;    0,045
536,334; 5070,544;    4,520;   -0,409
536,918; 5975,715;    1,974;    1,591
537,501; 6449,475;    1,520;    1,318
538,085; 6958,856;    1,702;    1,045
538,668; 7479,851;    0,883;    2,409
539,251; 8255,937;    3,156;    3,773
539,834; 8772,967;    0,156;    0,773
540,418; 9194,342;    3,247;    4,318
541,001; 9670,365;    2,702;    1,773
541,584;10073,416;    1,429;    2,227
542,167;10190,620;    0,702;    2,955
542,750;10661,976;    0,793;   -0,773
543,333;10615,721;    1,429;    2,136
543,916;11662,600;   -0,298;    2,500
544,499;12488,354;    2,520;    0,227
545,082;12822,729;    0,248;    3,591
545,665;13258,914;   -0,207;    1,500
546,248;13854,902;    0,520;   -0,318
546,830;13821,517;   -1,752;    1,955
547,413;14448,199;    0,157;   -0,773
547,996;15208,545;    0,157;    0,500
548,579;15190,680;   -0,843;    0,955
549,161;15260,964;    0,884;    2,682
549,744;15245,917;    0,612;    0,409
550,326;15966,948;    0,885;   -1,136
550,909;15896,218;    2,339;    0,591
551,492;16484,674;    0,521;    0,227
552,074;16427,740;   -0,024;   -1,318
552,657;17160,993;    2,430;    0,045
553,239;17078,161;   -3,024;   -0,773
553,821;17147,399;   -1,570;    1,045
554,404;16798,124;   -0,024;    1,136
554,986;17255,399;    2,248;    1,045
555,568;17967,931;    0,430;   -0,955
556,151;17282,017;    4,067;   -0,227
556,733;17573,595;   -1,388;   -0,864
557,315;18149,723;    4,703;    0,500
557,897;18029,081;    0,521;   -0,500
558,479;18254,965;    1,703;    1,318
559,061;18457,245;    1,067;   -0,864
559,643;18906,630;   -0,297;    0,045
560,225;19346,850;   -0,388;    2,864
560,807;19470,540;    0,340;    0,318
561,389;19038,869;   -1,206;    2,318
561,971;19836,817;   -0,660;    2,136
562,553;19726,114;    0,613;    1,591
563,135;19901,376;    1,249;    1,136
563,717;19592,779;    3,158;    1,136
564,298;20373,605;    3,976;   -0,045
564,880;20142,958;    0,340;   -1,409
565,462;20386,321;    1,977;    1,318
566,043;21627,122;   -0,933;    2,318
566,625;21228,380;    4,067;    1,227
567,207;21169,929;    0,704;    1,682
567,788;22369,733;   -0,114;    1,500
568,370;23315,082;   -1,841;   -0,500
568,951;23186,533;   -0,569;    0,227
569,533;24210,934;    0,977;   -0,500
570,114;24804,842;   -0,296;    0,682
570,695;25328,441;   -0,478;   -1,318
571,277;25978,353;   -0,205;   -1,682
571,858;26824,416;    2,704;   -1,136
572,439;27838,908;    0,795;   -1,045
573,021;28138,667;    0,432;   -2,773
573,602;28699,468;    1,795;    0,318
574,183;29708,268;   -0,114;    2,227
574,764;29996,823;    2,068;    0,409
575,345;30629,265;    0,250;   -0,136
575,926;31369,517;    2,704;    0,136
576,507;31442,361;    2,704;   -0,227
577,088;32561,781;    1,704;    1,682
577,669;32680,401;    1,704;    1,955
578,250;33539,541;   -0,750;   -1,045
578,831;34377,574;   -0,841;   -2,227
579,412;34745,032;   -1,205;    0,955
579,993;35778,679;    1,432;    0,227
580,573;36120,276;   -0,023;   -0,955
581,154;35044,088;    1,613;   -0,591
581,735;35999,532;    0,341;    0,773
582,315;35565,714;    0,523;    2,136
582,896;35981,096;   -1,750;    1,227
583,477;35421,738;    0,614;    1,227
584,057;35627,371;    1,159;    0,955
584,638;35872,316;   -2,750;    2,318
585,218;35909,431;    2,886;    2,682
585,799;36097,708;    1,977;   -0,227
586,379;36130,599;    1,250;    1,591
586,959;34869,794;    2,613;    0,318
587,540;34092,512;    0,432;    2,227
588,120;33592,524;   -1,113;   -0,045
588,700;32466,205;    2,977;    2,136
589,281;32812,569;    1,250;   -0,955
589,861;32717,151;   -0,296;   -1,682
590,441;32605,054;   -1,477;   -2,682
591,021;31501,391;    1,432;   -2,591
591,601;31703,254;    0,431;    0,500
592,181;31756,500;   -1,296;   -0,773
592,761;31006,495;    2,250;    1,409
593,341;30876,379;    1,522;    0,045
593,921;30889,836;   -0,569;    1,591
594,501;30747,011;    1,250;    1,318
595,081;30634,659;    0,522;   -0,318
595,661;30968,247;    1,068;    0,955
596,240;31529,198;   -1,023;    0,136
596,820;31156,033;    2,613;    1,955
597,400;31439,145;    1,977;    0,773
597,980;31748,838;   -0,750;    1,045
598,559;31757,099;    0,341;   -0,227
599,139;31467,646;   -0,750;   -1,227
599,718;31365,192;    0,795;   -0,409
600,298;31617,317;   -2,387;    0,682
600,877;31896,339;    4,795;    1,409
601,457;32215,355;    0,340;    1,136
602,036;32134,057;    1,795;    2,045
602,616;32417,550;    2,250;    1,682
603,195;32736,339;    0,431;    3,500
603,774;32281,760;   -0,296;    2,045
604,354;32168,392;    2,522;   -0,500
604,933;31656,662;    0,250;    1,864
605,512;31764,766;    2,340;    0,591
606,091;31849,469;    1,886;    3,773
606,671;32669,971;    0,249;    0,773
607,250;31676,365;    1,431;    3,136
607,829;31983,739;    1,158;    3,227
608,408;31826,403;    4,613;    2,591
608,987;30854,472;    2,704;    3,409
609,566;31167,081;    0,341;   -2,500
610,145;31229,225;    2,885;    0,682
610,723;31678,868;    1,613;    6,864
611,302;30860,515;    1,067;    1,682
611,881;30364,820;    5,158;   11,227
612,460;31246,831;    0,795;    3,955
613,039;31688,286;    1,703;    2,045
613,617;30402,836;    0,886;    4,773
614,196;30603,230;    1,613;    1,227
614,775;30931,220;    1,249;    2,409
615,353;30837,834;   -1,660;    0,864
615,932;30587,481;    0,249;    2,409
616,510;31198,205;    0,158;    0,591
617,089;30636,128;    8,794;   17,591
617,667;30390,769;    4,885;    6,136
618,246;30191,983;   -1,115;    1,318
618,824;30391,282;    1,612;   -0,955
619,402;29928,025;    0,431;   -1,773
619,981;30488,552;    1,067;   -1,045
620,559;30352,288;    0,794;    1,682
621,137;29897,435;    3,067;    1,864
621,715;29831,987;    3,703;   -0,682
622,293;29769,203;    1,885;   -0,773
622,871;30279,087;    0,340;    0,500
623,450;29778,734;    0,430;   -0,864
624,028;29707,944;   -0,388;   -0,955
624,606;29274,356;    2,339;    1,682
625,183;29688,560;   -0,661;   -1,136
625,761;29263,635;    1,885;    1,136
626,339;29565,670;    2,339;    2,591
626,917;30019,040;    0,339;   -0,045
627,495;30073,030;    2,794;    1,318
628,073;29507,017;    5,248;    2,864
628,650;29211,078;    3,067;    2,136
629,228;29616,344;    1,248;    4,409
629,806;28959,654;   -0,024;    1,136
630,383;29205,357;    0,066;   -0,318
630,961;28975,871;   -2,206;   -0,955
631,539;28662,927;   -2,479;    0,227
632,116;27938,689;   12,703;   15,409
632,694;28604,206;    4,885;    6,500
633,271;28921,023;    1,975;    2,682
633,848;28848,420;    1,430;    2,045
634,426;28939,106;    1,521;    1,773
635,003;28026,790;   -0,207;   -0,409
635,580;28287,910;    1,884;    3,682
636,158;28869,578;    3,793;    1,227
636,735;28825,603;    3,339;   -0,500
637,312;29011,006;    0,521;   -0,682
637,889;29127,448;    2,248;   -0,682
638,466;28565,091;    0,066;   -0,409
639,043;28626,317;    1,702;   -1,136
639,620;28908,630;    0,611;   -0,955
640,197;29263,894;    1,612;    1,682
640,774;29442,614;    1,430;    1,136
641,351;29871,970;    0,612;    1,136
641,928;29232,145;    2,794;    1,409
642,505;28859,955;    0,794;   -0,500
643,082;28952,494;    1,885;    1,227
643,658;27937,850;    1,157;    1,500
644,235;28748,934;   -2,479;    2,500
644,812;29044,926;    1,794;    0,773
645,388;28774,919;    1,612;    1,409
645,965;28865,548;    1,521;    1,682
646,542;28985,268;    3,430;   -0,227
647,118;28941,533;    3,703;   -0,955
647,695;29264,163;    0,339;    1,136
648,271;29164,701;   -2,115;    0,500
648,848;29472,057;    0,248;    2,227
649,424;29365,322;    0,976;    1,318
650,000;29108,770;   -0,388;   -1,045
650,577;28963,762;    0,158;   -0,955
651,153;29400,210;   -1,115;    0,955
651,729;30441,839;    0,521;    0,864
652,305;30815,831;    1,339;    2,773
652,881;36142,370;   -1,297;    1,136
653,458;44233,817;    0,249;    0,227
654,034;48955,628;    0,703;    1,591
654,610;50814,893;    0,339;    0,773
655,186;52323,886;    1,612;    3,045
655,762;51972,515;   -1,842;    0,409
656,338;52027,417;    0,703;    0,136
656,913;53155,955;   -0,297;    0,409
657,489;52380,402;    0,249;   -0,318
658,065;52359,486;    0,794;   -1,591
658,641;52949,297;    2,158;   -0,864
659,217;52113,108;    2,067;    0,409
659,792;51473,100;   -1,751;   -0,409
660,368;51734,275;   -0,388;   -0,682
660,944;51271,540;    1,794;    1,227
661,519;45944,715;    0,522;    0,409
662,095;38657,253;   -0,206;    0,591
662,670;33175,791;   -0,206;   -0,136
663,246;31689,238;   -0,660;   -0,409
663,821;30849,686;    0,431;    1,682
664,396;30327,224;    0,613;    1,864
664,972;30580,398;   -0,660;   -0,500
665,547;30930,664;    3,794;    0,136
666,122;30944,384;    1,340;    0,318
666,698;31235,013;    2,431;    0,318
667,273;30543,005;    0,885;    0,136
667,848;31415,998;    0,340;    1,500
668,423;31162,536;    1,795;    2,318
668,998;31848,438;    0,976;   -0,682
669,573;32405,794;    2,067;   -1,500
670,148;32252,605;    1,885;   -0,682
670,723;32070,416;   -0,024;    0,318
671,298;32519,773;   -1,296;    1,045
671,873;32700,856;   -0,296;   -0,136
672,448;32662,576;    1,704;    0,136
673,023;33040,842;    0,249;   -0,227
673,597;33308,107;    2,704;    2,318
674,172;33070,463;    2,431;    0,318
674,747;32564,456;   -0,205;   -1,045
675,321;32398,722;   -0,933;    3,318
675,896;31926,714;    2,158;    1,045
676,471;32985,616;    2,522;    1,591
677,045;32776,063;   -0,296;    0,682
677,620;32823,420;    2,158;    1,136
678,194;33151,412;    0,249;    1,136
678,769;32646,860;    0,886;   -0,318
679,343;32862,670;   -0,023;    1,773
679,917;32815,754;    0,340;    1,955
680,492;32922,838;    0,249;    3,227
681,066;33126,921;    0,613;    0,409
681,640;33094,550;    1,795;   -0,318
682,214;33953,725;    2,340;    0,500
682,788;33462,263;    0,613;   -0,773
683,363;33356,074;    1,977;    1,682
683,937;33073,703;    0,886;   -0,318
684,511;33917,878;   -1,023;   -0,591
685,085;33669,052;   -1,478;    0,318
685,659;33432,317;    1,431;    0,864
686,232;33617,765;    1,159;   -0,318
686,806;33367,121;    2,159;    0,409
687,380;34020,568;   -1,932;    0,591
687,954;34266,197;    2,432;    1,136
688,528;33946,826;    2,613;    1,955
689,101;34767,637;    0,432;    1,045
689,675;34361,630;    0,886;   -0,136
690,249;33676,986;    3,432;    0,409
690,822;33991,252;    1,159;    0,318
691,396;34048,699;    2,068;    1,227
691,969;33472,055;    2,523;    0,136
692,543;33984,503;   -0,568;   -1,955
693,116;33631,859;   -0,659;   -1,409
693,690;33430,397;   -0,296;    0,500
694,263;34026,572;    2,341;    2,955
694,836;34125,383;    2,795;    3,591
695,410;32641,284;    1,159;    1,773
695,983;33141,095;    1,614;    0,591
696,556;33103,452;   -0,750;   -1,045
697,129;33511,535;   -1,114;    1,409
697,703;33126,346;    1,341;    1,955
698,276;33107,975;    1,705;   -0,773
698,849;32901,422;   -1,023;    1,409
699,422;33279,051;    1,250;    0,591
699,995;32955,408;   -0,659;    0,136
700,568;33480,401;   -0,204;    3,045
701,140;33479,302;   -1,841;    1,682
701,713;33213,659;    0,341;    2,409
702,286;33000,560;    0,796;    0,864
702,859;32873,917;    0,614;   -0,591
703,432;31887,000;   -0,841;    0,682
704,004;32484,175;    1,978;    0,318
704,577;32311,349;    1,068;    0,136
705,150;32890,706;    0,887;    2,500
705,722;32744,699;    1,523;   -3,227
706,295;32456,782;    1,432;   -0,591
706,867;32258,138;    0,250;    1,955
707,440;32518,404;   -0,113;   -0,409
708,012;32797,669;   -0,022;    0,591
708,584;32626,844;    2,705;    0,227
709,157;33019,382;    1,160;   -0,591
709,729;32649,829;    1,069;    2,045
710,301;33542,277;   -1,204;    0,045
710,874;33580,542;    0,341;   -0,227
711,446;32406,444;   -0,295;    0,864
712,018;32281,709;   -3,022;    0,500
712,590;32020,702;   -0,204;    1,682
713,162;32566,149;   -0,477;    1,318
713,734;32775,324;    1,796;   -2,045
714,306;32691,680;    0,342;   -0,409
714,878;31331,764;   -0,295;    0,864
715,450;32116,120;   -0,113;    0,864
716,022;32417,294;    2,433;    1,318
716,593;32576,833;    0,978;    0,591
717,165;32500,280;    1,796;   -1,227
717,737;32218,273;    0,796;    0,409
718,309;31858,538;    1,160;   -0,045
718,880;31754,440;   -1,295;   -1,409
719,452;32060,523;    0,887;   -1,591
720,024;31609,425;    1,705;   -0,591
720,595;32160,145;    2,978;    0,955
721,167;31631,138;    1,160;   -2,045
721,738;31130,858;    2,069;   -1,045
722,309;31038,851;    1,251;   -1,227
722,881;30799,298;    2,705;    0,773
723,452;31529,745;    1,251;    2,864
724,023;31740,465;    1,524;    2,682
724,595;31483,003;    2,342;    0,682
725,166;31240,541;    1,524;   -0,409
725,737;30832,443;    1,887;    0,227
726,308;30945,709;    0,797;    0,318
726,879;31407,338;    1,069;    1,227
727,450;31262,058;   -2,022;   -0,045
728,021;31208,505;    1,069;    0,682
728,592;31020,679;    1,160;    0,500
729,163;31359,309;    1,433;   -0,136
729,734;31376,301;    2,160;   -0,227
730,305;31711,294;    0,615;    0,136
730,876;32133,287;    0,888;    2,955
731,447;31783,098;    0,797;    2,682
732,017;31850,636;   -0,840;    1,864
732,588;31373,628;   -0,021;    1,227
733,159;31592,621;    3,615;   -1,045
733,729;31406,705;    1,251;    0,409
734,300;30647,334;    0,160;    0,864
734,870;31058,054;   -1,385;    0,591
735,441;31724,046;    0,888;   -0,591
736,011;31417,221;    1,070;   -1,591
736,582;31373,214;    1,251;    0,045
737,152;30804,934;    0,979;   -2,045
737,722;31235,017;    1,070;   -0,682
738,293;30985,919;   -2,021;    1,318
738,863;30910,730;    1,797;    2,318
739,433;30654,268;    4,524;    0,318
740,003;31317,806;    1,524;   -0,682
740,573;30644,617;    2,252;   -1,591
741,143;30598,519;    3,615;    0,318
741,713;31347,966;    0,252;   -0,500
742,283;31011,413;    1,706;    1,591
742,853;30755,224;    0,524;    1,591
743,423;30195,672;    0,161;    0,045
743,993;30301,392;    1,070;    1,500
744,563;29641,657;    2,524;   -0,864
745,133;29562,377;   -0,112;   -0,864
745,702;30330,642;    2,797;    1,773
746,272;29440,362;    0,434;    0,591
746,842;29240,719;   -0,748;   -0,591
747,411;29722,439;   -0,839;   -0,318
747,981;29965,795;   -0,930;    0,500
748,551;29973,970;   -0,021;   -1,045
749,120;29792,871;   -0,112;   -0,227
749,690;30187,773;    2,161;    2,409
750,259;30527,675;    0,979;    2,955
750,828;30430,486;    4,070;   -1,955
751,398;30699,479;   -0,112;   -0,045
751,967;30171,199;    2,888;    0,409
752,536;30410,464;    1,161;   -0,227
753,105;30890,184;   -1,384;    0,227
753,675;30687,358;   -0,112;    1,773
754,244;30545,806;    0,888;    3,591
754,813;30599,617;    0,979;    1,227
755,382;30243,882;    0,798;    0,955
755,951;30788,057;   -0,112;    3,682
756,520;30308,140;    2,525;    1,864
757,089;30957,769;    1,888;    0,500
757,658;31103,671;    2,434;    1,227
758,227;31122,482;   -1,111;    0,318
758,795;31447,929;   -1,021;    1,136
759,364;31690,376;    0,525;   -0,591
759,933;30626,915;    1,343;   -0,045
760,501;30189,453;    0,252;   -1,318
761,070;30646,082;   -0,293;   -1,409
761,639;31318,438;    1,434;    1,318
762,207;30623,885;    0,889;   -0,955
762,776;30561,333;    2,889;    0,864
763,344;30523,053;    0,071;    0,591
763,913;29589,954;    1,616;    1,409
764,481;30338,129;    1,980;   -0,136
765,049;30130,485;    0,616;    1,409
765,618;30009,569;    1,434;    0,318
766,186;30072,834;    2,434;    0,136
766,754;30218,827;    1,798;    1,864
767,322;29177,002;    1,162;    0,409
767,890;29210,903;    0,525;   -1,773
768,459;29589,532;    2,616;   -0,318
769,027;29858,707;    2,525;    3,409
769,595;28779,427;    2,616;    2,591
770,163;29163,601;    3,344;    2,955
770,730;28881,231;    2,525;   -0,136
771,298;28752,314;    1,162;   -1,409
771,866;28839,489;    0,253;    4,955
772,434;29170,481;    1,162;   -1,864
773,002;29265,474;    2,616;    0,682
773,569;28893,740;    1,071;    1,682
774,137;28739,096;    0,889;   -0,045
774,705;29476,816;   -0,747;   -0,136
775,272;28949,809;    0,253;    0,682
775,840;28757,165;   -0,111;    2,682
776,407;28211,339;   -0,293;    1,955
776,975;27786,332;    1,162;    0,318
777,542;28851,143;    2,162;   -0,045
778,110;28701,863;    0,707;   -0,045
778,677;28341,310;    1,071;   -0,864
779,244;28095,121;   -1,020;    1,045
779,812;28180,114;    0,980;    0,864
780,379;28032,288;    2,435;    1,136
780,946;28253,281;    2,617;   -0,773
781,513;28620,819;   -0,565;    0,318
782,080;27901,994;    1,253;    2,864
782,647;28634,168;    1,708;    3,045
783,214;28263,525;   -0,201;    3,864
783,781;27862,245;    1,708;   -0,682
784,348;27731,146;    0,253;    1,500
784,915;28218,594;   -1,474;    0,318
785,482;27972,223;    2,708;    2,591
786,049;28400,306;    1,071;   -0,591
786,615;28495,663;    1,708;   -0,955
787,182;28268,201;   -3,201;   -0,682
787,749;27958,466;   -2,201;    1,409
788,315;27231,641;    0,253;   -0,409
788,882;27535,906;    0,981;   -1,227
789,448;28189,535;    1,435;   -0,955
790,015;28232,437;    1,799;    3,227
790,581;27753,248;    0,708;    0,227
791,148;27631,059;    1,344;    1,045
791,714;27902,142;   -1,019;    3,136
792,280;27640,590;    3,708;    1,591
792,847;27136,219;   -0,928;    2,500
793,413;27721,393;   -0,110;   -0,318
793,979;27179,113;    1,526;   -1,318
794,545;27260,470;    2,981;    2,682
795,111;26619,917;    2,435;    1,318
795,678;26805,364;    3,526;   -1,682
796,244;26409,630;    2,799;    0,136
796,810;27024,622;    0,799;    0,773
797,375;26721,251;   -0,292;   -2,136
797,941;26764,699;   -1,110;    0,591
798,507;26916,964;    0,254;   -0,955
799,073;26409,229;    2,708;    0,591
799,639;26472,859;    1,435;    3,136
800,205;26498,033;   -1,565;    2,682
800,770;25964,935;    1,345;    1,773
801,336;26000,746;    2,981;   -0,955
801,901;25674,466;    6,072;    3,136
802,467;26315,640;    0,526;    2,045
803,033;25634,087;   -0,019;    0,864
803,598;25793,262;    1,072;   -1,045
804,163;25856,618;    0,708;   -0,318
804,729;25752,611;   -0,110;    1,136
805,294;26223,240;    1,072;    2,227
805,859;26030,051;    0,890;   -0,409
806,425;25459,953;    3,890;    2,682
806,990;25068,218;    1,890;    4,318
807,555;25640,029;   -0,110;    2,591
808,120;25454,476;   -1,292;   -0,409
808,685;25516,469;    1,072;   -2,500
809,250;25006,553;    2,072;   -0,500
809,815;25318,091;   -0,201;    0,682
810,380;25878,084;    0,981;    1,591
810,945;26417,258;    2,890;    2,045
811,510;25599,342;   -0,200;    1,591
812,075;25236,880;    2,800;   -1,409
812,640;25278,963;    3,709;    1,409
813,204;25339,502;    2,163;   -0,227
813,769;25878,767;    0,254;   -0,045
814,334;25244,305;    0,527;    0,864
814,898;25276,207;    1,981;    0,591
815,463;25156,927;    0,981;   -0,773
816,027;25161,283;    1,345;   -2,318
816,592;25234,731;    2,163;   -2,045
817,156;24681,905;   -2,200;    1,136
817,721;24472,443;    0,982;    2,318
818,285;24406,981;    0,618;    1,500
818,849;25135,610;   -0,018;    1,682
819,414;25044,058;    0,073;    2,955
819,978;24538,141;   -0,291;    1,773
820,542;25202,680;    2,891;    0,500
821,106;24900,309;    2,800;    0,682
821,670;24950,301;    2,709;    2,591
822,234;24649,749;    1,073;    1,409
822,798;23976,923;   -0,836;    0,500
823,362;23970,552;    1,527;    4,227
823,926;23161,090;   -0,018;    1,136
824,490;23434,810;    3,527;   -0,682
825,054;23958,712;    2,527;   -1,136
825,618;23520,614;   -1,200;   -1,500
826,181;23414,243;    0,982;   -1,318
826,745;23295,054;   -0,745;   -1,045
827,309;23673,410;    2,255;    1,318
827,872;23040,403;    0,527;    0,955
828,436;24075,759;    1,982;   -0,773
828,999;24127,479;    2,436;    1,227
829,563;22875,836;   -0,654;    1,136
830,126;22715,010;   -0,018;   -0,591
830,690;22724,094;    0,709;    2,864
831,253;22220,723;   -0,473;    2,227
831,816;22336,988;   -0,018;    0,500
832,380;22250,526;    1,164;    0,864
832,943;22426,701;    3,073;   -0,500
833,506;21951,148;    0,255;   -1,227
834,069;22766,777;    2,164;   -0,955
834,632;22808,315;   -2,200;    1,318
835,195;22672,308;    1,346;    0,955
835,758;21812,301;    0,709;    1,955
836,321;21641,112;    1,073;   -1,045
836,884;21774,832;   -1,291;   -0,955
837,447;21794,824;    0,528;    1,773
838,010;22055,272;    1,800;    3,227
838,573;22390,082;    0,528;    0,773
839,135;22294,166;   -0,109;   -0,955
839,698;21730,613;    2,528;    0,409
840,261;21213,061;    0,255;   -0,227
840,823;21063,690;   -0,927;    0,864
841,386;21339,137;   -0,018;   -2,409
841,948;21224,948;    0,255;    1,773
842,511;20903,759;    0,255;    1,682
843,073;21098,297;    2,982;    0,227
843,636;20887,199;    0,619;   -0,227
844,198;20774,555;    1,255;    0,591
844,760;20902,639;    0,619;    1,955
845,322;20567,722;    0,164;    1,136
845,885;20987,715;   -0,290;    0,591
846,447;21391,708;    0,710;    0,227
847,009;20914,973;    3,983;   -0,682
847,571;21293,602;    1,346;   -2,045
848,133;21409,413;   -0,199;   -1,864
848,695;21209,497;    2,346;    1,409
849,257;20743,398;    1,346;   -1,682
849,819;20925,391;    2,983;   -0,409
850,381;21015,747;    1,801;   -0,864
850,942;21398,195;    1,892;   -0,591
851,504;21305,642;    0,983;    0,227
852,066;21333,089;    1,619;   -1,591
852,628;20857,082;    0,165;    1,955
853,189;20397,347;    0,256;    2,682
853,751;20526,067;   -0,654;    1,409
854,312;20437,696;    1,256;   -1,682
854,874;20980,598;   -0,108;   -0,773
855,435;21454,864;    0,528;   -1,682
855,997;21587,765;    3,983;   -0,136
856,558;20828,031;    0,801;    1,773
857,119;20935,205;   -0,744;    2,864
857,681;20583,925;   -0,108;    0,318
858,242;20588,918;    1,347;   -2,136
858,803;21084,365;    1,074;   -0,773
859,364;21642,722;    0,892;   -4,773
859,925;20944,987;   -0,290;   -0,955
860,486;20857,707;    0,529;   -0,955
861,047;20549,427;    0,165;   -1,227
861,608;20325,874;    0,165;   -0,773
862,169;20507,776;   -0,562;   -0,045
862,730;20235,769;   -0,290;    1,409
863,291;20488,761;    0,438;   -0,500
863,852;20804,300;   -0,926;    1,955
864,412;20262,838;   -1,835;   -0,864
864,973;18755,558;    1,892;    0,500
865,534;18580,914;    2,074;    0,227
866,094;20234,361;    2,620;    0,227
866,655;19845,445;    4,711;    3,318
867,215;20123,074;    0,074;    0,136
867,776;19995,521;   -1,199;   -0,136
868,336;20087,514;    1,529;    0,136
868,897;19483,598;    3,438;    1,682
869,457;19215,318;    3,256;    0,318
870,017;19484,856;    2,438;   -1,227
870,578;20035,303;    1,893;    0,773
871,138;19700,568;    2,620;   -0,955
871,698;19175,107;   -0,562;   -1,318
872,258;19022,554;    0,711;   -2,864
872,818;19408,092;    2,347;    0,045
873,378;19384,630;   -2,198;    1,045
873,938;18938,532;    4,984;    0,500
874,498;19329,979;    1,256;   -1,955
875,058;19156,063;    4,347;    1,773
875,618;19040,419;    1,438;   -2,682
876,177;18953,685;   -0,471;    0,136
876,737;18484,405;   -0,289;    1,955
877,297;18477,579;    2,711;    1,955
877,856;18517,845;    2,529;    0,318
878,416;18458,019;    2,438;   -0,136
878,976;18714,921;    3,438;    0,409
879,535;18896,823;    4,529;    3,136
880,095;18617,634;    1,347;    0,045
880,654;18735,354;    0,347;    1,318
881,213;18778,073;    2,347;    1,500
881,773;18444,430;    1,984;    2,682
882,332;18782,150;    6,075;    5,136
882,891;18661,415;    0,711;    2,136
883,451;19155,135;   -2,016;    1,682
884,010;18598,310;   -1,107;   -0,409
884,569;18675,212;   -2,289;   -0,045
885,128;18816,295;   -0,743;   -1,864
885,687;18833,742;   -0,743;    0,682
886,246;18522,099;    2,620;    2,136
886,805;18236,819;    1,620;    2,045
887,364;18615,993;    1,166;   -0,500
887,922;18984,350;   -0,016;    0,045
888,481;18442,797;    1,530;    0,591
889,040;18766,971;    3,711;    2,136
889,599;19456,600;    2,166;    1,409
890,157;19555,048;    2,166;    2,409
890,716;19219,404;    2,166;    0,227
891,274;19036,488;    0,075;   -1,136
891,833;19444,299;    1,166;    0,864
892,391;19334,200;    1,802;    0,500
892,950;19479,375;    0,166;   -0,773
893,508;19787,549;    0,984;   -0,409
894,067;19138,633;   -0,379;    0,136
894,625;19054,898;   -1,016;   -1,500
895,183;19292,709;   -0,198;   -0,682
895,741;19164,611;    2,257;   -1,773
896,299;18970,877;    1,621;   -2,409
896,858;19205,778;    1,530;   -1,591
897,416;19284,044;    0,166;   -1,318
897,974;19043,582;   -2,197;    0,318
898,532;19173,211;    6,530;    2,682
899,089;19053,204;    0,621;   -0,682
899,647;19132,196;    0,530;    1,318
900,205;18799,916;    0,257;    1,045
900,763;19035,273;    2,166;    0,227
901,321;19039,720;    3,530;   -1,409
901,878;18398,622;    3,257;   -0,773
902,436;18223,160;    0,257;    1,318
902,994;18614,698;    6,712;    3,682
903,551;18035,327;    1,439;    0,409
904,109;18493,502;    1,530;   -1,409
904,666;18042,131;    1,439;    1,045
905,224;17849,214;    3,894;   -0,409
905,781;17543,025;   -0,470;   -0,318
906,338;17624,382;    0,167;    1,045
906,895;17607,102;    1,894;    2,045
907,453;17497,549;    2,348;    1,136
908,010;17499,723;    3,348;    0,409
908,567;17126,352;   -0,561;    0,591
909,124;16635,163;    2,439;   -1,500
909,681;16751,611;   -1,288;    0,682
910,238;16878,512;   -0,106;   -1,318
910,795;17161,323;   -1,561;   -1,136
911,352;16750,869;   -0,379;   -2,682
911,909;16128,505;    2,803;   -0,864
912,466;16659,505;    1,985;    1,500
913,022;16143,960;   -0,924;    0,500
913,579;16528,778;   -0,470;    2,045
914,136;16211,141;   -2,561;    0,955
914,692;16589,778;    1,530;   -1,227
915,249;16084,687;    0,530;    0,409
915,806;16345,869;    1,803;    1,955
916,362;16065,869;    0,894;    1,864
916,918;15582,869;    2,439;    1,045
917,475;15518,778;    1,621;    0,955
918,031;15681,869;    0,076;   -0,045
918,587;15108,778;    0,621;   -0,318
919,144;15295,778;   -0,379;    0,227
919,700;15633,960;    0,167;    0,773
920,256;15166,960;    0,439;    0,045
920,812;14766,414;    1,439;   -1,045
921,368;14728,960;    1,348;   -1,045
921,924;14393,414;    0,439;   -0,136
922,480;13925,141;    0,076;    1,227
923,036;14529,051;   -0,652;    1,955
923,592;14475,232;    0,621;    0,318
924,148;14398,869;    1,894;   -0,955
924,704;13682,141;    0,258;   -0,409
925,259;13936,505;   -0,561;    0,591
925,815;13660,141;    3,803;    0,500
926,371;13198,051;    3,530;    1,409
926,926;13055,960;    1,621;    0,591
927,482;12653,596;    1,621;    0,773
928,037;12519,869;   -0,833;    2,045
928,593;12828,323;    0,258;    1,045
929,148;12593,596;    1,167;   -1,500
929,704;12073,051;    2,439;   -0,500
930,259;12270,414;    0,894;   -0,136
930,814;11306,051;    1,803;    1,955
931,369;10955,414;    0,258;   -0,773
931,925;10849,960;   -1,924;    0,136
932,480;10722,778;    3,076;   -2,591
933,035;10573,051;    3,985;   -0,318
933,590;10287,414;   -1,742;   -1,773
934,145; 9952,232;   -1,288;   -0,318
934,700;10316,778;    0,348;   -0,591
935,255;10088,596;    4,803;    0,045
935,809; 9254,505;    6,258;    0,864
936,364; 8365,778;    2,167;   -0,136
936,919; 8308,323;    2,348;   -1,773
937,474; 8180,869;    1,348;    0,136
938,028; 7922,323;    3,076;    1,136
938,583; 7303,505;    6,348;    4,682
939,138; 7628,323;    0,167;    2,136
939,692; 7025,960;   -1,015;   -1,136
940,247; 6658,778;    1,167;   -1,045
940,801; 6178,778;    0,621;    0,227
941,355; 6056,778;    0,439;    2,591
941,910; 5707,778;    0,712;   -2,136
942,464; 5795,232;    2,712;   -0,318
943,018; 5544,505;    3,258;   -0,227
943,572; 5478,687;    2,803;   -0,682
944,126; 4829,414;   -0,924;   -0,409
944,681; 4687,505;    0,712;    0,227
945,235; 4700,778;    2,167;   -0,591
945,789; 4646,323;    1,258;   -1,864
946,342; 4710,232;   -0,561;   -0,591
946,896; 4541,141;    0,348;    0,955
947,450; 4283,596;   -0,561;   -0,227
948,004; 4448,051;    1,076;   -0,045
948,558; 4495,323;    1,258;   -0,864
949,111; 4389,232;   -1,197;   -0,318
949,665; 4405,687;   -0,106;   -0,682
950,219; 4265,051;    0,621;   -1,045
950,772; 4345,505;    0,258;    1,864
951,326; 4263,596;   -1,106;   -0,955
951,879; 4362,869;    1,076;   -2,318
952,433; 4387,960;    1,348;    2,227
952,986; 4221,051;    0,348;    0,682
953,539; 4168,778;    1,530;    0,591
954,093; 4111,232;    0,985;   -1,318
954,646; 4229,778;   -0,288;    1,318
955,199; 4039,778;    1,258;   -0,500
955,752; 3883,414;    1,985;    1,773
956,305; 3846,778;    0,894;    2,955
956,858; 4010,778;    0,621;   -0,318
957,411; 4225,505;    3,621;    2,136
957,964; 4030,141;    2,076;    2,136
958,517; 4015,232;    0,985;    3,136
959,070; 3847,232;   -1,197;    1,955
959,623; 3907,232;    1,076;    1,500
960,176; 3640,232;    0,712;    2,045
960,728; 3620,141;    1,712;    0,773
961,281; 3703,232;    2,258;    0,500
961,834; 3732,960;   -0,833;    0,864
962,386; 3650,141;    1,258;    1,045
962,939; 3571,232;    3,439;   -0,318
963,491; 3741,778;    2,621;    1,136
964,043; 3604,414;    0,076;    2,409
964,596; 3719,414;    1,712;    2,227
965,148; 3527,414;   -0,379;    1,773
965,700; 3460,869;   -0,015;   -0,227
966,253; 3642,051;   -0,833;    0,318
966,805; 3459,141;    1,894;    0,773
967,357; 3497,232;    0,439;   -1,500
967,909; 3421,414;    1,167;   -1,227
968,461; 3581,323;    0,894;    3,136
969,013; 3503,687;   -1,561;   -0,864
969,565; 3586,323;    1,803;   -1,136
970,117; 3601,596;    3,803;    1,045
970,669; 3448,687;    3,258;   -0,136
971,220; 3347,960;    2,167;   -1,500
971,772; 3245,505;    1,348;   -0,318
972,324; 3353,232;   -1,197;   -0,500
972,876; 3321,960;    0,167;   -0,045
973,427; 3446,051;   -1,197;   -1,045
973,979; 3397,323;    0,076;   -2,500
974,530; 3464,141;    0,803;    1,318
975,082; 3490,051;    2,167;    1,682
975,633; 3368,778;    2,894;    1,682
976,184; 3521,414;    2,076;    0,773
976,736; 3292,141;    0,348;    0,227
977,287; 3049,869;    0,258;   -0,500
977,838; 3259,505;   -0,924;   -0,318
978,389; 3320,778;    0,803;   -0,500
978,940; 3183,778;    1,258;   -0,409
979,491; 3228,869;    2,258;   -0,500
980,042; 3147,051;   -0,652;    3,045
980,593; 3224,141;    1,894;    0,227
981,144; 3263,414;    3,530;   -0,500
981,695; 3215,505;   -0,470;    1,500
982,246; 3199,323;   -1,833;    1,045
982,797; 3394,687;   -0,561;    0,682
983,347; 3506,687;    2,167;    0,591
983,898; 3628,141;    4,167;    0,409
984,449; 3447,323;    2,530;    0,773
984,999; 3368,869;    1,894;   -1,136
985,550; 3122,414;    3,167;   -0,318
986,100; 3186,505;    0,712;   -0,318
986,651; 3225,323;    0,258;    0,045
987,201; 3200,505;    0,894;   -0,591
987,751; 3276,414;   -0,288;    2,864
988,302; 3268,323;   -0,379;    1,500
988,852; 3292,960;    1,985;   -1,136
989,402; 3301,141;    0,985;    0,682
989,952; 3214,778;    1,621;    0,864
990,502; 3347,414;    1,076;    0,682
991,052; 3345,596;   -0,106;    0,045
991,602; 3178,596;    1,167;    1,318
992,152; 3140,505;    2,803;    0,682
992,702; 3125,232;    1,167;   -0,045
993,252; 3047,141;    0,076;   -0,500
993,802; 3135,960;    1,167;    1,318
994,352; 3419,141;   -0,742;    1,136
994,901; 3526,232;    1,076;    3,227
995,451; 3440,505;   -1,197;    0,318
996,000; 3495,687;    1,076;    0,318
996,550; 3186,869;    2,894;    0,227
997,100; 3205,960;   -0,561;   -0,045
997,649; 3511,141;   -0,197;    0,955
998,198; 3109,869;   -0,288;   -1,500
998,748; 3279,232;    0,348;   -2,318
999,297; 3205,687;    0,985;   -0,409
999,846; 3272,778;    1,894;   -0,773
1000,395; 3327,505;    1,530;    0,500
1000,945; 3256,051;    1,076;   -0,773
1001,494; 3342,051;    0,167;    0,682
1002,043; 3341,687;    0,712;    0,864
1002,592; 3191,051;    3,439;    1,955
1003,141; 3352,687;    2,439;   -0,682
1003,690; 3160,323;    1,258;    0,500
1004,238; 3247,778;   -0,106;   -0,045
1004,787; 2873,869;   -1,288;    1,227
1005,336; 3102,323;    1,621;    0,682
1005,885; 3275,232;   -0,197;   -2,773
1006,433; 3441,323;   -0,470;    0,955
1006,982; 3468,778;    2,167;    1,682
1007,531; 3397,960;    2,712;   -0,227
1008,079; 3362,414;    0,258;    0,500
1008,627; 3519,051;    1,621;    0,409
1009,176; 3236,414;    0,076;   -1,955
1009,724; 3278,232;   -2,742;    0,864
1010,273; 3310,778;    1,076;    0,500
1010,821; 3458,778;    1,076;    1,409
1011,369; 3173,505;    0,076;    1,318
1011,917; 3163,596;   -0,833;   -0,591
1012,465; 3458,687;    2,530;   -1,591
1013,013; 3573,960;    0,439;   -1,682
1013,561; 3420,414;   -1,288;   -0,773
1014,109; 3469,323;   -0,833;    1,682
1014,657; 3339,778;    1,348;    0,591
1015,205; 3486,869;    0,894;   -0,955
1015,753; 3518,141;    0,258;   -1,409
1016,301; 3557,051;    2,621;    3,045
1016,848; 3568,960;    2,167;    0,409
1017,396; 3602,869;    1,621;    0,045
1017,944; 3742,960;    2,621;    1,864
1018,491; 3489,141;   -0,197;    1,409
1019,039; 3598,869;   -0,652;    0,591
1019,586; 3534,869;    0,076;    1,682
1020,134; 3682,414;    0,712;    1,500
1020,681; 3649,141;    2,894;   -1,136
1021,228; 3688,596;   -0,561;   -2,227
1021,776; 3524,960;   -0,833;   -1,136
1022,323; 3725,232;    0,803;    0,773
1022,870; 3680,414;   -0,470;   -0,045
1023,417; 3544,687;    2,076;    1,864
1023,964; 3737,505;    0,621;    1,227
1024,511; 3535,778;   -0,652;    0,773
1025,058; 3315,778;    0,439;   -0,045
1025,605; 3384,323;   -1,742;    3,136
1026,152; 3582,596;   -0,106;   -0,591
1026,699; 3312,414;    0,167;    1,318
1027,245; 3505,687;    2,439;    0,318
1027,792; 3756,960;    0,712;    1,409
1028,339; 3606,141;    4,076;   -0,045
1028,885; 3453,778;    3,621;   -0,227
1029,432; 3371,960;   -0,106;    0,227
1029,978; 3420,141;    1,348;   -1,591
1030,525; 3329,051;    1,621;    0,409
1031,071; 3606,596;    0,348;    1,136
1031,618; 3680,051;    1,258;    1,682
1032,164; 3473,687;    2,076;    3,045
1032,710; 3515,687;    0,076;   -1,500
1033,256; 3458,323;    0,712;   -0,136
1033,803; 3450,505;   -0,288;    1,500
1034,349; 3170,687;    1,803;    0,136
1034,895; 3335,414;    2,621;   -0,318
1035,441; 3298,687;    0,439;    0,318
1035,987; 3299,232;   -2,288;   -0,682
1036,533; 3277,505;   -0,197;   -0,955
1037,078; 3474,596;    4,712;    1,682
1037,624; 3306,414;    2,439;   -0,955
1038,170; 3327,687;    1,712;   -0,318
1038,716; 3198,414;    2,167;   -0,409
1039,261; 3131,687;    2,167;   -0,773
1039,807; 3062,687;   -0,015;    3,409
1040,352; 3123,960;   -1,288;   -0,318
1040,898; 3183,232;    0,167;   -0,682
1041,443; 3109,505;    0,803;   -2,591
1041,989; 3104,960;    3,621;    1,591
1042,534; 2974,505;    0,985;    2,591
1043,079; 3129,505;    1,985;    0,955
1043,625; 2879,323;    0,258;    0,500
1044,170; 2907,778;    2,439;    1,045
1044,715; 3173,323;    0,167;    0,955
1045,260; 2995,869;   -0,833;   -0,955
1045,805; 3072,414;    0,258;   -0,591
1046,350; 3012,323;    0,530;   -0,409
1046,895; 2932,051;    0,803;    1,591
1047,440; 2856,141;    1,530;    0,409
1047,985; 2782,141;   -1,197;   -0,955
1048,530; 2702,687;    1,348;    1,227
1049,074; 2751,778;    2,803;    0,318
1049,619; 2735,051;   -0,924;    1,955
1050,164; 2532,505;    1,076;    0,227
1050,708; 2568,232;    2,621;    0,045
1051,253; 2914,051;    3,258;   -2,227
1051,797; 2632,141;   -0,197;   -1,318
1052,342; 2664,687;    1,348;    1,045
1052,886; 2654,414;    1,803;   -1,409
1053,430; 2548,141;    2,167;    0,136
1053,975; 2551,687;    0,894;   -0,318
1054,519; 2529,869;    1,803;    3,227
1055,063; 2527,323;    3,621;    1,318
1055,607; 2393,141;    1,348;    0,227
1056,151; 2427,596;    0,530;    1,682
1056,695; 2361,960;   -1,833;   -1,136
1057,239; 2424,960;   -1,197;   -0,682
1057,783; 2403,687;    2,258;   -1,500
1058,327; 2346,687;    3,076;    1,409
1058,871; 2570,778;    3,985;    1,318
1059,415; 2264,869;   -0,561;   -0,045
1059,958; 2496,778;    2,985;    2,591
1060,502; 2253,232;    1,348;   -0,773
1061,046; 2171,687;    1,712;   -0,955
1061,589; 2141,323;    2,803;   -1,136
1062,133; 2018,960;    0,985;    1,864
1062,676; 1949,051;    1,439;    0,864
1063,220; 1951,960;    0,985;    0,500
1063,763; 1958,505;    2,985;    1,136
1064,306; 2040,778;    0,985;    1,864
1064,849; 1913,232;    2,076;    0,591
1065,393; 1925,051;    2,894;   -1,500
1065,936; 2068,141;    2,530;   -0,409
1066,479; 1956,778;    2,621;    1,318
1067,022; 1977,687;    1,894;   -0,227
1067,565; 1859,414;   -1,197;   -1,318
1068,108; 1905,232;    1,258;   -0,591
1068,651; 1877,051;   -2,470;    1,409
1069,194; 1795,778;   -1,106;   -1,682
1069,736; 1784,960;    3,803;    0,955
1070,279; 1765,141;   -1,652;   -0,500
1070,822; 1801,687;    1,530;   -0,318
1071,364; 1851,960;    0,530;    1,318
1071,907; 1692,778;    0,348;    3,227
1072,450; 1642,051;    0,258;   -0,045
1072,992; 1608,960;   -0,561;    3,136
1073,535; 1718,778;    0,167;    2,136
1074,077; 1520,778;    2,985;    2,045
1074,619; 1472,505;    0,985;    0,591
1075,161; 1507,051;   -0,561;    1,500
1075,704; 1691,051;    0,258;    1,227
1076,246; 1508,414;    1,530;    0,682
1076,788; 1431,051;   -1,015;    1,773
1077,330; 1524,596;   -2,106;    2,136
1077,872; 1467,505;   -1,924;    0,955
1078,414; 1673,323;    3,712;    0,773
1078,956; 1410,232;    0,167;   -0,227
1079,498; 1646,687;    0,439;    0,318
1080,040; 1354,323;    0,985;   -1,318
1080,581; 1314,051;    0,621;   -0,318
1081,123; 1256,051;   -0,106;   -0,773
1081,665; 1290,960;    3,803;   -0,955
1082,206; 1567,869;    3,258;   -0,500
1082,748; 1438,596;    3,258;    2,045
1083,289; 1349,960;    0,167;    1,318
1083,831; 1240,960;    0,258;    0,227
1084,372; 1246,505;    0,894;    0,591
1084,913; 1245,323;    3,348;    0,864
1085,455; 1234,232;    1,530;   -2,045
1085,996; 1189,051;    0,530;    0,136
1086,537; 1215,505;    0,985;    0,864
1087,078; 1257,051;    0,439;   -2,136
1087,619; 1282,778;   -1,652;    0,227
1088,160; 1201,232;    1,439;    1,318
1088,701; 1190,414;   -0,742;    0,682
1089,242; 1124,323;   -0,561;   -2,227
1089,783; 1213,414;   -0,561;    1,409
1090,324; 1181,960;   -0,833;    0,682
1090,865; 1056,232;   -1,924;   -0,409
1091,405; 1050,778;   -0,561;    2,227
1091,946; 1076,051;   -0,197;   -0,955
1092,487; 1007,505;   -1,288;   -1,409
1093,027; 1157,687;    1,803;   -1,500
1093,568; 1003,869;    2,258;    1,227
1094,108; 1085,323;    0,621;    1,773
1094,649; 1043,687;   -0,470;    0,136
1095,189;  984,960;    1,167;   -0,682
1095,729;  927,505;    0,712;    0,955
1096,269;  942,687;    1,258;   -0,955
1096,810; 1242,323;   -0,197;    0,500
1097,350; 1067,232;   -0,561;   -0,773
1097,890;  964,414;    2,985;    1,227
1098,430; 1194,414;    4,985;    2,864
1098,970; 1077,414;    1,894;    1,682
1099,510;  962,141;   -0,833;   -2,318
1100,050;  883,960;    0,258;   -1,591
1100,589;  846,232;    0,076;   -0,318
1101,129;  955,596;    0,894;   -0,955
1101,669; 1090,687;    2,803;    2,136
1102,209;  925,687;    1,530;    2,227
1102,748;  879,323;    3,439;    0,955
1103,288;  870,596;    0,712;   -1,227
1103,827;  894,960;    3,530;   -2,227
1104,367;  778,687;    1,712;   -2,409
1104,906;  743,051;   -1,015;   -1,136
1105,445;  814,869;    0,985;   -1,136
1105,985;  748,414;   -0,652;    1,500
1106,524;  793,051;    1,530;   -0,682
1107,063;  767,960;    1,167;    1,409
1107,602;  746,596;    1,894;   -1,500
1108,141;  663,869;    1,621;    1,500
1108,680;  756,232;    3,985;   -0,591
1109,219;  703,869;    0,167;   -0,500
1109,758;  707,778;    4,167;    0,682
1110,297;  680,960;   -1,106;   -0,682
1110,836;  627,869;    1,439;    0,955
1111,375;  786,323;    0,348;    0,409
1111,913;  791,778;    0,985;    0,773
1112,452;  730,414;    0,894;    0,136
1112,991;  620,414;    1,076;    1,955
1113,529;  577,596;    0,167;   -0,045
1114,068;  641,232;    0,439;    2,955
1114,606;  545,505;   -0,561;   -0,955
1115,144;  701,687;    1,530;    1,045
1115,683;  643,414;    1,985;    0,318
1116,221;  697,596;    2,076;   -0,864
1116,759;  603,141;    1,621;   -0,864
1117,297;  784,414;    1,621;    1,864
1117,836;  589,414;    1,985;   -1,227
1118,374;  598,687;    0,258;   -0,682
1118,912;  554,141;    0,439;    2,682
1119,450;  530,505;    0,985;    0,864
1119,988;  584,141;    3,348;    2,136
1120,525; 1037,051;    7,258;    3,318
1121,063;  731,141;    0,530;    1,864
1121,601;  533,505;    1,076;   -1,227
1122,139;  499,232;    1,076;   -2,045
1122,676;  692,869;   -1,652;    2,773
1123,214;  623,141;    0,712;    4,409
1123,751;  438,687;    0,621;    2,227
1124,289;  565,596;    0,894;   -0,409
1124,826;  444,960;   -0,379;    0,227
1125,364;  369,051;    0,712;   -0,955
1125,901;  557,051;    6,258;    1,227
1126,438;  642,778;    3,530;    0,955
1126,975;  386,414;    2,985;   -0,773
1127,513;  458,323;    2,621;    2,136
1128,050;  370,414;   -0,561;   -0,682
1128,587;  462,505;    1,348;   -0,227
1129,124;  502,778;   -0,015;    1,318
1129,661;  384,051;   -1,924;    0,227
1130,198;  540,323;    2,439;    0,773
1130,734;  481,778;   -0,379;    1,409
1131,271;  343,414;   -1,197;    0,864
1131,808;  507,323;    1,621;    3,045
1132,345;  373,414;    4,530;    0,318
1132,881;  259,232;   -0,561;   -1,864
1133,418;  392,960;    0,348;   -1,136
1133,954;  333,232;    0,712;   -2,682
1134,491;  397,869;    1,712;   -0,773
1135,027;  302,414;    2,167;    0,864
1135,564;  379,687;    1,439;    2,955
1136,100;  367,141;   -0,742;    2,136
1136,636;  276,869;   -1,015;   -1,045
1137,172;  351,596;    0,894;   -1,045
1137,708;  282,960;   -1,561;   -1,045
1138,245;  289,141;    0,803;   -1,227
1138,781;  248,960;    1,803;   -3,318
1139,317;  303,505;    1,894;   -1,409
1139,852;  286,687;    3,076;    0,136
1140,388;  401,414;    2,076;   -0,409
1140,924;  286,414;    1,076;   -2,227
1141,460;  230,687;   -0,288;    0,136
1141,996;  180,778;   -0,652;    2,682
1142,531;  224,778;    1,076;    3,318
1143,067;  426,323;    1,167;    1,045
1143,602;  472,141;    3,439;   -0,318
1144,138;  317,141;    0,803;    1,045
1144,673;  196,232;    1,621;    1,409
1145,209;  260,596;    2,894;   -0,318
1145,744;  180,323;    0,803;    0,864
1146,279;  315,687;    1,530;   -0,136
1146,815;  239,141;    1,530;   -2,682
1147,350;  268,414;   -0,924;    0,045
1147,885;  186,051;   -1,924;   -1,318
1148,420;  185,505;    2,439;    0,773
1148,955;  164,232;   -1,470;    1,864
1149,490;  195,505;   -1,106;   -1,591
1150,025;  180,687;   -1,106;   -1,773
1150,560;  282,051;   -0,288;   -0,955
1151,094;  247,869;    0,258;   -0,591
1151,629;  251,051;   -3,742;    0,864
1152,164;  181,960;   -1,288;    1,318
1152,698;  145,232;    1,258;   -0,136
1153,233;  105,414;   -1,379;   -0,682
1153,767;  148,869;   -0,288;   -2,318
1154,302;  199,778;   -0,379;    1,773
1154,836;  194,505;    0,803;   -2,136
1155,371;  243,869;    2,258;    3,682
1155,905;  201,141;    1,985;    1,682
1156,439;  168,687;    0,530;   -0,500
1156,973;  199,687;    0,439;    0,318
1157,507;  150,596;   -1,742;    0,682
1158,042;  165,687;   -0,652;    1,045
1158,576;  209,323;   -0,561;    1,773
1159,110;  195,778;    0,076;    2,409
1159,643;  174,232;   -2,470;   -0,045
1160,177;  113,869;   -2,015;    1,500

