
Integration time [ms]:   0,050
Averaging Nr. [scans]: 11
Smoothing Nr. [pixels]: 0
Data measured with spectrometer [name]: 7318044SP
Wave   ;Sample   ;Dark     ;Reference
[nm]   ;[counts] ;[counts] ;[counts] 

186,757;  -32,084;   38,161;    1,318
187,357;   -1,163;   26,706;    0,955
187,958;  -20,179;   17,252;   -1,591
188,558;   16,726;   12,979;   -1,227
189,159;  -14,151;   10,070;   -4,500
189,759;  -25,096;    5,797;   -3,591
190,360;  -28,577;    6,797;   -2,136
190,960;  -14,761;    5,706;   -4,136
191,560;   -2,859;    2,614;   -6,591
192,161;  178,245;    5,885;   -3,500
192,761;   56,548;    5,520;   -3,227
193,361;    4,592;    3,065;   -3,773
193,962;   44,075;    1,612;   -2,682
194,562;   -2,843;   -0,114;   -3,955
195,162;    2,860;   -0,567;   -2,227
195,762;  105,225;    2,433;   -0,045
196,362;   63,002;    1,706;   -2,500
196,963;   -8,897;    1,706;   -0,864
197,563;   21,184;    1,252;   -0,955
198,163;  -16,640;   -0,111;   -0,682
198,763;   -4,678;   -0,020;   -0,500
199,363;   34,939;    3,616;   -0,500
199,963;   14,524;    2,162;    0,409
200,563;    1,609;    6,344;   -1,409
201,163;  -11,566;    5,435;   -0,227
201,763;   11,050;    1,435;    0,318
202,363;  -12,127;    0,980;    1,500
202,963;   12,730;    1,526;    1,045
203,563;   55,171;    0,344;    0,500
204,162;    5,187;    1,889;   -1,864
204,762;   -1,546;    2,071;    0,591
205,362;  -20,647;    0,708;    1,955
205,962;    3,066;    3,435;    1,955
206,562;    1,984;    1,889;    2,318
207,161;  -11,896;    1,708;    0,318
207,761;   58,743;    4,435;    2,409
208,361;    3,286;    1,889;    1,409
208,960;   15,572;    2,889;    1,500
209,560;    8,558;    0,435;    1,591
210,160;   12,318;    5,071;    1,864
210,759;   -2,418;    0,708;    1,227
211,359;   -8,744;   -0,474;    1,045
211,958;   82,694;    3,526;    2,045
212,558;   84,942;    0,799;    1,864
213,157;   24,905;   -0,929;    1,500
213,757;  144,098;    5,617;   -0,227
214,356;   46,155;    1,708;   -0,409
214,956;  127,823;    3,526;    0,409
215,555;   31,210;    0,617;    2,136
216,154;    4,423;   -0,292;   -0,591
216,754;    3,779;    1,253;    0,773
217,353;   12,115;   -0,383;   -1,045
217,952;  -21,009;    2,072;    0,318
218,552;   25,541;    0,254;   -0,773
219,151;   -2,196;   -1,110;    0,955
219,750;   -8,419;    0,890;   -0,227
220,349;  -15,197;   -2,292;    1,045
220,948;   35,496;    1,163;    1,136
221,548;  -11,484;    0,617;    1,227
222,147;    2,255;   -1,292;   -0,409
222,746;   66,575;    1,254;   -0,955
223,345;   17,141;   -1,019;    0,500
223,944;   18,304;    1,163;    0,773
224,543;   19,160;    4,072;   -1,409
225,142;    7,100;    1,345;    0,136
225,741;   15,847;    1,163;    1,045
226,340;    6,626;    1,254;   -0,955
226,939;   50,792;    2,708;   -0,136
227,538;    4,139;    1,163;   -0,773
228,137;   54,909;    0,435;    0,864
228,735;   29,905;    0,435;    1,227
229,334;  -17,012;   -0,474;   -0,227
229,933;   60,241;    0,799;    0,591
230,532;   53,647;   -1,201;   -0,409
231,131;   79,009;    1,253;    0,318
231,729;   34,948;    1,163;   -2,318
232,328;   -1,096;    0,435;   -1,500
232,927;    5,317;    4,526;   -0,500
233,525;    7,793;    0,981;    0,045
234,124;   15,524;    1,890;   -1,591
234,723;   -5,261;    1,617;   -1,045
235,321;  -14,591;    1,163;    0,136
235,920;   -6,957;    2,526;   -1,227
236,518;   50,895;    1,072;    0,318
237,117;   -3,511;    2,890;   -0,227
237,715;   15,597;    1,163;   -0,500
238,314;   16,841;    1,708;   -2,318
238,912;   58,327;    0,526;   -1,409
239,510;   23,492;    1,162;   -1,227
240,109;   64,952;   -0,474;    3,773
240,707;   49,304;   -0,474;    1,227
241,305;   -8,544;   -0,383;    0,136
241,904;   28,274;   -0,292;   -2,045
242,502;   83,650;    3,253;   -0,227
243,100;   31,407;    3,344;   -0,955
243,698;   -7,576;    2,799;    1,682
244,297;   18,810;   -0,656;    0,682
244,895;   10,037;   -0,474;   -2,318
245,493;   68,228;    2,981;   -0,591
246,091;   75,453;    5,163;   -1,318
246,689;   33,176;    2,163;    0,591
247,287;   30,322;   -0,019;   -1,136
247,885;   11,223;   -1,019;    1,227
248,483;   -1,168;   -0,201;   -0,500
249,081;   36,360;    0,981;    1,591
249,679;   38,920;   -1,019;    1,682
250,277;   -4,806;   -2,292;    0,864
250,875;   37,593;    0,617;   -1,045
251,473;    7,434;   -0,019;    0,500
252,071;   39,923;   -0,383;    1,045
252,669;   12,031;   -1,565;    0,318
253,267;    0,080;    1,618;    0,773
253,864;    9,413;    0,617;    0,682
254,462;   52,665;    1,526;    1,591
255,060;   -8,810;    0,072;    1,318
255,658;  -10,332;   -3,292;   -0,136
256,255;    3,136;   -0,201;   -2,045
256,853;   25,859;    2,345;    1,409
257,451;    4,311;    1,981;    1,864
258,048;  145,472;    2,072;    1,864
258,646;   51,933;    0,436;   -1,045
259,243;   86,859;    2,981;    2,227
259,841;   40,640;    1,799;    0,318
260,438;   -3,441;    0,254;    0,864
261,036;   22,301;    0,617;    1,409
261,633;    1,949;    1,526;    2,227
262,231;   -6,858;   -0,110;   -0,045
262,828;   -9,092;   -0,383;    1,136
263,425;   -3,627;   -1,928;   -0,591
264,023;   -4,538;    1,436;    0,045
264,620;   34,289;    1,526;   -0,318
265,217;   70,854;    2,890;    3,136
265,815;    9,624;    2,527;    2,136
266,412;   26,316;    0,072;    0,136
267,009;   23,943;    0,526;    0,773
267,606;   52,388;    0,345;   -0,955
268,203;    8,349;   -0,383;   -0,591
268,801;    8,241;   -0,474;    0,591
269,398;   -5,279;   -0,564;    2,500
269,995;   17,181;    0,890;    1,591
270,592;   11,383;    0,799;   -0,500
271,189;  -12,884;    1,981;    0,409
271,786;  -18,864;    2,072;    1,227
272,383;   36,491;   -0,383;    0,227
272,980;    5,193;    1,617;    0,318
273,577;   -6,393;    2,162;    1,227
274,174;   -8,891;    1,435;    2,591
274,771;   25,031;    1,890;   -0,773
275,367;  164,421;    3,253;    1,409
275,964;   68,443;   -0,565;   -0,500
276,561;    4,771;   -2,474;   -1,045
277,158;  -14,898;    1,799;   -1,773
277,755;   59,632;   -0,110;    0,409
278,351;   34,929;    0,436;   -1,500
278,948;   40,233;   -0,201;    0,045
279,545;   18,761;    0,527;    2,318
280,141;   54,749;    1,254;   -2,045
280,738;   71,478;    2,435;   -0,136
281,334;    9,267;   -0,383;    0,591
281,931;   -2,084;    2,890;   -1,318
282,528;   43,927;    4,072;   -0,500
283,124;   57,938;    3,345;   -0,500
283,721;   49,536;    0,709;    1,409
284,317;   17,529;    0,163;    2,500
284,913;   51,512;   -0,110;    0,591
285,510;  109,603;    2,890;   -0,318
286,106;   65,791;    2,345;   -0,955
286,703;   25,644;    0,072;    1,955
287,299;    5,913;    1,254;   -0,591
287,895;    3,139;    0,890;   -1,045
288,491;   -4,006;    0,163;    2,136
289,088;   22,635;    0,163;    2,409
289,684;   24,850;    2,890;    1,500
290,280;   73,646;    1,890;    0,682
290,876;   55,889;    0,163;    5,500
291,472;   43,952;    2,163;    2,227
292,068;   43,163;    1,254;    0,227
292,665;   12,367;   -0,564;    0,773
293,261;  -10,966;   -1,292;    2,136
293,857;   33,638;    4,072;    2,136
294,453;   12,419;   -0,928;    0,955
295,049;   75,711;    0,253;    1,955
295,644;   36,885;   -1,292;    0,136
296,240;   -9,943;    0,162;   -0,136
296,836;   20,057;   -0,747;    0,318
297,432;   43,379;    2,980;   -0,500
298,028;   52,442;    0,435;    0,773
298,624;   21,888;    0,889;    1,864
299,220;   12,910;    0,435;    0,591
299,815;    5,568;    0,526;   -0,409
300,411;   34,893;    0,435;    1,773
301,007;   54,612;    1,889;    0,227
301,602;    7,943;    2,071;   -2,318
302,198;   60,934;    1,435;   -0,773
302,794;   11,957;    1,526;   -0,500
303,389;  -11,121;    1,071;    1,045
303,985;   -2,414;    1,253;    1,409
304,580;   49,589;    0,889;    1,591
305,176;   19,316;    0,344;    0,136
305,771;  -29,888;   -0,929;   -1,227
306,367;  119,927;    3,071;    0,136
306,962;   38,670;    2,889;    1,500
307,558;   61,425;    2,435;    0,136
308,153;   40,866;   -0,383;   -1,136
308,748;   -1,554;    0,162;    1,682
309,344;  104,504;    0,253;   -1,318
309,939;   83,135;    2,071;   -1,318
310,534;   11,365;   -2,020;   -1,682
311,130;    9,331;   -0,656;   -2,500
311,725;   -2,727;    0,526;   -0,500
312,320;    7,829;    1,253;    0,045
312,915;   34,915;    2,890;   -1,045
313,510;  107,036;    0,526;   -0,500
314,105;   23,446;   -3,565;    1,409
314,700;  -10,248;   -1,656;   -1,045
315,295;    7,226;   -0,020;    0,045
315,890;    3,662;   -0,292;    0,864
316,485;   23,554;    0,253;   -0,318
317,080;   -7,049;   -0,929;    1,591
317,675;   99,469;    3,071;   -0,682
318,270;  192,046;    6,889;    3,318
318,865;  116,042;    2,435;    3,045
319,460;   63,911;   -1,565;    0,591
320,055;    7,428;   -2,565;   -1,227
320,650;    6,557;   -1,838;   -0,591
321,244;   11,084;    0,889;   -1,409
321,839;    6,764;    0,980;   -0,227
322,434;   17,010;   -0,111;   -1,591
323,029;    4,189;   -0,474;    1,591
323,623;    1,809;    0,798;    0,773
324,218;   74,887;    2,707;    1,409
324,812;   38,507;    0,889;    1,591
325,407;   29,093;   -0,929;    2,045
326,002;  101,070;    0,526;   -0,409
326,596;   60,376;   -0,656;    1,318
327,191;    9,958;   -0,383;   -1,045
327,785;   13,194;   -0,747;   -0,227
328,379;   -1,010;   -0,383;    0,136
328,974;   11,385;    1,798;   -3,955
329,568;   33,270;    2,889;   -2,409
330,163;   59,865;    2,435;    1,045
330,757;    8,807;    0,253;    1,591
331,351;  -13,933;   -0,292;    0,682
331,945;   -8,411;   -0,383;    1,409
332,540;   25,253;    1,617;   -0,591
333,134;   15,329;    3,344;    0,773
333,728;   26,494;    2,799;    0,318
334,322;   -7,987;    0,889;   -0,864
334,916;   -6,566;    0,344;    0,955
335,510;   41,272;   -0,111;   -0,136
336,105;   25,140;   -0,929;    1,591
336,699;   -6,008;   -1,292;    0,591
337,293;   13,576;    1,071;    0,318
337,887;   -1,685;    0,071;    1,955
338,481;   33,371;    2,980;    0,591
339,074;   75,248;    2,071;    2,682
339,668;   58,287;   -0,110;    1,227
340,262;  295,911;    7,708;    3,227
340,856;  115,170;    1,708;   -0,682
341,450;    7,085;    0,708;    1,864
342,044;   27,394;    1,799;    0,136
342,637;   61,588;    1,162;   -2,136
343,231;   17,647;   -1,474;    0,682
343,825;   14,806;   -0,747;   -0,591
344,419;   16,614;   -0,474;    0,500
345,012;  234,154;    2,889;    4,045
345,606;  126,734;   -0,656;    1,591
346,199;   13,440;   -0,111;   -0,227
346,793;   56,479;    2,525;    2,045
347,386;    7,016;    0,889;   -1,136
347,980;  -18,448;   -0,838;   -0,045
348,573;    6,273;   -1,748;    0,409
349,167;  148,076;    6,161;    4,773
349,760;   66,025;    2,252;    2,682
350,354;   50,955;    1,616;    1,136
350,947;   58,255;    2,798;    1,682
351,540;   28,915;    0,616;   -1,409
352,134;  -10,398;   -1,111;    1,136
352,727;   -8,650;   -0,657;    1,136
353,320;    2,655;    2,343;    0,591
353,913;  -24,016;   -1,929;    1,864
354,507;   47,550;    0,434;   -1,227
355,100;    6,707;    0,071;    0,864
355,693;  198,191;    4,798;    2,409
356,286;   75,507;    0,980;    2,773
356,879;   16,670;   -0,475;    1,227
357,472;   14,896;    0,980;    1,500
358,065;   26,980;    3,161;    2,500
358,658;  -15,061;    0,798;    2,318
359,251;  -16,326;    0,252;   -0,591
359,844;   44,332;    0,343;   -1,136
360,437;   63,047;    0,252;    0,045
361,030;    5,188;    0,525;   -0,682
361,623;   11,291;    0,434;    0,318
362,215;  115,090;    0,979;    2,045
362,808;   26,842;   -2,293;   -1,682
363,401;    7,953;    0,798;    0,136
363,994;  102,703;    3,252;   -1,500
364,586;   27,888;    0,888;   -1,500
365,179;    7,482;   -0,203;   -1,136
365,772;  -34,634;   -0,930;    2,045
366,364;    3,192;    1,524;   -3,227
366,957;   24,912;    1,342;   -0,045
367,549;    9,167;   -0,203;   -0,864
368,142;   18,974;    0,978;   -1,500
368,734;    5,618;    2,523;   -2,136
369,327;  -19,732;    2,341;   -0,500
369,919;   -6,445;   -1,659;    0,409
370,512;    5,844;   -1,023;   -0,500
371,104;  153,096;    2,704;    1,591
371,696;  159,709;    1,703;   -0,955
372,289;   74,510;    0,157;    1,136
372,881;   48,742;    1,156;    1,318
373,473;   -8,367;    4,064;    1,136
374,066;   35,828;    1,336;    0,500
374,658;   23,075;    0,879;    1,136
375,250;  -20,543;   -1,668;   -1,409
375,842;   -5,916;   -0,124;   -0,045
376,434;  -36,289;   -2,762;   -0,409
377,026;  -37,835;   -1,855;   -2,500
377,618;   -6,486;    0,779;   -0,682
378,210;  -64,563;    3,141;   -1,955
378,802;  -68,247;    3,412;   -0,591
379,394;  253,429;    3,411;    0,682
379,986;   41,813;    1,138;   -0,955
380,578;  -31,515;    1,410;    0,773
381,170;  179,642;    0,320;    0,045
381,762;   93,444;   -0,224;    1,409
382,354;   69,463;   -0,223;   -1,318
382,945;    6,436;    0,870;    0,318
383,537;  -27,723;    1,144;   -1,955
384,129;  -26,058;    0,963;   -1,136
384,721;   74,871;    0,418;    0,955
385,312;   27,426;   -1,399;   -0,955
385,904;   80,908;   -0,945;    1,591
386,496;   15,041;    0,691;    1,045
387,087;  128,700;    0,418;    2,500
387,679;   59,490;   -0,401;    0,045
388,270;   34,032;   -2,401;    2,045
388,862;   18,220;   -0,401;   -0,318
389,453;    5,088;    1,054;    1,045
390,045;    7,602;    3,236;   -2,682
390,636;  -79,449;    0,144;   -0,591
391,227;  -31,764;    2,054;   -0,045
391,819;  -43,967;    0,781;    0,773
392,410;  164,736;    0,600;    0,045
393,001;    5,968;    1,600;   -1,591
393,593;   50,788;    0,600;   -0,045
394,184;   84,794;    0,873;   -0,409
394,775;  -12,079;    1,146;    2,136
395,366;  -68,804;    1,782;    0,773
395,957;   60,685;   -2,400;    0,136
396,548;  -17,300;    1,054;    2,682
397,139;   68,173;    2,236;    0,591
397,730;   -2,753;    0,873;    0,955
398,321;   13,709;    0,509;    0,955
398,912;  -31,772;   -0,764;    0,136
399,503;  -39,748;   -1,945;   -1,409
400,094;    3,622;   -1,582;    1,682
400,685;   -6,366;    3,600;    0,045
401,276;  -40,763;   -0,400;   -0,955
401,867;  -47,230;   -1,127;    0,773
402,458;  -89,257;    1,509;   -2,318
403,048;   12,526;    0,146;    0,591
403,639;  -28,874;    1,509;    0,864
404,230;   64,929;    0,691;    0,318
404,821;  121,434;   -0,127;    0,045
405,411;   38,812;   -0,763;   -2,591
406,002;  -30,707;    3,237;   -1,136
406,592;  153,213;    2,691;    0,045
407,183;   42,562;    0,328;   -1,500
407,774;   29,114;    1,419;   -0,136
408,364;  -17,046;    2,600;    0,409
408,954;   81,331;   -0,036;    1,227
409,545;   84,774;    1,873;    1,045
410,135;   45,343;   -1,581;    0,500
410,726;   -0,875;    0,783;    0,318
411,316;  152,219;    2,237;    0,773
411,906;   22,795;    0,146;   -0,409
412,497;   19,857;   -0,490;   -0,045
413,087;  -15,708;    0,783;   -0,227
413,677;  -60,025;   -2,490;    3,864
414,267;  -69,255;   -1,035;    1,409
414,857;  -92,957;    0,419;    4,227
415,448;  -81,656;   -0,763;    0,500
416,038;  -58,785;   -2,945;   -0,591
416,628;  -24,583;    0,965;    0,409
417,218;   24,534;   -1,762;    3,318
417,808;  149,286;    0,965;   -0,409
418,398;   49,504;   -1,035;    2,682
418,988;  -52,417;   -2,217;    0,591
419,578;   24,423;    3,601;    1,409
420,168;  -27,379;    0,692;   -0,955
420,757;   83,194;    0,964;   -1,500
421,347;    2,674;    1,601;   -0,227
421,937;  -27,671;    3,329;    1,409
422,527;   90,474;    2,602;   -0,773
423,116;  207,077;    2,692;   -0,045
423,706;  -21,629;    2,965;    0,318
424,296;  -57,728;    1,601;    0,682
424,885;   43,090;    1,510;   -3,045
425,475;   16,333;    1,147;   -2,864
426,065;  -62,007;   -1,489;   -0,318
426,654;  -76,412;    0,329;   -0,318
427,244;  140,654;    1,147;    1,409
427,833;  107,080;    1,056;   -0,500
428,423;    3,330;    0,147;    1,136
429,012;    4,259;    2,420;   -1,136
429,601;  106,166;    2,057;    0,136
430,191;   20,909;    2,511;    4,318
430,780;  -55,603;   -1,671;   -0,409
431,369;   90,988;    1,329;   -0,045
431,959;    6,677;    1,693;    0,500
432,548;  -43,370;   -1,398;   -0,045
433,137;  -89,866;    0,329;   -1,318
433,726;  -29,449;    0,148;    0,500
434,315;  -10,262;    0,148;    2,409
434,905;   60,480;    0,693;    1,409
435,494;   55,338;    3,148;    0,955
436,083;  -40,187;    1,420;   -0,955
436,672;   45,408;    1,148;    0,500
437,261;    3,557;    0,512;   -1,955
437,850;  186,575;   -1,125;    0,682
438,439;  237,241;    2,239;    1,955
439,027;  343,001;    3,421;    1,773
439,616;  254,024;    2,239;    1,227
440,205;   58,460;    0,057;   -2,136
440,794;   28,135;   -0,306;   -0,045
441,383;  -26,339;    1,603;   -0,591
441,971;  -49,447;   -0,306;    0,591
442,560;  -40,589;    0,603;   -1,773
443,149; -116,401;    3,060;   -1,318
443,737;  -79,791;    0,968;   -2,318
444,326;  -62,850;    0,331;    0,318
444,915;  -19,929;   -1,851;    0,864
445,503;  -11,065;    0,058;   -0,318
446,092;  217,422;    7,876;    2,136
446,680;  155,665;    1,876;    0,318
447,269;   63,580;   -1,487;   -0,318
447,857;   49,298;    2,240;   -1,773
448,445;   13,086;    2,149;    1,318
449,034;  -28,544;    0,876;   -1,136
449,622;  -16,085;    1,240;    3,500
450,210;  205,273;    3,149;    2,227
450,799;  136,120;    2,604;   -0,591
451,387;   98,639;    1,786;   -0,591
451,975;   94,230;   -1,305;    0,864
452,563;  151,307;    0,422;    2,318
453,151;    6,880;   -1,032;   -1,227
453,739;   39,290;   -1,577;    0,136
454,328;  128,023;    0,604;   -2,136
454,916;   68,666;    1,150;   -0,136
455,504;   83,908;    3,513;    1,227
456,092;  -12,477;    2,150;   -1,591
456,679;  -39,314;    0,604;    0,682
457,267;  336,859;    3,604;    1,045
457,855;   51,512;    3,241;    1,409
458,443;  -63,298;   -0,304;    1,682
459,031;   55,822;    1,332;    2,409
459,619;   26,646;   -3,577;    2,864
460,206;  -50,649;   -0,759;    2,045
460,794;  -48,923;   -0,668;   -0,227
461,382;  -13,041;    0,878;   -0,864
461,970;  -10,650;    0,605;    1,864
462,557;  -65,536;    0,878;   -0,682
463,145;   24,115;   -0,304;   -1,682
463,732;  240,246;    2,514;   -1,045
464,320;   47,376;    1,514;   -3,045
464,907;  159,398;    0,423;   -0,773
465,495;   78,927;    2,696;   -1,227
466,082;   12,032;    2,060;   -0,045
466,670;   35,321;    2,605;    1,227
467,257;  -49,456;    0,060;    2,045
467,844;   40,340;    1,514;    0,045
468,432;   11,479;   -0,031;    3,500
469,019;  -19,620;    1,606;   -1,773
469,606;   58,374;    0,969;    3,682
470,193;   81,944;    2,151;    0,227
470,780;   40,157;    0,333;    0,864
471,368;  -14,646;   -1,212;   -0,773
471,955;   69,953;    1,060;   -0,682
472,542;   35,546;   -0,303;   -1,136
473,129;  -55,599;   -0,485;    0,136
473,716;  -50,932;    0,060;    0,591
474,303;  -14,288;    1,333;   -0,864
474,890;  -14,609;    2,333;   -0,500
475,477;   70,958;   -0,576;    0,409
476,064;   -5,741;    0,697;   -1,591
476,650;   96,334;    2,152;    0,318
477,237;   11,516;    1,879;    0,955
477,824;   -3,791;    3,879;    0,864
478,411;  -78,262;    0,606;   -0,318
478,997;  -82,168;    0,606;   -0,773
479,584; -109,258;   -0,666;   -0,409
480,171;   33,147;    1,243;   -0,773
480,757;   77,744;   -0,848;    0,773
481,344;  -14,331;    0,334;    0,409
481,931;  -92,667;   -0,393;    1,045
482,517;   17,376;    0,425;    0,318
483,104;   94,165;    1,334;    2,864
483,690;  -17,914;    0,243;    0,045
484,276;  -47,065;    0,698;    0,227
484,863;  141,700;    2,152;    1,136
485,449;    9,191;    0,152;    0,318
486,035;  -36,488;   -0,666;   -0,136
486,622;   41,062;   -2,393;    0,045
487,208;  -30,821;    1,334;    1,500
487,794;  -88,803;    0,971;    0,318
488,380;  -82,861;    0,698;   -1,409
488,967;  -77,246;   -1,120;   -0,409
489,553;  -65,098;   -1,029;   -1,409
490,139;   -5,849;    0,971;    0,773
490,725;  -58,101;    0,789;   -0,227
491,311;  -19,881;    1,516;    3,045
491,897;  -44,687;   -0,665;    1,500
492,483;  -33,077;    0,426;    1,227
493,069;  361,207;    5,426;    0,864
493,655;  102,862;    1,789;    0,682
494,241;  -11,554;    1,517;   -0,955
494,826;   -4,012;    0,335;   -1,045
495,412;   50,293;    0,335;   -0,682
495,998;  -25,225;    0,971;   -0,318
496,584;   15,026;    2,244;    1,045
497,169;   32,676;    2,335;   -0,682
497,755;  -20,663;    1,244;    1,227
498,341;   91,762;    2,153;    0,318
498,926;  195,615;    2,881;    1,955
499,512;  -26,393;   -0,028;    2,955
500,097;  -29,078;   -0,574;   -0,318
500,683;  -10,764;   -0,028;    2,136
501,268;  -45,451;    1,881;   -0,955
501,854;  -11,888;   -0,119;    1,227
502,439;  -21,137;   -0,573;   -1,773
503,024;  -18,160;    1,608;    0,500
503,610;   -3,959;    1,335;   -0,682
504,195;  -33,973;    1,245;    1,955
504,780;   40,838;    2,335;    1,227
505,366;  109,541;    4,063;    2,864
505,951;   44,934;   -1,119;    1,045
506,536;  -16,514;    1,427;   -3,682
507,121;   29,378;    1,699;   -0,318
507,706;   -2,337;   -0,392;    1,045
508,291;  -47,607;   -2,937;    1,136
508,876;  -45,986;   -0,482;    2,591
509,461;  -18,073;    1,427;   -0,773
510,046;   13,670;   -0,391;    0,318
510,631;   28,327;   -0,119;   -0,773
511,216;  -36,465;   -0,664;   -0,500
511,801;    4,376;   -0,755;    2,591
512,386;   16,601;    0,972;    0,500
512,971;   24,989;    0,427;    0,955
513,555;   49,607;    1,154;   -1,500
514,140;   14,212;    1,336;   -3,136
514,725;  119,039;    1,791;   -1,136
515,309;   51,015;    1,064;    0,318
515,894;  -21,657;   -0,300;   -2,227
516,479;    0,293;    1,973;   -0,955
517,063;   -6,744;    0,882;    1,227
517,648;  -33,546;    0,155;   -1,136
518,232;  -55,768;   -1,300;   -1,409
518,817;   12,209;    1,337;    1,682
519,401;   89,789;    0,700;    0,591
519,985;   77,392;    2,700;    1,136
520,570;   -9,593;   -0,118;   -1,955
521,154;   51,524;    0,064;    0,591
521,738;  170,729;    1,064;    2,409
522,323;   67,317;   -0,390;    1,682
522,907;   88,504;    2,428;   -0,136
523,491;   51,061;    1,155;    0,955
524,075;   51,583;    0,428;    0,591
524,659;  253,091;    0,973;    0,591
525,243;  244,321;    0,883;    0,409
525,827;  236,647;    0,883;   -0,045
526,411;  302,545;    1,155;   -0,136
526,995;  508,555;    0,337;    1,409
527,579;  665,616;    1,974;   -1,045
528,163;  702,349;    0,428;   -1,500
528,747;  987,147;    1,065;   -0,773
529,331; 1084,431;    0,883;   -1,409
529,915; 1042,662;    2,338;    0,955
530,499; 1375,539;    0,247;    1,227
531,082; 1684,426;    1,065;    1,591
531,666; 1905,306;    0,520;    0,773
532,250; 2194,033;    0,428;    2,682
532,833; 2671,708;    0,610;    2,773
533,417; 2854,566;    1,247;    0,864
534,001; 3199,767;    0,429;   -0,318
534,584; 3838,703;    1,974;    0,500
535,168; 4097,149;    3,247;    1,409
535,751; 4670,614;    4,520;    0,045
536,334; 4673,833;    4,520;   -0,409
536,918; 5516,943;    1,974;    1,591
537,501; 5917,001;    1,520;    1,318
538,085; 6369,120;    1,702;    1,045
538,668; 6798,733;    0,883;    2,409
539,251; 7526,983;    3,156;    3,773
539,834; 7972,602;    0,156;    0,773
540,418; 8313,385;    3,247;    4,318
541,001; 8724,412;    2,702;    1,773
541,584; 9082,664;    1,429;    2,227
542,167; 9167,797;    0,702;    2,955
542,750; 9553,593;    0,793;   -0,773
543,333; 9498,879;    1,429;    2,136
543,916;10478,184;   -0,298;    2,500
544,499;11185,829;    2,520;    0,227
545,082;11480,810;    0,248;    3,591
545,665;11905,900;   -0,207;    1,500
546,248;12391,606;    0,520;   -0,318
546,830;12334,826;   -1,752;    1,955
547,413;12946,344;    0,157;   -0,773
547,996;13654,456;    0,157;    0,500
548,579;13607,131;   -0,843;    0,955
549,161;13604,475;    0,884;    2,682
549,744;13602,513;    0,612;    0,409
550,326;14244,430;    0,885;   -1,136
550,909;14191,092;    2,339;    0,591
551,492;14734,678;    0,521;    0,227
552,074;14654,702;   -0,024;   -1,318
552,657;15327,675;    2,430;    0,045
553,239;15269,423;   -3,024;   -0,773
553,821;15284,886;   -1,570;    1,045
554,404;14920,094;   -0,024;    1,136
554,986;15390,688;    2,248;    1,045
555,568;16044,800;    0,430;   -0,955
556,151;15406,594;    4,067;   -0,227
556,733;15678,486;   -1,388;   -0,864
557,315;16202,526;    4,703;    0,500
557,897;16047,205;    0,521;   -0,500
558,479;16270,245;    1,703;    1,318
559,061;16473,641;    1,067;   -0,864
559,643;16873,279;   -0,297;    0,045
560,225;17276,871;   -0,388;    2,864
560,807;17362,825;    0,340;    0,318
561,389;16944,909;   -1,206;    2,318
561,971;17644,065;   -0,660;    2,136
562,553;17550,495;    0,613;    1,591
563,135;17757,514;    1,249;    1,136
563,717;17417,388;    3,158;    1,136
564,298;18142,551;    3,976;   -0,045
564,880;17916,787;    0,340;   -1,409
565,462;18135,060;    1,977;    1,318
566,043;19284,320;   -0,933;    2,318
566,625;18865,316;    4,067;    1,227
567,207;18778,480;    0,704;    1,682
567,788;19889,319;   -0,114;    1,500
568,370;20723,663;   -1,841;   -0,500
568,951;20570,771;   -0,569;    0,227
569,533;21506,266;    0,977;   -0,500
570,114;22027,388;   -0,296;    0,682
570,695;22523,366;   -0,478;   -1,318
571,277;23000,325;   -0,205;   -1,682
571,858;23780,315;    2,704;   -1,136
572,439;24676,594;    0,795;   -1,045
573,021;24849,116;    0,432;   -2,773
573,602;25416,790;    1,795;    0,318
574,183;26339,357;   -0,114;    2,227
574,764;26496,313;    2,068;    0,409
575,345;27004,995;    0,250;   -0,136
575,926;27679,256;    2,704;    0,136
576,507;27753,695;    2,704;   -0,227
577,088;28812,936;    1,704;    1,682
577,669;28934,619;    1,704;    1,955
578,250;29678,812;   -0,750;   -1,045
578,831;30344,283;   -0,841;   -2,227
579,412;30638,141;   -1,205;    0,955
579,993;31649,030;    1,432;    0,227
580,573;31967,430;   -0,023;   -0,955
581,154;30907,291;    1,613;   -0,591
581,735;31820,310;    0,341;    0,773
582,315;31331,765;    0,523;    2,136
582,896;31747,495;   -1,750;    1,227
583,477;31260,230;    0,614;    1,227
584,057;31436,362;    1,159;    0,955
584,638;31751,667;   -2,750;    2,318
585,218;31777,809;    2,886;    2,682
585,799;31944,080;    1,977;   -0,227
586,379;31972,118;    1,250;    1,591
586,959;30865,966;    2,613;    0,318
587,540;30168,448;    0,432;    2,227
588,120;29672,595;   -1,113;   -0,045
588,700;28692,078;    2,977;    2,136
589,281;29069,639;    1,250;   -0,955
589,861;28986,241;   -0,296;   -1,682
590,441;28814,920;   -1,477;   -2,682
591,021;27793,117;    1,432;   -2,591
591,601;28096,393;    0,431;    0,500
592,181;28137,500;   -1,296;   -0,773
592,761;27477,925;    2,250;    1,409
593,341;27408,112;    1,522;    0,045
593,921;27367,995;   -0,569;    1,591
594,501;27272,634;    1,250;    1,318
595,081;27152,291;    0,522;   -0,318
595,661;27522,214;    1,068;    0,955
596,240;28068,061;   -1,023;    0,136
596,820;27677,652;    2,613;    1,955
597,400;27889,051;    1,977;    0,773
597,980;28169,878;   -0,750;    1,045
598,559;28177,221;    0,341;   -0,227
599,139;27894,791;   -0,750;   -1,227
599,718;27861,064;    0,795;   -0,409
600,298;28110,980;   -2,387;    0,682
600,877;28328,618;    4,795;    1,409
601,457;28651,299;    0,340;    1,136
602,036;28537,117;    1,795;    2,045
602,616;28750,783;    2,250;    1,682
603,195;29117,568;    0,431;    3,500
603,774;28618,924;   -0,296;    2,045
604,354;28511,719;    2,522;   -0,500
604,933;28018,017;    0,250;    1,864
605,512;28164,063;    2,340;    0,591
606,091;28255,689;    1,886;    3,773
606,671;29080,635;    0,249;    0,773
607,250;28119,734;    1,431;    3,136
607,829;28436,731;    1,158;    3,227
608,408;28339,104;    4,613;    2,591
608,987;27360,522;    2,704;    3,409
609,566;27668,673;    0,341;   -2,500
610,145;27790,870;    2,885;    0,682
610,723;28229,191;    1,613;    6,864
611,302;27452,212;    1,067;    1,682
611,881;26921,518;    5,158;   11,227
612,460;27776,044;    0,795;    3,955
613,039;28229,630;    1,703;    2,045
613,617;27005,052;    0,886;    4,773
614,196;27119,712;    1,613;    1,227
614,775;27505,954;    1,249;    2,409
615,353;27498,968;   -1,660;    0,864
615,932;27188,767;    0,249;    2,409
616,510;27783,495;    0,158;    0,591
617,089;27299,384;    8,794;   17,591
617,667;27046,134;    4,885;    6,136
618,246;26880,935;   -1,115;    1,318
618,824;27140,011;    1,612;   -0,955
619,402;26666,742;    0,431;   -1,773
619,981;27134,689;    1,067;   -1,045
620,559;27041,893;    0,794;    1,682
621,137;26569,249;    3,067;    1,864
621,715;26525,570;    3,703;   -0,682
622,293;26420,123;    1,885;   -0,773
622,871;26990,435;    0,340;    0,500
623,450;26528,977;    0,430;   -0,864
624,028;26452,466;   -0,388;   -0,955
624,606;26071,634;    2,339;    1,682
625,183;26425,272;   -0,661;   -1,136
625,761;26013,723;    1,885;    1,136
626,339;26403,078;    2,339;    2,591
626,917;26849,546;    0,339;   -0,045
627,495;26887,226;    2,794;    1,318
628,073;26331,014;    5,248;    2,864
628,650;26002,899;    3,067;    2,136
629,228;26461,174;    1,248;    4,409
629,806;25819,180;   -0,024;    1,136
630,383;26055,533;    0,066;   -0,318
630,961;25884,667;   -2,206;   -0,955
631,539;25579,221;   -2,479;    0,227
632,116;24882,030;   12,703;   15,409
632,694;25525,905;    4,885;    6,500
633,271;25806,351;    1,975;    2,682
633,848;25760,318;    1,430;    2,045
634,426;25826,278;    1,521;    1,773
635,003;24954,826;   -0,207;   -0,409
635,580;25234,537;    1,884;    3,682
636,158;25799,802;    3,793;    1,227
636,735;25782,201;    3,339;   -0,500
637,312;25885,125;    0,521;   -0,682
637,889;25995,590;    2,248;   -0,682
638,466;25517,149;    0,066;   -0,409
639,043;25546,789;    1,702;   -1,136
639,620;25848,117;    0,611;   -0,955
640,197;26164,757;    1,612;    1,682
640,774;26314,812;    1,430;    1,136
641,351;26726,959;    0,612;    1,136
641,928;26121,469;    2,794;    1,409
642,505;25741,797;    0,794;   -0,500
643,082;25923,125;    1,885;    1,227
643,658;24955,271;    1,157;    1,500
644,235;25691,600;   -2,479;    2,500
644,812;25937,473;    1,794;    0,773
645,388;25735,892;    1,612;    1,409
645,965;25816,675;    1,521;    1,682
646,542;25836,912;    3,430;   -0,227
647,118;25873,331;    3,703;   -0,955
647,695;26205,023;    0,339;    1,136
648,271;26139,533;   -2,115;    0,500
648,848;26444,225;    0,248;    2,227
649,424;26257,190;    0,976;    1,318
650,000;25971,245;   -0,388;   -1,045
650,577;25847,846;    0,158;   -0,955
651,153;26243,265;   -1,115;    0,955
651,729;27268,230;    0,521;    0,864
652,305;27512,649;    1,339;    2,773
652,881;32041,523;   -1,297;    1,136
653,458;39130,214;    0,249;    0,227
654,034;43139,997;    0,703;    1,591
654,610;44692,689;    0,339;    0,773
655,186;46000,472;    1,612;    3,045
655,762;45709,982;   -1,842;    0,409
656,338;45792,401;    0,703;    0,136
656,913;46945,456;   -0,297;    0,409
657,489;46203,057;    0,249;   -0,318
658,065;46143,385;    0,794;   -1,591
658,641;46688,168;    2,158;   -0,864
659,217;45915,951;    2,067;    0,409
659,792;45326,006;   -1,751;   -0,409
660,368;45630,607;   -0,388;   -0,682
660,944;45327,572;    1,794;    1,227
661,519;40667,446;    0,522;    0,409
662,095;34308,865;   -0,206;    0,591
662,670;29502,466;   -0,206;   -0,136
663,246;28340,339;   -0,660;   -0,409
663,821;27653,122;    0,431;    1,682
664,396;27158,632;    0,613;    1,864
664,972;27405,324;   -0,660;   -0,500
665,547;27700,834;    3,794;    0,136
666,122;27710,344;    1,340;    0,318
666,698;28010,763;    2,431;    0,318
667,273;27316,546;    0,885;    0,136
667,848;28189,965;    0,340;    1,500
668,423;27921,475;    1,795;    2,318
668,998;28503,712;    0,976;   -0,682
669,573;29033,677;    2,067;   -1,500
670,148;28824,096;    1,885;   -0,682
670,723;28661,424;   -0,024;    0,318
671,298;29147,661;   -1,296;    1,045
671,873;29208,262;   -0,296;   -0,136
672,448;29163,954;    1,704;    0,136
673,023;29553,373;    0,249;   -0,227
673,597;29822,701;    2,704;    2,318
674,172;29589,575;    2,431;    0,318
674,747;29175,267;   -0,205;   -1,045
675,321;28985,686;   -0,933;    3,318
675,896;28533,741;    2,158;    1,045
676,471;29531,615;    2,522;    1,591
677,045;29311,216;   -0,296;    0,682
677,620;29323,090;    2,158;    1,136
678,194;29731,509;    0,249;    1,136
678,769;29224,928;    0,886;   -0,318
679,343;29474,256;   -0,023;    1,773
679,917;29353,948;    0,340;    1,955
680,492;29438,731;    0,249;    3,227
681,066;29616,786;    0,613;    0,409
681,640;29623,933;    1,795;   -0,318
682,214;30441,806;    2,340;    0,500
682,788;29902,134;    0,613;   -0,773
683,363;29874,008;    1,977;    1,682
683,937;29608,700;    0,886;   -0,318
684,511;30350,119;   -1,023;   -0,591
685,085;30086,538;   -1,478;    0,318
685,659;29839,957;    1,431;    0,864
686,232;30092,195;    1,159;   -0,318
686,806;29858,886;    2,159;    0,409
687,380;30494,578;   -1,932;    0,591
687,954;30724,634;    2,432;    1,136
688,528;30362,235;    2,613;    1,955
689,101;31162,199;    0,432;    1,045
689,675;30773,073;    0,886;   -0,136
690,249;30111,037;    3,432;    0,409
690,822;30399,638;    1,159;    0,318
691,396;30522,603;    2,068;    1,227
691,969;29999,113;    2,523;    0,136
692,543;30530,259;   -0,568;   -1,955
693,116;30117,678;   -0,659;   -1,409
693,690;29920,461;   -0,296;    0,500
694,263;30503,244;    2,341;    2,955
694,836;30550,754;    2,795;    3,591
695,410;29144,446;    1,159;    1,773
695,983;29656,865;    1,614;    0,591
696,556;29628,193;   -0,750;   -1,045
697,129;30068,703;   -1,114;    1,409
697,703;29617,213;    1,341;    1,955
698,276;29645,178;    1,705;   -0,773
698,849;29457,324;   -1,023;    1,409
699,422;29830,561;    1,250;    0,591
699,995;29522,435;   -0,659;    0,136
700,568;30030,218;   -0,204;    3,045
701,140;29990,910;   -1,841;    1,682
701,713;29701,510;    0,341;    2,409
702,286;29477,020;    0,796;    0,864
702,859;29336,985;    0,614;   -0,591
703,432;28516,768;   -0,841;    0,682
704,004;29018,369;    1,978;    0,318
704,577;28852,424;    1,068;    0,136
705,150;29418,025;    0,887;    2,500
705,722;29219,262;    1,523;   -3,227
706,295;29024,318;    1,432;   -0,591
706,867;28856,919;    0,250;    1,955
707,440;29084,520;   -0,113;   -0,409
708,012;29304,484;   -0,022;    0,591
708,584;29271,358;    2,705;    0,227
709,157;29568,323;    1,160;   -0,591
709,729;29226,651;    1,069;    2,045
710,301;30120,343;   -1,204;    0,045
710,874;30085,671;    0,341;   -0,227
711,446;28943,181;   -0,295;    0,864
712,018;28881,418;   -3,022;    0,500
712,590;28609,474;   -0,204;    1,682
713,162;29156,802;   -0,477;    1,318
713,734;29382,948;    1,796;   -2,045
714,306;29270,458;    0,342;   -0,409
714,878;27932,786;   -0,295;    0,864
715,450;28811,933;   -0,113;    0,864
716,022;29035,988;    2,433;    1,318
716,593;29181,044;    0,978;    0,591
717,165;29146,008;    1,796;   -1,227
717,737;28806,609;    0,796;    0,409
718,309;28472,574;    1,160;   -0,045
718,880;28407,902;   -1,295;   -1,409
719,452;28701,594;    0,887;   -1,591
720,024;28200,286;    1,705;   -0,591
720,595;28756,341;    2,978;    0,955
721,167;28281,306;    1,160;   -2,045
721,738;27770,816;    2,069;   -1,045
722,309;27746,871;    1,251;   -1,227
722,881;27507,018;    2,705;    0,773
723,452;28241,800;    1,251;    2,864
724,023;28444,765;    1,524;    2,682
724,595;28219,638;    2,342;    0,682
725,166;27978,239;    1,524;   -0,409
725,737;27588,295;    1,887;    0,227
726,308;27690,350;    0,797;    0,318
726,879;28123,588;    1,069;    1,227
727,450;27983,643;   -2,022;   -0,045
728,021;27911,608;    1,069;    0,682
728,592;27697,390;    1,160;    0,500
729,163;28028,446;    1,433;   -0,136
729,734;28037,320;    2,160;   -0,227
730,305;28365,557;    0,615;    0,136
730,876;28733,794;    0,888;    2,955
731,447;28454,031;    0,797;    2,682
732,017;28549,723;   -0,840;    1,864
732,588;28102,597;   -0,021;    1,227
733,159;28252,016;    3,615;   -1,045
733,729;28060,071;    1,251;    0,409
734,300;27337,218;    0,160;    0,864
734,870;27716,182;   -1,385;    0,591
735,441;28266,602;    0,888;   -0,591
736,011;28080,475;    1,070;   -1,591
736,582;28030,894;    1,251;    0,045
737,152;27433,677;    0,979;   -2,045
737,722;27906,914;    1,070;   -0,682
738,293;27639,152;   -2,021;    1,318
738,863;27501,571;    1,797;    2,318
739,433;27337,444;    4,524;    0,318
740,003;28008,136;    1,524;   -0,682
740,573;27389,464;    2,252;   -1,591
741,143;27352,065;    3,615;    0,318
741,713;28083,575;    0,252;   -0,500
742,283;27793,176;    1,706;    1,591
742,853;27548,959;    0,524;    1,591
743,423;26996,833;    0,161;    0,045
743,993;27098,434;    1,070;    1,500
744,563;26481,944;    2,524;   -0,864
745,133;26428,454;   -0,112;   -0,864
745,702;27165,782;    2,797;    1,773
746,272;26292,928;    0,434;    0,591
746,842;26040,256;   -0,748;   -0,591
747,411;26523,585;   -0,839;   -0,318
747,981;26733,549;   -0,930;    0,500
748,551;26822,423;   -0,021;   -1,045
749,120;26666,569;   -0,112;   -0,227
749,690;27048,716;    2,161;    2,409
750,259;27313,953;    0,979;    2,955
750,828;27220,827;    4,070;   -1,955
751,398;27470,518;   -0,112;   -0,045
751,967;26900,938;    2,888;    0,409
752,536;27172,811;    1,161;   -0,227
753,105;27665,048;   -1,384;    0,227
753,675;27436,558;   -0,112;    1,773
754,244;27362,341;    0,888;    3,591
754,813;27393,579;    0,979;    1,227
755,382;26973,907;    0,798;    0,955
755,951;27518,417;   -0,112;    3,682
756,520;27065,927;    2,525;    1,864
757,089;27644,437;    1,888;    0,500
757,658;27776,492;    2,434;    1,227
758,227;27780,457;   -1,111;    0,318
758,795;28051,512;   -1,021;    1,136
759,364;28322,931;    0,525;   -0,591
759,933;27326,441;    1,343;   -0,045
760,501;26831,133;    0,252;   -1,318
761,070;27295,007;   -0,293;   -1,409
761,639;28020,335;    1,434;    1,318
762,207;27322,663;    0,889;   -0,955
762,776;27267,992;    2,889;    0,864
763,344;27219,411;    0,071;    0,591
763,913;26324,102;    1,616;    1,409
764,481;27084,431;    1,980;   -0,136
765,049;26854,304;    0,616;    1,409
765,618;26743,451;    1,434;    0,318
766,186;26868,052;    2,434;    0,136
766,754;27028,107;    1,798;    1,864
767,322;25974,617;    1,162;    0,409
767,890;26016,127;    0,525;   -1,773
768,459;26452,274;    2,616;   -0,318
769,027;26610,511;    2,525;    3,409
769,595;25642,566;    2,616;    2,591
770,163;25999,804;    3,344;    2,955
770,730;25740,859;    2,525;   -0,136
771,298;25646,096;    1,162;   -1,409
771,866;25729,697;    0,253;    4,955
772,434;26038,662;    1,162;   -1,864
773,002;26147,445;    2,616;    0,682
773,569;25813,045;    1,071;    1,682
774,137;25652,556;    0,889;   -0,045
774,705;26461,338;   -0,747;   -0,136
775,272;25924,848;    0,253;    0,682
775,840;25743,449;   -0,111;    2,682
776,407;25227,141;   -0,293;    1,955
776,975;24780,469;    1,162;    0,318
777,542;25841,161;    2,162;   -0,045
778,110;25699,944;    0,707;   -0,045
778,677;25356,999;    1,071;   -0,864
779,244;25095,327;   -1,020;    1,045
779,812;25232,201;    0,980;    0,864
780,379;25022,802;    2,435;    1,136
780,946;25309,676;    2,617;   -0,773
781,513;25654,549;   -0,565;    0,318
782,080;24929,696;    1,253;    2,864
782,647;25723,933;    1,708;    3,045
783,214;25344,170;   -0,201;    3,864
783,781;24898,680;    1,708;   -0,682
784,348;24775,736;    0,253;    1,500
784,915;25297,155;   -1,474;    0,318
785,482;25034,029;    2,708;    2,591
786,049;25468,357;    1,071;   -0,591
786,615;25574,140;    1,708;   -0,955
787,182;25312,377;   -3,201;   -0,682
787,749;25041,705;   -2,201;    1,409
788,315;24310,942;    0,253;   -0,409
788,882;24578,998;    0,981;   -1,227
789,448;25225,235;    1,435;   -0,955
790,015;25289,381;    1,799;    3,227
790,581;24844,073;    0,708;    0,227
791,148;24703,492;    1,344;    1,045
791,714;25014,912;   -1,019;    3,136
792,280;24710,603;    3,708;    1,591
792,847;24236,204;   -0,928;    2,500
793,413;24802,078;   -0,110;   -0,318
793,979;24330,224;    1,526;   -1,318
794,545;24424,280;    2,981;    2,682
795,111;23799,881;    2,435;    1,318
795,678;23964,754;    3,526;   -1,682
796,244;23599,173;    2,799;    0,136
796,810;24152,774;    0,799;    0,773
797,375;23903,284;   -0,292;   -2,136
797,941;23862,340;   -1,110;    0,591
798,507;23974,577;    0,254;   -0,955
799,073;23549,996;    2,708;    0,591
799,639;23623,870;    1,435;    3,136
800,205;23605,198;   -1,565;    2,682
800,770;23140,435;    1,345;    1,773
801,336;23250,945;    2,981;   -0,955
801,901;22939,365;    6,072;    3,136
802,467;23516,602;    0,526;    2,045
803,033;22852,021;   -0,019;    0,864
803,598;23017,167;    1,072;   -1,045
804,163;23112,223;    0,708;   -0,318
804,729;22974,733;   -0,110;    1,136
805,294;23420,516;    1,072;    2,227
805,859;23261,480;    0,890;   -0,409
806,425;22707,990;    3,890;    2,682
806,990;22369,591;    1,890;    4,318
807,555;22918,192;   -0,110;    2,591
808,120;22805,247;   -1,292;   -0,409
808,685;22818,303;    1,072;   -2,500
809,250;22318,722;    2,072;   -0,500
809,815;22644,687;   -0,201;    0,682
810,380;23147,469;    0,981;    1,591
810,945;23656,070;    2,890;    2,045
811,510;22876,035;   -0,200;    1,591
812,075;22590,181;    2,800;   -1,409
812,640;22618,328;    3,709;    1,409
813,204;22640,383;    2,163;   -0,227
813,769;23157,166;    0,254;   -0,045
814,334;22567,949;    0,527;    0,864
814,898;22625,459;    1,981;    0,591
815,463;22460,605;    0,981;   -0,773
816,027;22391,751;    1,345;   -2,318
816,592;22558,261;    2,163;   -2,045
817,156;22073,499;   -2,200;    1,136
817,721;21830,100;    0,982;    2,318
818,285;21795,973;    0,618;    1,500
818,849;22435,847;   -0,018;    1,682
819,414;22356,175;    0,073;    2,955
819,978;21910,503;   -0,291;    1,773
820,542;22472,559;    2,891;    0,500
821,106;22233,342;    2,800;    0,682
821,670;22326,306;    2,709;    2,591
822,234;22022,816;    1,073;    1,409
822,798;21374,872;   -0,836;    0,500
823,362;21354,836;    1,527;    4,227
823,926;20665,710;   -0,018;    1,136
824,490;20899,402;    3,527;   -0,682
825,054;21375,366;    2,527;   -1,136
825,618;21007,149;   -1,200;   -1,500
826,181;20929,023;    0,982;   -1,318
826,745;20794,714;   -0,745;   -1,045
827,309;21135,134;    2,255;    1,318
827,872;20538,916;    0,527;    0,955
828,436;21555,790;    1,982;   -0,773
828,999;21668,755;    2,436;    1,227
829,563;20468,901;   -0,654;    1,136
830,126;20292,502;   -0,018;   -0,591
830,690;20262,739;    0,709;    2,864
831,253;19796,340;   -0,473;    2,227
831,816;19935,941;   -0,018;    0,500
832,380;19831,724;    1,164;    0,864
832,943;20058,234;    3,073;   -0,500
833,506;19589,107;    0,255;   -1,227
834,069;20356,527;    2,164;   -0,955
834,632;20415,218;   -2,200;    1,318
835,195;20296,092;    1,346;    0,955
835,758;19514,057;    0,709;    1,955
836,321;19327,930;    1,073;   -1,045
836,884;19429,168;   -1,291;   -0,955
837,447;19450,405;    0,528;    1,773
838,010;19683,460;    1,800;    3,227
838,573;19998,152;    0,528;    0,773
839,135;19969,298;   -0,109;   -0,955
839,698;19399,081;    2,528;    0,409
840,261;18913,319;    0,255;   -0,227
840,823;18835,374;   -0,927;    0,864
841,386;19092,611;   -0,018;   -2,409
841,948;18959,758;    0,255;    1,773
842,511;18685,722;    0,255;    1,682
843,073;18818,869;    2,982;    0,227
843,636;18609,015;    0,619;   -0,227
844,198;18521,525;    1,255;    0,591
844,760;18678,671;    0,619;    1,955
845,322;18348,000;    0,164;    1,136
845,885;18751,691;   -0,290;    0,591
846,447;19142,929;    0,710;    0,227
847,009;18722,893;    3,983;   -0,682
847,571;19092,585;    1,346;   -2,045
848,133;19145,095;   -0,199;   -1,864
848,695;19003,332;    2,346;    1,409
849,257;18516,661;    1,346;   -1,682
849,819;18701,807;    2,983;   -0,409
850,381;18752,044;    1,801;   -0,864
850,942;19134,191;    1,892;   -0,591
851,504;19044,246;    0,983;    0,227
852,066;19092,574;    1,619;   -1,591
852,628;18672,903;    0,165;    1,955
853,189;18197,867;    0,256;    2,682
853,751;18333,014;   -0,654;    1,409
854,312;18179,342;    1,256;   -1,682
854,874;18729,306;   -0,108;   -0,773
855,435;19159,271;    0,528;   -1,682
855,997;19275,054;    3,983;   -0,136
856,558;18528,018;    0,801;    1,773
857,119;18704,437;   -0,744;    2,864
857,681;18388,402;   -0,108;    0,318
858,242;18382,912;    1,347;   -2,136
858,803;18820,785;    1,074;   -0,773
859,364;19392,659;    0,892;   -4,773
859,925;18724,806;   -0,290;   -0,955
860,486;18642,497;    0,529;   -0,955
861,047;18355,553;    0,165;   -1,227
861,608;18188,245;    0,165;   -0,773
862,169;18352,755;   -0,562;   -0,045
862,730;18116,992;   -0,290;    1,409
863,291;18325,593;    0,438;   -0,500
863,852;18634,194;   -0,926;    1,955
864,412;18118,340;   -1,835;   -0,864
864,973;16699,941;    1,892;    0,500
865,534;16537,997;    2,074;    0,227
866,094;18042,325;    2,620;    0,227
866,655;17699,017;    4,711;    3,318
867,215;18036,799;    0,074;    0,136
867,776;17835,673;   -1,199;   -0,136
868,336;17914,729;    1,529;    0,136
868,897;17367,239;    3,438;    1,682
869,457;17157,567;    3,256;    0,318
870,017;17421,804;    2,438;   -1,227
870,578;17932,769;    1,893;    0,773
871,138;17513,279;    2,620;   -0,955
871,698;17078,880;   -0,562;   -1,318
872,258;16955,208;    0,711;   -2,864
872,818;17323,990;    2,347;    0,045
873,378;17293,682;   -2,198;    1,045
873,938;16848,829;    4,984;    0,500
874,498;17195,702;    1,256;   -1,955
875,058;17117,758;    4,347;    1,773
875,618;16947,359;    1,438;   -2,682
876,177;16886,687;   -0,471;    0,136
876,737;16460,379;   -0,289;    1,955
877,297;16461,162;    2,711;    1,955
877,856;16476,035;    2,529;    0,318
878,416;16462,727;    2,438;   -0,136
878,976;16670,055;    3,438;    0,409
879,535;16886,383;    4,529;    3,136
880,095;16613,621;    1,347;    0,045
880,654;16706,585;    0,347;    1,318
881,213;16765,277;    2,347;    1,500
881,773;16451,878;    1,984;    2,682
882,332;16782,206;    6,075;    5,136
882,891;16651,534;    0,711;    2,136
883,451;17118,044;   -2,016;    1,682
884,010;16613,191;   -1,107;   -0,409
884,569;16658,337;   -2,289;   -0,045
885,128;16774,393;   -0,743;   -1,864
885,687;16818,994;   -0,743;    0,682
886,246;16533,867;    2,620;    2,136
886,805;16252,468;    1,620;    2,045
887,364;16591,251;    1,166;   -0,500
887,922;16967,852;   -0,016;    0,045
888,481;16480,271;    1,530;    0,591
889,040;16724,599;    3,711;    2,136
889,599;17402,291;    2,166;    1,409
890,157;17546,710;    2,166;    2,409
890,716;17169,857;    2,166;    0,227
891,274;16952,094;    0,075;   -1,136
891,833;17360,240;    1,166;    0,864
892,391;17244,568;    1,802;    0,500
892,950;17352,988;    0,166;   -0,773
893,508;17713,407;    0,984;   -0,409
894,067;17075,189;   -0,379;    0,136
894,625;16966,427;   -1,016;   -1,500
895,183;17192,209;   -0,198;   -0,682
895,741;17109,265;    2,257;   -1,773
896,299;16905,320;    1,621;   -2,409
896,858;17080,285;    1,530;   -1,591
897,416;17207,159;    0,166;   -1,318
897,974;17012,941;   -2,197;    0,318
898,532;17104,542;    6,530;    2,682
899,089;17020,507;    0,621;   -0,682
899,647;17085,471;    0,530;    1,318
900,205;16827,163;    0,257;    1,045
900,763;17019,582;    2,166;    0,227
901,321;17035,638;    3,530;   -1,409
901,878;16463,148;    3,257;   -0,773
902,436;16282,840;    0,257;    1,318
902,994;16676,168;    6,712;    3,682
903,551;16120,678;    1,439;    0,409
904,109;16537,097;    1,530;   -1,409
904,666;16119,425;    1,439;    1,045
905,224;15921,117;    3,894;   -0,409
905,781;15675,718;   -0,470;   -0,318
906,338;15765,592;    0,167;    1,045
906,895;15699,920;    1,894;    2,045
907,453;15605,157;    2,348;    1,136
908,010;15632,485;    3,348;    0,409
908,567;15249,359;   -0,561;    0,591
909,124;14746,778;    2,439;   -1,500
909,681;14845,561;   -1,288;    0,682
910,238;15014,798;   -0,106;   -1,318
910,795;15316,308;   -1,561;   -1,136
911,352;14959,944;   -0,379;   -2,682
911,909;14387,126;    2,803;   -0,864
912,466;14869,581;    1,985;    1,500
913,022;14387,490;   -0,924;    0,500
913,579;14731,126;   -0,470;    2,045
914,136;14405,854;   -2,561;    0,955
914,692;14824,126;    1,530;   -1,227
915,249;14368,581;    0,530;    0,409
915,806;14604,672;    1,803;    1,955
916,362;14309,035;    0,894;    1,864
916,918;13887,217;    2,439;    1,045
917,475;13929,217;    1,621;    0,955
918,031;14016,763;    0,076;   -0,045
918,587;13424,308;    0,621;   -0,318
919,144;13669,854;   -0,379;    0,227
919,700;13965,035;    0,167;    0,773
920,256;13541,126;    0,439;    0,045
920,812;13166,944;    1,439;   -1,045
921,368;13174,763;    1,348;   -1,045
921,924;12826,126;    0,439;   -0,136
922,480;12367,126;    0,076;    1,227
923,036;13009,490;   -0,652;    1,955
923,592;12962,944;    0,621;    0,318
924,148;12896,672;    1,894;   -0,955
924,704;12231,672;    0,258;   -0,409
925,259;12487,399;   -0,561;    0,591
925,815;12232,126;    3,803;    0,500
926,371;11811,126;    3,530;    1,409
926,926;11656,399;    1,621;    0,591
927,482;11257,672;    1,621;    0,773
928,037;11147,399;   -0,833;    2,045
928,593;11465,763;    0,258;    1,045
929,148;11237,035;    1,167;   -1,500
929,704;10789,944;    2,439;   -0,500
930,259;10978,672;    0,894;   -0,136
930,814;10080,399;    1,803;    1,955
931,369; 9777,944;    0,258;   -0,773
931,925; 9663,126;   -1,924;    0,136
932,480; 9531,672;    3,076;   -2,591
933,035; 9430,490;    3,985;   -0,318
933,590; 9174,035;   -1,742;   -1,773
934,145; 8819,308;   -1,288;   -0,318
934,700; 9211,581;    0,348;   -0,591
935,255; 8979,217;    4,803;    0,045
935,809; 8267,126;    6,258;    0,864
936,364; 7399,126;    2,167;   -0,136
936,919; 7363,217;    2,348;   -1,773
937,474; 7243,308;    1,348;    0,136
938,028; 7025,308;    3,076;    1,136
938,583; 6483,944;    6,348;    4,682
939,138; 6792,763;    0,167;    2,136
939,692; 6263,944;   -1,015;   -1,136
940,247; 5915,217;    1,167;   -1,045
940,801; 5494,035;    0,621;    0,227
941,355; 5389,672;    0,439;    2,591
941,910; 5068,035;    0,712;   -2,136
942,464; 5155,035;    2,712;   -0,318
943,018; 4939,308;    3,258;   -0,227
943,572; 4879,399;    2,803;   -0,682
944,126; 4302,854;   -0,924;   -0,409
944,681; 4190,308;    0,712;    0,227
945,235; 4191,672;    2,167;   -0,591
945,789; 4148,944;    1,258;   -1,864
946,342; 4217,944;   -0,561;   -0,591
946,896; 4034,126;    0,348;    0,955
947,450; 3788,126;   -0,561;   -0,227
948,004; 3991,399;    1,076;   -0,045
948,558; 4009,308;    1,258;   -0,864
949,111; 3928,126;   -1,197;   -0,318
949,665; 3959,308;   -0,106;   -0,682
950,219; 3815,581;    0,621;   -1,045
950,772; 3897,308;    0,258;    1,864
951,326; 3837,854;   -1,106;   -0,955
951,879; 3922,035;    1,076;   -2,318
952,433; 3928,672;    1,348;    2,227
952,986; 3754,035;    0,348;    0,682
953,539; 3677,217;    1,530;    0,591
954,093; 3646,490;    0,985;   -1,318
954,646; 3777,126;   -0,288;    1,318
955,199; 3595,763;    1,258;   -0,500
955,752; 3479,581;    1,985;    1,773
956,305; 3446,399;    0,894;    2,955
956,858; 3613,399;    0,621;   -0,318
957,411; 3772,308;    3,621;    2,136
957,964; 3598,763;    2,076;    2,136
958,517; 3591,672;    0,985;    3,136
959,070; 3422,854;   -1,197;    1,955
959,623; 3503,399;    1,076;    1,500
960,176; 3280,217;    0,712;    2,045
960,728; 3255,399;    1,712;    0,773
961,281; 3324,399;    2,258;    0,500
961,834; 3374,035;   -0,833;    0,864
962,386; 3272,126;    1,258;    1,045
962,939; 3182,399;    3,439;   -0,318
963,491; 3335,035;    2,621;    1,136
964,043; 3184,581;    0,076;    2,409
964,596; 3330,672;    1,712;    2,227
965,148; 3159,672;   -0,379;    1,773
965,700; 3106,217;   -0,015;   -0,227
966,253; 3271,035;   -0,833;    0,318
966,805; 3098,581;    1,894;    0,773
967,357; 3138,126;    0,439;   -1,500
967,909; 3086,308;    1,167;   -1,227
968,461; 3218,490;    0,894;    3,136
969,013; 3137,217;   -1,561;   -0,864
969,565; 3199,581;    1,803;   -1,136
970,117; 3288,672;    3,803;    1,045
970,669; 3105,217;    3,258;   -0,136
971,220; 2967,126;    2,167;   -1,500
971,772; 2885,763;    1,348;   -0,318
972,324; 3000,672;   -1,197;   -0,500
972,876; 2968,581;    0,167;   -0,045
973,427; 3086,126;   -1,197;   -1,045
973,979; 3083,217;    0,076;   -2,500
974,530; 3092,944;    0,803;    1,318
975,082; 3107,763;    2,167;    1,682
975,633; 2996,944;    2,894;    1,682
976,184; 3154,854;    2,076;    0,773
976,736; 2937,854;    0,348;    0,227
977,287; 2733,308;    0,258;   -0,500
977,838; 2923,217;   -0,924;   -0,318
978,389; 2979,035;    0,803;   -0,500
978,940; 2838,672;    1,258;   -0,409
979,491; 2856,308;    2,258;   -0,500
980,042; 2806,490;   -0,652;    3,045
980,593; 2890,854;    1,894;    0,227
981,144; 2938,672;    3,530;   -0,500
981,695; 2915,490;   -0,470;    1,500
982,246; 2858,217;   -1,833;    1,045
982,797; 3027,217;   -0,561;    0,682
983,347; 3165,217;    2,167;    0,591
983,898; 3317,399;    4,167;    0,409
984,449; 3125,126;    2,530;    0,773
984,999; 3036,217;    1,894;   -1,136
985,550; 2803,308;    3,167;   -0,318
986,100; 2864,672;    0,712;   -0,318
986,651; 2873,217;    0,258;    0,045
987,201; 2852,308;    0,894;   -0,591
987,751; 2953,581;   -0,288;    2,864
988,302; 2923,763;   -0,379;    1,500
988,852; 2950,944;    1,985;   -1,136
989,402; 2987,763;    0,985;    0,682
989,952; 2891,399;    1,621;    0,864
990,502; 3012,763;    1,076;    0,682
991,052; 2974,035;   -0,106;    0,045
991,602; 2819,763;    1,167;    1,318
992,152; 2823,126;    2,803;    0,682
992,702; 2797,035;    1,167;   -0,045
993,252; 2710,217;    0,076;   -0,500
993,802; 2811,490;    1,167;    1,318
994,352; 3072,126;   -0,742;    1,136
994,901; 3150,035;    1,076;    3,227
995,451; 3066,672;   -1,197;    0,318
996,000; 3152,581;    1,076;    0,318
996,550; 2838,944;    2,894;    0,227
997,100; 2851,763;   -0,561;   -0,045
997,649; 3155,854;   -0,197;    0,955
998,198; 2773,763;   -0,288;   -1,500
998,748; 2965,490;    0,348;   -2,318
999,297; 2882,126;    0,985;   -0,409
999,846; 2958,763;    1,894;   -0,773
1000,395; 3015,217;    1,530;    0,500
1000,945; 2936,763;    1,076;   -0,773
1001,494; 3005,854;    0,167;    0,682
1002,043; 3004,672;    0,712;    0,864
1002,592; 2852,399;    3,439;    1,955
1003,141; 3003,944;    2,439;   -0,682
1003,690; 2837,035;    1,258;    0,500
1004,238; 2900,126;   -0,106;   -0,045
1004,787; 2545,944;   -1,288;    1,227
1005,336; 2779,399;    1,621;    0,682
1005,885; 2933,399;   -0,197;   -2,773
1006,433; 3085,763;   -0,470;    0,955
1006,982; 3161,308;    2,167;    1,682
1007,531; 3055,308;    2,712;   -0,227
1008,079; 3011,126;    0,258;    0,500
1008,627; 3159,854;    1,621;    0,409
1009,176; 2890,308;    0,076;   -1,955
1009,724; 2933,035;   -2,742;    0,864
1010,273; 2985,763;    1,076;    0,500
1010,821; 3089,581;    1,076;    1,409
1011,369; 2831,944;    0,076;    1,318
1011,917; 2799,490;   -0,833;   -0,591
1012,465; 3112,854;    2,530;   -1,591
1013,013; 3222,672;    0,439;   -1,682
1013,561; 3077,217;   -1,288;   -0,773
1014,109; 3129,672;   -0,833;    1,682
1014,657; 2993,035;    1,348;    0,591
1015,205; 3147,035;    0,894;   -0,955
1015,753; 3159,672;    0,258;   -1,409
1016,301; 3193,217;    2,621;    3,045
1016,848; 3216,490;    2,167;    0,409
1017,396; 3251,581;    1,621;    0,045
1017,944; 3361,581;    2,621;    1,864
1018,491; 3130,854;   -0,197;    1,409
1019,039; 3277,126;   -0,652;    0,591
1019,586; 3191,672;    0,076;    1,682
1020,134; 3295,490;    0,712;    1,500
1020,681; 3303,126;    2,894;   -1,136
1021,228; 3330,399;   -0,561;   -2,227
1021,776; 3148,035;   -0,833;   -1,136
1022,323; 3366,854;    0,803;    0,773
1022,870; 3324,763;   -0,470;   -0,045
1023,417; 3203,399;    2,076;    1,864
1023,964; 3357,581;    0,621;    1,227
1024,511; 3182,308;   -0,652;    0,773
1025,058; 2963,944;    0,439;   -0,045
1025,605; 3029,308;   -1,742;    3,136
1026,152; 3242,763;   -0,106;   -0,591
1026,699; 2981,490;    0,167;    1,318
1027,245; 3154,763;    2,439;    0,318
1027,792; 3361,217;    0,712;    1,409
1028,339; 3233,763;    4,076;   -0,045
1028,885; 3100,944;    3,621;   -0,227
1029,432; 3039,217;   -0,106;    0,227
1029,978; 3100,763;    1,348;   -1,591
1030,525; 2979,217;    1,621;    0,409
1031,071; 3251,490;    0,348;    1,136
1031,618; 3365,763;    1,258;    1,682
1032,164; 3133,672;    2,076;    3,045
1032,710; 3173,217;    0,076;   -1,500
1033,256; 3096,672;    0,712;   -0,136
1033,803; 3080,126;   -0,288;    1,500
1034,349; 2805,035;    1,803;    0,136
1034,895; 2961,308;    2,621;   -0,318
1035,441; 2942,854;    0,439;    0,318
1035,987; 2948,854;   -2,288;   -0,682
1036,533; 2954,399;   -0,197;   -0,955
1037,078; 3153,399;    4,712;    1,682
1037,624; 2970,854;    2,439;   -0,955
1038,170; 2995,217;    1,712;   -0,318
1038,716; 2895,126;    2,167;   -0,409
1039,261; 2817,581;    2,167;   -0,773
1039,807; 2740,399;   -0,015;    3,409
1040,352; 2803,490;   -1,288;   -0,318
1040,898; 2843,854;    0,167;   -0,682
1041,443; 2773,944;    0,803;   -2,591
1041,989; 2817,126;    3,621;    1,591
1042,534; 2680,944;    0,985;    2,591
1043,079; 2795,490;    1,985;    0,955
1043,625; 2576,944;    0,258;    0,500
1044,170; 2619,399;    2,439;    1,045
1044,715; 2904,308;    0,167;    0,955
1045,260; 2705,490;   -0,833;   -0,955
1045,805; 2736,399;    0,258;   -0,591
1046,350; 2682,035;    0,530;   -0,409
1046,895; 2654,854;    0,803;    1,591
1047,440; 2586,490;    1,530;    0,409
1047,985; 2491,581;   -1,197;   -0,955
1048,530; 2407,490;    1,348;    1,227
1049,074; 2479,399;    2,803;    0,318
1049,619; 2459,944;   -0,924;    1,955
1050,164; 2264,490;    1,076;    0,227
1050,708; 2322,581;    2,621;    0,045
1051,253; 2674,035;    3,258;   -2,227
1051,797; 2390,944;   -0,197;   -1,318
1052,342; 2413,581;    1,348;    1,045
1052,886; 2392,308;    1,803;   -1,409
1053,430; 2281,763;    2,167;    0,136
1053,975; 2308,035;    0,894;   -0,318
1054,519; 2279,581;    1,803;    3,227
1055,063; 2278,035;    3,621;    1,318
1055,607; 2179,763;    1,348;    0,227
1056,151; 2193,217;    0,530;    1,682
1056,695; 2121,854;   -1,833;   -1,136
1057,239; 2186,126;   -1,197;   -0,682
1057,783; 2174,581;    2,258;   -1,500
1058,327; 2134,490;    3,076;    1,409
1058,871; 2356,490;    3,985;    1,318
1059,415; 2055,035;   -0,561;   -0,045
1059,958; 2324,581;    2,985;    2,591
1060,502; 2056,308;    1,348;   -0,773
1061,046; 1949,763;    1,712;   -0,955
1061,589; 1927,308;    2,803;   -1,136
1062,133; 1810,399;    0,985;    1,864
1062,676; 1752,581;    1,439;    0,864
1063,220; 1757,763;    0,985;    0,500
1063,763; 1780,035;    2,985;    1,136
1064,306; 1847,399;    0,985;    1,864
1064,849; 1746,035;    2,076;    0,591
1065,393; 1758,217;    2,894;   -1,500
1065,936; 1877,217;    2,530;   -0,409
1066,479; 1760,308;    2,621;    1,318
1067,022; 1781,763;    1,894;   -0,227
1067,565; 1687,672;   -1,197;   -1,318
1068,108; 1705,308;    1,258;   -0,591
1068,651; 1680,490;   -2,470;    1,409
1069,194; 1607,672;   -1,106;   -1,682
1069,736; 1615,490;    3,803;    0,955
1070,279; 1591,035;   -1,652;   -0,500
1070,822; 1639,581;    1,530;   -0,318
1071,364; 1707,217;    0,530;    1,318
1071,907; 1539,399;    0,348;    3,227
1072,450; 1465,490;    0,258;   -0,045
1072,992; 1444,944;   -0,561;    3,136
1073,535; 1574,944;    0,167;    2,136
1074,077; 1384,854;    2,985;    2,045
1074,619; 1362,490;    0,985;    0,591
1075,161; 1376,672;   -0,561;    1,500
1075,704; 1545,763;    0,258;    1,227
1076,246; 1365,399;    1,530;    0,682
1076,788; 1304,308;   -1,015;    1,773
1077,330; 1368,035;   -2,106;    2,136
1077,872; 1336,944;   -1,924;    0,955
1078,414; 1556,672;    3,712;    0,773
1078,956; 1293,126;    0,167;   -0,227
1079,498; 1526,126;    0,439;    0,318
1080,040; 1236,126;    0,985;   -1,318
1080,581; 1191,035;    0,621;   -0,318
1081,123; 1126,035;   -0,106;   -0,773
1081,665; 1180,490;    3,803;   -0,955
1082,206; 1460,126;    3,258;   -0,500
1082,748; 1319,399;    3,258;    2,045
1083,289; 1209,126;    0,167;    1,318
1083,831; 1109,581;    0,258;    0,227
1084,372; 1129,035;    0,894;    0,591
1084,913; 1133,035;    3,348;    0,864
1085,455; 1125,035;    1,530;   -2,045
1085,996; 1083,399;    0,530;    0,136
1086,537; 1101,490;    0,985;    0,864
1087,078; 1136,854;    0,439;   -2,136
1087,619; 1180,399;   -1,652;    0,227
1088,160; 1095,490;    1,439;    1,318
1088,701; 1080,854;   -0,742;    0,682
1089,242; 1024,763;   -0,561;   -2,227
1089,783; 1125,399;   -0,561;    1,409
1090,324; 1094,399;   -0,833;    0,682
1090,865;  964,399;   -1,924;   -0,409
1091,405;  955,672;   -0,561;    2,227
1091,946;  977,854;   -0,197;   -0,955
1092,487;  906,944;   -1,288;   -1,409
1093,027; 1055,763;    1,803;   -1,500
1093,568;  912,035;    2,258;    1,227
1094,108;  993,763;    0,621;    1,773
1094,649;  949,217;   -0,470;    0,136
1095,189;  885,490;    1,167;   -0,682
1095,729;  831,581;    0,712;    0,955
1096,269;  854,944;    1,258;   -0,955
1096,810; 1145,854;   -0,197;    0,500
1097,350;  971,763;   -0,561;   -0,773
1097,890;  887,399;    2,985;    1,227
1098,430; 1121,763;    4,985;    2,864
1098,970; 1008,763;    1,894;    1,682
1099,510;  867,399;   -0,833;   -2,318
1100,050;  788,581;    0,258;   -1,591
1100,589;  761,944;    0,076;   -0,318
1101,129;  879,763;    0,894;   -0,955
1101,669; 1018,944;    2,803;    2,136
1102,209;  853,581;    1,530;    2,227
1102,748;  813,672;    3,439;    0,955
1103,288;  796,308;    0,712;   -1,227
1103,827;  818,672;    3,530;   -2,227
1104,367;  710,944;    1,712;   -2,409
1104,906;  677,944;   -1,015;   -1,136
1105,445;  749,035;    0,985;   -1,136
1105,985;  685,763;   -0,652;    1,500
1106,524;  725,490;    1,530;   -0,682
1107,063;  693,217;    1,167;    1,409
1107,602;  679,035;    1,894;   -1,500
1108,141;  612,035;    1,621;    1,500
1108,680;  700,217;    3,985;   -0,591
1109,219;  653,217;    0,167;   -0,500
1109,758;  653,854;    4,167;    0,682
1110,297;  620,308;   -1,106;   -0,682
1110,836;  574,217;    1,439;    0,955
1111,375;  726,035;    0,348;    0,409
1111,913;  733,490;    0,985;    0,773
1112,452;  678,854;    0,894;    0,136
1112,991;  572,672;    1,076;    1,955
1113,529;  527,672;    0,167;   -0,045
1114,068;  593,217;    0,439;    2,955
1114,606;  500,944;   -0,561;   -0,955
1115,144;  646,763;    1,530;    1,045
1115,683;  588,854;    1,985;    0,318
1116,221;  640,035;    2,076;   -0,864
1116,759;  554,854;    1,621;   -0,864
1117,297;  732,308;    1,621;    1,864
1117,836;  548,217;    1,985;   -1,227
1118,374;  553,763;    0,258;   -0,682
1118,912;  513,672;    0,439;    2,682
1119,450;  496,944;    0,985;    0,864
1119,988;  533,217;    3,348;    2,136
1120,525;  986,035;    7,258;    3,318
1121,063;  694,490;    0,530;    1,864
1121,601;  498,217;    1,076;   -1,227
1122,139;  460,217;    1,076;   -2,045
1122,676;  647,854;   -1,652;    2,773
1123,214;  582,581;    0,712;    4,409
1123,751;  407,126;    0,621;    2,227
1124,289;  531,490;    0,894;   -0,409
1124,826;  400,308;   -0,379;    0,227
1125,364;  334,035;    0,712;   -0,955
1125,901;  517,944;    6,258;    1,227
1126,438;  612,854;    3,530;    0,955
1126,975;  361,581;    2,985;   -0,773
1127,513;  418,035;    2,621;    2,136
1128,050;  328,308;   -0,561;   -0,682
1128,587;  421,672;    1,348;   -0,227
1129,124;  465,399;   -0,015;    1,318
1129,661;  344,854;   -1,924;    0,227
1130,198;  497,672;    2,439;    0,773
1130,734;  448,035;   -0,379;    1,409
1131,271;  320,581;   -1,197;    0,864
1131,808;  475,581;    1,621;    3,045
1132,345;  348,672;    4,530;    0,318
1132,881;  238,672;   -0,561;   -1,864
1133,418;  371,035;    0,348;   -1,136
1133,954;  307,854;    0,712;   -2,682
1134,491;  370,126;    1,712;   -0,773
1135,027;  285,854;    2,167;    0,864
1135,564;  350,126;    1,439;    2,955
1136,100;  346,763;   -0,742;    2,136
1136,636;  254,672;   -1,015;   -1,045
1137,172;  329,217;    0,894;   -1,045
1137,708;  260,672;   -1,561;   -1,045
1138,245;  262,035;    0,803;   -1,227
1138,781;  223,854;    1,803;   -3,318
1139,317;  287,490;    1,894;   -1,409
1139,852;  268,672;    3,076;    0,136
1140,388;  377,763;    2,076;   -0,409
1140,924;  266,217;    1,076;   -2,227
1141,460;  207,490;   -0,288;    0,136
1141,996;  154,763;   -0,652;    2,682
1142,531;  197,035;    1,076;    3,318
1143,067;  394,126;    1,167;    1,045
1143,602;  446,581;    3,439;   -0,318
1144,138;  297,399;    0,803;    1,045
1144,673;  183,763;    1,621;    1,409
1145,209;  241,490;    2,894;   -0,318
1145,744;  165,399;    0,803;    0,864
1146,279;  283,035;    1,530;   -0,136
1146,815;  214,944;    1,530;   -2,682
1147,350;  254,581;   -0,924;    0,045
1147,885;  173,035;   -1,924;   -1,318
1148,420;  173,035;    2,439;    0,773
1148,955;  157,490;   -1,470;    1,864
1149,490;  169,672;   -1,106;   -1,591
1150,025;  155,308;   -1,106;   -1,773
1150,560;  259,126;   -0,288;   -0,955
1151,094;  227,217;    0,258;   -0,591
1151,629;  236,672;   -3,742;    0,864
1152,164;  163,581;   -1,288;    1,318
1152,698;  133,035;    1,258;   -0,136
1153,233;   96,854;   -1,379;   -0,682
1153,767;  137,763;   -0,288;   -2,318
1154,302;  185,308;   -0,379;    1,773
1154,836;  180,399;    0,803;   -2,136
1155,371;  233,944;    2,258;    3,682
1155,905;  186,217;    1,985;    1,682
1156,439;  157,399;    0,530;   -0,500
1156,973;  188,672;    0,439;    0,318
1157,507;  129,217;   -1,742;    0,682
1158,042;  157,217;   -0,652;    1,045
1158,576;  186,672;   -0,561;    1,773
1159,110;  189,490;    0,076;    2,409
1159,643;  162,308;   -2,470;   -0,045
1160,177;  110,035;   -2,015;    1,500

