
Integration time [ms]:   0,050
Averaging Nr. [scans]: 11
Smoothing Nr. [pixels]: 0
Data measured with spectrometer [name]: 7318044SP
Wave   ;Sample   ;Dark     ;Reference
[nm]   ;[counts] ;[counts] ;[counts] 

186,757;   -7,435;   38,161;    1,318
187,357;   20,267;   26,706;    0,955
187,958;   -1,107;   17,252;   -1,591
188,558;   47,917;   12,979;   -1,227
189,159;   24,738;   10,070;   -4,500
189,759;    1,518;    5,797;   -3,591
190,360;    0,251;    6,797;   -2,136
190,960;   32,186;    5,706;   -4,136
191,560;   49,226;    2,614;   -6,591
192,161;  262,230;    5,885;   -3,500
192,761;  117,450;    5,520;   -3,227
193,361;   64,651;    3,065;   -3,773
193,962;  119,832;    1,612;   -2,682
194,562;   44,995;   -0,114;   -3,955
195,162;   71,509;   -0,567;   -2,227
195,762;  228,774;    2,433;   -0,045
196,362;  168,203;    1,706;   -2,500
196,963;   60,602;    1,706;   -0,864
197,563;  124,468;    1,252;   -0,955
198,163;   78,601;   -0,111;   -0,682
198,763;   91,268;   -0,020;   -0,500
199,363;  187,070;    3,616;   -0,500
199,963;  152,336;    2,162;    0,409
200,563;  126,713;    6,344;   -1,409
201,163;  112,469;    5,435;   -0,227
201,763;  195,987;    1,435;    0,318
202,363;  135,822;    0,980;    1,500
202,963;  220,338;    1,526;    1,045
203,563;  330,037;    0,344;    0,500
204,162;  188,695;    1,889;   -1,864
204,762;  189,295;    2,071;    0,591
205,362;  158,806;    0,708;    1,955
205,962;  245,009;    3,435;    1,955
206,562;  245,152;    1,889;    2,318
207,161;  215,596;    1,708;    0,318
207,761;  365,457;    4,435;    2,409
208,361;  240,434;    1,889;    1,409
208,960;  332,189;    2,889;    1,500
209,560;  402,493;    0,435;    1,591
210,160;  388,325;    5,071;    1,864
210,759;  358,939;    0,708;    1,227
211,359;  354,939;   -0,474;    1,045
211,958;  603,524;    3,526;    2,045
212,558;  680,945;    0,799;    1,864
213,157;  526,562;   -0,929;    1,500
213,757;  959,790;    5,617;   -0,227
214,356;  668,371;    1,708;   -0,409
214,956;  984,634;    3,526;    0,409
215,555;  632,090;    0,617;    2,136
216,154;  556,304;   -0,292;   -0,591
216,754;  575,475;    1,253;    0,773
217,353;  704,782;   -0,383;   -1,045
217,952;  575,900;    2,072;    0,318
218,552;  792,451;    0,254;   -0,773
219,151;  686,549;   -1,110;    0,955
219,750;  691,718;    0,890;   -0,227
220,349;  797,447;   -2,292;    1,045
220,948;  862,887;    1,163;    1,136
221,548;  863,418;    0,617;    1,227
222,147;  972,514;   -1,292;   -0,409
222,746; 1263,325;    1,254;   -0,955
223,345; 1128,262;   -1,019;    0,500
223,944; 1136,398;    1,163;    0,773
224,543; 1275,599;    4,072;   -1,409
225,142; 1392,430;    1,345;    0,136
225,741; 1281,495;    1,163;    1,045
226,340; 1295,918;    1,254;   -0,955
226,939; 1705,321;    2,708;   -0,136
227,538; 1628,874;    1,163;   -0,773
228,137; 1786,973;    0,435;    0,864
228,735; 1878,785;    0,435;    1,227
229,334; 1615,502;   -0,474;   -0,227
229,933; 1988,759;    0,799;    0,591
230,532; 2098,965;   -1,201;   -0,409
231,131; 2136,863;    1,253;    0,318
231,729; 2185,731;    1,163;   -2,318
232,328; 2258,410;    0,435;   -1,500
232,927; 2314,252;    4,526;   -0,500
233,525; 2398,151;    0,981;    0,045
234,124; 2579,933;    1,890;   -1,591
234,723; 2594,068;    1,617;   -1,045
235,321; 2725,578;    1,163;    0,136
235,920; 2925,009;    2,526;   -1,227
236,518; 3190,792;    1,072;    0,318
237,117; 3285,846;    2,890;   -0,227
237,715; 3436,475;    1,163;   -0,500
238,314; 3481,618;    1,708;   -2,318
238,912; 3612,560;    0,526;   -1,409
239,510; 3653,629;    1,162;   -1,227
240,109; 3826,422;   -0,474;    3,773
240,707; 3871,690;   -0,474;    1,227
241,305; 4251,397;   -0,383;    0,136
241,904; 4426,579;   -0,292;   -2,045
242,502; 4462,777;    3,253;   -0,227
243,100; 4438,918;    3,344;   -0,955
243,698; 4725,911;    2,799;    1,682
244,297; 4929,871;   -0,656;    0,682
244,895; 4822,476;   -0,474;   -2,318
245,493; 5151,772;    2,981;   -0,591
246,091; 5227,354;    5,163;   -1,318
246,689; 5247,621;    2,163;    0,591
247,287; 5438,493;   -0,019;   -1,136
247,885; 5795,330;   -1,019;    1,227
248,483; 5923,273;   -0,201;   -0,500
249,081; 6076,038;    0,981;    1,591
249,679; 6262,594;   -1,019;    1,682
250,277; 6560,110;   -2,292;    0,864
250,875; 6551,651;    0,617;   -1,045
251,473; 6626,702;   -0,019;    0,500
252,071; 6835,910;   -0,383;    1,045
252,669; 7013,489;   -1,565;    0,318
253,267; 7310,039;    1,618;    0,773
253,864; 7262,584;    0,617;    0,682
254,462; 7148,677;    1,526;    1,591
255,060; 7170,650;    0,072;    1,318
255,658; 7477,125;   -3,292;   -0,136
256,255; 7949,306;   -0,201;   -2,045
256,853; 7816,875;    2,345;    1,409
257,451; 7869,579;    1,981;    1,864
258,048; 8165,188;    2,072;    1,864
258,646; 7934,581;    0,436;   -1,045
259,243; 8114,875;    2,981;    2,227
259,841; 8184,190;    1,799;    0,318
260,438; 8093,030;    0,254;    0,864
261,036; 8827,545;    0,617;    1,409
261,633; 8769,045;    1,526;    2,227
262,231; 8537,232;   -0,110;   -0,045
262,828; 8632,688;   -0,383;    1,136
263,425; 8706,450;   -1,928;   -0,591
264,023; 8953,195;    1,436;    0,045
264,620; 8521,570;    1,526;   -0,318
265,217; 8882,494;    2,890;    3,136
265,815; 9028,664;    2,527;    2,136
266,412; 8822,414;    0,072;    0,136
267,009; 8868,574;    0,526;    0,773
267,606; 8782,217;    0,345;   -0,955
268,203; 8744,871;   -0,383;   -0,591
268,801; 9040,516;   -0,474;    0,591
269,398; 9376,651;   -0,564;    2,500
269,995; 9379,234;    0,890;    1,591
270,592; 9086,079;    0,799;   -0,500
271,189; 9321,138;    1,981;    0,409
271,786; 9435,396;    2,072;    1,227
272,383; 9299,283;   -0,383;    0,227
272,980; 9487,734;    1,617;    0,318
273,577; 9986,377;    2,162;    1,227
274,174; 9511,613;    1,435;    2,591
274,771; 9526,034;    1,890;   -0,773
275,367; 9671,281;    3,253;    1,409
275,964; 9649,138;   -0,565;   -0,500
276,561; 9778,324;   -2,474;   -1,045
277,158;10003,594;    1,799;   -1,773
277,755;10146,493;   -0,110;    0,409
278,351; 9558,211;    0,436;   -1,500
278,948; 9906,637;   -0,201;    0,045
279,545; 9955,785;    0,527;    2,318
280,141;10598,648;    1,254;   -2,045
280,738;10435,114;    2,435;   -0,136
281,334;10716,015;   -0,383;    0,591
281,931;10105,436;    2,890;   -1,318
282,528;10294,168;    4,072;   -0,500
283,124;11048,222;    3,345;   -0,500
283,721;10963,142;    0,709;    1,409
284,317;10824,142;    0,163;    2,500
284,913;11437,757;   -0,110;    0,591
285,510;11672,757;    2,890;   -0,318
286,106;11717,199;    2,345;   -0,955
286,703;11289,770;    0,072;    1,955
287,299;11589,190;    1,254;   -0,591
287,895;11844,693;    0,890;   -1,045
288,491;12498,287;    0,163;    2,136
289,088;12191,487;    0,163;    2,409
289,684;12280,125;    2,890;    1,500
290,280;12342,995;    1,890;    0,682
290,876;12410,259;    0,163;    5,500
291,472;12349,626;    2,163;    2,227
292,068;12510,483;    1,254;    0,227
292,665;12217,553;   -0,564;    0,773
293,261;11824,785;   -1,292;    2,136
293,857;12256,439;    4,072;    2,136
294,453;12227,026;   -0,928;    0,955
295,049;12099,061;    0,253;    1,955
295,644;12176,455;   -1,292;    0,136
296,240;12095,694;    0,162;   -0,136
296,836;12175,391;   -0,747;    0,318
297,432;12528,597;    2,980;   -0,500
298,028;12562,025;    0,435;    0,773
298,624;13015,226;    0,889;    1,864
299,220;13291,053;    0,435;    0,591
299,815;12930,638;    0,526;   -0,409
300,411;12706,516;    0,435;    1,773
301,007;12770,918;    1,889;    0,227
301,602;12838,279;    2,071;   -2,318
302,198;13002,318;    1,435;   -0,773
302,794;13364,823;    1,526;   -0,500
303,389;13518,203;    1,071;    1,045
303,985;13547,551;    1,253;    1,409
304,580;13526,272;    0,889;    1,591
305,176;13520,211;    0,344;    0,136
305,771;13451,656;   -0,929;   -1,227
306,367;13259,208;    3,071;    0,136
306,962;13677,825;    2,889;    1,500
307,558;13415,397;    2,435;    0,136
308,153;13324,035;   -0,383;   -1,136
308,748;13571,424;    0,162;    1,682
309,344;13538,058;    0,253;   -1,318
309,939;13617,950;    2,071;   -1,318
310,534;13931,640;   -2,020;   -1,682
311,130;13833,130;   -0,656;   -2,500
311,725;13561,810;    0,526;   -0,500
312,320;13902,894;    1,253;    0,045
312,915;13733,191;    2,890;   -1,045
313,510;13773,848;    0,526;   -0,500
314,105;14315,576;   -3,565;    1,409
314,700;13681,438;   -1,656;   -1,045
315,295;13308,272;   -0,020;    0,045
315,890;12830,995;   -0,292;    0,864
316,485;13130,276;    0,253;   -0,318
317,080;13258,926;   -0,929;    1,591
317,675;13829,445;    3,071;   -0,682
318,270;13189,618;    6,889;    3,318
318,865;13212,249;    2,435;    3,045
319,460;13002,429;   -1,565;    0,591
320,055;13283,894;   -2,565;   -1,227
320,650;12936,471;   -1,838;   -0,591
321,244;12985,104;    0,889;   -1,409
321,839;13993,091;    0,980;   -0,227
322,434;13860,622;   -0,111;   -1,591
323,029;13477,586;   -0,474;    1,591
323,623;13314,060;    0,798;    0,773
324,218;13034,730;    2,707;    1,409
324,812;12971,192;    0,889;    1,591
325,407;12794,883;   -0,929;    2,045
326,002;12721,044;    0,526;   -0,409
326,596;13078,058;   -0,656;    1,318
327,191;13312,107;   -0,383;   -1,045
327,785;12844,694;   -0,747;   -0,227
328,379;13124,867;   -0,383;    0,136
328,974;12944,899;    1,798;   -3,955
329,568;13187,230;    2,889;   -2,409
330,163;12986,720;    2,435;    1,045
330,757;13368,624;    0,253;    1,591
331,351;12702,687;   -0,292;    0,682
331,945;13037,272;   -0,383;    1,409
332,540;12589,692;    1,617;   -0,591
333,134;12729,603;    3,344;    0,773
333,728;12986,842;    2,799;    0,318
334,322;13381,252;    0,889;   -0,864
334,916;12630,722;    0,344;    0,955
335,510;13004,253;   -0,111;   -0,136
336,105;13266,835;   -0,929;    1,591
336,699;12954,527;   -1,292;    0,591
337,293;12904,951;    1,071;    0,318
337,887;13054,472;    0,071;    1,955
338,481;13124,991;    2,980;    0,591
339,074;13312,716;    2,071;    2,682
339,668;13110,748;   -0,110;    1,227
340,262;13407,277;    7,708;    3,227
340,856;12902,926;    1,708;   -0,682
341,450;12222,853;    0,708;    1,864
342,044;13201,588;    1,799;    0,136
342,637;12965,786;    1,162;   -2,136
343,231;12790,734;   -1,474;    0,682
343,825;12738,885;   -0,747;   -0,591
344,419;12666,669;   -0,474;    0,500
345,012;12415,742;    2,889;    4,045
345,606;12441,405;   -0,656;    1,591
346,199;12317,638;   -0,111;   -0,227
346,793;11799,669;    2,525;    2,045
347,386;12013,609;    0,889;   -1,136
347,980;12011,909;   -0,838;   -0,045
348,573;11762,243;   -1,748;    0,409
349,167;11350,294;    6,161;    4,773
349,760;11742,610;    2,252;    2,682
350,354;11755,839;    1,616;    1,136
350,947;11443,350;    2,798;    1,682
351,540;11135,826;    0,616;   -1,409
352,134;11052,097;   -1,111;    1,136
352,727;11092,336;   -0,657;    1,136
353,320;10918,611;    2,343;    0,591
353,913;10756,585;   -1,929;    1,864
354,507;10915,976;    0,434;   -1,227
355,100;10924,216;    0,071;    0,864
355,693;10040,558;    4,798;    2,409
356,286;10122,091;    0,980;    2,773
356,879;10543,439;   -0,475;    1,227
357,472;10104,942;    0,980;    1,500
358,065;10305,004;    3,161;    2,500
358,658;10210,979;    0,798;    2,318
359,251; 9837,172;    0,252;   -0,591
359,844; 9217,806;    0,343;   -1,136
360,437; 9385,467;    0,252;    0,045
361,030; 9670,958;    0,525;   -0,682
361,623; 9241,024;    0,434;    0,318
362,215; 9273,020;    0,979;    2,045
362,808; 9130,144;   -2,293;   -1,682
363,401; 9294,130;    0,798;    0,136
363,994; 8977,321;    3,252;   -1,500
364,586; 8896,376;    0,888;   -1,500
365,179; 9127,855;   -0,203;   -1,136
365,772; 8558,832;   -0,930;    2,045
366,364; 8885,396;    1,524;   -3,227
366,957; 9094,235;    1,342;   -0,045
367,549; 9100,565;   -0,203;   -0,864
368,142; 8703,882;    0,978;   -1,500
368,734; 8889,277;    2,523;   -2,136
369,327; 8854,718;    2,341;   -0,500
369,919; 8765,232;   -1,659;    0,409
370,512; 8529,001;   -1,023;   -0,500
371,104; 8222,406;    2,704;    1,591
371,696; 8401,788;    1,703;   -0,955
372,289; 8525,956;    0,157;    1,136
372,881; 8674,850;    1,156;    1,318
373,473; 8589,976;    4,064;    1,136
374,066; 8370,659;    1,336;    0,500
374,658; 8222,045;    0,879;    1,136
375,250; 8613,855;   -1,668;   -1,409
375,842; 8413,869;   -0,124;   -0,045
376,434; 8269,955;   -2,762;   -0,409
377,026; 8866,951;   -1,855;   -2,500
377,618; 8781,403;    0,779;   -0,682
378,210; 8642,560;    3,141;   -1,955
378,802; 8443,474;    3,412;   -0,591
379,394; 8378,242;    3,411;    0,682
379,986; 9036,582;    1,138;   -0,955
380,578; 9122,214;    1,410;    0,773
381,170; 8404,960;    0,320;    0,045
381,762; 8384,304;   -0,224;    1,409
382,354; 8621,847;   -0,223;   -1,318
382,945; 8745,348;    0,870;    0,318
383,537; 8876,200;    1,144;   -1,955
384,129; 8858,179;    0,963;   -1,136
384,721; 9036,187;    0,418;    0,955
385,312; 8938,251;   -1,399;   -0,955
385,904; 9053,600;   -0,945;    1,591
386,496; 8376,777;    0,691;    1,045
387,087; 8537,443;    0,418;    2,500
387,679; 8560,556;   -0,401;    0,045
388,270; 8700,794;   -2,401;    2,045
388,862; 8853,732;   -0,401;   -0,318
389,453; 8716,495;    1,054;    1,045
390,045; 9030,463;    3,236;   -2,682
390,636; 8971,737;    0,144;   -0,591
391,227; 8814,106;    2,054;   -0,045
391,819; 8863,199;    0,781;    0,773
392,410; 8936,207;    0,600;    0,045
393,001; 8872,811;    1,600;   -1,591
393,593; 9183,107;    0,600;   -0,045
394,184; 9010,549;    0,873;   -0,409
394,775; 8916,587;    1,146;    2,136
395,366; 9165,357;    1,782;    0,773
395,957; 9160,796;   -2,400;    0,136
396,548; 9506,302;    1,054;    2,682
397,139; 9812,992;    2,236;    0,591
397,730; 9499,223;    0,873;    0,955
398,321; 9568,809;    0,509;    0,955
398,912; 9603,976;   -0,764;    0,136
399,503; 9708,724;   -1,945;   -1,409
400,094; 9088,390;   -1,582;    1,682
400,685; 8928,547;    3,600;    0,045
401,276; 9054,775;   -0,400;   -0,955
401,867; 9374,880;   -1,127;    0,773
402,458; 9469,278;    1,509;   -2,318
403,048; 9438,373;    0,146;    0,591
403,639; 9033,384;    1,509;    0,864
404,230; 9274,779;    0,691;    0,318
404,821; 9183,361;   -0,127;    0,045
405,411; 9276,310;   -0,763;   -2,591
406,002; 8878,779;    3,237;   -1,136
406,592; 8694,553;    2,691;    0,045
407,183; 9016,857;    0,328;   -1,500
407,774; 8889,662;    1,419;   -0,136
408,364; 9270,490;    2,600;    0,409
408,954; 8828,518;   -0,036;    1,227
409,545; 8850,320;    1,873;    1,045
410,135; 8317,383;   -1,581;    0,500
410,726; 8501,325;    0,783;    0,318
411,316; 8889,641;    2,237;    0,773
411,906; 8529,885;    0,146;   -0,409
412,497; 7974,805;   -0,490;   -0,045
413,087; 8625,789;    0,783;   -0,227
413,677; 9000,721;   -2,490;    3,864
414,267; 8790,667;   -1,035;    1,409
414,857; 8801,154;    0,419;    4,227
415,448; 9094,758;   -0,763;    0,500
416,038; 8738,545;   -2,945;   -0,591
416,628; 8643,796;    0,965;    0,409
417,218; 8081,567;   -1,762;    3,318
417,808; 8360,418;    0,965;   -0,409
418,398; 8822,274;   -1,035;    2,682
418,988; 8797,088;   -2,217;    0,591
419,578; 9016,995;    3,601;    1,409
420,168; 9355,532;    0,692;   -0,955
420,757; 8905,972;    0,964;   -1,500
421,347; 8532,299;    1,601;   -0,227
421,937; 8726,042;    3,329;    1,409
422,527; 8609,932;    2,602;   -0,773
423,116; 8404,574;    2,692;   -0,045
423,706; 8771,795;    2,965;    0,318
424,296; 8698,875;    1,601;    0,682
424,885; 9106,784;    1,510;   -3,045
425,475; 9382,957;    1,147;   -2,864
426,065; 9251,887;   -1,489;   -0,318
426,654; 8866,631;    0,329;   -0,318
427,244; 8940,193;    1,147;    1,409
427,833; 8355,336;    1,056;   -0,500
428,423; 8765,084;    0,147;    1,136
429,012; 9570,414;    2,420;   -1,136
429,601; 9005,704;    2,057;    0,136
430,191; 9237,867;    2,511;    4,318
430,780; 8819,517;   -1,671;   -0,409
431,369; 8713,346;    1,329;   -0,045
431,959; 9305,406;    1,693;    0,500
432,548; 9083,000;   -1,398;   -0,045
433,137; 9203,520;    0,329;   -1,318
433,726; 9717,562;    0,148;    0,500
434,315; 9048,579;    0,148;    2,409
434,905; 9079,285;    0,693;    1,409
435,494; 8985,753;    3,148;    0,955
436,083; 9388,375;    1,420;   -0,955
436,672; 9185,895;    1,148;    0,500
437,261; 8737,802;    0,512;   -1,955
437,850; 8796,897;   -1,125;    0,682
438,439; 8730,886;    2,239;    1,955
439,027; 8530,203;    3,421;    1,773
439,616; 8878,072;    2,239;    1,227
440,205; 8698,481;    0,057;   -2,136
440,794; 8704,735;   -0,306;   -0,045
441,383; 8920,295;    1,603;   -0,591
441,971; 8745,182;   -0,306;    0,591
442,560; 8515,982;    0,603;   -1,773
443,149; 8279,379;    3,060;   -1,318
443,737; 8382,431;    0,968;   -2,318
444,326; 8563,999;    0,331;    0,318
444,915; 8548,367;   -1,851;    0,864
445,503; 8852,398;    0,058;   -0,318
446,092; 8143,896;    7,876;    2,136
446,680; 8656,251;    1,876;    0,318
447,269; 8785,450;   -1,487;   -0,318
447,857; 8481,651;    2,240;   -1,773
448,445; 8558,357;    2,149;    1,318
449,034; 8749,084;    0,876;   -1,136
449,622; 8797,271;    1,240;    3,500
450,210; 8070,507;    3,149;    2,227
450,799; 8531,273;    2,604;   -0,591
451,387; 8427,349;    1,786;   -0,591
451,975; 8053,834;   -1,305;    0,864
452,563; 8112,703;    0,422;    2,318
453,151; 8150,317;   -1,032;   -1,227
453,739; 8017,146;   -1,577;    0,136
454,328; 7858,406;    0,604;   -2,136
454,916; 7569,435;    1,150;   -0,136
455,504; 7682,930;    3,513;    1,227
456,092; 7862,891;    2,150;   -1,591
456,679; 7777,512;    0,604;    0,682
457,267; 7715,985;    3,604;    1,045
457,855; 7807,564;    3,241;    1,409
458,443; 7528,696;   -0,304;    1,682
459,031; 7684,341;    1,332;    2,409
459,619; 8074,146;   -3,577;    2,864
460,206; 8126,228;   -0,759;    2,045
460,794; 8184,337;   -0,668;   -0,227
461,382; 8334,897;    0,878;   -0,864
461,970; 7926,287;    0,605;    1,864
462,557; 7962,127;    0,878;   -0,682
463,145; 8124,943;   -0,304;   -1,682
463,732; 8193,482;    2,514;   -1,045
464,320; 8081,646;    1,514;   -3,045
464,907; 7789,928;    0,423;   -0,773
465,495; 7644,341;    2,696;   -1,227
466,082; 7773,298;    2,060;   -0,045
466,670; 7640,047;    2,605;    1,227
467,257; 8006,739;    0,060;    2,045
467,844; 8163,366;    1,514;    0,045
468,432; 8134,056;   -0,031;    3,500
469,019; 7693,541;    1,606;   -1,773
469,606; 8049,694;    0,969;    3,682
470,193; 7861,496;    2,151;    0,227
470,780; 7478,123;    0,333;    0,864
471,368; 7756,890;   -1,212;   -0,773
471,955; 7516,749;    1,060;   -0,682
472,542; 7146,379;   -0,303;   -1,136
473,129; 7305,659;   -0,485;    0,136
473,716; 7078,862;    0,060;    0,591
474,303; 7161,236;    1,333;   -0,864
474,890; 7318,253;    2,333;   -0,500
475,477; 7312,838;   -0,576;    0,409
476,064; 7207,997;    0,697;   -1,591
476,650; 7059,127;    2,152;    0,318
477,237; 6871,673;    1,879;    0,955
477,824; 6982,556;    3,879;    0,864
478,411; 6895,988;    0,606;   -0,318
478,997; 7027,933;    0,606;   -0,773
479,584; 6988,610;   -0,666;   -0,409
480,171; 7540,727;    1,243;   -0,773
480,757; 7252,270;   -0,848;    0,773
481,344; 7378,069;    0,334;    0,409
481,931; 6892,754;   -0,393;    1,045
482,517; 7597,931;    0,425;    0,318
483,104; 7906,851;    1,334;    2,864
483,690; 8021,140;    0,243;    0,045
484,276; 8206,475;    0,698;    0,227
484,863; 7950,404;    2,152;    1,136
485,449; 8317,664;    0,152;    0,318
486,035; 8270,446;   -0,666;   -0,136
486,622; 8608,058;   -2,393;    0,045
487,208; 8492,648;    1,334;    1,500
487,794; 8419,330;    0,971;    0,318
488,380; 8530,010;    0,698;   -1,409
488,967; 8551,042;   -1,120;   -0,409
489,553; 8594,805;   -1,029;   -1,409
490,139; 8801,056;    0,971;    0,773
490,725; 8433,538;    0,789;   -0,227
491,311; 8139,479;    1,516;    3,045
491,897; 7618,131;   -0,665;    1,500
492,483; 7661,480;    0,426;    1,227
493,069; 7731,485;    5,426;    0,864
493,655; 7653,258;    1,789;    0,682
494,241; 7650,107;    1,517;   -0,955
494,826; 8081,436;    0,335;   -1,045
495,412; 7685,649;    0,335;   -0,682
495,998; 7897,656;    0,971;   -0,318
496,584; 8090,254;    2,244;    1,045
497,169; 8174,282;    2,335;   -0,682
497,755; 8245,083;    1,244;    1,227
498,341; 8915,640;    2,153;    0,318
498,926; 8659,877;    2,881;    1,955
499,512; 8985,434;   -0,028;    2,955
500,097; 9137,702;   -0,574;   -0,318
500,683; 9210,181;   -0,028;    2,136
501,268; 9785,134;    1,881;   -0,955
501,854; 9703,622;   -0,119;    1,227
502,439; 9791,048;   -0,573;   -1,773
503,024;10117,270;    1,608;    0,500
503,610;10353,831;    1,335;   -0,682
504,195;10539,287;    1,245;    1,955
504,780;10817,428;    2,335;    1,227
505,366;10830,304;    4,063;    2,864
505,951;10729,153;   -1,119;    1,045
506,536;10925,789;    1,427;   -3,682
507,121;11075,755;    1,699;   -0,318
507,706;11700,408;   -0,392;    1,045
508,291;12222,522;   -2,937;    1,136
508,876;11823,765;   -0,482;    2,591
509,461;11452,741;    1,427;   -0,773
510,046;12032,933;   -0,391;    0,318
510,631;12354,749;   -0,119;   -0,773
511,216;12181,611;   -0,664;   -0,500
511,801;12710,773;   -0,755;    2,591
512,386;13052,306;    0,972;    0,500
512,971;13136,187;    0,427;    0,955
513,555;12808,959;    1,154;   -1,500
514,140;13673,121;    1,336;   -3,136
514,725;13736,991;    1,791;   -1,136
515,309;13944,049;    1,064;    0,318
515,894;13461,194;   -0,300;   -2,227
516,479;13995,521;    1,973;   -0,955
517,063;13894,926;    0,882;    1,227
517,648;14105,585;    0,155;   -1,136
518,232;13753,795;   -1,300;   -1,409
518,817;14126,319;    1,337;    1,682
519,401;14429,981;    0,700;    0,591
519,985;13959,301;    2,700;    1,136
520,570;13872,795;   -0,118;   -1,955
521,154;14226,658;    0,064;    0,591
521,738;14442,175;    1,064;    2,409
522,323;15043,807;   -0,390;    1,682
522,907;14810,854;    2,428;   -0,136
523,491;14534,598;    1,155;    0,955
524,075;14535,577;    0,428;    0,591
524,659;14638,152;    0,973;    0,591
525,243;14053,115;    0,883;    0,409
525,827;14357,368;    0,883;   -0,045
526,411;15268,152;    1,155;   -0,136
526,995;15504,175;    0,337;    1,409
527,579;15098,196;    1,974;   -1,045
528,163;15405,315;    0,428;   -1,500
528,747;15388,379;    1,065;   -0,773
529,331;15677,293;    0,883;   -1,409
529,915;15854,359;    2,338;    0,955
530,499;15828,690;    0,247;    1,227
531,082;15456,457;    1,065;    1,591
531,666;14928,399;    0,520;    0,773
532,250;15696,085;    0,428;    2,682
532,833;16037,703;    0,610;    2,773
533,417;15919,019;    1,247;    0,864
534,001;15870,246;    0,429;   -0,318
534,584;16613,848;    1,974;    0,500
535,168;16482,565;    3,247;    1,409
535,751;16535,619;    4,520;    0,045
536,334;15938,123;    4,520;   -0,409
536,918;16588,502;    1,974;    1,591
537,501;16689,488;    1,520;    1,318
538,085;16685,435;    1,702;    1,045
538,668;16841,687;    0,883;    2,409
539,251;17191,847;    3,156;    3,773
539,834;17231,007;    0,156;    0,773
540,418;17112,193;    3,247;    4,318
541,001;17276,390;    2,702;    1,773
541,584;17348,161;    1,429;    2,227
542,167;16991,974;    0,702;    2,955
542,750;17161,419;    0,793;   -0,773
543,333;16724,205;    1,429;    2,136
543,916;17521,571;   -0,298;    2,500
544,499;18159,866;    2,520;    0,227
545,082;18154,850;    0,248;    3,591
545,665;18324,111;   -0,207;    1,500
546,248;18645,205;    0,520;   -0,318
546,830;18338,509;   -1,752;    1,955
547,413;18751,603;    0,157;   -0,773
547,996;19306,096;    0,157;    0,500
548,579;19112,158;   -0,843;    0,955
549,161;18906,142;    0,884;    2,682
549,744;18664,203;    0,612;    0,409
550,326;19225,305;    0,885;   -1,136
550,909;18937,531;    2,339;    0,591
551,492;19357,090;    0,521;    0,227
552,074;19171,607;   -0,024;   -1,318
552,657;19732,399;    2,430;    0,045
553,239;19466,608;   -3,024;   -0,773
553,821;19394,862;   -1,570;    1,045
554,404;18899,634;   -0,024;    1,136
554,986;19271,791;    2,248;    1,045
555,568;19906,454;    0,430;   -0,955
556,151;19068,979;    4,067;   -0,227
556,733;19316,490;   -1,388;   -0,864
557,315;19803,848;    4,703;    0,500
557,897;19618,885;    0,521;   -0,500
558,479;19719,928;    1,703;    1,318
559,061;19849,092;    1,067;   -0,864
559,643;20175,983;   -0,297;    0,045
560,225;20548,530;   -0,388;    2,864
560,807;20565,802;    0,340;    0,318
561,389;20104,711;   -1,206;    2,318
561,971;20836,738;   -0,660;    2,136
562,553;20666,130;    0,613;    1,591
563,135;20771,691;    1,249;    1,136
563,717;20373,472;    3,158;    1,136
564,298;21162,286;    3,976;   -0,045
564,880;20840,762;    0,340;   -1,409
565,462;20979,399;    1,977;    1,318
566,043;22241,613;   -0,933;    2,318
566,625;21769,699;    4,067;    1,227
567,207;21598,252;    0,704;    1,682
567,788;22731,189;   -0,114;    1,500
568,370;23699,657;   -1,841;   -0,500
568,951;23504,377;   -0,569;    0,227
569,533;24402,825;    0,977;   -0,500
570,114;24890,786;   -0,296;    0,682
570,695;25434,545;   -0,478;   -1,318
571,277;25974,429;   -0,205;   -1,682
571,858;26760,315;    2,704;   -1,136
572,439;27735,757;    0,795;   -1,045
573,021;27894,626;    0,432;   -2,773
573,602;28424,191;    1,795;    0,318
574,183;29364,321;   -0,114;    2,227
574,764;29576,636;    2,068;    0,409
575,345;30171,605;    0,250;   -0,136
575,926;30817,286;    2,704;    0,136
576,507;30807,003;    2,704;   -0,227
577,088;31925,335;    1,704;    1,682
577,669;31968,225;    1,704;    1,955
578,250;32792,048;   -0,750;   -1,045
578,831;33504,839;   -0,841;   -2,227
579,412;33764,659;   -1,205;    0,955
579,993;34733,461;    1,432;    0,227
580,573;35024,135;   -0,023;   -0,955
581,154;33931,536;    1,613;   -0,591
581,735;34858,097;    0,341;    0,773
582,315;34402,915;    0,523;    2,136
582,896;34700,818;   -1,750;    1,227
583,477;34158,949;    0,614;    1,227
584,057;34334,520;    1,159;    0,955
584,638;34640,552;   -2,750;    2,318
585,218;34619,327;    2,886;    2,682
585,799;34737,952;    1,977;   -0,227
586,379;34730,335;    1,250;    1,591
586,959;33463,658;    2,613;    0,318
587,540;32741,908;    0,432;    2,227
588,120;32271,093;   -1,113;   -0,045
588,700;31171,363;    2,977;    2,136
589,281;31457,344;    1,250;   -0,955
589,861;31376,227;   -0,296;   -1,682
590,441;31214,173;   -1,477;   -2,682
591,021;30153,183;    1,432;   -2,591
591,601;30342,692;    0,431;    0,500
592,181;30331,703;   -1,296;   -0,773
592,761;29535,583;    2,250;    1,409
593,341;29442,438;    1,522;    0,045
593,921;29422,485;   -0,569;    1,591
594,501;29297,781;    1,250;    1,318
595,081;29141,869;    0,522;   -0,318
595,661;29535,352;    1,068;    0,955
596,240;30004,270;   -1,023;    0,136
596,820;29592,743;    2,613;    1,955
597,400;29832,277;    1,977;    0,773
597,980;30082,167;   -0,750;    1,045
598,559;30100,170;    0,341;   -0,227
599,139;29812,657;   -0,750;   -1,227
599,718;29726,112;    0,795;   -0,409
600,298;29936,293;   -2,387;    0,682
600,877;30168,002;    4,795;    1,409
601,457;30455,839;    0,340;    1,136
602,036;30337,050;    1,795;    2,045
602,616;30577,253;    2,250;    1,682
603,195;30924,197;    0,431;    3,500
603,774;30446,289;   -0,296;    2,045
604,354;30333,540;    2,522;   -0,500
604,933;29812,130;    0,250;    1,864
605,512;29906,343;    2,340;    0,591
606,091;29933,308;    1,886;    3,773
606,671;30746,358;    0,249;    0,773
607,250;29821,187;    1,431;    3,136
607,829;30092,334;    1,158;    3,227
608,408;29915,265;    4,613;    2,591
608,987;28902,823;    2,704;    3,409
609,566;29219,994;    0,341;   -2,500
610,145;29295,903;    2,885;    0,682
610,723;29757,139;    1,613;    6,864
611,302;28958,864;    1,067;    1,682
611,881;28442,817;    5,158;   11,227
612,460;29247,347;    0,795;    3,955
613,039;29746,178;    1,703;    2,045
613,617;28477,478;    0,886;    4,773
614,196;28592,197;    1,613;    1,227
614,775;28929,499;    1,249;    2,409
615,353;28901,588;   -1,660;    0,864
615,932;28579,209;    0,249;    2,409
616,510;29174,948;    0,158;    0,591
617,089;28692,102;    8,794;   17,591
617,667;28354,669;    4,885;    6,136
618,246;28192,363;   -1,115;    1,318
618,824;28399,898;    1,612;   -0,955
619,402;27969,994;    0,431;   -1,773
619,981;28462,287;    1,067;   -1,045
620,559;28332,842;    0,794;    1,682
621,137;27859,842;    3,067;    1,864
621,715;27822,805;    3,703;   -0,682
622,293;27736,350;    1,885;   -0,773
622,871;28265,211;    0,340;    0,500
623,450;27782,722;    0,430;   -0,864
624,028;27698,686;   -0,388;   -0,955
624,606;27254,658;    2,339;    1,682
625,183;27680,095;   -0,661;   -1,136
625,761;27272,362;    1,885;    1,136
626,339;27565,926;    2,339;    2,591
626,917;27969,247;    0,339;   -0,045
627,495;27994,295;    2,794;    1,318
628,073;27442,882;    5,248;    2,864
628,650;27133,527;    3,067;    2,136
629,228;27579,095;    1,248;    4,409
629,806;26890,992;   -0,024;    1,136
630,383;27175,049;    0,066;   -0,318
630,961;26955,115;   -2,206;   -0,955
631,539;26667,551;   -2,479;    0,227
632,116;25907,933;   12,703;   15,409
632,694;26561,969;    4,885;    6,500
633,271;26883,734;    1,975;    2,682
633,848;26778,993;    1,430;    2,045
634,426;26780,011;    1,521;    1,773
635,003;25886,600;   -0,207;   -0,409
635,580;26210,214;    1,884;    3,682
636,158;26768,881;    3,793;    1,227
636,735;26784,585;    3,339;   -0,500
637,312;26911,988;    0,521;   -0,682
637,889;26990,588;    2,248;   -0,682
638,466;26448,818;    0,066;   -0,409
639,043;26475,691;    1,702;   -1,136
639,620;26804,017;    0,611;   -0,955
640,197;27119,698;    1,612;    1,682
640,774;27256,848;    1,430;    1,136
641,351;27686,816;    0,612;    1,136
641,928;27062,602;    2,794;    1,409
642,505;26734,025;    0,794;   -0,500
643,082;26843,902;    1,885;    1,227
643,658;25809,688;    1,157;    1,500
644,235;26579,201;   -2,479;    2,500
644,812;26846,624;    1,794;    0,773
645,388;26627,501;    1,612;    1,409
645,965;26695,651;    1,521;    1,682
646,542;26783,801;    3,430;   -0,227
647,118;26824,223;    3,703;   -0,955
647,695;27086,828;    0,339;    1,136
648,271;26952,886;   -2,115;    0,500
648,848;27224,218;    0,248;    2,227
649,424;27093,368;    0,976;    1,318
650,000;26809,245;   -0,388;   -1,045
650,577;26667,031;    0,158;   -0,955
651,153;27091,999;   -1,115;    0,955
651,729;28137,695;    0,521;    0,864
652,305;28393,663;    1,339;    2,773
652,881;32994,903;   -1,297;    1,136
653,458;40207,235;    0,249;    0,227
654,034;44240,567;    0,703;    1,591
654,610;45850,353;    0,339;    0,773
655,186;47269,048;    1,612;    3,045
655,762;47065,471;   -1,842;    0,409
656,338;47062,348;    0,703;    0,136
656,913;48098,043;   -0,297;    0,409
657,489;47373,193;    0,249;   -0,318
658,065;47369,615;    0,794;   -1,591
658,641;47933,402;    2,158;   -0,864
659,217;47127,733;    2,067;    0,409
659,792;46499,792;   -1,751;   -0,409
660,368;46825,124;   -0,388;   -0,682
660,944;46511,910;    1,794;    1,227
661,519;41781,787;    0,522;    0,409
662,095;35342,755;   -0,206;    0,591
662,670;30413,450;   -0,206;   -0,136
663,246;29158,873;   -0,660;   -0,409
663,821;28391,568;    0,431;    1,682
664,396;27915,991;    0,613;    1,864
664,972;28151,231;   -0,660;   -0,500
665,547;28473,927;    3,794;    0,136
666,122;28455,713;    1,340;    0,318
666,698;28732,681;    2,431;    0,318
667,273;28078,558;    0,885;    0,136
667,848;28909,799;    0,340;    1,500
668,423;28663,585;    1,795;    2,318
668,998;29214,280;    0,976;   -0,682
669,573;29862,976;    2,067;   -1,500
670,148;29659,307;    1,885;   -0,682
670,723;29464,366;   -0,024;    0,318
671,298;29889,243;   -1,296;    1,045
671,873;30009,211;   -0,296;   -0,136
672,448;29987,270;    1,704;    0,136
673,023;30280,511;    0,249;   -0,227
673,597;30595,933;    2,704;    2,318
674,172;30314,992;    2,431;    0,318
674,747;29840,415;   -0,205;   -1,045
675,321;29735,656;   -0,933;    3,318
675,896;29232,806;    2,158;    1,045
676,471;30268,683;    2,522;    1,591
677,045;30079,651;   -0,296;    0,682
677,620;30047,437;    2,158;    1,136
678,194;30368,132;    0,249;    1,136
678,769;29944,918;    0,886;   -0,318
679,343;30150,886;   -0,023;    1,773
679,917;29975,945;    0,340;    1,955
680,492;30073,368;    0,249;    3,227
681,066;30215,154;    0,613;    0,409
681,640;30291,031;    1,795;   -0,318
682,214;31104,908;    2,340;    0,500
682,788;30611,240;    0,613;   -0,773
683,363;30583,390;    1,977;    1,682
683,937;30257,085;    0,886;   -0,318
684,511;31103,962;   -1,023;   -0,591
685,085;30793,930;   -1,478;    0,318
685,659;30503,625;    1,431;    0,864
686,232;30706,593;    1,159;   -0,318
686,806;30454,561;    2,159;    0,409
687,380;31138,711;   -1,932;    0,591
687,954;31358,588;    2,432;    1,136
688,528;31043,375;    2,613;    1,955
689,101;31874,161;    0,432;    1,045
689,675;31414,492;    0,886;   -0,136
690,249;30787,097;    3,432;    0,409
690,822;31132,792;    1,159;    0,318
691,396;31213,487;    2,068;    1,227
691,969;30621,092;    2,523;    0,136
692,543;31118,423;   -0,568;   -1,955
693,116;30759,664;   -0,659;   -1,409
693,690;30566,996;   -0,296;    0,500
694,263;31176,327;    2,341;    2,955
694,836;31205,659;    2,795;    3,591
695,410;29819,172;    1,159;    1,773
695,983;30291,686;    1,614;    0,591
696,556;30240,563;   -0,750;   -1,045
697,129;30635,895;   -1,114;    1,409
697,703;30218,954;    1,341;    1,955
698,276;30230,013;    1,705;   -0,773
698,849;30037,344;   -1,023;    1,409
699,422;30436,130;    1,250;    0,591
699,995;30116,280;   -0,659;    0,136
700,568;30619,157;   -0,204;    3,045
701,140;30599,943;   -1,841;    1,682
701,713;30306,457;    0,341;    2,409
702,286;30118,698;    0,796;    0,864
702,859;29971,938;    0,614;   -0,591
703,432;29066,997;   -0,841;    0,682
704,004;29631,329;    1,978;    0,318
704,577;29477,479;    1,068;    0,136
705,150;30029,356;    0,887;    2,500
705,722;29831,688;    1,523;   -3,227
706,295;29606,110;    1,432;   -0,591
706,867;29441,442;    0,250;    1,955
707,440;29658,501;   -0,113;   -0,409
708,012;29871,196;   -0,022;    0,591
708,584;29763,619;    2,705;    0,227
709,157;30130,223;    1,160;   -0,591
709,729;29833,645;    1,069;    2,045
710,301;30658,613;   -1,204;    0,045
710,874;30607,763;    0,341;   -0,227
711,446;29461,822;   -0,295;    0,864
712,018;29386,699;   -3,022;    0,500
712,590;29159,304;   -0,204;    1,682
713,162;29645,817;   -0,477;    1,318
713,734;29886,603;    1,796;   -2,045
714,306;29777,026;    0,342;   -0,409
714,878;28454,539;   -0,295;    0,864
715,450;29315,871;   -0,113;    0,864
716,022;29606,930;    2,433;    1,318
716,593;29733,534;    0,978;    0,591
717,165;29623,139;    1,796;   -1,227
717,737;29360,016;    0,796;    0,409
718,309;29069,893;    1,160;   -0,045
718,880;29014,043;   -1,295;   -1,409
719,452;29242,011;    0,887;   -1,591
720,024;28731,615;    1,705;   -0,591
720,595;29282,856;    2,978;    0,955
721,167;28852,369;    1,160;   -2,045
721,738;28329,610;    2,069;   -1,045
722,309;28227,851;    1,251;   -1,227
722,881;28071,364;    2,705;    0,773
723,452;28721,060;    1,251;    2,864
724,023;28918,391;    1,524;    2,682
724,595;28714,632;    2,342;    0,682
725,166;28467,327;    1,524;   -0,409
725,737;28037,295;    1,887;    0,227
726,308;28134,991;    0,797;    0,318
726,879;28574,777;    1,069;    1,227
727,450;28473,381;   -2,022;   -0,045
728,021;28367,804;    1,069;    0,682
728,592;28179,499;    1,160;    0,500
729,163;28551,103;    1,433;   -0,136
729,734;28563,162;    2,160;   -0,227
730,305;28874,858;    0,615;    0,136
730,876;29203,644;    0,888;    2,955
731,447;28951,884;    0,797;    2,682
732,017;29051,307;   -0,840;    1,864
732,588;28552,366;   -0,021;    1,227
733,159;28739,334;    3,615;   -1,045
733,729;28550,666;    1,251;    0,409
734,300;27823,815;    0,160;    0,864
734,870;28275,147;   -1,385;    0,591
735,441;28805,206;    0,888;   -0,591
736,011;28553,629;    1,070;   -1,591
736,582;28506,960;    1,251;    0,045
737,152;27928,201;    0,979;   -2,045
737,722;28359,624;    1,070;   -0,682
738,293;28082,864;   -2,021;    1,318
738,863;27997,832;    1,797;    2,318
739,433;27789,528;    4,524;    0,318
740,003;28396,223;    1,524;   -0,682
740,573;27782,827;    2,252;   -1,591
741,143;27797,159;    3,615;    0,318
741,713;28485,490;    0,252;   -0,500
742,283;28182,822;    1,706;    1,591
742,853;27963,790;    0,524;    1,591
743,423;27448,940;    0,161;    0,045
743,993;27530,635;    1,070;    1,500
744,563;26892,785;    2,524;   -0,864
745,133;26905,935;   -0,112;   -0,864
745,702;27630,630;    2,797;    1,773
746,272;26806,871;    0,434;    0,591
746,842;26531,657;   -0,748;   -0,591
747,411;26962,352;   -0,839;   -0,318
747,981;27163,775;   -0,930;    0,500
748,551;27247,379;   -0,021;   -1,045
749,120;27032,893;   -0,112;   -0,227
749,690;27448,497;    2,161;    2,409
750,259;27793,738;    0,979;    2,955
750,828;27655,524;    4,070;   -1,955
751,398;27858,129;   -0,112;   -0,045
751,967;27377,187;    2,888;    0,409
752,536;27614,337;    1,161;   -0,227
753,105;28039,669;   -1,384;    0,227
753,675;27885,728;   -0,112;    1,773
754,244;27746,878;    0,888;    3,591
754,813;27826,391;    0,979;    1,227
755,382;27431,995;    0,798;    0,955
755,951;27956,600;   -0,112;    3,682
756,520;27482,113;    2,525;    1,864
757,089;28053,627;    1,888;    0,500
757,658;28179,777;    2,434;    1,227
758,227;28210,563;   -1,111;    0,318
758,795;28508,258;   -1,021;    1,136
759,364;28766,681;    0,525;   -0,591
759,933;27753,103;    1,343;   -0,045
760,501;27281,708;    0,252;   -1,318
761,070;27763,039;   -0,293;   -1,409
761,639;28492,825;    1,434;    1,318
762,207;27785,430;    0,889;   -0,955
762,776;27703,671;    2,889;    0,864
763,344;27684,911;    0,071;    0,591
763,913;26744,425;    1,616;    1,409
764,481;27506,575;    1,980;   -0,136
765,049;27318,997;    0,616;    1,409
765,618;27199,965;    1,434;    0,318
766,186;27256,024;    2,434;    0,136
766,754;27376,538;    1,798;    1,864
767,322;26386,051;    1,162;    0,409
767,890;26456,201;    0,525;   -1,773
768,459;26789,896;    2,616;   -0,318
769,027;27015,500;    2,525;    3,409
769,595;25999,014;    2,616;    2,591
770,163;26402,527;    3,344;    2,955
770,730;26122,950;    2,525;   -0,136
771,298;26002,282;    1,162;   -1,409
771,866;26119,977;    0,253;    4,955
772,434;26408,399;    1,162;   -1,864
773,002;26569,004;    2,616;    0,682
773,569;26140,426;    1,071;    1,682
774,137;26021,849;    0,889;   -0,045
774,705;26831,999;   -0,747;   -0,136
775,272;26291,694;    0,253;    0,682
775,840;26070,480;   -0,111;    2,682
776,407;25569,812;   -0,293;    1,955
776,975;25117,053;    1,162;    0,318
777,542;26192,657;    2,162;   -0,045
778,110;26027,171;    0,707;   -0,045
778,677;25726,957;    1,071;   -0,864
779,244;25415,379;   -1,020;    1,045
779,812;25531,347;    0,980;    0,864
780,379;25420,406;    2,435;    1,136
780,946;25689,920;    2,617;   -0,773
781,513;25988,888;   -0,565;    0,318
782,080;25291,037;    1,253;    2,864
782,647;26019,460;    1,708;    3,045
783,214;25619,883;   -0,201;    3,864
783,781;25227,578;    1,708;   -0,682
784,348;25141,273;    0,253;    1,500
784,915;25580,241;   -1,474;    0,318
785,482;25318,936;    2,708;    2,591
786,049;25800,177;    1,071;   -0,591
786,615;25907,691;    1,708;   -0,955
787,182;25645,750;   -3,201;   -0,682
787,749;25307,627;   -2,201;    1,409
788,315;24676,413;    0,253;   -0,409
788,882;24943,017;    0,981;   -1,227
789,448;25586,349;    1,435;   -0,955
790,015;25638,590;    1,799;    3,227
790,581;25141,467;    0,708;    0,227
791,148;25051,253;    1,344;    1,045
791,714;25320,676;   -1,019;    3,136
792,280;24970,553;    3,708;    1,591
792,847;24522,157;   -0,928;    2,500
793,413;25136,307;   -0,110;   -0,318
793,979;24587,366;    1,526;   -1,318
794,545;24668,516;    2,981;    2,682
795,111;24105,938;    2,435;    1,318
795,678;24280,088;    3,526;   -1,682
796,244;23908,783;    2,799;    0,136
796,810;24500,660;    0,799;    0,773
797,375;24199,174;   -0,292;   -2,136
797,941;24212,324;   -1,110;    0,591
798,507;24386,201;    0,254;   -0,955
799,073;23891,623;    2,708;    0,591
799,639;23987,955;    1,435;    3,136
800,205;24023,287;   -1,565;    2,682
800,770;23547,346;    1,345;    1,773
801,336;23554,314;    2,981;   -0,955
801,901;23272,827;    6,072;    3,136
802,467;23841,522;    0,526;    2,045
803,033;23136,763;   -0,019;    0,864
803,598;23385,004;    1,072;   -1,045
804,163;23420,426;    0,708;   -0,318
804,729;23339,758;   -0,110;    1,136
805,294;23718,635;    1,072;    2,227
805,859;23560,239;    0,890;   -0,409
806,425;23029,026;    3,890;    2,682
806,990;22689,266;    1,890;    4,318
807,555;23170,871;   -0,110;    2,591
808,120;23071,657;   -1,292;   -0,409
808,685;23123,898;    1,072;   -2,500
809,250;22619,593;    2,072;   -0,500
809,815;22928,016;   -0,201;    0,682
810,380;23489,529;    0,981;    1,591
810,945;23995,679;    2,890;    2,045
811,510;23174,738;   -0,200;    1,591
812,075;22871,615;    2,800;   -1,409
812,640;22879,128;    3,709;    1,409
813,204;22942,642;    2,163;   -0,227
813,769;23452,610;    0,254;   -0,045
814,334;22817,214;    0,527;    0,864
814,898;22867,728;    1,981;    0,591
815,463;22755,514;    0,981;   -0,773
816,027;22730,936;    1,345;   -2,318
816,592;22853,177;    2,163;   -2,045
817,156;22334,145;   -2,200;    1,136
817,721;22126,022;    0,982;    2,318
818,285;22090,990;    0,618;    1,500
818,849;22756,595;   -0,018;    1,682
819,414;22675,563;    0,073;    2,955
819,978;22231,167;   -0,291;    1,773
820,542;22832,590;    2,891;    0,500
821,106;22586,376;    2,800;    0,682
821,670;22652,162;    2,709;    2,591
822,234;22312,584;    1,073;    1,409
822,798;21652,734;   -0,836;    0,500
823,362;21641,339;    1,527;    4,227
823,926;20955,852;   -0,018;    1,136
824,490;21176,457;    3,527;   -0,682
825,054;21679,334;    2,527;   -1,136
825,618;21301,756;   -1,200;   -1,500
826,181;21228,270;    0,982;   -1,318
826,745;21127,692;   -0,745;   -1,045
827,309;21473,660;    2,255;    1,318
827,872;20850,265;    0,527;    0,955
828,436;21889,142;    1,982;   -0,773
828,999;21955,382;    2,436;    1,227
829,563;20755,260;   -0,654;    1,136
830,126;20566,137;   -0,018;   -0,591
830,690;20566,468;    0,709;    2,864
831,253;20081,254;   -0,473;    2,227
831,816;20207,950;   -0,018;    0,500
832,380;20096,645;    1,164;    0,864
832,943;20310,159;    3,073;   -0,500
833,506;19845,036;    0,255;   -1,227
834,069;20638,367;    2,164;   -0,955
834,632;20729,335;   -2,200;    1,318
835,195;20601,303;    1,346;    0,955
835,758;19788,635;    0,709;    1,955
836,321;19616,239;    1,073;   -1,045
836,884;19732,571;   -1,291;   -0,955
837,447;19760,721;    0,528;    1,773
838,010;20007,962;    1,800;    3,227
838,573;20331,202;    0,528;    0,773
839,135;20272,625;   -0,109;   -0,955
839,698;19692,502;    2,528;    0,409
840,261;19183,015;    0,255;   -0,227
840,823;19064,893;   -0,927;    0,864
841,386;19319,497;   -0,018;   -2,409
841,948;19205,010;    0,255;    1,773
842,511;18917,160;    0,255;    1,682
843,073;19067,492;    2,982;    0,227
843,636;18892,642;    0,619;   -0,227
844,198;18792,155;    1,255;    0,591
844,760;18902,396;    0,619;    1,955
845,322;18588,637;    0,164;    1,136
845,885;18983,605;   -0,290;    0,591
846,447;19422,936;    0,710;    0,227
847,009;18978,904;    3,983;   -0,682
847,571;19327,600;    1,346;   -2,045
848,133;19427,658;   -0,199;   -1,864
848,695;19271,172;    2,346;    1,409
849,257;18830,049;    1,346;   -1,682
849,819;18983,835;    2,983;   -0,409
850,381;18979,440;    1,801;   -0,864
850,942;19336,226;    1,892;   -0,591
851,504;19262,376;    0,983;    0,227
852,066;19292,889;    1,619;   -1,591
852,628;18855,039;    0,165;    1,955
853,189;18388,643;    0,256;    2,682
853,751;18542,975;   -0,654;    1,409
854,312;18374,579;    1,256;   -1,682
854,874;18885,456;   -0,108;   -0,773
855,435;19367,697;    0,528;   -1,682
855,997;19507,029;    3,983;   -0,136
856,558;18776,179;    0,801;    1,773
857,119;18872,601;   -0,744;    2,864
857,681;18573,842;   -0,108;    0,318
858,242;18606,719;    1,347;   -2,136
858,803;19059,596;    1,074;   -0,773
859,364;19629,837;    0,892;   -4,773
859,925;18982,169;   -0,290;   -0,955
860,486;18870,227;    0,529;   -0,955
861,047;18583,559;    0,165;   -1,227
861,608;18430,891;    0,165;   -0,773
862,169;18579,586;   -0,562;   -0,045
862,730;18328,736;   -0,290;    1,409
863,291;18568,613;    0,438;   -0,500
863,852;18921,945;   -0,926;    1,955
864,412;18379,367;   -1,835;   -0,864
864,973;16950,426;    1,892;    0,500
865,534;16792,485;    2,074;    0,227
866,094;18285,089;    2,620;    0,227
866,655;17965,694;    4,711;    3,318
867,215;18249,207;    0,074;    0,136
867,776;18096,903;   -1,199;   -0,136
868,336;18191,598;    1,529;    0,136
868,897;17595,293;    3,438;    1,682
869,457;17364,443;    3,256;    0,318
870,017;17620,411;    2,438;   -1,227
870,578;18177,652;    1,893;    0,773
871,138;17795,892;    2,620;   -0,955
871,698;17351,588;   -0,562;   -1,318
872,258;17188,647;    0,711;   -2,864
872,818;17535,887;    2,347;    0,045
873,378;17500,037;   -2,198;    1,045
873,938;17086,642;    4,984;    0,500
874,498;17446,791;    1,256;   -1,955
875,058;17255,759;    4,347;    1,773
875,618;17156,000;    1,438;   -2,682
876,177;17096,968;   -0,471;    0,136
876,737;16632,845;   -0,289;    1,955
877,297;16659,813;    2,711;    1,955
877,856;16720,418;    2,529;    0,318
878,416;16645,295;    2,438;   -0,136
878,976;16849,626;    3,438;    0,409
879,535;17063,140;    4,529;    3,136
880,095;16784,108;    1,347;    0,045
880,654;16910,258;    0,347;    1,318
881,213;17003,044;    2,347;    1,500
881,773;16683,739;    1,984;    2,682
882,332;17014,707;    6,075;    5,136
882,891;16864,675;    0,711;    2,136
883,451;17266,280;   -2,016;    1,682
884,010;16737,520;   -1,107;   -0,409
884,569;16858,125;   -2,289;   -0,045
885,128;16990,365;   -0,743;   -1,864
885,687;17052,333;   -0,743;    0,682
886,246;16759,120;    2,620;    2,136
886,805;16475,088;    1,620;    2,045
887,364;16780,328;    1,166;   -0,500
887,922;17117,933;   -0,016;    0,045
888,481;16644,719;    1,530;    0,591
889,040;16951,869;    3,711;    2,136
889,599;17611,200;    2,166;    1,409
890,157;17739,259;    2,166;    2,409
890,716;17381,773;    2,166;    0,227
891,274;17180,832;    0,075;   -1,136
891,833;17566,163;    1,166;    0,864
892,391;17475,768;    1,802;    0,500
892,950;17565,372;    0,166;   -0,773
893,508;17894,249;    0,984;   -0,409
894,067;17245,581;   -0,379;    0,136
894,625;17152,458;   -1,016;   -1,500
895,183;17409,971;   -0,198;   -0,682
895,741;17326,667;    2,257;   -1,773
896,299;17122,453;    1,621;   -2,409
896,858;17323,421;    1,530;   -1,591
897,416;17429,843;    0,166;   -1,318
897,974;17177,630;   -2,197;    0,318
898,532;17345,325;    6,530;    2,682
899,089;17257,475;    0,621;   -0,682
899,647;17310,806;    0,530;    1,318
900,205;17011,047;    0,257;    1,045
900,763;17217,379;    2,166;    0,227
901,321;17218,165;    3,530;   -1,409
901,878;16647,497;    3,257;   -0,773
902,436;16443,828;    0,257;    1,318
902,994;16833,251;    6,712;    3,682
903,551;16290,946;    1,439;    0,409
904,109;16702,005;    1,530;   -1,409
904,666;16318,246;    1,439;    1,045
905,224;16114,214;    3,894;   -0,409
905,781;15825,636;   -0,470;   -0,318
906,338;15917,695;    0,167;    1,045
906,895;15867,118;    1,894;    2,045
907,453;15804,722;    2,348;    1,136
908,010;15817,327;    3,348;    0,409
908,567;15452,476;   -0,561;    0,591
909,124;14997,717;    2,439;   -1,500
909,681;15057,867;   -1,288;    0,682
910,238;15191,380;   -0,106;   -1,318
910,795;15529,712;   -1,561;   -1,136
911,352;15163,439;   -0,379;   -2,682
911,909;14553,803;    2,803;   -0,864
912,466;15025,803;    1,985;    1,500
913,022;14557,258;   -0,924;    0,500
913,579;14954,076;   -0,470;    2,045
914,136;14632,530;   -2,561;    0,955
914,692;15019,985;    1,530;   -1,227
915,249;14572,621;    0,530;    0,409
915,806;14759,894;    1,803;    1,955
916,362;14493,167;    0,894;    1,864
916,918;14075,348;    2,439;    1,045
917,475;14031,712;    1,621;    0,955
918,031;14130,985;    0,076;   -0,045
918,587;13589,621;    0,621;   -0,318
919,144;13787,712;   -0,379;    0,227
919,700;14142,167;    0,167;    0,773
920,256;13737,530;    0,439;    0,045
920,812;13309,167;    1,439;   -1,045
921,368;13275,258;    1,348;   -1,045
921,924;12970,258;    0,439;   -0,136
922,480;12508,348;    0,076;    1,227
923,036;13151,894;   -0,652;    1,955
923,592;13102,803;    0,621;    0,318
924,148;13023,348;    1,894;   -0,955
924,704;12342,621;    0,258;   -0,409
925,259;12632,439;   -0,561;    0,591
925,815;12361,167;    3,803;    0,500
926,371;11869,985;    3,530;    1,409
926,926;11782,985;    1,621;    0,591
927,482;11403,985;    1,621;    0,773
928,037;11259,894;   -0,833;    2,045
928,593;11581,167;    0,258;    1,045
929,148;11405,258;    1,167;   -1,500
929,704;10910,530;    2,439;   -0,500
930,259;11128,076;    0,894;   -0,136
930,814;10178,803;    1,803;    1,955
931,369; 9905,167;    0,258;   -0,773
931,925; 9783,985;   -1,924;    0,136
932,480; 9670,621;    3,076;   -2,591
933,035; 9518,258;    3,985;   -0,318
933,590; 9283,258;   -1,742;   -1,773
934,145; 8959,894;   -1,288;   -0,318
934,700; 9283,258;    0,348;   -0,591
935,255; 9080,985;    4,803;    0,045
935,809; 8347,530;    6,258;    0,864
936,364; 7494,167;    2,167;   -0,136
936,919; 7495,076;    2,348;   -1,773
937,474; 7373,985;    1,348;    0,136
938,028; 7159,621;    3,076;    1,136
938,583; 6607,439;    6,348;    4,682
939,138; 6890,167;    0,167;    2,136
939,692; 6352,803;   -1,015;   -1,136
940,247; 6018,712;    1,167;   -1,045
940,801; 5561,439;    0,621;    0,227
941,355; 5471,439;    0,439;    2,591
941,910; 5136,348;    0,712;   -2,136
942,464; 5201,348;    2,712;   -0,318
943,018; 5000,894;    3,258;   -0,227
943,572; 4968,803;    2,803;   -0,682
944,126; 4384,621;   -0,924;   -0,409
944,681; 4278,803;    0,712;    0,227
945,235; 4259,076;    2,167;   -0,591
945,789; 4192,985;    1,258;   -1,864
946,342; 4268,894;   -0,561;   -0,591
946,896; 4073,167;    0,348;    0,955
947,450; 3857,712;   -0,561;   -0,227
948,004; 4030,621;    1,076;   -0,045
948,558; 4052,348;    1,258;   -0,864
949,111; 3966,894;   -1,197;   -0,318
949,665; 3996,348;   -0,106;   -0,682
950,219; 3857,167;    0,621;   -1,045
950,772; 3948,530;    0,258;    1,864
951,326; 3869,985;   -1,106;   -0,955
951,879; 3961,167;    1,076;   -2,318
952,433; 3969,530;    1,348;    2,227
952,986; 3818,167;    0,348;    0,682
953,539; 3753,803;    1,530;    0,591
954,093; 3703,530;    0,985;   -1,318
954,646; 3831,076;   -0,288;    1,318
955,199; 3643,803;    1,258;   -0,500
955,752; 3531,985;    1,985;    1,773
956,305; 3472,439;    0,894;    2,955
956,858; 3656,076;    0,621;   -0,318
957,411; 3842,985;    3,621;    2,136
957,964; 3653,894;    2,076;    2,136
958,517; 3638,803;    0,985;    3,136
959,070; 3480,985;   -1,197;    1,955
959,623; 3570,985;    1,076;    1,500
960,176; 3341,803;    0,712;    2,045
960,728; 3294,167;    1,712;    0,773
961,281; 3343,348;    2,258;    0,500
961,834; 3381,530;   -0,833;    0,864
962,386; 3306,439;    1,258;    1,045
962,939; 3217,803;    3,439;   -0,318
963,491; 3377,712;    2,621;    1,136
964,043; 3252,621;    0,076;    2,409
964,596; 3374,530;    1,712;    2,227
965,148; 3199,258;   -0,379;    1,773
965,700; 3133,621;   -0,015;   -0,227
966,253; 3286,258;   -0,833;    0,318
966,805; 3109,803;    1,894;    0,773
967,357; 3167,167;    0,439;   -1,500
967,909; 3130,348;    1,167;   -1,227
968,461; 3244,621;    0,894;    3,136
969,013; 3158,439;   -1,561;   -0,864
969,565; 3249,167;    1,803;   -1,136
970,117; 3306,348;    3,803;    1,045
970,669; 3140,167;    3,258;   -0,136
971,220; 3019,167;    2,167;   -1,500
971,772; 2931,167;    1,348;   -0,318
972,324; 3048,621;   -1,197;   -0,500
972,876; 3007,894;    0,167;   -0,045
973,427; 3117,894;   -1,197;   -1,045
973,979; 3104,530;    0,076;   -2,500
974,530; 3130,712;    0,803;    1,318
975,082; 3127,894;    2,167;    1,682
975,633; 3017,076;    2,894;    1,682
976,184; 3194,803;    2,076;    0,773
976,736; 2979,712;    0,348;    0,227
977,287; 2766,076;    0,258;   -0,500
977,838; 2975,439;   -0,924;   -0,318
978,389; 3022,530;    0,803;   -0,500
978,940; 2878,803;    1,258;   -0,409
979,491; 2910,439;    2,258;   -0,500
980,042; 2837,530;   -0,652;    3,045
980,593; 2907,258;    1,894;    0,227
981,144; 2973,985;    3,530;   -0,500
981,695; 2939,348;   -0,470;    1,500
982,246; 2905,439;   -1,833;    1,045
982,797; 3070,530;   -0,561;    0,682
983,347; 3178,803;    2,167;    0,591
983,898; 3324,530;    4,167;    0,409
984,449; 3153,167;    2,530;    0,773
984,999; 3079,712;    1,894;   -1,136
985,550; 2845,894;    3,167;   -0,318
986,100; 2876,712;    0,712;   -0,318
986,651; 2908,439;    0,258;    0,045
987,201; 2897,712;    0,894;   -0,591
987,751; 2983,076;   -0,288;    2,864
988,302; 2965,439;   -0,379;    1,500
988,852; 2971,439;    1,985;   -1,136
989,402; 3011,258;    0,985;    0,682
989,952; 2920,985;    1,621;    0,864
990,502; 3015,530;    1,076;    0,682
991,052; 2999,167;   -0,106;    0,045
991,602; 2841,167;    1,167;    1,318
992,152; 2854,076;    2,803;    0,682
992,702; 2821,348;    1,167;   -0,045
993,252; 2741,985;    0,076;   -0,500
993,802; 2841,258;    1,167;    1,318
994,352; 3093,076;   -0,742;    1,136
994,901; 3199,258;    1,076;    3,227
995,451; 3105,076;   -1,197;    0,318
996,000; 3188,076;    1,076;    0,318
996,550; 2886,167;    2,894;    0,227
997,100; 2900,803;   -0,561;   -0,045
997,649; 3192,348;   -0,197;    0,955
998,198; 2828,894;   -0,288;   -1,500
998,748; 2983,712;    0,348;   -2,318
999,297; 2895,894;    0,985;   -0,409
999,846; 2968,985;    1,894;   -0,773
1000,395; 3013,076;    1,530;    0,500
1000,945; 2972,894;    1,076;   -0,773
1001,494; 3045,985;    0,167;    0,682
1002,043; 3039,530;    0,712;    0,864
1002,592; 2897,985;    3,439;    1,955
1003,141; 3025,803;    2,439;   -0,682
1003,690; 2870,076;    1,258;    0,500
1004,238; 2950,712;   -0,106;   -0,045
1004,787; 2580,076;   -1,288;    1,227
1005,336; 2796,621;    1,621;    0,682
1005,885; 2953,439;   -0,197;   -2,773
1006,433; 3137,439;   -0,470;    0,955
1006,982; 3183,712;    2,167;    1,682
1007,531; 3065,258;    2,712;   -0,227
1008,079; 3042,258;    0,258;    0,500
1008,627; 3198,167;    1,621;    0,409
1009,176; 2914,348;    0,076;   -1,955
1009,724; 2954,258;   -2,742;    0,864
1010,273; 3014,076;    1,076;    0,500
1010,821; 3132,712;    1,076;    1,409
1011,369; 2853,894;    0,076;    1,318
1011,917; 2838,530;   -0,833;   -0,591
1012,465; 3132,258;    2,530;   -1,591
1013,013; 3246,894;    0,439;   -1,682
1013,561; 3104,076;   -1,288;   -0,773
1014,109; 3157,076;   -0,833;    1,682
1014,657; 3036,167;    1,348;    0,591
1015,205; 3148,530;    0,894;   -0,955
1015,753; 3191,803;    0,258;   -1,409
1016,301; 3215,076;    2,621;    3,045
1016,848; 3235,530;    2,167;    0,409
1017,396; 3267,439;    1,621;    0,045
1017,944; 3388,712;    2,621;    1,864
1018,491; 3140,621;   -0,197;    1,409
1019,039; 3292,167;   -0,652;    0,591
1019,586; 3213,530;    0,076;    1,682
1020,134; 3307,076;    0,712;    1,500
1020,681; 3329,439;    2,894;   -1,136
1021,228; 3357,348;   -0,561;   -2,227
1021,776; 3185,894;   -0,833;   -1,136
1022,323; 3414,076;    0,803;    0,773
1022,870; 3345,894;   -0,470;   -0,045
1023,417; 3228,439;    2,076;    1,864
1023,964; 3371,167;    0,621;    1,227
1024,511; 3202,894;   -0,652;    0,773
1025,058; 3018,985;    0,439;   -0,045
1025,605; 3051,258;   -1,742;    3,136
1026,152; 3256,167;   -0,106;   -0,591
1026,699; 2991,712;    0,167;    1,318
1027,245; 3177,803;    2,439;    0,318
1027,792; 3402,258;    0,712;    1,409
1028,339; 3270,712;    4,076;   -0,045
1028,885; 3116,894;    3,621;   -0,227
1029,432; 3060,894;   -0,106;    0,227
1029,978; 3113,348;    1,348;   -1,591
1030,525; 2997,712;    1,621;    0,409
1031,071; 3269,530;    0,348;    1,136
1031,618; 3365,894;    1,258;    1,682
1032,164; 3159,530;    2,076;    3,045
1032,710; 3198,894;    0,076;   -1,500
1033,256; 3121,712;    0,712;   -0,136
1033,803; 3107,348;   -0,288;    1,500
1034,349; 2850,167;    1,803;    0,136
1034,895; 2999,894;    2,621;   -0,318
1035,441; 2963,167;    0,439;    0,318
1035,987; 2981,439;   -2,288;   -0,682
1036,533; 2977,258;   -0,197;   -0,955
1037,078; 3184,076;    4,712;    1,682
1037,624; 3004,530;    2,439;   -0,955
1038,170; 3022,894;    1,712;   -0,318
1038,716; 2912,258;    2,167;   -0,409
1039,261; 2826,803;    2,167;   -0,773
1039,807; 2777,894;   -0,015;    3,409
1040,352; 2853,985;   -1,288;   -0,318
1040,898; 2899,076;    0,167;   -0,682
1041,443; 2809,258;    0,803;   -2,591
1041,989; 2835,167;    3,621;    1,591
1042,534; 2705,258;    0,985;    2,591
1043,079; 2827,076;    1,985;    0,955
1043,625; 2589,621;    0,258;    0,500
1044,170; 2654,167;    2,439;    1,045
1044,715; 2912,894;    0,167;    0,955
1045,260; 2721,712;   -0,833;   -0,955
1045,805; 2783,439;    0,258;   -0,591
1046,350; 2730,439;    0,530;   -0,409
1046,895; 2691,258;    0,803;    1,591
1047,440; 2622,167;    1,530;    0,409
1047,985; 2520,258;   -1,197;   -0,955
1048,530; 2438,712;    1,348;    1,227
1049,074; 2492,985;    2,803;    0,318
1049,619; 2488,530;   -0,924;    1,955
1050,164; 2302,439;    1,076;    0,227
1050,708; 2354,803;    2,621;    0,045
1051,253; 2695,621;    3,258;   -2,227
1051,797; 2418,167;   -0,197;   -1,318
1052,342; 2431,894;    1,348;    1,045
1052,886; 2416,167;    1,803;   -1,409
1053,430; 2313,439;    2,167;    0,136
1053,975; 2322,076;    0,894;   -0,318
1054,519; 2294,985;    1,803;    3,227
1055,063; 2307,167;    3,621;    1,318
1055,607; 2186,530;    1,348;    0,227
1056,151; 2237,439;    0,530;    1,682
1056,695; 2156,167;   -1,833;   -1,136
1057,239; 2197,803;   -1,197;   -0,682
1057,783; 2209,439;    2,258;   -1,500
1058,327; 2175,712;    3,076;    1,409
1058,871; 2395,712;    3,985;    1,318
1059,415; 2086,530;   -0,561;   -0,045
1059,958; 2351,076;    2,985;    2,591
1060,502; 2077,894;    1,348;   -0,773
1061,046; 1991,894;    1,712;   -0,955
1061,589; 1969,258;    2,803;   -1,136
1062,133; 1844,167;    0,985;    1,864
1062,676; 1779,076;    1,439;    0,864
1063,220; 1791,348;    0,985;    0,500
1063,763; 1812,985;    2,985;    1,136
1064,306; 1864,621;    0,985;    1,864
1064,849; 1758,167;    2,076;    0,591
1065,393; 1775,076;    2,894;   -1,500
1065,936; 1888,167;    2,530;   -0,409
1066,479; 1773,985;    2,621;    1,318
1067,022; 1808,167;    1,894;   -0,227
1067,565; 1704,348;   -1,197;   -1,318
1068,108; 1731,439;    1,258;   -0,591
1068,651; 1704,712;   -2,470;    1,409
1069,194; 1624,348;   -1,106;   -1,682
1069,736; 1627,530;    3,803;    0,955
1070,279; 1612,894;   -1,652;   -0,500
1070,822; 1651,076;    1,530;   -0,318
1071,364; 1721,530;    0,530;    1,318
1071,907; 1564,167;    0,348;    3,227
1072,450; 1484,894;    0,258;   -0,045
1072,992; 1462,985;   -0,561;    3,136
1073,535; 1596,439;    0,167;    2,136
1074,077; 1405,076;    2,985;    2,045
1074,619; 1361,167;    0,985;    0,591
1075,161; 1388,530;   -0,561;    1,500
1075,704; 1566,985;    0,258;    1,227
1076,246; 1364,803;    1,530;    0,682
1076,788; 1303,803;   -1,015;    1,773
1077,330; 1387,621;   -2,106;    2,136
1077,872; 1349,803;   -1,924;    0,955
1078,414; 1574,803;    3,712;    0,773
1078,956; 1303,712;    0,167;   -0,227
1079,498; 1537,439;    0,439;    0,318
1080,040; 1244,621;    0,985;   -1,318
1080,581; 1206,530;    0,621;   -0,318
1081,123; 1135,167;   -0,106;   -0,773
1081,665; 1189,167;    3,803;   -0,955
1082,206; 1475,621;    3,258;   -0,500
1082,748; 1328,712;    3,258;    2,045
1083,289; 1214,439;    0,167;    1,318
1083,831; 1121,712;    0,258;    0,227
1084,372; 1155,621;    0,894;    0,591
1084,913; 1155,439;    3,348;    0,864
1085,455; 1128,894;    1,530;   -2,045
1085,996; 1098,621;    0,530;    0,136
1086,537; 1128,803;    0,985;    0,864
1087,078; 1163,439;    0,439;   -2,136
1087,619; 1197,167;   -1,652;    0,227
1088,160; 1111,439;    1,439;    1,318
1088,701; 1100,076;   -0,742;    0,682
1089,242; 1037,530;   -0,561;   -2,227
1089,783; 1122,348;   -0,561;    1,409
1090,324; 1092,439;   -0,833;    0,682
1090,865;  978,530;   -1,924;   -0,409
1091,405;  958,076;   -0,561;    2,227
1091,946;  986,621;   -0,197;   -0,955
1092,487;  907,258;   -1,288;   -1,409
1093,027; 1075,621;    1,803;   -1,500
1093,568;  923,530;    2,258;    1,227
1094,108;  995,258;    0,621;    1,773
1094,649;  960,621;   -0,470;    0,136
1095,189;  910,985;    1,167;   -0,682
1095,729;  844,894;    0,712;    0,955
1096,269;  856,258;    1,258;   -0,955
1096,810; 1160,076;   -0,197;    0,500
1097,350; 1001,621;   -0,561;   -0,773
1097,890;  893,712;    2,985;    1,227
1098,430; 1134,439;    4,985;    2,864
1098,970; 1014,258;    1,894;    1,682
1099,510;  887,076;   -0,833;   -2,318
1100,050;  808,985;    0,258;   -1,591
1100,589;  774,530;    0,076;   -0,318
1101,129;  892,712;    0,894;   -0,955
1101,669; 1030,258;    2,803;    2,136
1102,209;  868,530;    1,530;    2,227
1102,748;  828,530;    3,439;    0,955
1103,288;  817,167;    0,712;   -1,227
1103,827;  831,985;    3,530;   -2,227
1104,367;  709,712;    1,712;   -2,409
1104,906;  689,621;   -1,015;   -1,136
1105,445;  766,894;    0,985;   -1,136
1105,985;  699,530;   -0,652;    1,500
1106,524;  745,076;    1,530;   -0,682
1107,063;  721,803;    1,167;    1,409
1107,602;  699,439;    1,894;   -1,500
1108,141;  612,621;    1,621;    1,500
1108,680;  710,348;    3,985;   -0,591
1109,219;  663,803;    0,167;   -0,500
1109,758;  672,712;    4,167;    0,682
1110,297;  634,621;   -1,106;   -0,682
1110,836;  578,803;    1,439;    0,955
1111,375;  730,258;    0,348;    0,409
1111,913;  748,258;    0,985;    0,773
1112,452;  699,803;    0,894;    0,136
1112,991;  586,803;    1,076;    1,955
1113,529;  545,076;    0,167;   -0,045
1114,068;  606,894;    0,439;    2,955
1114,606;  497,985;   -0,561;   -0,955
1115,144;  654,258;    1,530;    1,045
1115,683;  600,621;    1,985;    0,318
1116,221;  652,076;    2,076;   -0,864
1116,759;  557,712;    1,621;   -0,864
1117,297;  743,985;    1,621;    1,864
1117,836;  561,803;    1,985;   -1,227
1118,374;  564,167;    0,258;   -0,682
1118,912;  516,803;    0,439;    2,682
1119,450;  499,076;    0,985;    0,864
1119,988;  542,076;    3,348;    2,136
1120,525;  993,985;    7,258;    3,318
1121,063;  690,258;    0,530;    1,864
1121,601;  505,803;    1,076;   -1,227
1122,139;  470,439;    1,076;   -2,045
1122,676;  652,985;   -1,652;    2,773
1123,214;  584,894;    0,712;    4,409
1123,751;  408,439;    0,621;    2,227
1124,289;  543,530;    0,894;   -0,409
1124,826;  411,712;   -0,379;    0,227
1125,364;  340,985;    0,712;   -0,955
1125,901;  522,439;    6,258;    1,227
1126,438;  618,712;    3,530;    0,955
1126,975;  361,167;    2,985;   -0,773
1127,513;  432,167;    2,621;    2,136
1128,050;  346,439;   -0,561;   -0,682
1128,587;  432,621;    1,348;   -0,227
1129,124;  472,712;   -0,015;    1,318
1129,661;  350,167;   -1,924;    0,227
1130,198;  506,803;    2,439;    0,773
1130,734;  454,348;   -0,379;    1,409
1131,271;  321,894;   -1,197;    0,864
1131,808;  483,439;    1,621;    3,045
1132,345;  358,530;    4,530;    0,318
1132,881;  245,803;   -0,561;   -1,864
1133,418;  370,258;    0,348;   -1,136
1133,954;  317,530;    0,712;   -2,682
1134,491;  384,348;    1,712;   -0,773
1135,027;  281,712;    2,167;    0,864
1135,564;  357,803;    1,439;    2,955
1136,100;  344,803;   -0,742;    2,136
1136,636;  251,348;   -1,015;   -1,045
1137,172;  336,530;    0,894;   -1,045
1137,708;  267,530;   -1,561;   -1,045
1138,245;  273,803;    0,803;   -1,227
1138,781;  236,167;    1,803;   -3,318
1139,317;  286,530;    1,894;   -1,409
1139,852;  279,621;    3,076;    0,136
1140,388;  389,712;    2,076;   -0,409
1140,924;  276,258;    1,076;   -2,227
1141,460;  226,803;   -0,288;    0,136
1141,996;  160,348;   -0,652;    2,682
1142,531;  197,803;    1,076;    3,318
1143,067;  395,076;    1,167;    1,045
1143,602;  446,348;    3,439;   -0,318
1144,138;  303,258;    0,803;    1,045
1144,673;  180,985;    1,621;    1,409
1145,209;  244,167;    2,894;   -0,318
1145,744;  165,803;    0,803;    0,864
1146,279;  288,894;    1,530;   -0,136
1146,815;  221,439;    1,530;   -2,682
1147,350;  255,076;   -0,924;    0,045
1147,885;  174,985;   -1,924;   -1,318
1148,420;  177,530;    2,439;    0,773
1148,955;  161,985;   -1,470;    1,864
1149,490;  180,530;   -1,106;   -1,591
1150,025;  166,258;   -1,106;   -1,773
1150,560;  272,985;   -0,288;   -0,955
1151,094;  240,076;    0,258;   -0,591
1151,629;  238,439;   -3,742;    0,864
1152,164;  173,439;   -1,288;    1,318
1152,698;  136,076;    1,258;   -0,136
1153,233;   98,439;   -1,379;   -0,682
1153,767;  138,985;   -0,288;   -2,318
1154,302;  190,167;   -0,379;    1,773
1154,836;  183,530;    0,803;   -2,136
1155,371;  233,258;    2,258;    3,682
1155,905;  197,985;    1,985;    1,682
1156,439;  165,167;    0,530;   -0,500
1156,973;  185,712;    0,439;    0,318
1157,507;  129,258;   -1,742;    0,682
1158,042;  159,348;   -0,652;    1,045
1158,576;  198,985;   -0,561;    1,773
1159,110;  190,621;    0,076;    2,409
1159,643;  164,985;   -2,470;   -0,045
1160,177;  111,439;   -2,015;    1,500

