
Integration time [ms]:   0,050
Averaging Nr. [scans]: 11
Smoothing Nr. [pixels]: 0
Data measured with spectrometer [name]: 7318044SP
Wave   ;Sample   ;Dark     ;Reference
[nm]   ;[counts] ;[counts] ;[counts] 

186,757;  -23,861;   38,161;    1,318
187,357;   -0,327;   26,706;    0,955
187,958;   -6,158;   17,252;   -1,591
188,558;   23,583;   12,979;   -1,227
189,159;   -2,585;   10,070;   -4,500
189,759;  -22,622;    5,797;   -3,591
190,360;  -26,777;    6,797;   -2,136
190,960;   -2,092;    5,706;   -4,136
191,560;    6,635;    2,614;   -6,591
192,161;  200,561;    5,885;   -3,500
192,761;   66,334;    5,520;   -3,227
193,361;   18,544;    3,065;   -3,773
193,962;   50,759;    1,612;   -2,682
194,562;   -9,845;   -0,114;   -3,955
195,162;   13,787;   -0,567;   -2,227
195,762;  113,930;    2,433;   -0,045
196,362;   72,535;    1,706;   -2,500
196,963;   -5,621;    1,706;   -0,864
197,563;   33,406;    1,252;   -0,955
198,163;   -4,024;   -0,111;   -0,682
198,763;   -3,258;   -0,020;   -0,500
199,363;   56,906;    3,616;   -0,500
199,963;   30,429;    2,162;    0,409
200,563;   19,707;    6,344;   -1,409
201,163;   -0,999;    5,435;   -0,227
201,763;   21,794;    1,435;    0,318
202,363;   -5,557;    0,980;    1,500
202,963;   25,223;    1,526;    1,045
203,563;   77,291;    0,344;    0,500
204,162;   12,493;    1,889;   -1,864
204,762;    8,616;    2,071;    0,591
205,362;   -7,410;    0,708;    1,955
205,962;    7,359;    3,435;    1,955
206,562;    4,305;    1,889;    2,318
207,161;    3,366;    1,708;    0,318
207,761;   72,700;    4,435;    2,409
208,361;    7,139;    1,889;    1,409
208,960;   26,617;    2,889;    1,500
209,560;   32,449;    0,435;    1,591
210,160;   39,470;    5,071;    1,864
210,759;   14,271;    0,708;    1,227
211,359;    3,251;   -0,474;    1,045
211,958;  101,303;    3,526;    2,045
212,558;  114,910;    0,799;    1,864
213,157;   52,611;   -0,929;    1,500
213,757;  185,190;    5,617;   -0,227
214,356;   80,960;    1,708;   -0,409
214,956;  168,602;    3,526;    0,409
215,555;   48,942;    0,617;    2,136
216,154;   26,428;   -0,292;   -0,591
216,754;   24,328;    1,253;    0,773
217,353;   32,646;   -0,383;   -1,045
217,952;  -12,258;    2,072;    0,318
218,552;   53,474;    0,254;   -0,773
219,151;   17,475;   -1,110;    0,955
219,750;    8,179;    0,890;   -0,227
220,349;    3,012;   -2,292;    1,045
220,948;   64,082;    1,163;    1,136
221,548;   13,262;    0,617;    1,227
222,147;   29,088;   -1,292;   -0,409
222,746;  109,976;    1,254;   -0,955
223,345;   49,092;   -1,019;    0,500
223,944;   56,602;    1,163;    0,773
224,543;   53,537;    4,072;   -1,409
225,142;   35,978;    1,345;    0,136
225,741;   44,786;    1,163;    1,045
226,340;   33,571;    1,254;   -0,955
226,939;   99,987;    2,708;   -0,136
227,538;   32,804;    1,163;   -0,773
228,137;  107,188;    0,435;    0,864
228,735;   69,546;    0,435;    1,227
229,334;   10,173;   -0,474;   -0,227
229,933;  111,974;    0,799;    0,591
230,532;  102,642;   -1,201;   -0,409
231,131;  137,452;    1,253;    0,318
231,729;   67,767;    1,163;   -2,318
232,328;   30,811;    0,435;   -1,500
232,927;   35,754;    4,526;   -0,500
233,525;   29,540;    0,981;    0,045
234,124;   45,337;    1,890;   -1,591
234,723;   10,104;    1,617;   -1,045
235,321;    1,333;    1,163;    0,136
235,920;   22,772;    2,526;   -1,227
236,518;   93,547;    1,072;    0,318
237,117;   15,144;    2,890;   -0,227
237,715;   32,328;    1,163;   -0,500
238,314;   38,929;    1,708;   -2,318
238,912;   97,870;    0,526;   -1,409
239,510;   59,850;    1,162;   -1,227
240,109;  116,110;   -0,474;    3,773
240,707;   90,284;   -0,474;    1,227
241,305;   16,806;   -0,383;    0,136
241,904;   61,351;   -0,292;   -2,045
242,502;  144,821;    3,253;   -0,227
243,100;   84,681;    3,344;   -0,955
243,698;   46,319;    2,799;    1,682
244,297;   73,541;   -0,656;    0,682
244,895;   74,960;   -0,474;   -2,318
245,493;  184,887;    2,981;   -0,591
246,091;  200,744;    5,163;   -1,318
246,689;  155,739;    2,163;    0,591
247,287;  153,975;   -0,019;   -1,136
247,885;  138,801;   -1,019;    1,227
248,483;  120,938;   -0,201;   -0,500
249,081;  209,318;    0,981;    1,591
249,679;  253,421;   -1,019;    1,682
250,277;  152,585;   -2,292;    0,864
250,875;  273,959;    0,617;   -1,045
251,473;  207,818;   -0,019;    0,500
252,071;  303,029;   -0,383;    1,045
252,669;  248,965;   -1,565;    0,318
253,267;  225,135;    1,618;    0,773
253,864;  281,066;    0,617;    0,682
254,462;  437,423;    1,526;    1,591
255,060;  253,125;    0,072;    1,318
255,658;  263,238;   -3,292;   -0,136
256,255;  362,515;   -0,201;   -2,045
256,853;  409,710;    2,345;    1,409
257,451;  394,149;    1,981;    1,864
258,048;  840,125;    2,072;    1,864
258,646;  551,327;    0,436;   -1,045
259,243;  678,801;    2,981;    2,227
259,841;  563,211;    1,799;    0,318
260,438;  415,593;    0,254;    0,864
261,036;  576,578;    0,617;    1,409
261,633;  481,066;    1,526;    2,227
262,231;  459,528;   -0,110;   -0,045
262,828;  480,271;   -0,383;    1,136
263,425;  558,296;   -1,928;   -0,591
264,023;  593,125;    1,436;    0,045
264,620;  752,862;    1,526;   -0,318
265,217;  926,152;    2,890;    3,136
265,815;  650,218;    2,527;    2,136
266,412;  798,071;    0,072;    0,136
267,009;  850,054;    0,526;    0,773
267,606;  971,054;    0,345;   -0,955
268,203;  740,085;   -0,383;   -0,591
268,801;  821,720;   -0,474;    0,591
269,398;  761,121;   -0,564;    2,500
269,995;  933,816;    0,890;    1,591
270,592;  827,659;    0,799;   -0,500
271,189;  774,880;    1,981;    0,409
271,786;  777,333;    2,072;    1,227
272,383; 1048,861;   -0,383;    0,227
272,980;  879,850;    1,617;    0,318
273,577;  860,600;    2,162;    1,227
274,174;  775,379;    1,435;    2,591
274,771;  899,329;    1,890;   -0,773
275,367; 1362,231;    3,253;    1,409
275,964; 1146,718;   -0,565;   -0,500
276,561;  926,799;   -2,474;   -1,045
277,158;  860,512;    1,799;   -1,773
277,755; 1129,409;   -0,110;    0,409
278,351;  914,504;    0,436;   -1,500
278,948; 1038,827;   -0,201;    0,045
279,545;  937,254;    0,527;    2,318
280,141; 1245,220;    1,254;   -2,045
280,738; 1116,228;    2,435;   -0,136
281,334;  922,212;   -0,383;    0,591
281,931;  933,617;    2,890;   -1,318
282,528; 1046,624;    4,072;   -0,500
283,124; 1217,059;    3,345;   -0,500
283,721; 1195,870;    0,709;    1,409
284,317; 1032,413;    0,163;    2,500
284,913; 1314,211;   -0,110;    0,591
285,510; 1656,211;    2,890;   -0,318
286,106; 1452,478;    2,345;   -0,955
286,703; 1104,598;    0,072;    1,955
287,299; 1123,484;    1,254;   -0,591
287,895; 1197,804;    0,890;   -1,045
288,491; 1338,030;    0,163;    2,136
289,088; 1439,497;    0,163;    2,409
289,684; 1511,511;    2,890;    1,500
290,280; 1733,115;    1,890;    0,682
290,876; 1781,735;    0,163;    5,500
291,472; 1706,726;    2,163;    2,227
292,068; 1805,034;    1,254;    0,227
292,665; 1688,666;   -0,564;    0,773
293,261; 1648,436;   -1,292;    2,136
293,857; 1907,196;    4,072;    2,136
294,453; 1941,424;   -0,928;    0,955
295,049; 2159,487;    0,253;    1,955
295,644; 2133,685;   -1,292;    0,136
296,240; 2130,841;    0,162;   -0,136
296,836; 2388,823;   -0,747;    0,318
297,432; 2656,310;    2,980;   -0,500
298,028; 2811,738;    0,435;    0,773
298,624; 2907,656;    0,889;    1,864
299,220; 3086,943;    0,435;    0,591
299,815; 2976,430;    0,526;   -0,409
300,411; 3086,578;    0,435;    1,773
301,007; 3246,814;    1,889;    0,227
301,602; 3210,528;    2,071;   -2,318
302,198; 3432,673;    1,435;   -0,773
302,794; 3601,168;    1,526;   -0,500
303,389; 3763,183;    1,071;    1,045
303,985; 3848,439;    1,253;    1,409
304,580; 3917,073;    0,889;    1,591
305,176; 3892,455;    0,344;    0,136
305,771; 3833,168;   -0,929;   -1,227
306,367; 4027,443;    3,071;    0,136
306,962; 4123,710;    2,889;    1,500
307,558; 3905,191;    2,435;    0,136
308,153; 3908,096;   -0,383;   -1,136
308,748; 3925,034;    0,162;    1,682
309,344; 4087,021;    0,253;   -1,318
309,939; 4201,099;    2,071;   -1,318
310,534; 4133,605;   -2,020;   -1,682
311,130; 3990,285;   -0,656;   -2,500
311,725; 3751,597;    0,526;   -0,500
312,320; 3898,142;    1,253;    0,045
312,915; 3904,338;    2,890;   -1,045
313,510; 3966,907;    0,526;   -0,500
314,105; 4025,016;   -3,565;    1,409
314,700; 3542,874;   -1,656;   -1,045
315,295; 3409,163;   -0,020;    0,045
315,890; 3121,972;   -0,292;    0,864
316,485; 3202,153;    0,253;   -0,318
317,080; 3215,083;   -0,929;    1,591
317,675; 3492,147;    3,071;   -0,682
318,270; 3332,971;    6,889;    3,318
318,865; 3251,239;    2,435;    3,045
319,460; 2977,860;   -1,565;    0,591
320,055; 3000,253;   -2,565;   -1,227
320,650; 2796,560;   -1,838;   -0,591
321,244; 2762,641;    0,889;   -1,409
321,839; 3161,707;    0,980;   -0,227
322,434; 3084,051;   -0,111;   -1,591
323,029; 2900,391;   -0,474;    1,591
323,623; 2820,580;    0,798;    0,773
324,218; 2815,902;    2,707;    1,409
324,812; 2765,992;    0,889;    1,591
325,407; 2721,041;   -0,929;    2,045
326,002; 2745,656;    0,526;   -0,409
326,596; 2877,950;   -0,656;    1,318
327,191; 2915,813;   -0,383;   -1,045
327,785; 2766,677;   -0,747;   -0,227
328,379; 3032,117;   -0,383;    0,136
328,974; 2924,695;    1,798;   -3,955
329,568; 3160,392;    2,889;   -2,409
330,163; 3220,524;    2,435;    1,045
330,757; 3377,045;    0,253;    1,591
331,351; 3196,113;   -0,292;    0,682
331,945; 3437,527;   -0,383;    1,409
332,540; 3447,209;    1,617;   -0,591
333,134; 3579,023;    3,344;    0,773
333,728; 3741,086;    2,799;    0,318
334,322; 4052,048;    0,889;   -0,864
334,916; 3746,046;    0,344;    0,955
335,510; 4130,681;   -0,111;   -0,136
336,105; 4402,540;   -0,929;    1,591
336,699; 4307,678;   -1,292;    0,591
337,293; 4413,186;    1,071;    0,318
337,887; 4591,174;    0,071;    1,955
338,481; 4847,963;    2,980;    0,591
339,074; 5219,950;    2,071;    2,682
339,668; 5233,257;   -0,110;    1,227
340,262; 5790,514;    7,708;    3,227
340,856; 5430,972;    1,708;   -0,682
341,450; 5060,258;    0,708;    1,864
342,044; 5808,004;    1,799;    0,136
342,637; 5846,655;    1,162;   -2,136
343,231; 5886,213;   -1,474;    0,682
343,825; 5928,128;   -0,747;   -0,591
344,419; 6104,193;   -0,474;    0,500
345,012; 6237,635;    2,889;    4,045
345,606; 6303,937;   -0,656;    1,591
346,199; 6269,995;   -0,111;   -0,227
346,793; 6121,393;    2,525;    2,045
347,386; 6378,409;    0,889;   -1,136
347,980; 6399,092;   -0,838;   -0,045
348,573; 6381,799;   -1,748;    0,409
349,167; 6287,314;    6,161;    4,773
349,760; 6683,265;    2,252;    2,682
350,354; 6674,881;    1,616;    1,136
350,947; 6511,836;    2,798;    1,682
351,540; 6359,222;    0,616;   -1,409
352,134; 6335,661;   -1,111;    1,136
352,727; 6417,704;   -0,657;    1,136
353,320; 6329,808;    2,343;    0,591
353,913; 6204,143;   -1,929;    1,864
354,507; 6411,259;    0,434;   -1,227
355,100; 6477,320;    0,071;    0,864
355,693; 5902,590;    4,798;    2,409
356,286; 5917,201;    0,980;    2,773
356,879; 6211,275;   -0,475;    1,227
357,472; 5857,958;    0,980;    1,500
358,065; 6052,665;    3,161;    2,500
358,658; 5994,361;    0,798;    2,318
359,251; 5679,734;    0,252;   -0,591
359,844; 5287,832;    0,343;   -1,136
360,437; 5442,116;    0,252;    0,045
361,030; 5626,702;    0,525;   -0,682
361,623; 5285,418;    0,434;    0,318
362,215; 5304,045;    0,979;    2,045
362,808; 5194,166;   -2,293;   -1,682
363,401; 5295,619;    0,798;    0,136
363,994; 5129,815;    3,252;   -1,500
364,586; 5017,794;    0,888;   -1,500
365,179; 5117,191;   -0,203;   -1,136
365,772; 4686,315;   -0,930;    2,045
366,364; 4876,364;    1,524;   -3,227
366,957; 5101,862;    1,342;   -0,045
367,549; 4987,743;   -0,203;   -0,864
368,142; 4715,165;    0,978;   -1,500
368,734; 4848,130;    2,523;   -2,136
369,327; 4793,126;    2,341;   -0,500
369,919; 4725,021;   -1,659;    0,409
370,512; 4613,360;   -1,023;   -0,500
371,104; 4374,991;    2,704;    1,591
371,696; 4526,789;    1,703;   -0,955
372,289; 4539,352;    0,157;    1,136
372,881; 4602,758;    1,156;    1,318
373,473; 4485,660;    4,064;    1,136
374,066; 4376,067;    1,336;    0,500
374,658; 4265,933;    0,879;    1,136
375,250; 4468,218;   -1,668;   -1,409
375,842; 4353,722;   -0,124;   -0,045
376,434; 4192,998;   -2,762;   -0,409
377,026; 4628,221;   -1,855;   -2,500
377,618; 4531,439;    0,779;   -0,682
378,210; 4382,711;    3,141;   -1,955
378,802; 4230,343;    3,412;   -0,591
379,394; 4303,360;    3,411;    0,682
379,986; 4621,386;    1,138;   -0,955
380,578; 4669,124;    1,410;    0,773
381,170; 4245,365;    0,320;    0,045
381,762; 4176,189;   -0,224;    1,409
382,354; 4281,821;   -0,223;   -1,318
382,945; 4323,318;    0,870;    0,318
383,537; 4458,247;    1,144;   -1,955
384,129; 4466,870;    0,963;   -1,136
384,721; 4569,758;    0,418;    0,955
385,312; 4494,802;   -1,399;   -0,955
385,904; 4604,349;   -0,945;    1,591
386,496; 4089,179;    0,691;    1,045
387,087; 4234,876;    0,418;    2,500
387,679; 4222,277;   -0,401;    0,045
388,270; 4327,981;   -2,401;    2,045
388,862; 4399,093;   -0,401;   -0,318
389,453; 4220,407;    1,054;    1,045
390,045; 4469,102;    3,236;   -2,682
390,636; 4456,118;    0,144;   -0,591
391,227; 4311,559;    2,054;   -0,045
391,819; 4406,371;    0,781;    0,773
392,410; 4487,277;    0,600;    0,045
393,001; 4414,844;    1,600;   -1,591
393,593; 4586,859;    0,600;   -0,045
394,184; 4468,490;    0,873;   -0,409
394,775; 4323,981;    1,146;    2,136
395,366; 4580,679;    1,782;    0,773
395,957; 4538,591;   -2,400;    0,136
396,548; 4709,084;    1,054;    2,682
397,139; 4957,431;    2,236;    0,591
397,730; 4702,728;    0,873;    0,955
398,321; 4744,757;    0,509;    0,955
398,912; 4726,829;   -0,764;    0,136
399,503; 4873,305;   -1,945;   -1,409
400,094; 4448,962;   -1,582;    1,682
400,685; 4343,042;    3,600;    0,045
401,276; 4355,456;   -0,400;   -0,955
401,867; 4545,733;   -1,127;    0,773
402,458; 4612,687;    1,509;   -2,318
403,048; 4597,313;    0,146;    0,591
403,639; 4252,341;    1,509;    0,864
404,230; 4516,991;    0,691;    0,318
404,821; 4493,851;   -0,127;    0,045
405,411; 4513,518;   -0,763;   -2,591
406,002; 4125,446;    3,237;   -1,136
406,592; 4142,479;    2,691;    0,045
407,183; 4245,039;    0,328;   -1,500
407,774; 4070,215;    1,419;   -0,136
408,364; 4273,502;    2,600;    0,409
408,954; 4025,343;   -0,036;    1,227
409,545; 3984,328;    1,873;    1,045
410,135; 3549,376;   -1,581;    0,500
410,726; 3645,293;    0,783;    0,318
411,316; 3874,446;    2,237;    0,773
411,906; 3576,951;    0,146;   -0,409
412,497; 3204,799;   -0,490;   -0,045
413,087; 3498,055;    0,783;   -0,227
413,677; 3686,234;   -2,490;    3,864
414,267; 3501,546;   -1,035;    1,409
414,857; 3357,940;    0,419;    4,227
415,448; 3445,384;   -0,763;    0,500
416,038; 3211,986;   -2,945;   -0,591
416,628; 3076,219;    0,965;    0,409
417,218; 2869,621;   -1,762;    3,318
417,808; 2989,560;    0,965;   -0,409
418,398; 3000,778;   -1,035;    2,682
418,988; 2830,044;   -2,217;    0,591
419,578; 2852,778;    3,601;    1,409
420,168; 2958,143;    0,692;   -0,955
420,757; 2758,962;    0,964;   -1,500
421,347; 2416,790;    1,601;   -0,227
421,937; 2393,080;    3,329;    1,409
422,527; 2378,871;    2,602;   -0,773
423,116; 2331,260;    2,692;   -0,045
423,706; 2232,565;    2,965;    0,318
424,296; 2038,010;    1,601;    0,682
424,885; 2265,010;    1,510;   -3,045
425,475; 2218,539;    1,147;   -2,864
426,065; 2023,016;   -1,489;   -0,318
426,654; 1875,465;    0,329;   -0,318
427,244; 2120,955;    1,147;    1,409
427,833; 1868,829;    1,056;   -0,500
428,423; 1726,470;    0,147;    1,136
429,012; 1890,786;    2,420;   -1,136
429,601; 1806,705;    2,057;    0,136
430,191; 1649,517;    2,511;    4,318
430,780; 1348,357;   -1,671;   -0,409
431,369; 1611,256;    1,329;   -0,045
431,959; 1590,494;    1,693;    0,500
432,548; 1361,905;   -1,398;   -0,045
433,137; 1245,146;    0,329;   -1,318
433,726; 1394,829;    0,148;    0,500
434,315; 1231,660;    0,148;    2,409
434,905; 1330,527;    0,693;    1,409
435,494; 1348,187;    3,148;    0,955
436,083; 1129,731;    1,420;   -0,955
436,672; 1110,972;    1,148;    0,500
437,261; 1008,595;    0,512;   -1,955
437,850; 1331,514;   -1,125;    0,682
438,439; 1331,211;    2,239;    1,955
439,027; 1405,524;    3,421;    1,773
439,616; 1324,837;    2,239;    1,227
440,205;  949,074;    0,057;   -2,136
440,794;  795,771;   -0,306;   -0,045
441,383;  651,681;    1,603;   -0,591
441,971;  523,661;   -0,306;    0,591
442,560;  521,631;    0,603;   -1,773
443,149;  380,974;    3,060;   -1,318
443,737;  442,132;    0,968;   -2,318
444,326;  419,646;    0,331;    0,318
444,915;  453,198;   -1,851;    0,864
445,503;  446,144;    0,058;   -0,318
446,092;  750,093;    7,876;    2,136
446,680;  650,713;    1,876;    0,318
447,269;  514,635;   -1,487;   -0,318
447,857;  453,643;    2,240;   -1,773
448,445;  364,801;    2,149;    1,318
449,034;  278,894;    0,876;   -1,136
449,622;  257,444;    1,240;    3,500
450,210;  610,204;    3,149;    2,227
450,799;  492,511;    2,604;   -0,591
451,387;  399,037;    1,786;   -0,591
451,975;  351,437;   -1,305;    0,864
452,563;  436,134;    0,422;    2,318
453,151;  196,460;   -1,032;   -1,227
453,739;  240,905;   -1,577;    0,136
454,328;  365,626;    0,604;   -2,136
454,916;  270,647;    1,150;   -0,136
455,504;  265,150;    3,513;    1,227
456,092;  133,390;    2,150;   -1,591
456,679;   79,645;    0,604;    0,682
457,267;  558,018;    3,604;    1,045
457,855;  187,591;    3,241;    1,409
458,443;    9,528;   -0,304;    1,682
459,031;  178,181;    1,332;    2,409
459,619;  136,993;   -3,577;    2,864
460,206;   30,525;   -0,759;    2,045
460,794;   27,081;   -0,668;   -0,227
461,382;   70,353;    0,878;   -0,864
461,970;   62,653;    0,605;    1,864
462,557;  -12,416;    0,878;   -0,682
463,145;  116,679;   -0,304;   -1,682
463,732;  351,565;    2,514;   -1,045
464,320;  121,716;    1,514;   -3,045
464,907;  258,731;    0,423;   -0,773
465,495;  163,665;    2,696;   -1,227
466,082;   79,188;    2,060;   -0,045
466,670;  102,572;    2,605;    1,227
467,257;    0,712;    0,060;    2,045
467,844;   98,062;    1,514;    0,045
468,432;   59,841;   -0,031;    3,500
469,019;   22,221;    1,606;   -1,773
469,606;  110,746;    0,969;    3,682
470,193;  135,893;    2,151;    0,227
470,780;   81,535;    0,333;    0,864
471,368;   16,383;   -1,212;   -0,773
471,955;  117,248;    1,060;   -0,682
472,542;   79,500;   -0,303;   -1,136
473,129;  -23,572;   -0,485;    0,136
473,716;  -16,367;    0,060;    0,591
474,303;    7,371;    1,333;   -0,864
474,890;    7,182;    2,333;   -0,500
475,477;  103,214;   -0,576;    0,409
476,064;   10,904;    0,697;   -1,591
476,650;  116,048;    2,152;    0,318
477,237;   31,775;    1,879;    0,955
477,824;   18,928;    3,879;    0,864
478,411;  -57,274;    0,606;   -0,318
478,997;  -65,796;    0,606;   -0,773
479,584; -105,861;   -0,666;   -0,409
480,171;   40,261;    1,243;   -0,773
480,757;   96,155;   -0,848;    0,773
481,344;    3,148;    0,334;    0,409
481,931;  -75,753;   -0,393;    1,045
482,517;   43,896;    0,425;    0,318
483,104;  123,835;    1,334;    2,864
483,690;   -7,514;    0,243;    0,045
484,276;  -25,827;    0,698;    0,227
484,863;  169,653;    2,152;    1,136
485,449;   20,353;    0,152;    0,318
486,035;  -16,595;   -0,666;   -0,136
486,622;   66,573;   -2,393;    0,045
487,208;   -7,571;    1,334;    1,500
487,794;  -75,990;    0,971;    0,318
488,380;  -66,041;    0,698;   -1,409
488,967;  -65,483;   -1,120;   -0,409
489,553;  -51,986;   -1,029;   -1,409
490,139;   19,265;    0,971;    0,773
490,725;  -46,165;    0,789;   -0,227
491,311;   -8,403;    1,516;    3,045
491,897;  -31,388;   -0,665;    1,500
492,483;  -12,862;    0,426;    1,227
493,069;  401,963;    5,426;    0,864
493,655;  120,272;    1,789;    0,682
494,241;    4,033;    1,517;   -0,955
494,826;   15,373;    0,335;   -1,045
495,412;   63,405;    0,335;   -0,682
495,998;  -11,796;    0,971;   -0,318
496,584;   43,535;    2,244;    1,045
497,169;   56,649;    2,335;   -0,682
497,755;    1,523;    1,244;    1,227
498,341;  122,916;    2,153;    0,318
498,926;  250,419;    2,881;    1,955
499,512;    1,934;   -0,028;    2,955
500,097;    5,038;   -0,574;   -0,318
500,683;   35,796;   -0,028;    2,136
501,268;  -12,343;    1,881;   -0,955
501,854;   17,321;   -0,119;    1,227
502,439;   17,369;   -0,573;   -1,773
503,024;   49,692;    1,608;    0,500
503,610;   95,073;    1,335;   -0,682
504,195;   42,887;    1,245;    1,955
504,780;  176,858;    2,335;    1,227
505,366;  310,465;    4,063;    2,864
505,951;  253,643;   -1,119;    1,045
506,536;  197,191;    1,427;   -3,682
507,121;  327,618;    1,699;   -0,318
507,706;  317,723;   -0,392;    1,045
508,291;  312,375;   -2,937;    1,136
508,876;  402,499;   -0,482;    2,591
509,461;  582,122;    1,427;   -0,773
510,046;  764,679;   -0,391;    0,318
510,631;  883,868;   -0,119;   -0,773
511,216;  912,087;   -0,664;   -0,500
511,801; 1278,537;   -0,755;    2,591
512,386; 1525,421;    0,972;    0,500
512,971; 1779,560;    0,427;    0,955
513,555; 2040,979;    1,154;   -1,500
514,140; 2546,955;    1,336;   -3,136
514,725; 2890,628;    1,791;   -1,136
515,309; 3276,870;    1,064;    0,318
515,894; 3492,470;   -0,300;   -2,227
516,479; 4131,065;    1,973;   -0,955
517,063; 4418,202;    0,882;    1,227
517,648; 5026,677;    0,155;   -1,136
518,232; 5142,225;   -1,300;   -1,409
518,817; 5929,294;    1,337;    1,682
519,401; 6619,596;    0,700;    0,591
519,985; 6647,829;    2,700;    1,136
520,570; 7030,768;   -0,118;   -1,955
521,154; 7765,260;    0,064;    0,591
521,738; 8349,218;    1,064;    2,409
522,323; 9300,958;   -0,390;    1,682
522,907; 9454,353;    2,428;   -0,136
523,491; 9657,186;    1,155;    0,955
524,075; 9993,528;    0,428;    0,591
524,659;10424,384;    0,973;    0,591
525,243;10255,800;    0,883;    0,409
525,827;10772,410;    0,883;   -0,045
526,411;11827,930;    1,155;   -0,136
526,995;12356,675;    0,337;    1,409
527,579;12194,131;    1,974;   -1,045
528,163;12708,697;    0,428;   -1,500
528,747;12895,309;    1,065;   -0,773
529,331;13379,861;    0,883;   -1,409
529,915;13731,467;    2,338;    0,955
530,499;13864,162;    0,247;    1,227
531,082;13717,394;    1,065;    1,591
531,666;13303,040;    0,520;    0,773
532,250;14135,923;    0,428;    2,682
532,833;14586,347;    0,610;    2,773
533,417;14572,298;    1,247;    0,864
534,001;14617,061;    0,429;   -0,318
534,584;15372,107;    1,974;    0,500
535,168;15312,915;    3,247;    1,409
535,751;15451,441;    4,520;    0,045
536,334;14943,849;    4,520;   -0,409
536,918;15638,685;    1,974;    1,591
537,501;15791,845;    1,520;    1,318
538,085;15832,062;    1,702;    1,045
538,668;16032,676;    0,883;    2,409
539,251;16391,018;    3,156;    3,773
539,834;16480,634;    0,156;    0,773
540,418;16452,078;    3,247;    4,318
541,001;16615,279;    2,702;    1,773
541,584;16650,754;    1,429;    2,227
542,167;16339,585;    0,702;    2,955
542,750;16517,116;    0,793;   -0,773
543,333;16120,884;    1,429;    2,136
543,916;16962,898;   -0,298;    2,500
544,499;17636,734;    2,520;    0,227
545,082;17680,171;    0,248;    3,591
545,665;17861,800;   -0,207;    1,500
546,248;18212,066;    0,520;   -0,318
546,830;17867,737;   -1,752;    1,955
547,413;18251,910;    0,157;   -0,773
547,996;18899,670;    0,157;    0,500
548,579;18656,722;   -0,843;    0,955
549,161;18463,342;    0,884;    2,682
549,744;18269,940;    0,612;    0,409
550,326;18823,768;    0,885;   -1,136
550,909;18560,260;    2,339;    0,591
551,492;18981,102;    0,521;    0,227
552,074;18765,605;   -0,024;   -1,318
552,657;19366,214;    2,430;    0,045
553,239;19122,693;   -3,024;   -0,773
553,821;19075,594;   -1,570;    1,045
554,404;18540,632;   -0,024;    1,136
554,986;18889,055;    2,248;    1,045
555,568;19521,443;    0,430;   -0,955
556,151;18740,512;    4,067;   -0,227
556,733;18969,485;   -1,388;   -0,864
557,315;19453,007;    4,703;    0,500
557,897;19265,955;    0,521;   -0,500
558,479;19399,088;    1,703;    1,318
559,061;19509,056;    1,067;   -0,864
559,643;19868,772;   -0,297;    0,045
560,225;20217,972;   -0,388;    2,864
560,807;20266,681;    0,340;    0,318
561,389;19795,679;   -1,206;    2,318
561,971;20537,868;   -0,660;    2,136
562,553;20352,729;    0,613;    1,591
563,135;20475,019;    1,249;    1,136
563,717;20083,800;    3,158;    1,136
564,298;20810,518;    3,976;   -0,045
564,880;20549,700;    0,340;   -1,409
565,462;20710,700;    1,977;    1,318
566,043;21925,204;   -0,933;    2,318
566,625;21456,654;    4,067;    1,227
567,207;21332,107;    0,704;    1,682
567,788;22497,859;   -0,114;    1,500
568,370;23398,860;   -1,841;   -0,500
568,951;23198,771;   -0,569;    0,227
569,533;24109,748;    0,977;   -0,500
570,114;24580,190;   -0,296;    0,682
570,695;25035,020;   -0,478;   -1,318
571,277;25671,171;   -0,205;   -1,682
571,858;26495,153;    2,704;   -1,136
572,439;27392,420;    0,795;   -1,045
573,021;27567,716;    0,432;   -2,773
573,602;28105,287;    1,795;    0,318
574,183;29023,320;   -0,114;    2,227
574,764;29206,273;    2,068;    0,409
575,345;29826,873;    0,250;   -0,136
575,926;30469,022;    2,704;    0,136
576,507;30481,555;    2,704;   -0,227
577,088;31637,159;    1,704;    1,682
577,669;31658,949;    1,704;    1,955
578,250;32429,047;   -0,750;   -1,045
578,831;33121,366;   -0,841;   -2,227
579,412;33395,564;   -1,205;    0,955
579,993;34422,092;    1,432;    0,227
580,573;34711,311;   -0,023;   -0,955
581,154;33610,895;    1,613;   -0,591
581,735;34511,640;    0,341;    0,773
582,315;34026,003;    0,523;    2,136
582,896;34430,364;   -1,750;    1,227
583,477;33842,938;    0,614;    1,227
584,057;34013,878;    1,159;    0,955
584,638;34235,456;   -2,750;    2,318
585,218;34238,959;    2,886;    2,682
585,799;34433,860;    1,977;   -0,227
586,379;34390,523;    1,250;    1,591
586,959;33186,657;    2,613;    0,318
587,540;32416,892;    0,432;    2,227
588,120;31911,608;   -1,113;   -0,045
588,700;30790,799;    2,977;    2,136
589,281;31128,792;    1,250;   -0,955
589,861;31052,854;   -0,296;   -1,682
590,441;30870,166;   -1,477;   -2,682
591,021;29852,632;    1,432;   -2,591
591,601;30093,429;    0,431;    0,500
592,181;30121,896;   -1,296;   -0,773
592,761;29351,652;    2,250;    1,409
593,341;29211,892;    1,522;    0,045
593,921;29144,037;   -0,569;    1,591
594,501;29037,961;    1,250;    1,318
595,081;28851,150;    0,522;   -0,318
595,661;29294,263;    1,068;    0,955
596,240;29816,734;   -1,023;    0,136
596,820;29330,581;    2,613;    1,955
597,400;29568,189;    1,977;    0,773
597,980;29799,272;   -0,750;    1,045
598,559;29824,902;    0,341;   -0,227
599,139;29532,386;   -0,750;   -1,227
599,718;29435,113;    0,795;   -0,409
600,298;29689,388;   -2,387;    0,682
600,877;29888,196;    4,795;    1,409
601,457;30192,315;    0,340;    1,136
602,036;30095,333;    1,795;    2,045
602,616;30300,812;    2,250;    1,682
603,195;30687,492;    0,431;    3,500
603,774;30184,035;   -0,296;    2,045
604,354;30062,195;    2,522;   -0,500
604,933;29547,505;    0,250;    1,864
605,512;29712,360;    2,340;    0,591
606,091;29710,061;    1,886;    3,773
606,671;30533,106;    0,249;    0,773
607,250;29559,389;    1,431;    3,136
607,829;29844,547;    1,158;    3,227
608,408;29670,565;    4,613;    2,591
608,987;28690,865;    2,704;    3,409
609,566;29013,723;    0,341;   -2,500
610,145;29102,944;    2,885;    0,682
610,723;29530,814;    1,613;    6,864
611,302;28725,730;    1,067;    1,682
611,881;28192,133;    5,158;   11,227
612,460;29050,207;    0,795;    3,955
613,039;29480,503;    1,703;    2,045
613,617;28181,326;    0,886;    4,773
614,196;28381,330;    1,613;    1,227
614,775;28745,098;    1,249;    2,409
615,353;28710,375;   -1,660;    0,864
615,932;28354,630;    0,249;    2,409
616,510;28997,638;    0,158;    0,591
617,089;28474,340;    8,794;   17,591
617,667;28222,453;    4,885;    6,136
618,246;28025,153;   -1,115;    1,318
618,824;28148,141;    1,612;   -0,955
619,402;27707,237;    0,431;   -1,773
619,981;28251,445;    1,067;   -1,045
620,559;28123,732;    0,794;    1,682
621,137;27643,366;    3,067;    1,864
621,715;27561,600;    3,703;   -0,682
622,293;27533,693;    1,885;   -0,773
622,871;28048,462;    0,340;    0,500
623,450;27560,438;    0,430;   -0,864
624,028;27477,395;   -0,388;   -0,955
624,606;27095,463;    2,339;    1,682
625,183;27427,634;   -0,661;   -1,136
625,761;27132,993;    1,885;    1,136
626,339;27381,093;    2,339;    2,591
626,917;27788,707;    0,339;   -0,045
627,495;27815,572;    2,794;    1,318
628,073;27241,438;    5,248;    2,864
628,650;26946,617;    3,067;    2,136
629,228;27388,269;    1,248;    4,409
629,806;26744,172;   -0,024;    1,136
630,383;26974,328;    0,066;   -0,318
630,961;26766,931;   -2,206;   -0,955
631,539;26476,741;   -2,479;    0,227
632,116;25696,749;   12,703;   15,409
632,694;26380,520;    4,885;    6,500
633,271;26675,484;    1,975;    2,682
633,848;26615,462;    1,430;    2,045
634,426;26613,129;    1,521;    1,773
635,003;25709,464;   -0,207;   -0,409
635,580;26044,171;    1,884;    3,682
636,158;26619,733;    3,793;    1,227
636,735;26571,061;    3,339;   -0,500
637,312;26687,364;    0,521;   -0,682
637,889;26788,073;    2,248;   -0,682
638,466;26283,414;    0,066;   -0,409
639,043;26297,938;    1,702;   -1,136
639,620;26641,538;    0,611;   -0,955
640,197;26979,352;    1,612;    1,682
640,774;27113,500;    1,430;    1,136
641,351;27472,831;    0,612;    1,136
641,928;26870,525;    2,794;    1,409
642,505;26555,037;    0,794;   -0,500
643,082;26667,367;    1,885;    1,227
643,658;25677,425;    1,157;    1,500
644,235;26394,301;   -2,479;    2,500
644,812;26705,995;    1,794;    0,773
645,388;26495,598;    1,612;    1,409
645,965;26554,746;    1,521;    1,682
646,542;26577,531;    3,430;   -0,227
647,118;26611,407;    3,703;   -0,955
647,695;26960,556;    0,339;    1,136
648,271;26820,613;   -2,115;    0,500
648,848;27066,398;    0,248;    2,227
649,424;26917,001;    0,976;    1,318
650,000;26661,241;   -0,388;   -1,045
650,577;26545,571;    0,158;   -0,955
651,153;27005,720;   -1,115;    0,955
651,729;27985,868;    0,521;    0,864
652,305;28132,653;    1,339;    2,773
652,881;32798,256;   -1,297;    1,136
653,458;39983,405;    0,249;    0,227
654,034;44039,826;    0,703;    1,591
654,610;45648,429;    0,339;    0,773
655,186;47024,851;    1,612;    3,045
655,762;46740,090;   -1,842;    0,409
656,338;46805,602;    0,703;    0,136
656,913;47860,114;   -0,297;    0,409
657,489;47104,627;    0,249;   -0,318
658,065;47090,957;    0,794;   -1,591
658,641;47633,651;    2,158;   -0,864
659,217;46906,618;    2,067;    0,409
659,792;46340,130;   -1,751;   -0,409
660,368;46633,824;   -0,388;   -0,682
660,944;46274,609;    1,794;    1,227
661,519;41511,666;    0,522;    0,409
662,095;35117,179;   -0,206;    0,591
662,670;30154,873;   -0,206;   -0,136
663,246;28975,476;   -0,660;   -0,409
663,821;28240,715;    0,431;    1,682
664,396;27665,046;    0,613;    1,864
664,972;27951,740;   -0,660;   -0,500
665,547;28270,434;    3,794;    0,136
666,122;28283,673;    1,340;    0,318
666,698;28587,367;    2,431;    0,318
667,273;27875,243;    0,885;    0,136
667,848;28676,846;    0,340;    1,500
668,423;28463,813;    1,795;    2,318
668,998;29105,689;    0,976;   -0,682
669,573;29601,383;    2,067;   -1,500
670,148;29430,349;    1,885;   -0,682
670,723;29258,134;   -0,024;    0,318
671,298;29700,465;   -1,296;    1,045
671,873;29818,068;   -0,296;   -0,136
672,448;29727,216;    1,704;    0,136
673,023;30028,092;    0,249;   -0,227
673,597;30306,786;    2,704;    2,318
674,172;30104,844;    2,431;    0,318
674,747;29623,174;   -0,205;   -1,045
675,321;29477,323;   -0,933;    3,318
675,896;29069,017;    2,158;    1,045
676,471;30072,620;    2,522;    1,591
677,045;29815,132;   -0,296;    0,682
677,620;29834,190;    2,158;    1,136
678,194;30172,065;    0,249;    1,136
678,769;29771,669;    0,886;   -0,318
679,343;29952,181;   -0,023;    1,773
679,917;29796,875;    0,340;    1,955
680,492;29917,751;    0,249;    3,227
681,066;30047,354;    0,613;    0,409
681,640;30124,593;    1,795;   -0,318
682,214;30953,469;    2,340;    0,500
682,788;30438,436;    0,613;   -0,773
683,363;30374,857;    1,977;    1,682
683,937;30035,187;    0,886;   -0,318
684,511;30917,790;   -1,023;   -0,591
685,085;30616,666;   -1,478;    0,318
685,659;30335,269;    1,431;    0,864
686,232;30535,236;    1,159;   -0,318
686,806;30248,203;    2,159;    0,409
687,380;30946,715;   -1,932;    0,591
687,954;31253,864;    2,432;    1,136
688,528;30869,830;    2,613;    1,955
689,101;31600,706;    0,432;    1,045
689,675;31212,764;    0,886;   -0,136
690,249;30582,821;    3,432;    0,409
690,822;30880,425;    1,159;    0,318
691,396;31013,573;    2,068;    1,227
691,969;30447,631;    2,523;    0,136
692,543;30908,416;   -0,568;   -1,955
693,116;30558,746;   -0,659;   -1,409
693,690;30389,349;   -0,296;    0,500
694,263;30990,043;    2,341;    2,955
694,836;31049,010;    2,795;    3,591
695,410;29613,977;    1,159;    1,773
695,983;30090,943;    1,614;    0,591
696,556;30008,365;   -0,750;   -1,045
697,129;30395,240;   -1,114;    1,409
697,703;30031,298;    1,341;    1,955
698,276;30045,174;    1,705;   -0,773
698,849;29837,323;   -1,023;    1,409
699,422;30242,744;    1,250;    0,591
699,995;29935,347;   -0,659;    0,136
700,568;30442,314;   -0,204;    3,045
701,140;30419,826;   -1,841;    1,682
701,713;30167,338;    0,341;    2,409
702,286;29909,941;    0,796;    0,864
702,859;29755,181;    0,614;   -0,591
703,432;28858,511;   -0,841;    0,682
704,004;29430,387;    1,978;    0,318
704,577;29285,626;    1,068;    0,136
705,150;29808,320;    0,887;    2,500
705,722;29629,651;    1,523;   -3,227
706,295;29439,617;    1,432;   -0,591
706,867;29263,584;    0,250;    1,955
707,440;29513,824;   -0,113;   -0,409
708,012;29803,608;   -0,022;    0,591
708,584;29726,484;    2,705;    0,227
709,157;29985,996;    1,160;   -0,591
709,729;29602,600;    1,069;    2,045
710,301;30479,657;   -1,204;    0,045
710,874;30501,715;    0,341;   -0,227
711,446;29326,591;   -0,295;    0,864
712,018;29232,921;   -3,022;    0,500
712,590;28983,888;   -0,204;    1,682
713,162;29500,945;   -0,477;    1,318
713,734;29779,912;    1,796;   -2,045
714,306;29667,697;    0,342;   -0,409
714,878;28256,391;   -0,295;    0,864
715,450;29108,085;   -0,113;    0,864
716,022;29366,325;    2,433;    1,318
716,593;29584,019;    0,978;    0,591
717,165;29499,622;    1,796;   -1,227
717,737;29165,679;    0,796;    0,409
718,309;28835,101;    1,160;   -0,045
718,880;28827,067;   -1,295;   -1,409
719,452;29031,943;    0,887;   -1,591
720,024;28625,183;    1,705;   -0,591
720,595;29142,968;    2,978;    0,955
721,167;28640,025;    1,160;   -2,045
721,738;28167,174;    2,069;   -1,045
722,309;28053,868;    1,251;   -1,227
722,881;27899,016;    2,705;    0,773
723,452;28603,438;    1,251;    2,864
724,023;28767,586;    1,524;    2,682
724,595;28527,735;    2,342;    0,682
725,166;28236,429;    1,524;   -0,409
725,737;27867,214;    1,887;    0,227
726,308;27968,544;    0,797;    0,318
726,879;28403,147;    1,069;    1,227
727,450;28286,568;   -2,022;   -0,045
728,021;28256,899;    1,069;    0,682
728,592;28047,866;    1,160;    0,500
729,163;28411,105;    1,433;   -0,136
729,734;28396,799;    2,160;   -0,227
730,305;28677,220;    0,615;    0,136
730,876;29051,187;    0,888;    2,955
731,447;28733,699;    0,797;    2,682
732,017;28861,393;   -0,840;    1,864
732,588;28393,269;   -0,021;    1,227
733,159;28574,872;    3,615;   -1,045
733,729;28365,566;    1,251;    0,409
734,300;27651,624;    0,160;    0,864
734,870;28111,136;   -1,385;    0,591
735,441;28726,375;    0,888;   -0,591
736,011;28408,615;    1,070;   -1,591
736,582;28360,945;    1,251;    0,045
737,152;27746,730;    0,979;   -2,045
737,722;28235,606;    1,070;   -0,682
738,293;27931,300;   -2,021;    1,318
738,863;27835,085;    1,797;    2,318
739,433;27604,779;    4,524;    0,318
740,003;28319,018;    1,524;   -0,682
740,573;27629,531;    2,252;   -1,591
741,143;27613,952;    3,615;    0,318
741,713;28380,919;    0,252;   -0,500
742,283;28074,613;    1,706;    1,591
742,853;27841,670;    0,524;    1,591
743,423;27302,455;    0,161;    0,045
743,993;27401,513;    1,070;    1,500
744,563;26733,570;    2,524;   -0,864
745,133;26701,992;   -0,112;   -0,864
745,702;27461,049;    2,797;    1,773
746,272;26613,925;    0,434;    0,591
746,842;26377,256;   -0,748;   -0,591
747,411;26817,131;   -0,839;   -0,318
747,981;27051,098;   -0,930;    0,500
748,551;27091,701;   -0,021;   -1,045
749,120;26882,123;   -0,112;   -0,227
749,690;27268,271;    2,161;    2,409
750,259;27578,420;    0,979;    2,955
750,828;27522,841;    4,070;   -1,955
751,398;27761,808;   -0,112;   -0,045
751,967;27206,865;    2,888;    0,409
752,536;27479,105;    1,161;   -0,227
753,105;27917,617;   -1,384;    0,227
753,675;27718,766;   -0,112;    1,773
754,244;27673,369;    0,888;    3,591
754,813;27695,335;    0,979;    1,227
755,382;27339,848;    0,798;    0,955
755,951;27829,996;   -0,112;    3,682
756,520;27352,963;    2,525;    1,864
757,089;27938,293;    1,888;    0,500
757,658;28077,442;    2,434;    1,227
758,227;28079,227;   -1,111;    0,318
758,795;28404,921;   -1,021;    1,136
759,364;28590,615;    0,525;   -0,591
759,933;27586,400;    1,343;   -0,045
760,501;27169,094;    0,252;   -1,318
761,070;27621,515;   -0,293;   -1,409
761,639;28303,936;    1,434;    1,318
762,207;27575,903;    0,889;   -0,955
762,776;27566,324;    2,889;    0,864
763,344;27488,745;    0,071;    0,591
763,913;26637,439;    1,616;    1,409
764,481;27437,679;    1,980;   -0,136
765,049;27180,464;    0,616;    1,409
765,618;27059,340;    1,434;    0,318
766,186;27141,397;    2,434;    0,136
766,754;27317,364;    1,798;    1,864
767,322;26285,785;    1,162;    0,409
767,890;26293,207;    0,525;   -1,773
768,459;26744,082;    2,616;   -0,318
769,027;26906,867;    2,525;    3,409
769,595;25850,107;    2,616;    2,591
770,163;26256,437;    3,344;    2,955
770,730;25995,586;    2,525;   -0,136
771,298;25831,734;    1,162;   -1,409
771,866;25913,337;    0,253;    4,955
772,434;26265,304;    1,162;   -1,864
773,002;26430,089;    2,616;    0,682
773,569;26028,419;    1,071;    1,682
774,137;25868,750;    0,889;   -0,045
774,705;26700,535;   -0,747;   -0,136
775,272;26164,865;    0,253;    0,682
775,840;25959,468;   -0,111;    2,682
776,407;25437,344;   -0,293;    1,955
776,975;25015,584;    1,162;    0,318
777,542;26032,550;    2,162;   -0,045
778,110;25931,790;    0,707;   -0,045
778,677;25582,120;    1,071;   -0,864
779,244;25341,178;   -1,020;    1,045
779,812;25425,326;    0,980;    0,864
780,379;25236,384;    2,435;    1,136
780,946;25539,714;    2,617;   -0,773
781,513;25818,681;   -0,565;    0,318
782,080;25165,011;    1,253;    2,864
782,647;25931,796;    1,708;    3,045
783,214;25526,672;   -0,201;    3,864
783,781;25118,366;    1,708;   -0,682
784,348;24999,515;    0,253;    1,500
784,915;25483,936;   -1,474;    0,318
785,482;25234,357;    2,708;    2,591
786,049;25664,779;    1,071;   -0,591
786,615;25724,654;    1,708;   -0,955
787,182;25528,348;   -3,201;   -0,682
787,749;25180,224;   -2,201;    1,409
788,315;24482,373;    0,253;   -0,409
788,882;24787,521;    0,981;   -1,227
789,448;25481,670;    1,435;   -0,955
790,015;25523,364;    1,799;    3,227
790,581;25044,512;    0,708;    0,227
791,148;24954,025;    1,344;    1,045
791,714;25124,719;   -1,019;    3,136
792,280;24824,231;    3,708;    1,591
792,847;24432,107;   -0,928;    2,500
793,413;25025,437;   -0,110;   -0,318
793,979;24522,131;    1,526;   -1,318
794,545;24579,734;    2,981;    2,682
795,111;23993,701;    2,435;    1,318
795,678;24176,759;    3,526;   -1,682
796,244;23780,089;    2,799;    0,136
796,810;24355,965;    0,799;    0,773
797,375;24081,750;   -0,292;   -2,136
797,941;24118,353;   -1,110;    0,591
798,507;24233,774;    0,254;   -0,955
799,073;23815,650;    2,708;    0,591
799,639;23850,526;    1,435;    3,136
800,205;23911,492;   -1,565;    2,682
800,770;23407,914;    1,345;    1,773
801,336;23419,608;    2,981;   -0,955
801,901;23156,029;    6,072;    3,136
802,467;23739,905;    0,526;    2,045
803,033;23019,599;   -0,019;    0,864
803,598;23186,475;    1,072;   -1,045
804,163;23266,532;    0,708;   -0,318
804,729;23201,863;   -0,110;    1,136
805,294;23597,557;    1,072;    2,227
805,859;23406,251;    0,890;   -0,409
806,425;22905,490;    3,890;    2,682
806,990;22588,639;    1,890;    4,318
807,555;23076,424;   -0,110;    2,591
808,120;22963,572;   -1,292;   -0,409
808,685;23020,993;    1,072;   -2,500
809,250;22477,960;    2,072;   -0,500
809,815;22785,381;   -0,201;    0,682
810,380;23330,894;    0,981;    1,591
810,945;23806,042;    2,890;    2,045
811,510;23106,373;   -0,200;    1,591
812,075;22745,521;    2,800;   -1,409
812,640;22766,761;    3,709;    1,409
813,204;22809,455;    2,163;   -0,227
813,769;23343,785;    0,254;   -0,045
814,334;22775,843;    0,527;    0,864
814,898;22805,446;    1,981;    0,591
815,463;22613,140;    0,981;   -0,773
816,027;22615,197;    1,345;   -2,318
816,592;22710,891;    2,163;   -2,045
817,156;22211,585;   -2,200;    1,136
817,721;22005,825;    0,982;    2,318
818,285;22014,883;    0,618;    1,500
818,849;22687,213;   -0,018;    1,682
819,414;22528,725;    0,073;    2,955
819,978;22057,055;   -0,291;    1,773
820,542;22691,204;    2,891;    0,500
821,106;22452,353;    2,800;    0,682
821,670;22510,865;    2,709;    2,591
822,234;22159,468;    1,073;    1,409
822,798;21583,707;   -0,836;    0,500
823,362;21557,492;    1,527;    4,227
823,926;20835,186;   -0,018;    1,136
824,490;21058,244;    3,527;   -0,682
825,054;21533,665;    2,527;   -1,136
825,618;21146,905;   -1,200;   -1,500
826,181;21100,780;    0,982;   -1,318
826,745;20962,202;   -0,745;   -1,045
827,309;21333,987;    2,255;    1,318
827,872;20755,772;    0,527;    0,955
828,436;21764,920;    1,982;   -0,773
828,999;21797,887;    2,436;    1,227
829,563;20633,399;   -0,654;    1,136
830,126;20437,002;   -0,018;   -0,591
830,690;20444,423;    0,709;    2,864
831,253;19950,208;   -0,473;    2,227
831,816;20106,266;   -0,018;    0,500
832,380;19987,233;    1,164;    0,864
832,943;20241,654;    3,073;   -0,500
833,506;19760,803;    0,255;   -1,227
834,069;20520,860;    2,164;   -0,955
834,632;20606,736;   -2,200;    1,318
835,195;20493,885;    1,346;    0,955
835,758;19652,579;    0,709;    1,955
836,321;19531,000;    1,073;   -1,045
836,884;19569,148;   -1,291;   -0,955
837,447;19598,024;    0,528;    1,773
838,010;19870,173;    1,800;    3,227
838,573;20198,594;    0,528;    0,773
839,135;20126,015;   -0,109;   -0,955
839,698;19555,164;    2,528;    0,409
840,261;19067,767;    0,255;   -0,227
840,823;18938,188;   -0,927;    0,864
841,386;19215,973;   -0,018;   -2,409
841,948;19058,758;    0,255;    1,773
842,511;18835,179;    0,255;    1,682
843,073;18950,692;    2,982;    0,227
843,636;18757,840;    0,619;   -0,227
844,198;18706,807;    1,255;    0,591
844,760;18827,137;    0,619;    1,955
845,322;18427,195;    0,164;    1,136
845,885;18867,071;   -0,290;    0,591
846,447;19313,856;    0,710;    0,227
847,009;18871,277;    3,983;   -0,682
847,571;19218,880;    1,346;   -2,045
848,133;19310,756;   -0,199;   -1,864
848,695;19154,177;    2,346;    1,409
849,257;18642,144;    1,346;   -1,682
849,819;18863,383;    2,983;   -0,409
850,381;18883,259;    1,801;   -0,864
850,942;19255,680;    1,892;   -0,591
851,504;19171,920;    0,983;    0,227
852,066;19227,796;    1,619;   -1,591
852,628;18785,490;    0,165;    1,955
853,189;18309,820;    0,256;    2,682
853,751;18457,241;   -0,654;    1,409
854,312;18348,935;    1,256;   -1,682
854,874;18880,629;   -0,108;   -0,773
855,435;19321,869;    0,528;   -1,682
855,997;19464,927;    3,983;   -0,136
856,558;18717,075;    0,801;    1,773
857,119;18822,315;   -0,744;    2,864
857,681;18522,009;   -0,108;    0,318
858,242;18533,612;    1,347;   -2,136
858,803;18977,942;    1,074;   -0,773
859,364;19529,727;    0,892;   -4,773
859,925;18883,148;   -0,290;   -0,955
860,486;18774,751;    0,529;   -0,955
861,047;18485,264;    0,165;   -1,227
861,608;18285,230;    0,165;   -0,773
862,169;18473,197;   -0,562;   -0,045
862,730;18221,800;   -0,290;    1,409
863,291;18467,130;    0,438;   -0,500
863,852;18769,643;   -0,926;    1,955
864,412;18218,609;   -1,835;   -0,864
864,973;16829,485;    1,892;    0,500
865,534;16709,452;    2,074;    0,227
866,094;18243,419;    2,620;    0,227
866,655;17894,931;    4,711;    3,318
867,215;18141,443;    0,074;    0,136
867,776;18024,864;   -1,199;   -0,136
868,336;18139,286;    1,529;    0,136
868,897;17543,616;    3,438;    1,682
869,457;17291,310;    3,256;    0,318
870,017;17552,731;    2,438;   -1,227
870,578;18103,516;    1,893;    0,773
871,138;17728,119;    2,620;   -0,955
871,698;17257,541;   -0,562;   -1,318
872,258;17093,962;    0,711;   -2,864
872,818;17495,565;    2,347;    0,045
873,378;17455,259;   -2,198;    1,045
873,938;16992,044;    4,984;    0,500
874,498;17334,011;    1,256;   -1,955
875,058;17225,068;    4,347;    1,773
875,618;17081,126;    1,438;   -2,682
876,177;17030,547;   -0,471;    0,136
876,737;16599,150;   -0,289;    1,955
877,297;16585,572;    2,711;    1,955
877,856;16598,447;    2,529;    0,318
878,416;16558,960;    2,438;   -0,136
878,976;16761,290;    3,438;    0,409
879,535;16973,984;    4,529;    3,136
880,095;16745,860;    1,347;    0,045
880,654;16831,008;    0,347;    1,318
881,213;16900,702;    2,347;    1,500
881,773;16580,942;    1,984;    2,682
882,332;16939,090;    6,075;    5,136
882,891;16799,148;    0,711;    2,136
883,451;17233,842;   -2,016;    1,682
884,010;16697,809;   -1,107;   -0,409
884,569;16759,230;   -2,289;   -0,045
885,128;16860,015;   -0,743;   -1,864
885,687;16929,345;   -0,743;    0,682
886,246;16629,494;    2,620;    2,136
886,805;16410,188;    1,620;    2,045
887,364;16692,064;    1,166;   -0,500
887,922;17044,940;   -0,016;    0,045
888,481;16536,997;    1,530;    0,591
889,040;16877,146;    3,711;    2,136
889,599;17591,840;    2,166;    1,409
890,157;17626,716;    2,166;    2,409
890,716;17274,501;    2,166;    0,227
891,274;17003,740;    0,075;   -1,136
891,833;17413,798;    1,166;    0,864
892,391;17309,310;    1,802;    0,500
892,950;17459,640;    0,166;   -0,773
893,508;17801,607;    0,984;   -0,409
894,067;17145,665;   -0,379;    0,136
894,625;17112,995;   -1,016;   -1,500
895,183;17293,325;   -0,198;   -0,682
895,741;17200,928;    2,257;   -1,773
896,299;17062,895;    1,621;   -2,409
896,858;17221,589;    1,530;   -1,591
897,416;17299,920;    0,166;   -1,318
897,974;17098,068;   -2,197;    0,318
898,532;17267,762;    6,530;    2,682
899,089;17135,456;    0,621;   -0,682
899,647;17204,332;    0,530;    1,318
900,205;16922,026;    0,257;    1,045
900,763;17127,811;    2,166;    0,227
901,321;17118,959;    3,530;   -1,409
901,878;16534,108;    3,257;   -0,773
902,436;16366,257;    0,257;    1,318
902,994;16786,587;    6,712;    3,682
903,551;16227,826;    1,439;    0,409
904,109;16667,611;    1,530;   -1,409
904,666;16265,305;    1,439;    1,045
905,224;16033,272;    3,894;   -0,409
905,781;15765,511;   -0,470;   -0,318
906,338;15842,206;    0,167;    1,045
906,895;15810,354;    1,894;    2,045
907,453;15741,230;    2,348;    1,136
908,010;15697,833;    3,348;    0,409
908,567;15388,709;   -0,561;    0,591
909,124;14927,312;    2,439;   -1,500
909,681;14978,279;   -1,288;    0,682
910,238;15088,700;   -0,106;   -1,318
910,795;15443,576;   -1,561;   -1,136
911,352;15102,576;   -0,379;   -2,682
911,909;14479,121;    2,803;   -0,864
912,466;14964,939;    1,985;    1,500
913,022;14497,758;   -0,924;    0,500
913,579;14844,212;   -0,470;    2,045
914,136;14551,939;   -2,561;    0,955
914,692;14914,576;    1,530;   -1,227
915,249;14492,667;    0,530;    0,409
915,806;14707,576;    1,803;    1,955
916,362;14396,939;    0,894;    1,864
916,918;13982,576;    2,439;    1,045
917,475;13999,758;    1,621;    0,955
918,031;14097,485;    0,076;   -0,045
918,587;13537,121;    0,621;   -0,318
919,144;13751,758;   -0,379;    0,227
919,700;14106,394;    0,167;    0,773
920,256;13662,030;    0,439;    0,045
920,812;13220,758;    1,439;   -1,045
921,368;13226,576;    1,348;   -1,045
921,924;12897,848;    0,439;   -0,136
922,480;12467,121;    0,076;    1,227
923,036;13060,121;   -0,652;    1,955
923,592;12988,576;    0,621;    0,318
924,148;12938,030;    1,894;   -0,955
924,704;12299,212;    0,258;   -0,409
925,259;12582,394;   -0,561;    0,591
925,815;12290,576;    3,803;    0,500
926,371;11855,758;    3,530;    1,409
926,926;11709,848;    1,621;    0,591
927,482;11340,121;    1,621;    0,773
928,037;11220,121;   -0,833;    2,045
928,593;11514,758;    0,258;    1,045
929,148;11335,576;    1,167;   -1,500
929,704;10873,939;    2,439;   -0,500
930,259;11048,212;    0,894;   -0,136
930,814;10131,303;    1,803;    1,955
931,369; 9833,303;    0,258;   -0,773
931,925; 9733,394;   -1,924;    0,136
932,480; 9618,485;    3,076;   -2,591
933,035; 9491,667;    3,985;   -0,318
933,590; 9251,121;   -1,742;   -1,773
934,145; 8897,576;   -1,288;   -0,318
934,700; 9276,303;    0,348;   -0,591
935,255; 9048,030;    4,803;    0,045
935,809; 8310,212;    6,258;    0,864
936,364; 7472,939;    2,167;   -0,136
936,919; 7448,394;    2,348;   -1,773
937,474; 7319,212;    1,348;    0,136
938,028; 7101,939;    3,076;    1,136
938,583; 6551,576;    6,348;    4,682
939,138; 6851,939;    0,167;    2,136
939,692; 6306,576;   -1,015;   -1,136
940,247; 5966,394;    1,167;   -1,045
940,801; 5533,303;    0,621;    0,227
941,355; 5438,121;    0,439;    2,591
941,910; 5112,758;    0,712;   -2,136
942,464; 5186,030;    2,712;   -0,318
943,018; 4970,939;    3,258;   -0,227
943,572; 4923,030;    2,803;   -0,682
944,126; 4320,485;   -0,924;   -0,409
944,681; 4215,030;    0,712;    0,227
945,235; 4205,758;    2,167;   -0,591
945,789; 4154,939;    1,258;   -1,864
946,342; 4248,667;   -0,561;   -0,591
946,896; 4067,848;    0,348;    0,955
947,450; 3824,576;   -0,561;   -0,227
948,004; 3997,394;    1,076;   -0,045
948,558; 4039,303;    1,258;   -0,864
949,111; 3933,394;   -1,197;   -0,318
949,665; 3967,576;   -0,106;   -0,682
950,219; 3849,939;    0,621;   -1,045
950,772; 3920,394;    0,258;    1,864
951,326; 3839,576;   -1,106;   -0,955
951,879; 3938,394;    1,076;   -2,318
952,433; 3963,576;    1,348;    2,227
952,986; 3800,485;    0,348;    0,682
953,539; 3737,939;    1,530;    0,591
954,093; 3696,030;    0,985;   -1,318
954,646; 3821,394;   -0,288;    1,318
955,199; 3661,848;    1,258;   -0,500
955,752; 3505,576;    1,985;    1,773
956,305; 3452,303;    0,894;    2,955
956,858; 3643,030;    0,621;   -0,318
957,411; 3826,485;    3,621;    2,136
957,964; 3632,758;    2,076;    2,136
958,517; 3630,758;    0,985;    3,136
959,070; 3468,485;   -1,197;    1,955
959,623; 3523,212;    1,076;    1,500
960,176; 3301,758;    0,712;    2,045
960,728; 3264,394;    1,712;    0,773
961,281; 3332,485;    2,258;    0,500
961,834; 3366,212;   -0,833;    0,864
962,386; 3281,758;    1,258;    1,045
962,939; 3204,848;    3,439;   -0,318
963,491; 3355,485;    2,621;    1,136
964,043; 3195,576;    0,076;    2,409
964,596; 3338,212;    1,712;    2,227
965,148; 3177,667;   -0,379;    1,773
965,700; 3106,576;   -0,015;   -0,227
966,253; 3278,121;   -0,833;    0,318
966,805; 3108,667;    1,894;    0,773
967,357; 3149,576;    0,439;   -1,500
967,909; 3096,667;    1,167;   -1,227
968,461; 3224,576;    0,894;    3,136
969,013; 3153,394;   -1,561;   -0,864
969,565; 3226,939;    1,803;   -1,136
970,117; 3289,667;    3,803;    1,045
970,669; 3123,212;    3,258;   -0,136
971,220; 3004,939;    2,167;   -1,500
971,772; 2919,394;    1,348;   -0,318
972,324; 3026,030;   -1,197;   -0,500
972,876; 2974,576;    0,167;   -0,045
973,427; 3101,030;   -1,197;   -1,045
973,979; 3080,939;    0,076;   -2,500
974,530; 3125,030;    0,803;    1,318
975,082; 3149,758;    2,167;    1,682
975,633; 3022,485;    2,894;    1,682
976,184; 3165,576;    2,076;    0,773
976,736; 2956,667;    0,348;    0,227
977,287; 2741,576;    0,258;   -0,500
977,838; 2944,303;   -0,924;   -0,318
978,389; 2991,121;    0,803;   -0,500
978,940; 2874,394;    1,258;   -0,409
979,491; 2884,121;    2,258;   -0,500
980,042; 2830,394;   -0,652;    3,045
980,593; 2913,212;    1,894;    0,227
981,144; 2956,848;    3,530;   -0,500
981,695; 2922,667;   -0,470;    1,500
982,246; 2880,303;   -1,833;    1,045
982,797; 3044,030;   -0,561;    0,682
983,347; 3164,576;    2,167;    0,591
983,898; 3311,121;    4,167;    0,409
984,449; 3137,576;    2,530;    0,773
984,999; 3050,485;    1,894;   -1,136
985,550; 2821,030;    3,167;   -0,318
986,100; 2858,576;    0,712;   -0,318
986,651; 2903,667;    0,258;    0,045
987,201; 2880,394;    0,894;   -0,591
987,751; 2980,121;   -0,288;    2,864
988,302; 2943,394;   -0,379;    1,500
988,852; 2958,485;    1,985;   -1,136
989,402; 2991,303;    0,985;    0,682
989,952; 2907,212;    1,621;    0,864
990,502; 2998,121;    1,076;    0,682
991,052; 2977,848;   -0,106;    0,045
991,602; 2843,576;    1,167;    1,318
992,152; 2840,667;    2,803;    0,682
992,702; 2824,303;    1,167;   -0,045
993,252; 2751,212;    0,076;   -0,500
993,802; 2840,848;    1,167;    1,318
994,352; 3084,848;   -0,742;    1,136
994,901; 3199,485;    1,076;    3,227
995,451; 3096,576;   -1,197;    0,318
996,000; 3179,758;    1,076;    0,318
996,550; 2890,121;    2,894;    0,227
997,100; 2896,667;   -0,561;   -0,045
997,649; 3175,121;   -0,197;    0,955
998,198; 2806,030;   -0,288;   -1,500
998,748; 2999,303;    0,348;   -2,318
999,297; 2885,485;    0,985;   -0,409
999,846; 2980,939;    1,894;   -0,773
1000,395; 3011,121;    1,530;    0,500
1000,945; 2975,394;    1,076;   -0,773
1001,494; 3039,485;    0,167;    0,682
1002,043; 3010,394;    0,712;    0,864
1002,592; 2856,121;    3,439;    1,955
1003,141; 3018,848;    2,439;   -0,682
1003,690; 2859,394;    1,258;    0,500
1004,238; 2921,848;   -0,106;   -0,045
1004,787; 2557,667;   -1,288;    1,227
1005,336; 2799,848;    1,621;    0,682
1005,885; 2936,121;   -0,197;   -2,773
1006,433; 3096,848;   -0,470;    0,955
1006,982; 3158,121;    2,167;    1,682
1007,531; 3077,758;    2,712;   -0,227
1008,079; 3036,485;    0,258;    0,500
1008,627; 3177,485;    1,621;    0,409
1009,176; 2892,030;    0,076;   -1,955
1009,724; 2957,394;   -2,742;    0,864
1010,273; 3014,576;    1,076;    0,500
1010,821; 3130,303;    1,076;    1,409
1011,369; 2866,848;    0,076;    1,318
1011,917; 2844,576;   -0,833;   -0,591
1012,465; 3123,394;    2,530;   -1,591
1013,013; 3225,667;    0,439;   -1,682
1013,561; 3095,939;   -1,288;   -0,773
1014,109; 3136,667;   -0,833;    1,682
1014,657; 3027,667;    1,348;    0,591
1015,205; 3133,485;    0,894;   -0,955
1015,753; 3163,485;    0,258;   -1,409
1016,301; 3211,030;    2,621;    3,045
1016,848; 3217,848;    2,167;    0,409
1017,396; 3246,667;    1,621;    0,045
1017,944; 3367,030;    2,621;    1,864
1018,491; 3129,030;   -0,197;    1,409
1019,039; 3301,121;   -0,652;    0,591
1019,586; 3200,667;    0,076;    1,682
1020,134; 3308,212;    0,712;    1,500
1020,681; 3315,576;    2,894;   -1,136
1021,228; 3331,939;   -0,561;   -2,227
1021,776; 3190,848;   -0,833;   -1,136
1022,323; 3380,939;    0,803;    0,773
1022,870; 3330,758;   -0,470;   -0,045
1023,417; 3221,667;    2,076;    1,864
1023,964; 3364,303;    0,621;    1,227
1024,511; 3200,758;   -0,652;    0,773
1025,058; 2982,303;    0,439;   -0,045
1025,605; 3050,121;   -1,742;    3,136
1026,152; 3258,485;   -0,106;   -0,591
1026,699; 2985,576;    0,167;    1,318
1027,245; 3160,394;    2,439;    0,318
1027,792; 3385,121;    0,712;    1,409
1028,339; 3263,394;    4,076;   -0,045
1028,885; 3105,121;    3,621;   -0,227
1029,432; 3036,758;   -0,106;    0,227
1029,978; 3102,667;    1,348;   -1,591
1030,525; 2994,485;    1,621;    0,409
1031,071; 3253,758;    0,348;    1,136
1031,618; 3358,758;    1,258;    1,682
1032,164; 3146,030;    2,076;    3,045
1032,710; 3195,121;    0,076;   -1,500
1033,256; 3119,121;    0,712;   -0,136
1033,803; 3094,758;   -0,288;    1,500
1034,349; 2835,303;    1,803;    0,136
1034,895; 3003,576;    2,621;   -0,318
1035,441; 2954,758;    0,439;    0,318
1035,987; 2964,939;   -2,288;   -0,682
1036,533; 2972,212;   -0,197;   -0,955
1037,078; 3171,848;    4,712;    1,682
1037,624; 2984,394;    2,439;   -0,955
1038,170; 3017,485;    1,712;   -0,318
1038,716; 2897,758;    2,167;   -0,409
1039,261; 2816,212;    2,167;   -0,773
1039,807; 2781,394;   -0,015;    3,409
1040,352; 2830,667;   -1,288;   -0,318
1040,898; 2886,667;    0,167;   -0,682
1041,443; 2789,394;    0,803;   -2,591
1041,989; 2821,212;    3,621;    1,591
1042,534; 2683,212;    0,985;    2,591
1043,079; 2813,030;    1,985;    0,955
1043,625; 2592,303;    0,258;    0,500
1044,170; 2639,030;    2,439;    1,045
1044,715; 2908,303;    0,167;    0,955
1045,260; 2703,303;   -0,833;   -0,955
1045,805; 2759,848;    0,258;   -0,591
1046,350; 2703,394;    0,530;   -0,409
1046,895; 2656,303;    0,803;    1,591
1047,440; 2604,485;    1,530;    0,409
1047,985; 2508,485;   -1,197;   -0,955
1048,530; 2424,939;    1,348;    1,227
1049,074; 2481,394;    2,803;    0,318
1049,619; 2458,212;   -0,924;    1,955
1050,164; 2286,848;    1,076;    0,227
1050,708; 2321,303;    2,621;    0,045
1051,253; 2694,576;    3,258;   -2,227
1051,797; 2405,576;   -0,197;   -1,318
1052,342; 2431,121;    1,348;    1,045
1052,886; 2394,758;    1,803;   -1,409
1053,430; 2298,667;    2,167;    0,136
1053,975; 2320,394;    0,894;   -0,318
1054,519; 2294,212;    1,803;    3,227
1055,063; 2301,394;    3,621;    1,318
1055,607; 2171,394;    1,348;    0,227
1056,151; 2213,121;    0,530;    1,682
1056,695; 2125,667;   -1,833;   -1,136
1057,239; 2197,939;   -1,197;   -0,682
1057,783; 2201,939;    2,258;   -1,500
1058,327; 2145,576;    3,076;    1,409
1058,871; 2371,303;    3,985;    1,318
1059,415; 2083,667;   -0,561;   -0,045
1059,958; 2328,030;    2,985;    2,591
1060,502; 2080,576;    1,348;   -0,773
1061,046; 1971,667;    1,712;   -0,955
1061,589; 1946,212;    2,803;   -1,136
1062,133; 1828,303;    0,985;    1,864
1062,676; 1760,485;    1,439;    0,864
1063,220; 1760,212;    0,985;    0,500
1063,763; 1785,030;    2,985;    1,136
1064,306; 1860,212;    0,985;    1,864
1064,849; 1754,939;    2,076;    0,591
1065,393; 1757,576;    2,894;   -1,500
1065,936; 1875,303;    2,530;   -0,409
1066,479; 1766,394;    2,621;    1,318
1067,022; 1806,485;    1,894;   -0,227
1067,565; 1693,394;   -1,197;   -1,318
1068,108; 1728,030;    1,258;   -0,591
1068,651; 1696,303;   -2,470;    1,409
1069,194; 1628,394;   -1,106;   -1,682
1069,736; 1612,030;    3,803;    0,955
1070,279; 1603,212;   -1,652;   -0,500
1070,822; 1654,394;    1,530;   -0,318
1071,364; 1718,121;    0,530;    1,318
1071,907; 1536,030;    0,348;    3,227
1072,450; 1454,212;    0,258;   -0,045
1072,992; 1457,576;   -0,561;    3,136
1073,535; 1579,758;    0,167;    2,136
1074,077; 1386,303;    2,985;    2,045
1074,619; 1359,212;    0,985;    0,591
1075,161; 1375,030;   -0,561;    1,500
1075,704; 1561,848;    0,258;    1,227
1076,246; 1367,394;    1,530;    0,682
1076,788; 1282,485;   -1,015;    1,773
1077,330; 1378,848;   -2,106;    2,136
1077,872; 1343,030;   -1,924;    0,955
1078,414; 1554,303;    3,712;    0,773
1078,956; 1288,485;    0,167;   -0,227
1079,498; 1534,121;    0,439;    0,318
1080,040; 1233,667;    0,985;   -1,318
1080,581; 1195,394;    0,621;   -0,318
1081,123; 1131,303;   -0,106;   -0,773
1081,665; 1177,939;    3,803;   -0,955
1082,206; 1461,394;    3,258;   -0,500
1082,748; 1326,758;    3,258;    2,045
1083,289; 1218,485;    0,167;    1,318
1083,831; 1119,303;    0,258;    0,227
1084,372; 1146,485;    0,894;    0,591
1084,913; 1140,576;    3,348;    0,864
1085,455; 1136,303;    1,530;   -2,045
1085,996; 1092,667;    0,530;    0,136
1086,537; 1124,394;    0,985;    0,864
1087,078; 1153,394;    0,439;   -2,136
1087,619; 1183,212;   -1,652;    0,227
1088,160; 1098,394;    1,439;    1,318
1088,701; 1079,030;   -0,742;    0,682
1089,242; 1028,848;   -0,561;   -2,227
1089,783; 1123,939;   -0,561;    1,409
1090,324; 1092,848;   -0,833;    0,682
1090,865;  964,394;   -1,924;   -0,409
1091,405;  954,848;   -0,561;    2,227
1091,946;  979,394;   -0,197;   -0,955
1092,487;  906,667;   -1,288;   -1,409
1093,027; 1056,030;    1,803;   -1,500
1093,568;  911,485;    2,258;    1,227
1094,108;  995,667;    0,621;    1,773
1094,649;  947,394;   -0,470;    0,136
1095,189;  886,667;    1,167;   -0,682
1095,729;  834,848;    0,712;    0,955
1096,269;  851,939;    1,258;   -0,955
1096,810; 1144,303;   -0,197;    0,500
1097,350;  981,939;   -0,561;   -0,773
1097,890;  882,394;    2,985;    1,227
1098,430; 1127,939;    4,985;    2,864
1098,970; 1000,848;    1,894;    1,682
1099,510;  875,121;   -0,833;   -2,318
1100,050;  801,485;    0,258;   -1,591
1100,589;  772,030;    0,076;   -0,318
1101,129;  895,394;    0,894;   -0,955
1101,669; 1016,121;    2,803;    2,136
1102,209;  864,394;    1,530;    2,227
1102,748;  826,939;    3,439;    0,955
1103,288;  807,667;    0,712;   -1,227
1103,827;  829,758;    3,530;   -2,227
1104,367;  714,758;    1,712;   -2,409
1104,906;  682,667;   -1,015;   -1,136
1105,445;  752,212;    0,985;   -1,136
1105,985;  694,030;   -0,652;    1,500
1106,524;  742,758;    1,530;   -0,682
1107,063;  706,030;    1,167;    1,409
1107,602;  690,758;    1,894;   -1,500
1108,141;  623,939;    1,621;    1,500
1108,680;  713,848;    3,985;   -0,591
1109,219;  658,303;    0,167;   -0,500
1109,758;  657,576;    4,167;    0,682
1110,297;  627,576;   -1,106;   -0,682
1110,836;  573,212;    1,439;    0,955
1111,375;  724,121;    0,348;    0,409
1111,913;  745,939;    0,985;    0,773
1112,452;  696,212;    0,894;    0,136
1112,991;  576,121;    1,076;    1,955
1113,529;  533,848;    0,167;   -0,045
1114,068;  600,667;    0,439;    2,955
1114,606;  504,939;   -0,561;   -0,955
1115,144;  661,939;    1,530;    1,045
1115,683;  598,485;    1,985;    0,318
1116,221;  634,667;    2,076;   -0,864
1116,759;  545,030;    1,621;   -0,864
1117,297;  735,576;    1,621;    1,864
1117,836;  563,939;    1,985;   -1,227
1118,374;  560,121;    0,258;   -0,682
1118,912;  515,758;    0,439;    2,682
1119,450;  498,394;    0,985;    0,864
1119,988;  534,667;    3,348;    2,136
1120,525;  975,848;    7,258;    3,318
1121,063;  689,394;    0,530;    1,864
1121,601;  504,121;    1,076;   -1,227
1122,139;  461,848;    1,076;   -2,045
1122,676;  645,667;   -1,652;    2,773
1123,214;  583,303;    0,712;    4,409
1123,751;  406,758;    0,621;    2,227
1124,289;  523,576;    0,894;   -0,409
1124,826;  402,576;   -0,379;    0,227
1125,364;  339,030;    0,712;   -0,955
1125,901;  511,848;    6,258;    1,227
1126,438;  613,667;    3,530;    0,955
1126,975;  361,758;    2,985;   -0,773
1127,513;  414,485;    2,621;    2,136
1128,050;  339,212;   -0,561;   -0,682
1128,587;  428,576;    1,348;   -0,227
1129,124;  465,030;   -0,015;    1,318
1129,661;  345,030;   -1,924;    0,227
1130,198;  500,485;    2,439;    0,773
1130,734;  442,576;   -0,379;    1,409
1131,271;  309,667;   -1,197;    0,864
1131,808;  471,667;    1,621;    3,045
1132,345;  346,667;    4,530;    0,318
1132,881;  240,212;   -0,561;   -1,864
1133,418;  364,394;    0,348;   -1,136
1133,954;  305,394;    0,712;   -2,682
1134,491;  379,485;    1,712;   -0,773
1135,027;  288,394;    2,167;    0,864
1135,564;  353,939;    1,439;    2,955
1136,100;  342,485;   -0,742;    2,136
1136,636;  244,485;   -1,015;   -1,045
1137,172;  333,576;    0,894;   -1,045
1137,708;  265,848;   -1,561;   -1,045
1138,245;  269,667;    0,803;   -1,227
1138,781;  227,848;    1,803;   -3,318
1139,317;  282,758;    1,894;   -1,409
1139,852;  268,485;    3,076;    0,136
1140,388;  378,030;    2,076;   -0,409
1140,924;  270,758;    1,076;   -2,227
1141,460;  213,667;   -0,288;    0,136
1141,996;  159,303;   -0,652;    2,682
1142,531;  203,303;    1,076;    3,318
1143,067;  398,848;    1,167;    1,045
1143,602;  452,303;    3,439;   -0,318
1144,138;  299,667;    0,803;    1,045
1144,673;  184,939;    1,621;    1,409
1145,209;  242,121;    2,894;   -0,318
1145,744;  174,848;    0,803;    0,864
1146,279;  296,212;    1,530;   -0,136
1146,815;  216,394;    1,530;   -2,682
1147,350;  250,030;   -0,924;    0,045
1147,885;  165,394;   -1,924;   -1,318
1148,420;  171,212;    2,439;    0,773
1148,955;  153,303;   -1,470;    1,864
1149,490;  182,485;   -1,106;   -1,591
1150,025;  156,576;   -1,106;   -1,773
1150,560;  265,485;   -0,288;   -0,955
1151,094;  226,576;    0,258;   -0,591
1151,629;  228,212;   -3,742;    0,864
1152,164;  167,485;   -1,288;    1,318
1152,698;  133,485;    1,258;   -0,136
1153,233;   95,394;   -1,379;   -0,682
1153,767;  142,939;   -0,288;   -2,318
1154,302;  185,030;   -0,379;    1,773
1154,836;  197,485;    0,803;   -2,136
1155,371;  229,212;    2,258;    3,682
1155,905;  188,667;    1,985;    1,682
1156,439;  163,667;    0,530;   -0,500
1156,973;  180,121;    0,439;    0,318
1157,507;  126,212;   -1,742;    0,682
1158,042;  152,121;   -0,652;    1,045
1158,576;  193,667;   -0,561;    1,773
1159,110;  183,303;    0,076;    2,409
1159,643;  162,030;   -2,470;   -0,045
1160,177;  104,848;   -2,015;    1,500

