
Integration time [ms]:   0,050
Averaging Nr. [scans]: 11
Smoothing Nr. [pixels]: 0
Data measured with spectrometer [name]: 7318044SP
Wave   ;Sample   ;Dark     ;Reference
[nm]   ;[counts] ;[counts] ;[counts] 

186,757;   -3,977;   38,161;    1,318
187,357;   24,724;   26,706;    0,955
187,958;   11,350;   17,252;   -1,591
188,558;   50,012;   12,979;   -1,227
189,159;   30,468;   10,070;   -4,500
189,759;    1,249;    5,797;   -3,591
190,360;    2,706;    6,797;   -2,136
190,960;   37,367;    5,706;   -4,136
191,560;   44,132;    2,614;   -6,591
192,161;  269,857;    5,885;   -3,500
192,761;  113,434;    5,520;   -3,227
193,361;   67,998;    3,065;   -3,773
193,962;  118,910;    1,612;   -2,682
194,562;   52,899;   -0,114;   -3,955
195,162;   88,054;   -0,567;   -2,227
195,762;  238,321;    2,433;   -0,045
196,362;  183,023;    1,706;   -2,500
196,963;   65,331;    1,706;   -0,864
197,563;  132,017;    1,252;   -0,955
198,163;   85,152;   -0,111;   -0,682
198,763;  100,544;   -0,020;   -0,500
199,363;  189,165;    3,616;   -0,500
199,963;  164,705;    2,162;    0,409
200,563;  147,900;    6,344;   -1,409
201,163;  126,384;    5,435;   -0,227
201,763;  206,447;    1,435;    0,318
202,363;  151,738;    0,980;    1,500
202,963;  239,527;    1,526;    1,045
203,563;  353,407;    0,344;    0,500
204,162;  219,066;    1,889;   -1,864
204,762;  207,394;    2,071;    0,591
205,362;  177,450;    0,708;    1,955
205,962;  266,197;    3,435;    1,955
206,562;  272,250;    1,889;    2,318
207,161;  234,422;    1,708;    0,318
207,761;  379,464;    4,435;    2,409
208,361;  268,531;    1,889;    1,409
208,960;  353,014;    2,889;    1,500
209,560;  420,774;    0,435;    1,591
210,160;  403,606;    5,071;    1,864
210,759;  377,674;    0,708;    1,227
211,359;  384,675;   -0,474;    1,045
211,958;  643,713;    3,526;    2,045
212,558;  718,407;    0,799;    1,864
213,157;  566,661;   -0,929;    1,500
213,757;  993,071;    5,617;   -0,227
214,356;  706,379;    1,708;   -0,409
214,956; 1022,096;    3,526;    0,409
215,555;  660,008;    0,617;    2,136
216,154;  595,858;   -0,292;   -0,591
216,754;  616,393;    1,253;    0,773
217,353;  751,518;   -0,383;   -1,045
217,952;  608,001;    2,072;    0,318
218,552;  828,552;    0,254;   -0,773
219,151;  735,650;   -1,110;    0,955
219,750;  731,001;    0,890;   -0,227
220,349;  860,729;   -2,292;    1,045
220,948;  930,352;    1,163;    1,136
221,548;  937,791;    0,617;    1,227
222,147; 1045,251;   -1,292;   -0,409
222,746; 1333,790;    1,254;   -0,955
223,345; 1195,545;   -1,019;    0,500
223,944; 1217,044;    1,163;    0,773
224,543; 1379,609;    4,072;   -1,409
225,142; 1491,714;    1,345;    0,136
225,741; 1393,051;    1,163;    1,045
226,340; 1416,656;    1,254;   -0,955
226,939; 1839,240;    2,708;   -0,136
227,538; 1787,066;    1,163;   -0,773
228,137; 1940,618;    0,435;    0,864
228,735; 2048,885;    0,435;    1,227
229,334; 1774,510;   -0,474;   -0,227
229,933; 2148,949;    0,799;    0,591
230,532; 2278,701;   -1,201;   -0,409
231,131; 2344,962;    1,253;    0,318
231,729; 2409,104;    1,163;   -2,318
232,328; 2507,055;    0,435;   -1,500
232,927; 2576,806;    4,526;   -0,500
233,525; 2677,888;    0,981;    0,045
234,124; 2864,942;    1,890;   -1,591
234,723; 2880,804;    1,617;   -1,045
235,321; 3040,133;    1,163;    0,136
235,920; 3243,109;    2,526;   -1,227
236,518; 3495,347;    1,072;    0,318
237,117; 3686,492;    2,890;   -0,227
237,715; 3833,847;    1,163;   -0,500
238,314; 3867,991;    1,708;   -2,318
238,912; 3986,932;    0,526;   -1,409
239,510; 4050,183;    1,162;   -1,227
240,109; 4240,158;   -0,474;    3,773
240,707; 4299,426;   -0,474;    1,227
241,305; 4679,042;   -0,383;    0,136
241,904; 4891,133;   -0,292;   -2,045
242,502; 4887,877;    3,253;   -0,227
243,100; 4889,473;    3,344;   -0,955
243,698; 5139,555;    2,799;    1,682
244,297; 5364,243;   -0,656;    0,682
244,895; 5236,486;   -0,474;   -2,318
245,493; 5617,418;    2,981;   -0,591
246,091; 5677,273;    5,163;   -1,318
246,689; 5665,540;    2,163;    0,591
247,287; 5864,502;   -0,019;   -1,136
247,885; 6197,794;   -1,019;    1,227
248,483; 6327,646;   -0,201;   -0,500
249,081; 6520,140;    0,981;    1,591
249,679; 6706,877;   -1,019;    1,682
250,277; 6994,028;   -2,292;    0,864
250,875; 6990,206;    0,617;   -1,045
251,473; 7055,893;   -0,019;    0,500
252,071; 7269,555;   -0,383;    1,045
252,669; 7441,044;   -1,565;    0,318
253,267; 7745,504;    1,618;    0,773
253,864; 7708,411;    0,617;    0,682
254,462; 7581,687;    1,526;    1,591
255,060; 7577,114;    0,072;    1,318
255,658; 7927,317;   -3,292;   -0,136
256,255; 8383,588;   -0,201;   -2,045
256,853; 8272,885;    2,345;    1,409
257,451; 8287,134;    1,981;    1,864
258,048; 8561,197;    2,072;    1,864
258,646; 8336,318;    0,436;   -1,045
259,243; 8546,794;    2,981;    2,227
259,841; 8610,927;    1,799;    0,318
260,438; 8472,859;    0,254;    0,864
261,036; 9265,372;    0,617;    1,409
261,633; 9205,964;    1,526;    2,227
262,231; 8977,696;   -0,110;   -0,045
262,828; 9062,151;   -0,383;    1,136
263,425; 9118,004;   -1,928;   -0,591
264,023; 9404,932;    1,436;    0,045
264,620; 8937,398;    1,526;   -0,318
265,217; 9326,595;    2,890;    3,136
265,815; 9437,311;    2,527;    2,136
266,412; 9197,697;    0,072;    0,136
267,009; 9225,492;    0,526;    0,773
267,606; 9171,863;    0,345;   -0,955
268,203; 9134,426;   -0,383;   -0,591
268,801; 9441,162;   -0,474;    0,591
269,398; 9763,388;   -0,564;    2,500
269,995; 9777,606;    0,890;    1,591
270,592; 9490,088;    0,799;   -0,500
271,189; 9735,239;    1,981;    0,409
271,786; 9905,406;    2,072;    1,227
272,383; 9727,928;   -0,383;    0,227
272,980; 9900,835;    1,617;    0,318
273,577;10453,476;    2,162;    1,227
274,174; 9980,712;    1,435;    2,591
274,771; 9914,135;    1,890;   -0,773
275,367;10108,198;    3,253;    1,409
275,964;10097,965;   -0,565;   -0,500
276,561;10218,152;   -2,474;   -1,045
277,158;10471,513;    1,799;   -1,773
277,755;10576,776;   -0,110;    0,409
278,351; 9933,858;    0,436;   -1,500
278,948;10296,829;   -0,201;    0,045
279,545;10340,886;    0,527;    2,318
280,141;10989,021;    1,254;   -2,045
280,738;10834,397;    2,435;   -0,136
281,334;11126,388;   -0,383;    0,591
281,931;10555,084;    2,890;   -1,318
282,528;10703,270;    4,072;   -0,500
283,124;11476,596;    3,345;   -0,500
283,721;11350,698;    0,709;    1,409
284,317;11201,245;    0,163;    2,500
284,913;11787,950;   -0,110;    0,591
285,510;12041,586;    2,890;   -0,318
286,106;12094,664;    2,345;   -0,955
286,703;11687,872;    0,072;    1,955
287,299;11900,017;    1,254;   -0,591
287,895;12185,884;    0,890;   -1,045
288,491;12846,934;    0,163;    2,136
289,088;12552,679;    0,163;    2,409
289,684;12629,317;    2,890;    1,500
290,280;12695,823;    1,890;    0,682
290,876;12811,451;    0,163;    5,500
291,472;12739,455;    2,163;    2,227
292,068;12815,402;    1,254;    0,227
292,665;12562,563;   -0,564;    0,773
293,261;12196,341;   -1,292;    2,136
293,857;12567,721;    4,072;    2,136
294,453;12558,762;   -0,928;    0,955
295,049;12413,977;    0,253;    1,955
295,644;12484,645;   -1,292;    0,136
296,240;12416,974;    0,162;   -0,136
296,836;12521,125;   -0,747;    0,318
297,432;12803,967;    2,980;   -0,500
298,028;12824,759;    0,435;    0,773
298,624;13259,687;    0,889;    1,864
299,220;13572,696;    0,435;    0,591
299,815;13217,191;    0,526;   -0,409
300,411;12955,796;    0,435;    1,773
301,007;13018,288;    1,889;    0,227
301,602;13104,922;    2,071;   -2,318
302,198;13236,869;    1,435;   -0,773
302,794;13613,830;    1,526;   -0,500
303,389;13764,755;    1,071;    1,045
303,985;13830,012;    1,253;    1,409
304,580;13777,369;    0,889;    1,591
305,176;13776,764;    0,344;    0,136
305,771;13743,391;   -0,929;   -1,227
306,367;13501,670;    3,071;    0,136
306,962;13909,741;    2,889;    1,500
307,558;13658,404;    2,435;    0,136
308,153;13598,405;   -0,383;   -1,136
308,748;13823,795;    0,162;    1,682
309,344;13782,793;    0,253;   -1,318
309,939;13902,957;    2,071;   -1,318
310,534;14187,557;   -2,020;   -1,682
311,130;14167,774;   -0,656;   -2,500
311,725;13863,181;    0,526;   -0,500
312,320;14171,901;    1,253;    0,045
312,915;14021,653;    2,890;   -1,045
313,510;14026,128;    0,526;   -0,500
314,105;14605,492;   -3,565;    1,409
314,700;13973,899;   -1,656;   -1,045
315,295;13543,279;   -0,020;    0,045
315,890;13060,911;   -0,292;    0,864
316,485;13446,011;    0,253;   -0,318
317,080;13521,661;   -0,929;    1,591
317,675;14098,452;    3,071;   -0,682
318,270;13406,442;    6,889;    3,318
318,865;13462,891;    2,435;    3,045
319,460;13279,799;   -1,565;    0,591
320,055;13589,809;   -2,565;   -1,227
320,650;13193,840;   -1,838;   -0,591
321,244;13222,837;    0,889;   -1,409
321,839;14261,552;    0,980;   -0,227
322,434;14169,901;   -0,111;   -1,591
323,029;13741,320;   -0,474;    1,591
323,623;13600,886;    0,798;    0,773
324,218;13348,554;    2,707;    1,409
324,812;13251,017;    0,889;    1,591
325,407;13043,981;   -0,929;    2,045
326,002;12953,415;    0,526;   -0,409
326,596;13316,701;   -0,656;    1,318
327,191;13580,569;   -0,383;   -1,045
327,785;13113,065;   -0,747;   -0,227
328,379;13361,692;   -0,383;    0,136
328,974;13182,088;    1,798;   -3,955
329,568;13421,964;    2,889;   -2,409
330,163;13230,545;    2,435;    1,045
330,757;13626,631;    0,253;    1,591
331,351;12958,057;   -0,292;    0,682
331,945;13224,097;   -0,383;    1,409
332,540;12807,881;    1,617;   -0,591
333,134;12969,156;    3,344;    0,773
333,728;13222,303;    2,799;    0,318
334,322;13579,349;    0,889;   -0,864
334,916;12854,911;    0,344;    0,955
335,510;13177,533;   -0,111;   -0,136
336,105;13491,205;   -0,929;    1,591
336,699;13150,443;   -1,292;    0,591
337,293;13064,777;    1,071;    0,318
337,887;13250,570;    0,071;    1,955
338,481;13352,453;    2,980;    0,591
339,074;13535,815;    2,071;    2,682
339,668;13313,392;   -0,110;    1,227
340,262;13572,830;    7,708;    3,227
340,856;13090,480;    1,708;   -0,682
341,450;12418,225;    0,708;    1,864
342,044;13357,141;    1,799;    0,136
342,637;13140,430;    1,162;   -2,136
343,231;12960,653;   -1,474;    0,682
343,825;12887,438;   -0,747;   -0,591
344,419;12831,584;   -0,474;    0,500
345,012;12553,567;    2,889;    4,045
345,606;12571,411;   -0,656;    1,591
346,199;12442,098;   -0,111;   -0,227
346,793;11944,402;    2,525;    2,045
347,386;12138,979;    0,889;   -1,136
347,980;12132,732;   -0,838;   -0,045
348,573;11910,521;   -1,748;    0,409
349,167;11477,026;    6,161;    4,773
349,760;11891,887;    2,252;    2,682
350,354;11889,842;    1,616;    1,136
350,947;11586,262;    2,798;    1,682
351,540;11262,011;    0,616;   -1,409
352,134;11205,737;   -1,111;    1,136
352,727;11216,341;   -0,657;    1,136
353,320;11004,342;    2,343;    0,591
353,913;10901,044;   -1,929;    1,864
354,507;11039,253;    0,434;   -1,227
355,100;11047,311;    0,071;    0,864
355,693;10155,380;    4,798;    2,409
356,286;10247,368;    0,980;    2,773
356,879;10661,989;   -0,475;    1,227
357,472;10212,219;    0,980;    1,500
358,065;10372,281;    3,161;    2,500
358,658;10311,165;    0,798;    2,318
359,251; 9915,813;    0,252;   -0,591
359,844; 9337,173;    0,343;   -1,136
360,437; 9489,745;    0,252;    0,045
361,030; 9790,417;    0,525;   -0,682
361,623; 9356,209;    0,434;    0,318
362,215; 9365,842;    0,979;    2,045
362,808; 9215,330;   -2,293;   -1,682
363,401; 9381,769;    0,798;    0,136
363,994; 9101,415;    3,252;   -1,500
364,586; 9014,560;    0,888;   -1,500
365,179; 9265,402;   -0,203;   -1,136
365,772; 8699,381;   -0,930;    2,045
366,364; 8971,671;    1,524;   -3,227
366,957; 9163,962;    1,342;   -0,045
367,549; 9227,201;   -0,203;   -0,864
368,142; 8837,609;    0,978;   -1,500
368,734; 9059,365;    2,523;   -2,136
369,327; 9020,169;    2,341;   -0,500
369,919; 8905,228;   -1,659;    0,409
370,512; 8612,359;   -1,023;   -0,500
371,104; 8338,762;    2,704;    1,591
371,696; 8524,868;    1,703;   -0,955
372,289; 8631,852;    0,157;    1,136
372,881; 8786,014;    1,156;    1,318
373,473; 8747,229;    4,064;    1,136
374,066; 8506,269;    1,336;    0,500
374,658; 8361,739;    0,879;    1,136
375,250; 8724,451;   -1,668;   -1,409
375,842; 8546,276;   -0,124;   -0,045
376,434; 8408,810;   -2,762;   -0,409
377,026; 9031,525;   -1,855;   -2,500
377,618; 8911,969;    0,779;   -0,682
378,210; 8741,845;    3,141;   -1,955
378,802; 8574,755;    3,412;   -0,591
379,394; 8476,428;    3,411;    0,682
379,986; 9154,855;    1,138;   -0,955
380,578; 9274,305;    1,410;    0,773
381,170; 8536,418;    0,320;    0,045
381,762; 8486,856;   -0,224;    1,409
382,354; 8724,587;   -0,223;   -1,318
382,945; 8806,276;    0,870;    0,318
383,537; 9001,680;    1,144;   -1,955
384,129; 8992,119;    0,963;   -1,136
384,721; 9195,492;    0,418;    0,955
385,312; 9117,103;   -1,399;   -0,955
385,904; 9170,814;   -0,945;    1,591
386,496; 8484,717;    0,691;    1,045
387,087; 8654,563;    0,418;    2,500
387,679; 8708,039;   -0,401;    0,045
388,270; 8856,549;   -2,401;    2,045
388,862; 8995,851;   -0,401;   -0,318
389,453; 8857,705;    1,054;    1,045
390,045; 9137,309;    3,236;   -2,682
390,636; 9106,674;    0,144;   -0,591
391,227; 8945,497;    2,054;   -0,045
391,819; 9029,773;    0,781;    0,773
392,410; 9127,691;    0,600;    0,045
393,001; 9016,479;    1,600;   -1,591
393,593; 9319,412;    0,600;   -0,045
394,184; 9166,944;    0,873;   -0,409
394,775; 9111,891;    1,146;    2,136
395,366; 9299,115;    1,782;    0,773
395,957; 9312,280;   -2,400;    0,136
396,548; 9634,242;    1,054;    2,682
397,139; 9979,839;    2,236;    0,591
397,730; 9658,981;    0,873;    0,955
398,321; 9731,931;    0,509;    0,955
398,912; 9733,917;   -0,764;    0,136
399,503; 9830,847;   -1,945;   -1,409
400,094; 9236,422;   -1,582;    1,682
400,685; 9121,032;    3,600;    0,045
401,276; 9210,716;   -0,400;   -0,955
401,867; 9520,093;   -1,127;    0,773
402,458; 9625,854;    1,509;   -2,318
403,048; 9601,768;    0,146;    0,591
403,639; 9160,597;    1,509;    0,864
404,230; 9405,811;    0,691;    0,318
404,821; 9304,483;   -0,127;    0,045
405,411; 9447,342;   -0,763;   -2,591
406,002; 8994,266;    3,237;   -1,136
406,592; 8791,495;    2,691;    0,045
407,183; 9137,072;    0,328;   -1,500
407,774; 9026,696;    1,419;   -0,136
408,364; 9408,887;    2,600;    0,409
408,954; 8975,643;   -0,036;    1,227
409,545; 9000,808;    1,873;    1,045
410,135; 8478,599;   -1,581;    0,500
410,726; 8672,452;    0,783;    0,318
411,316; 9086,676;    2,237;    0,773
411,906; 8717,102;    0,146;   -0,409
412,497; 8138,385;   -0,490;   -0,045
413,087; 8810,642;    0,783;   -0,227
413,677; 9192,393;   -2,490;    3,864
414,267; 9006,884;   -1,035;    1,409
414,857; 9005,736;    0,419;    4,227
415,448; 9259,974;   -0,763;    0,500
416,038; 8942,488;   -2,945;   -0,591
416,628; 8879,286;    0,965;    0,409
417,218; 8294,785;   -1,762;    3,318
417,808; 8553,091;    0,965;   -0,409
418,398; 9039,129;   -1,035;    2,682
418,988; 9025,488;   -2,217;    0,591
419,578; 9297,849;    3,601;    1,409
420,168; 9634,931;    0,692;   -0,955
420,757; 9154,734;    0,964;   -1,500
421,347; 8772,791;    1,601;   -0,227
421,937; 8937,898;    3,329;    1,409
422,527; 8835,060;    2,602;   -0,773
423,116; 8663,792;    2,692;   -0,045
423,706; 9034,013;    2,965;    0,318
424,296; 8962,093;    1,601;    0,682
424,885; 9370,729;    1,510;   -3,045
425,475; 9665,358;    1,147;   -2,864
426,065; 9567,379;   -1,489;   -0,318
426,654; 9159,487;    0,329;   -0,318
427,244; 9259,957;    1,147;    1,409
427,833; 8646,373;    1,056;   -0,500
428,423; 9131,667;    0,147;    1,136
429,012; 9910,634;    2,420;   -1,136
429,601; 9353,380;    2,057;    0,136
430,191; 9589,814;    2,511;    4,318
430,780; 9162,646;   -1,671;   -0,409
431,369; 9060,567;    1,329;   -0,045
431,959; 9686,263;    1,693;    0,500
432,548; 9445,312;   -1,398;   -0,045
433,137; 9580,106;    0,329;   -1,318
433,726;10091,238;    0,148;    0,500
434,315; 9414,346;    0,148;    2,409
434,905; 9486,235;    0,693;    1,409
435,494; 9393,339;    3,148;    0,955
436,083; 9823,506;    1,420;   -0,955
436,672; 9632,390;    1,148;    0,500
437,261; 9191,843;    0,512;   -1,955
437,850; 9260,756;   -1,125;    0,682
438,439; 9176,837;    2,239;    1,955
439,027; 8996,063;    3,421;    1,773
439,616; 9361,933;    2,239;    1,227
440,205; 9180,887;    0,057;   -2,136
440,794; 9202,233;   -0,306;   -0,045
441,383; 9401,248;    1,603;   -0,591
441,971; 9220,407;   -0,306;    0,591
442,560; 9020,754;    0,603;   -1,773
443,149; 8776,614;    3,060;   -1,318
443,737; 8918,841;    0,968;   -2,318
444,326; 9100,589;    0,331;    0,318
444,915; 9096,684;   -1,851;    0,864
445,503; 9432,623;    0,058;   -0,318
446,092; 8722,577;    7,876;    2,136
446,680; 9224,387;    1,876;    0,318
447,269; 9327,768;   -1,487;   -0,318
447,857; 9085,060;    2,240;   -1,773
448,445; 9168,221;    2,149;    1,318
449,034; 9358,130;    0,876;   -1,136
449,622; 9429,862;    1,240;    3,500
450,210; 8650,554;    3,149;    2,227
450,799; 9151,047;    2,604;   -0,591
451,387; 9044,214;    1,786;   -0,591
451,975; 8676,608;   -1,305;    0,864
452,563; 8763,750;    0,422;    2,318
453,151; 8767,910;   -1,032;   -1,227
453,739; 8662,376;   -1,577;    0,136
454,328; 8499,454;    0,604;   -2,136
454,916; 8194,575;    1,150;   -0,136
455,504; 8373,433;    3,513;    1,227
456,092; 8517,484;    2,150;   -1,591
456,679; 8438,469;    0,604;    0,682
457,267; 8395,216;    3,604;    1,045
457,855; 8517,068;    3,241;    1,409
458,443; 8247,837;   -0,304;    1,682
459,031; 8365,754;    1,332;    2,409
459,619; 8805,377;   -3,577;    2,864
460,206; 8899,823;   -0,759;    2,045
460,794; 8943,387;   -0,668;   -0,227
461,382; 9131,221;    0,878;   -0,864
461,970; 8740,702;    0,605;    1,864
462,557; 8765,359;    0,878;   -0,682
463,145; 8933,630;   -0,304;   -1,682
463,732; 9023,534;    2,514;   -1,045
464,320; 8906,335;    1,514;   -3,045
464,907; 8566,798;    0,423;   -0,773
465,495; 8448,485;    2,696;   -1,227
466,082; 8573,987;    2,060;   -0,045
466,670; 8431,918;    2,605;    1,227
467,257; 8834,246;    0,060;    2,045
467,844; 9011,327;    1,514;    0,045
468,432; 8990,563;   -0,031;    3,500
469,019; 8512,958;    1,606;   -1,773
469,606; 8917,838;    0,969;    3,682
470,193; 8720,459;    2,151;    0,227
470,780; 8289,721;    0,333;    0,864
471,368; 8606,944;   -1,212;   -0,773
471,955; 8336,621;    1,060;   -0,682
472,542; 7958,888;   -0,303;   -1,136
473,129; 8161,986;   -0,485;    0,136
473,716; 7924,370;    0,060;    0,591
474,303; 8067,563;    1,333;   -0,864
474,890; 8260,399;    2,333;   -0,500
475,477; 8229,621;   -0,576;    0,409
476,064; 8132,781;    0,697;   -1,591
476,650; 8026,092;    2,152;    0,318
477,237; 7829,365;    1,879;    0,955
477,824; 7936,612;    3,879;    0,864
478,411; 7883,953;    0,606;   -0,318
478,997; 8007,898;    0,606;   -0,773
479,584; 8044,304;   -0,666;   -0,409
480,171; 8619,511;    1,243;   -0,773
480,757; 8278,783;   -0,848;    0,773
481,344; 8444,035;    0,334;    0,409
481,931; 7949,086;   -0,393;    1,045
482,517; 8761,444;    0,425;    0,318
483,104; 9147,181;    1,334;    2,864
483,690; 9293,652;    0,243;    0,045
484,276; 9496,351;    0,698;    0,227
484,863; 9244,916;    2,152;    1,136
485,449; 9726,451;    0,152;    0,318
486,035; 9641,323;   -0,666;   -0,136
486,622;10008,207;   -2,393;    0,045
487,208; 9921,525;    1,334;    1,500
487,794; 9855,571;    0,971;    0,318
488,380; 9948,888;    0,698;   -1,409
488,967; 9965,467;   -1,120;   -0,409
489,553;10030,774;   -1,029;   -1,409
490,139;10218,117;    0,971;    0,773
490,725; 9785,872;    0,789;   -0,227
491,311; 9499,812;    1,516;    3,045
491,897; 8938,919;   -0,665;    1,500
492,483; 8926,905;    0,426;    1,227
493,069; 8924,909;    5,426;    0,864
493,655; 8906,501;    1,789;    0,682
494,241; 8896,895;    1,517;   -0,955
494,826; 9323,950;    0,335;   -1,045
495,412; 8844,346;    0,335;   -0,682
495,998; 9095,809;    0,971;   -0,318
496,584; 9273,315;    2,244;    1,045
497,169; 9330,889;    2,335;   -0,682
497,755; 9354,328;    1,244;    1,227
498,341;10035,611;    2,153;    0,318
498,926; 9738,849;    2,881;    1,955
499,512;10050,953;   -0,028;    2,955
500,097;10215,584;   -0,574;   -0,318
500,683;10324,245;   -0,028;    2,136
501,268;10823,106;    1,881;   -0,955
501,854;10676,413;   -0,119;    1,227
502,439;10722,567;   -0,573;   -1,773
503,024;11023,425;    1,608;    0,500
503,610;11223,350;    1,335;   -0,682
504,195;11375,170;    1,245;    1,955
504,780;11619,310;    2,335;    1,227
505,366;11582,004;    4,063;    2,864
505,951;11422,673;   -1,119;    1,045
506,536;11586,036;    1,427;   -3,682
507,121;11667,184;    1,699;   -0,318
507,706;12318,473;   -0,392;    1,045
508,291;12835,588;   -2,937;    1,136
508,876;12398,741;   -0,482;    2,591
509,461;11927,535;    1,427;   -0,773
510,046;12464,363;   -0,391;    0,318
510,631;12804,996;   -0,119;   -0,773
511,216;12558,769;   -0,664;   -0,500
511,801;13036,202;   -0,755;    2,591
512,386;13411,554;    0,972;    0,500
512,971;13441,345;    0,427;    0,955
513,555;13037,935;    1,154;   -1,500
514,140;13955,097;    1,336;   -3,136
514,725;14051,787;    1,791;   -1,136
515,309;14218,117;    1,064;    0,318
515,894;13708,352;   -0,300;   -2,227
516,479;14189,680;    1,973;   -0,955
517,063;14056,903;    0,882;    1,227
517,648;14274,834;    0,155;   -1,136
518,232;13920,591;   -1,300;   -1,409
518,817;14282,479;    1,337;    1,682
519,401;14570,050;    0,700;    0,591
519,985;14069,279;    2,700;    1,136
520,570;13967,683;   -0,118;   -1,955
521,154;14326,092;    0,064;    0,591
521,738;14517,610;    1,064;    2,409
522,323;15119,331;   -0,390;    1,682
522,907;14911,561;    2,428;   -0,136
523,491;14643,487;    1,155;    0,955
524,075;14591,557;    0,428;    0,591
524,659;14705,222;    0,973;    0,591
525,243;14140,822;    0,883;    0,409
525,827;14399,985;    0,883;   -0,045
526,411;15301,859;    1,155;   -0,136
526,995;15538,791;    0,337;    1,409
527,579;15146,631;    1,974;   -1,045
528,163;15474,206;    0,428;   -1,500
528,747;15428,724;    1,065;   -0,773
529,331;15710,729;    0,883;   -1,409
529,915;15942,067;    2,338;    0,955
530,499;15883,672;    0,247;    1,227
531,082;15587,256;    1,065;    1,591
531,666;15002,200;    0,520;    0,773
532,250;15694,703;    0,428;    2,682
532,833;16072,322;    0,610;    2,773
533,417;15931,729;    1,247;    0,864
534,001;15881,866;    0,429;   -0,318
534,584;16658,741;    1,974;    0,500
535,168;16544,548;    3,247;    1,409
535,751;16513,783;    4,520;    0,045
536,334;15923,742;    4,520;   -0,409
536,918;16601,212;    1,974;    1,591
537,501;16725,744;    1,520;    1,318
538,085;16662,146;    1,702;    1,045
538,668;16843,034;    0,883;    2,409
539,251;17206,467;    3,156;    3,773
539,834;17220,445;    0,156;    0,773
540,418;17157,450;    3,247;    4,318
541,001;17340,010;    2,702;    1,773
541,584;17323,964;    1,429;    2,227
542,167;16988,231;    0,702;    2,955
542,750;17168,950;    0,793;   -0,773
543,333;16745,736;    1,429;    2,136
543,916;17565,283;   -0,298;    2,500
544,499;18192,215;    2,520;    0,227
545,082;18146,472;    0,248;    3,591
545,665;18335,187;   -0,207;    1,500
546,248;18720,372;    0,520;   -0,318
546,830;18382,131;   -1,752;    1,955
547,413;18764,589;    0,157;   -0,773
547,996;19353,265;    0,157;    0,500
548,579;19119,963;   -0,843;    0,955
549,161;18961,402;    0,884;    2,682
549,744;18689,100;    0,612;    0,409
550,326;19224,656;    0,885;   -1,136
550,909;18964,429;    2,339;    0,591
551,492;19367,623;    0,521;    0,227
552,074;19166,505;   -0,024;   -1,318
552,657;19732,024;    2,430;    0,045
553,239;19489,415;   -3,024;   -0,773
553,821;19440,396;   -1,570;    1,045
554,404;18889,350;   -0,024;    1,136
554,986;19287,325;    2,248;    1,045
555,568;19958,353;    0,430;   -0,955
556,151;19133,877;    4,067;   -0,227
556,733;19284,025;   -1,388;   -0,864
557,315;19786,474;    4,703;    0,500
557,897;19594,965;    0,521;   -0,500
558,479;19717,008;    1,703;    1,318
559,061;19837,992;    1,067;   -0,864
559,643;20205,519;   -0,297;    0,045
560,225;20541,064;   -0,388;    2,864
560,807;20603,064;    0,340;    0,318
561,389;20055,429;   -1,206;    2,318
561,971;20843,002;   -0,660;    2,136
562,553;20693,757;    0,613;    1,591
563,135;20794,409;    1,249;    1,136
563,717;20379,917;    3,158;    1,136
564,298;21158,822;    3,976;   -0,045
564,880;20822,754;    0,340;   -1,409
565,462;21018,391;    1,977;    1,318
566,043;22256,877;   -0,933;    2,318
566,625;21747,690;    4,067;    1,227
567,207;21610,607;    0,704;    1,682
567,788;22777,999;   -0,114;    1,500
568,370;23612,468;   -1,841;   -0,500
568,951;23455,460;   -0,569;    0,227
569,533;24367,272;    0,977;   -0,500
570,114;24933,323;   -0,296;    0,682
570,695;25404,992;   -0,478;   -1,318
571,277;25995,695;   -0,205;   -1,682
571,858;26811,490;    2,704;   -1,136
572,439;27720,659;    0,795;   -1,045
573,021;27886,347;    0,432;   -2,773
573,602;28441,730;    1,795;    0,318
574,183;29381,406;   -0,114;    2,227
574,764;29596,357;    2,068;    0,409
575,345;30177,872;    0,250;   -0,136
575,926;30819,007;    2,704;    0,136
576,507;30850,361;    2,704;   -0,227
577,088;31944,874;    1,704;    1,682
577,669;32011,128;    1,704;    1,955
578,250;32781,588;   -0,750;   -1,045
578,831;33448,379;   -0,841;   -2,227
579,412;33723,107;   -1,205;    0,955
579,993;34712,455;    1,432;    0,227
580,573;35079,039;   -0,023;   -0,955
581,154;33992,893;    1,613;   -0,591
581,735;34881,727;    0,341;    0,773
582,315;34367,182;    0,523;    2,136
582,896;34726,812;   -1,750;    1,227
583,477;34119,580;    0,614;    1,227
584,057;34326,696;    1,159;    0,955
584,638;34647,183;   -2,750;    2,318
585,218;34613,685;    2,886;    2,682
585,799;34713,491;    1,977;   -0,227
586,379;34723,965;    1,250;    1,591
586,959;33511,016;    2,613;    0,318
587,540;32784,175;    0,432;    2,227
588,120;32218,089;   -1,113;   -0,045
588,700;31110,176;    2,977;    2,136
589,281;31429,065;    1,250;   -0,955
589,861;31366,130;   -0,296;   -1,682
590,441;31188,985;   -1,477;   -2,682
591,021;30135,541;    1,432;   -2,591
591,601;30383,413;    0,431;    0,500
592,181;30358,787;   -1,296;   -0,773
592,761;29587,942;    2,250;    1,409
593,341;29500,523;    1,522;    0,045
593,921;29434,206;   -0,569;    1,591
594,501;29316,957;    1,250;    1,318
595,081;29176,590;    0,522;   -0,318
595,661;29568,255;    1,068;    0,955
596,240;30075,809;   -1,023;    0,136
596,820;29680,191;    2,613;    1,955
597,400;29877,998;    1,977;    0,773
597,980;30093,251;   -0,750;    1,045
598,559;30063,163;    0,341;   -0,227
599,139;29793,742;   -0,750;   -1,227
599,718;29671,378;    0,795;   -0,409
600,298;29905,832;   -2,387;    0,682
600,877;30205,722;    4,795;    1,409
601,457;30445,741;    0,340;    1,136
602,036;30378,589;    1,795;    2,045
602,616;30609,882;    2,250;    1,682
603,195;30885,553;    0,431;    3,500
603,774;30384,918;   -0,296;    2,045
604,354;30338,351;    2,522;   -0,500
604,933;29805,306;    0,250;    1,864
605,512;29938,336;    2,340;    0,591
606,091;29967,119;    1,886;    3,773
606,671;30783,532;    0,249;    0,773
607,250;29834,089;    1,431;    3,136
607,829;30145,326;    1,158;    3,227
608,408;29975,258;    4,613;    2,591
608,987;28954,996;    2,704;    3,409
609,566;29280,624;    0,341;   -2,500
610,145;29368,622;    2,885;    0,682
610,723;29766,858;    1,613;    6,864
611,302;28907,582;    1,067;    1,682
611,881;28408,627;    5,158;   11,227
612,460;29289,156;    0,795;    3,955
613,039;29762,078;    1,703;    2,045
613,617;28436,834;    0,886;    4,773
614,196;28651,825;    1,613;    1,227
614,775;28959,762;    1,249;    2,409
615,353;28947,851;   -1,660;    0,864
615,932;28613,109;    0,249;    2,409
616,510;29175,211;    0,158;    0,591
617,089;28685,911;    8,794;   17,591
617,667;28431,569;    4,885;    6,136
618,246;28233,535;   -1,115;    1,318
618,824;28388,252;    1,612;   -0,955
619,402;27971,894;    0,431;   -1,773
619,981;28503,095;    1,067;   -1,045
620,559;28357,831;    0,794;    1,682
621,137;27869,741;    3,067;    1,864
621,715;27835,159;    3,703;   -0,682
622,293;27751,249;    1,885;   -0,773
622,871;28284,928;    0,340;    0,500
623,450;27778,256;    0,430;   -0,864
624,028;27688,494;   -0,388;   -0,955
624,606;27276,284;    2,339;    1,682
625,183;27625,902;   -0,661;   -1,136
625,761;27252,532;    1,885;    1,136
626,339;27582,279;    2,339;    2,591
626,917;27967,871;    0,339;   -0,045
627,495;27976,283;    2,794;    1,318
628,073;27409,415;    5,248;    2,864
628,650;27164,333;    3,067;    2,136
629,228;27567,721;    1,248;    4,409
629,806;26906,708;   -0,024;    1,136
630,383;27208,582;    0,066;   -0,318
630,961;26982,740;   -2,206;   -0,955
631,539;26695,902;   -2,479;    0,227
632,116;25913,831;   12,703;   15,409
632,694;26547,775;    4,885;    6,500
633,271;26838,358;    1,975;    2,682
633,848;26739,162;    1,430;    2,045
634,426;26799,725;    1,521;    1,773
635,003;25960,403;   -0,207;   -0,409
635,580;26217,381;    1,884;    3,682
636,158;26812,867;    3,793;    1,227
636,735;26789,208;    3,339;   -0,500
637,312;26951,612;    0,521;   -0,682
637,889;27032,574;    2,248;   -0,682
638,466;26516,348;    0,066;   -0,409
639,043;26541,402;    1,702;   -1,136
639,620;26785,274;    0,611;   -0,955
640,197;27099,594;    1,612;    1,682
640,774;27284,926;    1,430;    1,136
641,351;27691,167;    0,612;    1,136
641,928;27128,408;    2,794;    1,409
642,505;26759,830;    0,794;   -0,500
643,082;26856,980;    1,885;    1,227
643,658;25864,948;    1,157;    1,500
644,235;26612,644;   -2,479;    2,500
644,812;26858,339;    1,794;    0,773
645,388;26623,489;    1,612;    1,409
645,965;26733,093;    1,521;    1,682
646,542;26831,061;    3,430;   -0,227
647,118;26794,848;    3,703;   -0,955
647,695;27066,179;    0,339;    1,136
648,271;27006,875;   -2,115;    0,500
648,848;27311,661;    0,248;    2,227
649,424;27145,902;    0,976;    1,318
650,000;26854,597;   -0,388;   -1,045
650,577;26714,838;    0,158;   -0,955
651,153;27169,897;   -1,115;    0,955
651,729;28144,774;    0,521;    0,864
652,305;28371,015;    1,339;    2,773
652,881;33128,620;   -1,297;    1,136
653,458;40262,315;    0,249;    0,227
654,034;44340,010;    0,703;    1,591
654,610;45924,978;    0,339;    0,773
655,186;47304,037;    1,612;    3,045
655,762;46976,005;   -1,842;    0,409
656,338;47089,064;    0,703;    0,136
656,913;48148,851;   -0,297;    0,409
657,489;47472,637;    0,249;   -0,318
658,065;47448,423;    0,794;   -1,591
658,641;47970,028;    2,158;   -0,864
659,217;47176,632;    2,067;    0,409
659,792;46528,782;   -1,751;   -0,409
660,368;46836,568;   -0,388;   -0,682
660,944;46492,991;    1,794;    1,227
661,519;41808,505;    0,522;    0,409
662,095;35316,200;   -0,206;    0,591
662,670;30405,350;   -0,206;   -0,136
663,246;29134,591;   -0,660;   -0,409
663,821;28401,468;    0,431;    1,682
664,396;27924,527;    0,613;    1,864
664,972;28149,222;   -0,660;   -0,500
665,547;28501,372;    3,794;    0,136
666,122;28495,249;    1,340;    0,318
666,698;28771,672;    2,431;    0,318
667,273;28084,822;    0,885;    0,136
667,848;28906,790;    0,340;    1,500
668,423;28686,667;    1,795;    2,318
668,998;29263,544;    0,976;   -0,682
669,573;29797,240;    2,067;   -1,500
670,148;29639,935;    1,885;   -0,682
670,723;29443,903;   -0,024;    0,318
671,298;29945,053;   -1,296;    1,045
671,873;29966,294;   -0,296;   -0,136
672,448;29952,535;    1,704;    0,136
673,023;30239,957;    0,249;   -0,227
673,597;30601,834;    2,704;    2,318
674,172;30341,530;    2,431;    0,318
674,747;29840,589;   -0,205;   -1,045
675,321;29707,375;   -0,933;    3,318
675,896;29290,525;    2,158;    1,045
676,471;30250,948;    2,522;    1,591
677,045;30022,007;   -0,296;    0,682
677,620;30039,520;    2,158;    1,136
678,194;30373,034;    0,249;    1,136
678,769;29867,275;    0,886;   -0,318
679,343;30107,152;   -0,023;    1,773
679,917;30019,302;    0,340;    1,955
680,492;30114,452;    0,249;    3,227
681,066;30268,238;    0,613;    0,409
681,640;30297,570;    1,795;   -0,318
682,214;31156,265;    2,340;    0,500
682,788;30658,597;    0,613;   -0,773
683,363;30632,474;    1,977;    1,682
683,937;30314,715;    0,886;   -0,318
684,511;31080,774;   -1,023;   -0,591
685,085;30808,287;   -1,478;    0,318
685,659;30533,437;    1,431;    0,864
686,232;30725,951;    1,159;   -0,318
686,806;30502,101;    2,159;    0,409
687,380;31178,432;   -1,932;    0,591
687,954;31396,673;    2,432;    1,136
688,528;31045,641;    2,613;    1,955
689,101;31884,155;    0,432;    1,045
689,675;31408,577;    0,886;   -0,136
690,249;30781,727;    3,432;    0,409
690,822;31068,604;    1,159;    0,318
691,396;31182,663;    2,068;    1,227
691,969;30616,268;    2,523;    0,136
692,543;31094,600;   -0,568;   -1,955
693,116;30779,659;   -0,659;   -1,409
693,690;30583,081;   -0,296;    0,500
694,263;31179,049;    2,341;    2,955
694,836;31238,745;    2,795;    3,591
695,410;29854,258;    1,159;    1,773
695,983;30285,317;    1,614;    0,591
696,556;30244,467;   -0,750;   -1,045
697,129;30618,890;   -1,114;    1,409
697,703;30244,585;    1,341;    1,955
698,276;30245,917;    1,705;   -0,773
698,849;30044,521;   -1,023;    1,409
699,422;30402,035;    1,250;    0,591
699,995;30101,821;   -0,659;    0,136
700,568;30628,607;   -0,204;    3,045
701,140;30614,666;   -1,841;    1,682
701,713;30295,725;    0,341;    2,409
702,286;30077,512;    0,796;    0,864
702,859;29975,207;    0,614;   -0,591
703,432;29118,175;   -0,841;    0,682
704,004;29704,325;    1,978;    0,318
704,577;29541,748;    1,068;    0,136
705,150;30047,989;    0,887;    2,500
705,722;29823,957;    1,523;   -3,227
706,295;29595,379;    1,432;   -0,591
706,867;29430,438;    0,250;    1,955
707,440;29623,134;   -0,113;   -0,409
708,012;29928,374;   -0,022;    0,591
708,584;29823,979;    2,705;    0,227
709,157;30158,311;    1,160;   -0,591
709,729;29811,370;    1,069;    2,045
710,301;30695,156;   -1,204;    0,045
710,874;30690,488;    0,341;   -0,227
711,446;29509,456;   -0,295;    0,864
712,018;29449,333;   -3,022;    0,500
712,590;29117,210;   -0,204;    1,682
713,162;29639,269;   -0,477;    1,318
713,734;29903,237;    1,796;   -2,045
714,306;29799,842;    0,342;   -0,409
714,878;28513,992;   -0,295;    0,864
715,450;29314,141;   -0,113;    0,864
716,022;29567,382;    2,433;    1,318
716,593;29725,532;    0,978;    0,591
717,165;29676,046;    1,796;   -1,227
717,737;29359,377;    0,796;    0,409
718,309;29090,618;    1,160;   -0,045
718,880;29015,405;   -1,295;   -1,409
719,452;29213,009;    0,887;   -1,591
720,024;28768,068;    1,705;   -0,591
720,595;29371,945;    2,978;    0,955
721,167;28880,004;    1,160;   -2,045
721,738;28360,154;    2,069;   -1,045
722,309;28288,759;    1,251;   -1,227
722,881;28061,181;    2,705;    0,773
723,452;28757,149;    1,251;    2,864
724,023;28900,572;    1,524;    2,682
724,595;28648,722;    2,342;    0,682
725,166;28412,508;    1,524;   -0,409
725,737;28031,931;    1,887;    0,227
726,308;28153,535;    0,797;    0,318
726,879;28574,231;    1,069;    1,227
727,450;28458,290;   -2,022;   -0,045
728,021;28393,530;    1,069;    0,682
728,592;28237,771;    1,160;    0,500
729,163;28545,194;    1,433;   -0,136
729,734;28520,616;    2,160;   -0,227
730,305;28868,857;    0,615;    0,136
730,876;29186,916;    0,888;    2,955
731,447;28930,066;    0,797;    2,682
732,017;29093,943;   -0,840;    1,864
732,588;28580,911;   -0,021;    1,227
733,159;28692,334;    3,615;   -1,045
733,729;28555,211;    1,251;    0,409
734,300;27869,907;    0,160;    0,864
734,870;28259,420;   -1,385;    0,591
735,441;28753,661;    0,888;   -0,591
736,011;28507,175;    1,070;   -1,591
736,582;28501,870;    1,251;    0,045
737,152;27915,020;    0,979;   -2,045
737,722;28401,988;    1,070;   -0,682
738,293;28085,592;   -2,021;    1,318
738,863;27945,106;    1,797;    2,318
739,433;27753,892;    4,524;    0,318
740,003;28400,678;    1,524;   -0,682
740,573;27815,374;    2,252;   -1,591
741,143;27747,160;    3,615;    0,318
741,713;28509,219;    0,252;   -0,500
742,283;28221,096;    1,706;    1,591
742,853;27994,428;    0,524;    1,591
743,423;27416,851;    0,161;    0,045
743,993;27589,455;    1,070;    1,500
744,563;26925,241;    2,524;   -0,864
745,133;26894,119;   -0,112;   -0,864
745,702;27622,087;    2,797;    1,773
746,272;26798,327;    0,434;    0,591
746,842;26549,477;   -0,748;   -0,591
747,411;26986,173;   -0,839;   -0,318
747,981;27170,686;   -0,930;    0,500
748,551;27223,200;   -0,021;   -1,045
749,120;27055,441;   -0,112;   -0,227
749,690;27458,045;    2,161;    2,409
750,259;27755,286;    0,979;    2,955
750,828;27632,345;    4,070;   -1,955
751,398;27941,222;   -0,112;   -0,045
751,967;27404,917;    2,888;    0,409
752,536;27637,158;    1,161;   -0,227
753,105;28095,945;   -1,384;    0,227
753,675;27900,458;   -0,112;    1,773
754,244;27823,335;    0,888;    3,591
754,813;27845,485;    0,979;    1,227
755,382;27453,544;    0,798;    0,955
755,951;27925,876;   -0,112;    3,682
756,520;27466,208;    2,525;    1,864
757,089;28110,903;    1,888;    0,500
757,658;28272,417;    2,434;    1,227
758,227;28266,839;   -1,111;    0,318
758,795;28513,444;   -1,021;    1,136
759,364;28766,230;    0,525;   -0,591
759,933;27776,562;    1,343;   -0,045
760,501;27320,984;    0,252;   -1,318
761,070;27737,589;   -0,293;   -1,409
761,639;28466,466;    1,434;    1,318
762,207;27740,798;    0,889;   -0,955
762,776;27696,493;    2,889;    0,864
763,344;27642,461;    0,071;    0,591
763,913;26744,975;    1,616;    1,409
764,481;27498,215;    1,980;   -0,136
765,049;27315,456;    0,616;    1,409
765,618;27212,697;    1,434;    0,318
766,186;27343,756;    2,434;    0,136
766,754;27459,270;    1,798;    1,864
767,322;26408,510;    1,162;    0,409
767,890;26425,388;    0,525;   -1,773
768,459;26866,538;    2,616;   -0,318
769,027;27025,051;    2,525;    3,409
769,595;26007,110;    2,616;    2,591
770,163;26425,260;    3,344;    2,955
770,730;26165,319;    2,525;   -0,136
771,298;26019,469;    1,162;   -1,409
771,866;26086,073;    0,253;    4,955
772,434;26368,587;    1,162;   -1,864
773,002;26572,555;    2,616;    0,682
773,569;26222,432;    1,071;    1,682
774,137;26016,037;    0,889;   -0,045
774,705;26762,368;   -0,747;   -0,136
775,272;26254,973;    0,253;    0,682
775,840;26026,577;   -0,111;    2,682
776,407;25540,818;   -0,293;    1,955
776,975;25145,968;    1,162;    0,318
777,542;26231,663;    2,162;   -0,045
778,110;26066,541;    0,707;   -0,045
778,677;25694,781;    1,071;   -0,864
779,244;25378,840;   -1,020;    1,045
779,812;25571,263;    0,980;    0,864
780,379;25412,958;    2,435;    1,136
780,946;25631,563;    2,617;   -0,773
781,513;25965,076;   -0,565;    0,318
782,080;25356,317;    1,253;    2,864
782,647;26059,831;    1,708;    3,045
783,214;25676,435;   -0,201;    3,864
783,781;25243,585;    1,708;   -0,682
784,348;25158,099;    0,253;    1,500
784,915;25664,612;   -1,474;    0,318
785,482;25350,398;    2,708;    2,591
786,049;25765,185;    1,071;   -0,591
786,615;25884,426;    1,708;   -0,955
787,182;25705,121;   -3,201;   -0,682
787,749;25382,816;   -2,201;    1,409
788,315;24707,512;    0,253;   -0,409
788,882;24940,207;    0,981;   -1,227
789,448;25565,175;    1,435;   -0,955
790,015;25660,961;    1,799;    3,227
790,581;25200,020;    0,708;    0,227
791,148;25038,352;    1,344;    1,045
791,714;25289,866;   -1,019;    3,136
792,280;24980,288;    3,708;    1,591
792,847;24606,256;   -0,928;    2,500
793,413;25166,406;   -0,110;   -0,318
793,979;24662,465;    1,526;   -1,318
794,545;24661,706;    2,981;    2,682
795,111;24070,220;    2,435;    1,318
795,678;24220,915;    3,526;   -1,682
796,244;23946,519;    2,799;    0,136
796,810;24541,215;    0,799;    0,773
797,375;24201,819;   -0,292;   -2,136
797,941;24250,424;   -1,110;    0,591
798,507;24356,665;    0,254;   -0,955
799,073;23917,633;    2,708;    0,591
799,639;24036,237;    1,435;    3,136
800,205;24038,751;   -1,565;    2,682
800,770;23519,719;    1,345;    1,773
801,336;23539,414;    2,981;   -0,955
801,901;23254,928;    6,072;    3,136
802,467;23853,987;    0,526;    2,045
803,033;23159,591;   -0,019;    0,864
803,598;23373,832;    1,072;   -1,045
804,163;23423,527;    0,708;   -0,318
804,729;23348,677;   -0,110;    1,136
805,294;23749,009;    1,072;    2,227
805,859;23564,068;    0,890;   -0,409
806,425;23023,854;    3,890;    2,682
806,990;22648,277;    1,890;    4,318
807,555;23155,427;   -0,110;    2,591
808,120;23078,940;   -1,292;   -0,409
808,685;23127,454;    1,072;   -2,500
809,250;22620,877;    2,072;   -0,500
809,815;22944,481;   -0,201;    0,682
810,380;23485,631;    0,981;    1,591
810,945;23953,872;    2,890;    2,045
811,510;23152,385;   -0,200;    1,591
812,075;22873,626;    2,800;   -1,409
812,640;22869,321;    3,709;    1,409
813,204;22915,290;    2,163;   -0,227
813,769;23416,349;    0,254;   -0,045
814,334;22841,408;    0,527;    0,864
814,898;22895,285;    1,981;    0,591
815,463;22768,889;    0,981;   -0,773
816,027;22760,130;    1,345;   -2,318
816,592;22846,007;    2,163;   -2,045
817,156;22313,612;   -2,200;    1,136
817,721;22145,307;    0,982;    2,318
818,285;22139,730;    0,618;    1,500
818,849;22797,061;   -0,018;    1,682
819,414;22624,666;    0,073;    2,955
819,978;22237,361;   -0,291;    1,773
820,542;22818,602;    2,891;    0,500
821,106;22557,843;    2,800;    0,682
821,670;22599,265;    2,709;    2,591
822,234;22276,415;    1,073;    1,409
822,798;21694,565;   -0,836;    0,500
823,362;21716,352;    1,527;    4,227
823,926;20952,592;   -0,018;    1,136
824,490;21189,924;    3,527;   -0,682
825,054;21681,710;    2,527;   -1,136
825,618;21314,678;   -1,200;   -1,500
826,181;21213,647;    0,982;   -1,318
826,745;21101,706;   -0,745;   -1,045
827,309;21434,765;    2,255;    1,318
827,872;20853,551;    0,527;    0,955
828,436;21892,519;    1,982;   -0,773
828,999;21960,942;    2,436;    1,227
829,563;20717,637;   -0,654;    1,136
830,126;20560,423;   -0,018;   -0,591
830,690;20575,482;    0,709;    2,864
831,253;20046,723;   -0,473;    2,227
831,816;20201,237;   -0,018;    0,500
832,380;20129,659;    1,164;    0,864
832,943;20321,536;    3,073;   -0,500
833,506;19868,595;    0,255;   -1,227
834,069;20630,291;    2,164;   -0,955
834,632;20722,713;   -2,200;    1,318
835,195;20628,227;    1,346;    0,955
835,758;19822,559;    0,709;    1,955
836,321;19610,618;    1,073;   -1,045
836,884;19720,858;   -1,291;   -0,955
837,447;19779,372;    0,528;    1,773
838,010;19985,795;    1,800;    3,227
838,573;20280,035;    0,528;    0,773
839,135;20228,276;   -0,109;   -0,955
839,698;19661,063;    2,528;    0,409
840,261;19188,576;    0,255;   -0,227
840,823;19063,908;   -0,927;    0,864
841,386;19331,421;   -0,018;   -2,409
841,948;19177,571;    0,255;    1,773
842,511;18936,448;    0,255;    1,682
843,073;19112,962;    2,982;    0,227
843,636;18895,566;    0,619;   -0,227
844,198;18827,807;    1,255;    0,591
844,760;18966,594;    0,619;    1,955
845,322;18575,107;    0,164;    1,136
845,885;19006,530;   -0,290;    0,591
846,447;19439,771;    0,710;    0,227
847,009;19000,830;    3,983;   -0,682
847,571;19310,707;    1,346;   -2,045
848,133;19428,493;   -0,199;   -1,864
848,695;19268,552;    2,346;    1,409
849,257;18816,338;    1,346;   -1,682
849,819;18944,215;    2,983;   -0,409
850,381;18933,911;    1,801;   -0,864
850,942;19344,606;    1,892;   -0,591
851,504;19251,574;    0,983;    0,227
852,066;19308,633;    1,619;   -1,591
852,628;18884,601;    0,165;    1,955
853,189;18387,842;    0,256;    2,682
853,751;18531,356;   -0,654;    1,409
854,312;18391,415;    1,256;   -1,682
854,874;18920,201;   -0,108;   -0,773
855,435;19390,351;    0,528;   -1,682
855,997;19514,592;    3,983;   -0,136
856,558;18767,651;    0,801;    1,773
857,119;18928,437;   -0,744;    2,864
857,681;18642,769;   -0,108;    0,318
858,242;18605,373;    1,347;   -2,136
858,803;19048,796;    1,074;   -0,773
859,364;19585,946;    0,892;   -4,773
859,925;18956,096;   -0,290;   -0,955
860,486;18874,427;    0,529;   -0,955
861,047;18592,850;    0,165;   -1,227
861,608;18437,091;    0,165;   -0,773
862,169;18599,968;   -0,562;   -0,045
862,730;18352,936;   -0,290;    1,409
863,291;18567,086;    0,438;   -0,500
863,852;18884,236;   -0,926;    1,955
864,412;18372,204;   -1,835;   -0,864
864,973;16950,536;    1,892;    0,500
865,534;16785,595;    2,074;    0,227
866,094;18323,199;    2,620;    0,227
866,655;17981,167;    4,711;    3,318
867,215;18293,590;    0,074;    0,136
867,776;18120,649;   -1,199;   -0,136
868,336;18201,617;    1,529;    0,136
868,897;17656,221;    3,438;    1,682
869,457;17416,735;    3,256;    0,318
870,017;17676,249;    2,438;   -1,227
870,578;18197,944;    1,893;    0,773
871,138;17750,548;    2,620;   -0,955
871,698;17336,516;   -0,562;   -1,318
872,258;17196,121;    0,711;   -2,864
872,818;17606,271;    2,347;    0,045
873,378;17547,784;   -2,198;    1,045
873,938;17085,025;    4,984;    0,500
874,498;17414,902;    1,256;   -1,955
875,058;17323,598;    4,347;    1,773
875,618;17160,657;    1,438;   -2,682
876,177;17107,625;   -0,471;    0,136
876,737;16728,502;   -0,289;    1,955
877,297;16694,925;    2,711;    1,955
877,856;16692,893;    2,529;    0,318
878,416;16653,224;    2,438;   -0,136
878,976;16865,011;    3,438;    0,409
879,535;17044,706;    4,529;    3,136
880,095;16789,129;    1,347;    0,045
880,654;16885,551;    0,347;    1,318
881,213;16989,156;    2,347;    1,500
881,773;16661,942;    1,984;    2,682
882,332;17008,547;    6,075;    5,136
882,891;16880,242;    0,711;    2,136
883,451;17315,846;   -2,016;    1,682
884,010;16781,814;   -1,107;   -0,409
884,569;16873,964;   -2,289;   -0,045
885,128;16994,569;   -0,743;   -1,864
885,687;17073,810;   -0,743;    0,682
886,246;16757,960;    2,620;    2,136
886,805;16499,473;    1,620;    2,045
887,364;16823,987;    1,166;   -0,500
887,922;17170,682;   -0,016;    0,045
888,481;16626,286;    1,530;    0,591
889,040;16941,255;    3,711;    2,136
889,599;17658,314;    2,166;    1,409
890,157;17725,918;    2,166;    2,409
890,716;17375,068;    2,166;    0,227
891,274;17127,491;    0,075;   -1,136
891,833;17525,368;    1,166;    0,864
892,391;17454,699;    1,802;    0,500
892,950;17546,849;    0,166;   -0,773
893,508;17908,545;    0,984;   -0,409
894,067;17261,876;   -0,379;    0,136
894,625;17179,026;   -1,016;   -1,500
895,183;17399,085;   -0,198;   -0,682
895,741;17289,417;    2,257;   -1,773
896,299;17152,022;    1,621;   -2,409
896,858;17339,171;    1,530;   -1,591
897,416;17423,867;    0,166;   -1,318
897,974;17158,380;   -2,197;    0,318
898,532;17327,348;    6,530;    2,682
899,089;17196,953;    0,621;   -0,682
899,647;17344,921;    0,530;    1,318
900,205;17036,889;    0,257;    1,045
900,763;17207,948;    2,166;    0,227
901,321;17180,825;    3,530;   -1,409
901,878;16613,157;    3,257;   -0,773
902,436;16464,671;    0,257;    1,318
902,994;16879,093;    6,712;    3,682
903,551;16309,607;    1,439;    0,409
904,109;16727,575;    1,530;   -1,409
904,666;16364,634;    1,439;    1,045
905,224;16162,602;    3,894;   -0,409
905,781;15873,752;   -0,470;   -0,318
906,338;15902,811;    0,167;    1,045
906,895;15863,415;    1,894;    2,045
907,453;15816,111;    2,348;    1,136
908,010;15818,533;    3,348;    0,409
908,567;15459,320;   -0,561;    0,591
909,124;14973,379;    2,439;   -1,500
909,681;15026,347;   -1,288;    0,682
910,238;15202,860;   -0,106;   -1,318
910,795;15531,646;   -1,561;   -1,136
911,352;15172,919;   -0,379;   -2,682
911,909;14593,465;    2,803;   -0,864
912,466;15068,465;    1,985;    1,500
913,022;14558,737;   -0,924;    0,500
913,579;14935,283;   -0,470;    2,045
914,136;14624,192;   -2,561;    0,955
914,692;15003,465;    1,530;   -1,227
915,249;14541,283;    0,530;    0,409
915,806;14773,465;    1,803;    1,955
916,362;14496,556;    0,894;    1,864
916,918;14032,465;    2,439;    1,045
917,475;14055,101;    1,621;    0,955
918,031;14149,646;    0,076;   -0,045
918,587;13612,010;    0,621;   -0,318
919,144;13811,283;   -0,379;    0,227
919,700;14135,465;    0,167;    0,773
920,256;13720,737;    0,439;    0,045
920,812;13342,737;    1,439;   -1,045
921,368;13332,919;    1,348;   -1,045
921,924;12970,556;    0,439;   -0,136
922,480;12472,101;    0,076;    1,227
923,036;13111,646;   -0,652;    1,955
923,592;13105,374;    0,621;    0,318
924,148;12998,192;    1,894;   -0,955
924,704;12318,828;    0,258;   -0,409
925,259;12607,010;   -0,561;    0,591
925,815;12362,737;    3,803;    0,500
926,371;11889,919;    3,530;    1,409
926,926;11781,919;    1,621;    0,591
927,482;11411,283;    1,621;    0,773
928,037;11286,737;   -0,833;    2,045
928,593;11578,919;    0,258;    1,045
929,148;11377,374;    1,167;   -1,500
929,704;10943,010;    2,439;   -0,500
930,259;11103,374;    0,894;   -0,136
930,814;10186,465;    1,803;    1,955
931,369; 9897,646;    0,258;   -0,773
931,925; 9774,465;   -1,924;    0,136
932,480; 9671,192;    3,076;   -2,591
933,035; 9562,010;    3,985;   -0,318
933,590; 9300,919;   -1,742;   -1,773
934,145; 8943,737;   -1,288;   -0,318
934,700; 9326,192;    0,348;   -0,591
935,255; 9126,010;    4,803;    0,045
935,809; 8410,374;    6,258;    0,864
936,364; 7524,737;    2,167;   -0,136
936,919; 7486,192;    2,348;   -1,773
937,474; 7399,465;    1,348;    0,136
938,028; 7166,374;    3,076;    1,136
938,583; 6593,101;    6,348;    4,682
939,138; 6874,646;    0,167;    2,136
939,692; 6344,646;   -1,015;   -1,136
940,247; 6009,101;    1,167;   -1,045
940,801; 5557,556;    0,621;    0,227
941,355; 5471,192;    0,439;    2,591
941,910; 5129,010;    0,712;   -2,136
942,464; 5199,919;    2,712;   -0,318
943,018; 4991,010;    3,258;   -0,227
943,572; 4939,919;    2,803;   -0,682
944,126; 4367,828;   -0,924;   -0,409
944,681; 4253,919;    0,712;    0,227
945,235; 4236,283;    2,167;   -0,591
945,789; 4162,737;    1,258;   -1,864
946,342; 4264,283;   -0,561;   -0,591
946,896; 4083,646;    0,348;    0,955
947,450; 3856,374;   -0,561;   -0,227
948,004; 4055,919;    1,076;   -0,045
948,558; 4065,737;    1,258;   -0,864
949,111; 3970,828;   -1,197;   -0,318
949,665; 4001,374;   -0,106;   -0,682
950,219; 3869,192;    0,621;   -1,045
950,772; 3939,737;    0,258;    1,864
951,326; 3867,374;   -1,106;   -0,955
951,879; 3962,283;    1,076;   -2,318
952,433; 3967,192;    1,348;    2,227
952,986; 3809,192;    0,348;    0,682
953,539; 3749,374;    1,530;    0,591
954,093; 3715,010;    0,985;   -1,318
954,646; 3835,556;   -0,288;    1,318
955,199; 3633,283;    1,258;   -0,500
955,752; 3528,646;    1,985;    1,773
956,305; 3483,374;    0,894;    2,955
956,858; 3662,828;    0,621;   -0,318
957,411; 3838,101;    3,621;    2,136
957,964; 3655,919;    2,076;    2,136
958,517; 3639,192;    0,985;    3,136
959,070; 3471,283;   -1,197;    1,955
959,623; 3535,101;    1,076;    1,500
960,176; 3338,828;    0,712;    2,045
960,728; 3307,192;    1,712;    0,773
961,281; 3359,556;    2,258;    0,500
961,834; 3390,010;   -0,833;    0,864
962,386; 3318,374;    1,258;    1,045
962,939; 3242,465;    3,439;   -0,318
963,491; 3396,828;    2,621;    1,136
964,043; 3246,646;    0,076;    2,409
964,596; 3358,101;    1,712;    2,227
965,148; 3200,283;   -0,379;    1,773
965,700; 3141,465;   -0,015;   -0,227
966,253; 3308,556;   -0,833;    0,318
966,805; 3114,646;    1,894;    0,773
967,357; 3171,192;    0,439;   -1,500
967,909; 3113,828;    1,167;   -1,227
968,461; 3239,101;    0,894;    3,136
969,013; 3166,737;   -1,561;   -0,864
969,565; 3238,101;    1,803;   -1,136
970,117; 3321,192;    3,803;    1,045
970,669; 3159,737;    3,258;   -0,136
971,220; 3016,465;    2,167;   -1,500
971,772; 2934,646;    1,348;   -0,318
972,324; 3057,828;   -1,197;   -0,500
972,876; 2995,010;    0,167;   -0,045
973,427; 3110,828;   -1,197;   -1,045
973,979; 3103,465;    0,076;   -2,500
974,530; 3130,101;    0,803;    1,318
975,082; 3136,101;    2,167;    1,682
975,633; 3014,283;    2,894;    1,682
976,184; 3184,465;    2,076;    0,773
976,736; 2965,101;    0,348;    0,227
977,287; 2758,283;    0,258;   -0,500
977,838; 2962,737;   -0,924;   -0,318
978,389; 3021,465;    0,803;   -0,500
978,940; 2883,737;    1,258;   -0,409
979,491; 2898,556;    2,258;   -0,500
980,042; 2851,556;   -0,652;    3,045
980,593; 2931,919;    1,894;    0,227
981,144; 2981,737;    3,530;   -0,500
981,695; 2940,465;   -0,470;    1,500
982,246; 2904,374;   -1,833;    1,045
982,797; 3060,283;   -0,561;    0,682
983,347; 3192,919;    2,167;    0,591
983,898; 3329,374;    4,167;    0,409
984,449; 3125,556;    2,530;    0,773
984,999; 3073,465;    1,894;   -1,136
985,550; 2828,465;    3,167;   -0,318
986,100; 2874,465;    0,712;   -0,318
986,651; 2907,828;    0,258;    0,045
987,201; 2878,919;    0,894;   -0,591
987,751; 2975,646;   -0,288;    2,864
988,302; 2954,192;   -0,379;    1,500
988,852; 2954,192;    1,985;   -1,136
989,402; 3013,010;    0,985;    0,682
989,952; 2928,828;    1,621;    0,864
990,502; 3035,192;    1,076;    0,682
991,052; 3001,101;   -0,106;    0,045
991,602; 2867,010;    1,167;    1,318
992,152; 2852,283;    2,803;    0,682
992,702; 2830,646;    1,167;   -0,045
993,252; 2757,192;    0,076;   -0,500
993,802; 2836,646;    1,167;    1,318
994,352; 3078,283;   -0,742;    1,136
994,901; 3182,192;    1,076;    3,227
995,451; 3093,101;   -1,197;    0,318
996,000; 3174,919;    1,076;    0,318
996,550; 2896,192;    2,894;    0,227
997,100; 2902,010;   -0,561;   -0,045
997,649; 3202,374;   -0,197;    0,955
998,198; 2804,919;   -0,288;   -1,500
998,748; 2986,465;    0,348;   -2,318
999,297; 2902,101;    0,985;   -0,409
999,846; 2998,283;    1,894;   -0,773
1000,395; 3034,646;    1,530;    0,500
1000,945; 2963,010;    1,076;   -0,773
1001,494; 3047,101;    0,167;    0,682
1002,043; 3038,646;    0,712;    0,864
1002,592; 2899,465;    3,439;    1,955
1003,141; 3047,465;    2,439;   -0,682
1003,690; 2860,556;    1,258;    0,500
1004,238; 2924,465;   -0,106;   -0,045
1004,787; 2569,192;   -1,288;    1,227
1005,336; 2812,192;    1,621;    0,682
1005,885; 2949,737;   -0,197;   -2,773
1006,433; 3101,556;   -0,470;    0,955
1006,982; 3173,646;    2,167;    1,682
1007,531; 3108,192;    2,712;   -0,227
1008,079; 3036,556;    0,258;    0,500
1008,627; 3183,192;    1,621;    0,409
1009,176; 2919,283;    0,076;   -1,955
1009,724; 2956,101;   -2,742;    0,864
1010,273; 3027,465;    1,076;    0,500
1010,821; 3136,374;    1,076;    1,409
1011,369; 2865,919;    0,076;    1,318
1011,917; 2853,010;   -0,833;   -0,591
1012,465; 3125,465;    2,530;   -1,591
1013,013; 3243,283;    0,439;   -1,682
1013,561; 3118,646;   -1,288;   -0,773
1014,109; 3161,192;   -0,833;    1,682
1014,657; 3011,919;    1,348;    0,591
1015,205; 3160,828;    0,894;   -0,955
1015,753; 3197,919;    0,258;   -1,409
1016,301; 3219,828;    2,621;    3,045
1016,848; 3226,465;    2,167;    0,409
1017,396; 3276,465;    1,621;    0,045
1017,944; 3393,737;    2,621;    1,864
1018,491; 3139,101;   -0,197;    1,409
1019,039; 3317,737;   -0,652;    0,591
1019,586; 3227,828;    0,076;    1,682
1020,134; 3337,737;    0,712;    1,500
1020,681; 3323,101;    2,894;   -1,136
1021,228; 3351,737;   -0,561;   -2,227
1021,776; 3175,556;   -0,833;   -1,136
1022,323; 3386,828;    0,803;    0,773
1022,870; 3335,465;   -0,470;   -0,045
1023,417; 3236,556;    2,076;    1,864
1023,964; 3369,101;    0,621;    1,227
1024,511; 3200,192;   -0,652;    0,773
1025,058; 3009,919;    0,439;   -0,045
1025,605; 3044,192;   -1,742;    3,136
1026,152; 3272,556;   -0,106;   -0,591
1026,699; 3005,919;    0,167;    1,318
1027,245; 3172,010;    2,439;    0,318
1027,792; 3422,828;    0,712;    1,409
1028,339; 3277,465;    4,076;   -0,045
1028,885; 3111,919;    3,621;   -0,227
1029,432; 3059,010;   -0,106;    0,227
1029,978; 3125,283;    1,348;   -1,591
1030,525; 3019,646;    1,621;    0,409
1031,071; 3283,556;    0,348;    1,136
1031,618; 3378,192;    1,258;    1,682
1032,164; 3174,283;    2,076;    3,045
1032,710; 3220,010;    0,076;   -1,500
1033,256; 3126,192;    0,712;   -0,136
1033,803; 3122,374;   -0,288;    1,500
1034,349; 2864,374;    1,803;    0,136
1034,895; 3014,556;    2,621;   -0,318
1035,441; 2990,646;    0,439;    0,318
1035,987; 2978,828;   -2,288;   -0,682
1036,533; 2976,828;   -0,197;   -0,955
1037,078; 3181,374;    4,712;    1,682
1037,624; 3005,646;    2,439;   -0,955
1038,170; 3038,919;    1,712;   -0,318
1038,716; 2902,737;    2,167;   -0,409
1039,261; 2833,828;    2,167;   -0,773
1039,807; 2776,828;   -0,015;    3,409
1040,352; 2841,374;   -1,288;   -0,318
1040,898; 2891,374;    0,167;   -0,682
1041,443; 2824,283;    0,803;   -2,591
1041,989; 2827,828;    3,621;    1,591
1042,534; 2720,556;    0,985;    2,591
1043,079; 2842,465;    1,985;    0,955
1043,625; 2607,737;    0,258;    0,500
1044,170; 2633,101;    2,439;    1,045
1044,715; 2910,828;    0,167;    0,955
1045,260; 2749,465;   -0,833;   -0,955
1045,805; 2790,919;    0,258;   -0,591
1046,350; 2724,101;    0,530;   -0,409
1046,895; 2674,828;    0,803;    1,591
1047,440; 2620,556;    1,530;    0,409
1047,985; 2512,737;   -1,197;   -0,955
1048,530; 2444,374;    1,348;    1,227
1049,074; 2531,192;    2,803;    0,318
1049,619; 2507,283;   -0,924;    1,955
1050,164; 2310,010;    1,076;    0,227
1050,708; 2349,101;    2,621;    0,045
1051,253; 2708,283;    3,258;   -2,227
1051,797; 2432,556;   -0,197;   -1,318
1052,342; 2438,465;    1,348;    1,045
1052,886; 2424,919;    1,803;   -1,409
1053,430; 2316,010;    2,167;    0,136
1053,975; 2329,646;    0,894;   -0,318
1054,519; 2311,010;    1,803;    3,227
1055,063; 2306,192;    3,621;    1,318
1055,607; 2182,374;    1,348;    0,227
1056,151; 2224,828;    0,530;    1,682
1056,695; 2146,465;   -1,833;   -1,136
1057,239; 2201,828;   -1,197;   -0,682
1057,783; 2214,192;    2,258;   -1,500
1058,327; 2167,919;    3,076;    1,409
1058,871; 2375,101;    3,985;    1,318
1059,415; 2085,010;   -0,561;   -0,045
1059,958; 2339,283;    2,985;    2,591
1060,502; 2074,010;    1,348;   -0,773
1061,046; 1981,192;    1,712;   -0,955
1061,589; 1954,283;    2,803;   -1,136
1062,133; 1840,556;    0,985;    1,864
1062,676; 1778,465;    1,439;    0,864
1063,220; 1790,010;    0,985;    0,500
1063,763; 1807,828;    2,985;    1,136
1064,306; 1874,101;    0,985;    1,864
1064,849; 1763,192;    2,076;    0,591
1065,393; 1772,828;    2,894;   -1,500
1065,936; 1891,556;    2,530;   -0,409
1066,479; 1798,283;    2,621;    1,318
1067,022; 1799,465;    1,894;   -0,227
1067,565; 1697,556;   -1,197;   -1,318
1068,108; 1722,465;    1,258;   -0,591
1068,651; 1699,737;   -2,470;    1,409
1069,194; 1632,283;   -1,106;   -1,682
1069,736; 1620,919;    3,803;    0,955
1070,279; 1599,828;   -1,652;   -0,500
1070,822; 1645,737;    1,530;   -0,318
1071,364; 1717,101;    0,530;    1,318
1071,907; 1552,283;    0,348;    3,227
1072,450; 1470,646;    0,258;   -0,045
1072,992; 1465,465;   -0,561;    3,136
1073,535; 1589,919;    0,167;    2,136
1074,077; 1393,374;    2,985;    2,045
1074,619; 1363,737;    0,985;    0,591
1075,161; 1382,556;   -0,561;    1,500
1075,704; 1567,101;    0,258;    1,227
1076,246; 1372,283;    1,530;    0,682
1076,788; 1296,737;   -1,015;    1,773
1077,330; 1394,828;   -2,106;    2,136
1077,872; 1346,646;   -1,924;    0,955
1078,414; 1565,646;    3,712;    0,773
1078,956; 1300,556;    0,167;   -0,227
1079,498; 1547,556;    0,439;    0,318
1080,040; 1244,737;    0,985;   -1,318
1080,581; 1208,646;    0,621;   -0,318
1081,123; 1144,646;   -0,106;   -0,773
1081,665; 1194,465;    3,803;   -0,955
1082,206; 1472,010;    3,258;   -0,500
1082,748; 1342,283;    3,258;    2,045
1083,289; 1230,010;    0,167;    1,318
1083,831; 1134,374;    0,258;    0,227
1084,372; 1160,101;    0,894;    0,591
1084,913; 1148,556;    3,348;    0,864
1085,455; 1128,010;    1,530;   -2,045
1085,996; 1099,192;    0,530;    0,136
1086,537; 1120,283;    0,985;    0,864
1087,078; 1160,737;    0,439;   -2,136
1087,619; 1188,283;   -1,652;    0,227
1088,160; 1098,101;    1,439;    1,318
1088,701; 1091,919;   -0,742;    0,682
1089,242; 1044,465;   -0,561;   -2,227
1089,783; 1120,283;   -0,561;    1,409
1090,324; 1097,737;   -0,833;    0,682
1090,865;  978,465;   -1,924;   -0,409
1091,405;  967,283;   -0,561;    2,227
1091,946;  994,374;   -0,197;   -0,955
1092,487;  925,556;   -1,288;   -1,409
1093,027; 1070,556;    1,803;   -1,500
1093,568;  926,192;    2,258;    1,227
1094,108; 1007,646;    0,621;    1,773
1094,649;  969,101;   -0,470;    0,136
1095,189;  895,556;    1,167;   -0,682
1095,729;  844,192;    0,712;    0,955
1096,269;  859,374;    1,258;   -0,955
1096,810; 1159,919;   -0,197;    0,500
1097,350;  985,192;   -0,561;   -0,773
1097,890;  890,192;    2,985;    1,227
1098,430; 1135,101;    4,985;    2,864
1098,970; 1018,283;    1,894;    1,682
1099,510;  877,283;   -0,833;   -2,318
1100,050;  813,010;    0,258;   -1,591
1100,589;  779,556;    0,076;   -0,318
1101,129;  891,465;    0,894;   -0,955
1101,669; 1030,010;    2,803;    2,136
1102,209;  876,192;    1,530;    2,227
1102,748;  823,010;    3,439;    0,955
1103,288;  813,646;    0,712;   -1,227
1103,827;  832,010;    3,530;   -2,227
1104,367;  716,919;    1,712;   -2,409
1104,906;  684,101;   -1,015;   -1,136
1105,445;  768,283;    0,985;   -1,136
1105,985;  699,919;   -0,652;    1,500
1106,524;  741,101;    1,530;   -0,682
1107,063;  711,737;    1,167;    1,409
1107,602;  692,828;    1,894;   -1,500
1108,141;  623,737;    1,621;    1,500
1108,680;  716,465;    3,985;   -0,591
1109,219;  655,283;    0,167;   -0,500
1109,758;  663,192;    4,167;    0,682
1110,297;  634,283;   -1,106;   -0,682
1110,836;  581,828;    1,439;    0,955
1111,375;  742,192;    0,348;    0,409
1111,913;  753,010;    0,985;    0,773
1112,452;  695,556;    0,894;    0,136
1112,991;  587,646;    1,076;    1,955
1113,529;  536,101;    0,167;   -0,045
1114,068;  601,283;    0,439;    2,955
1114,606;  506,919;   -0,561;   -0,955
1115,144;  665,101;    1,530;    1,045
1115,683;  600,465;    1,985;    0,318
1116,221;  655,101;    2,076;   -0,864
1116,759;  571,465;    1,621;   -0,864
1117,297;  738,556;    1,621;    1,864
1117,836;  560,374;    1,985;   -1,227
1118,374;  561,465;    0,258;   -0,682
1118,912;  508,465;    0,439;    2,682
1119,450;  495,192;    0,985;    0,864
1119,988;  547,828;    3,348;    2,136
1120,525;  986,192;    7,258;    3,318
1121,063;  689,101;    0,530;    1,864
1121,601;  505,465;    1,076;   -1,227
1122,139;  470,374;    1,076;   -2,045
1122,676;  652,556;   -1,652;    2,773
1123,214;  597,919;    0,712;    4,409
1123,751;  419,556;    0,621;    2,227
1124,289;  541,192;    0,894;   -0,409
1124,826;  410,283;   -0,379;    0,227
1125,364;  338,737;    0,712;   -0,955
1125,901;  524,556;    6,258;    1,227
1126,438;  609,374;    3,530;    0,955
1126,975;  360,919;    2,985;   -0,773
1127,513;  423,192;    2,621;    2,136
1128,050;  341,465;   -0,561;   -0,682
1128,587;  431,192;    1,348;   -0,227
1129,124;  476,828;   -0,015;    1,318
1129,661;  352,828;   -1,924;    0,227
1130,198;  509,646;    2,439;    0,773
1130,734;  449,192;   -0,379;    1,409
1131,271;  319,101;   -1,197;    0,864
1131,808;  480,101;    1,621;    3,045
1132,345;  357,283;    4,530;    0,318
1132,881;  250,737;   -0,561;   -1,864
1133,418;  368,374;    0,348;   -1,136
1133,954;  319,283;    0,712;   -2,682
1134,491;  393,010;    1,712;   -0,773
1135,027;  291,010;    2,167;    0,864
1135,564;  364,010;    1,439;    2,955
1136,100;  357,828;   -0,742;    2,136
1136,636;  255,737;   -1,015;   -1,045
1137,172;  341,010;    0,894;   -1,045
1137,708;  269,192;   -1,561;   -1,045
1138,245;  273,828;    0,803;   -1,227
1138,781;  234,010;    1,803;   -3,318
1139,317;  286,283;    1,894;   -1,409
1139,852;  277,465;    3,076;    0,136
1140,388;  382,101;    2,076;   -0,409
1140,924;  263,919;    1,076;   -2,227
1141,460;  216,919;   -0,288;    0,136
1141,996;  159,646;   -0,652;    2,682
1142,531;  197,374;    1,076;    3,318
1143,067;  406,919;    1,167;    1,045
1143,602;  448,192;    3,439;   -0,318
1144,138;  306,101;    0,803;    1,045
1144,673;  183,465;    1,621;    1,409
1145,209;  251,283;    2,894;   -0,318
1145,744;  172,192;    0,803;    0,864
1146,279;  294,828;    1,530;   -0,136
1146,815;  217,192;    1,530;   -2,682
1147,350;  250,283;   -0,924;    0,045
1147,885;  176,192;   -1,924;   -1,318
1148,420;  177,737;    2,439;    0,773
1148,955;  160,646;   -1,470;    1,864
1149,490;  180,737;   -1,106;   -1,591
1150,025;  162,010;   -1,106;   -1,773
1150,560;  263,556;   -0,288;   -0,955
1151,094;  233,283;    0,258;   -0,591
1151,629;  244,283;   -3,742;    0,864
1152,164;  179,556;   -1,288;    1,318
1152,698;  142,556;    1,258;   -0,136
1153,233;  101,737;   -1,379;   -0,682
1153,767;  142,737;   -0,288;   -2,318
1154,302;  189,283;   -0,379;    1,773
1154,836;  186,010;    0,803;   -2,136
1155,371;  229,828;    2,258;    3,682
1155,905;  185,556;    1,985;    1,682
1156,439;  160,010;    0,530;   -0,500
1156,973;  189,374;    0,439;    0,318
1157,507;  132,737;   -1,742;    0,682
1158,042;  155,737;   -0,652;    1,045
1158,576;  202,374;   -0,561;    1,773
1159,110;  189,737;    0,076;    2,409
1159,643;  165,374;   -2,470;   -0,045
1160,177;  107,556;   -2,015;    1,500

