
Integration time [ms]:   0,050
Averaging Nr. [scans]: 11
Smoothing Nr. [pixels]: 0
Data measured with spectrometer [name]: 7318044SP
Wave   ;Sample   ;Dark     ;Reference
[nm]   ;[counts] ;[counts] ;[counts] 

186,757;  -16,833;   38,161;    1,318
187,357;   27,893;   26,706;    0,955
187,958;   15,190;   17,252;   -1,591
188,558;   51,956;   12,979;   -1,227
189,159;   25,483;   10,070;   -4,500
189,759;   -3,749;    5,797;   -3,591
190,360;    6,670;    6,797;   -2,136
190,960;   50,094;    5,706;   -4,136
191,560;   55,404;    2,614;   -6,591
192,161;  290,507;    5,885;   -3,500
192,761;  131,843;    5,520;   -3,227
193,361;   84,960;    3,065;   -3,773
193,962;  146,535;    1,612;   -2,682
194,562;   70,364;   -0,114;   -3,955
195,162;  105,428;   -0,567;   -2,227
195,762;  277,156;    2,433;   -0,045
196,362;  218,334;    1,706;   -2,500
196,963;   79,712;    1,706;   -0,864
197,563;  159,698;    1,252;   -0,955
198,163;  101,615;   -0,111;   -0,682
198,763;  134,399;   -0,020;   -0,500
199,363;  239,226;    3,616;   -0,500
199,963;  203,882;    2,162;    0,409
200,563;  176,383;    6,344;   -1,409
201,163;  163,746;    5,435;   -0,227
201,763;  252,036;    1,435;    0,318
202,363;  192,861;    0,980;    1,500
202,963;  303,987;    1,526;    1,045
203,563;  410,586;    0,344;    0,500
204,162;  263,646;    1,889;   -1,864
204,762;  257,465;    2,071;    0,591
205,362;  230,450;    0,708;    1,955
205,962;  324,550;    3,435;    1,955
206,562;  331,898;    1,889;    2,318
207,161;  305,411;    1,708;    0,318
207,761;  458,115;    4,435;    2,409
208,361;  342,403;    1,889;    1,409
208,960;  439,167;    2,889;    1,500
209,560;  518,600;    0,435;    1,591
210,160;  495,029;    5,071;    1,864
210,759;  486,734;    0,708;    1,227
211,359;  472,550;   -0,474;    1,045
211,958;  758,892;    3,526;    2,045
212,558;  843,985;    0,799;    1,864
213,157;  674,632;   -0,929;    1,500
213,757; 1142,366;    5,617;   -0,227
214,356;  844,619;    1,708;   -0,409
214,956; 1194,154;    3,526;    0,409
215,555;  831,985;    0,617;    2,136
216,154;  757,021;   -0,292;   -0,591
216,754;  776,718;    1,253;    0,773
217,353;  936,190;   -0,383;   -1,045
217,952;  796,716;    2,072;    0,318
218,552; 1023,185;    0,254;   -0,773
219,151;  940,217;   -1,110;    0,955
219,750;  947,387;    0,890;   -0,227
220,349; 1138,406;   -2,292;    1,045
220,948; 1162,159;    1,163;    1,136
221,548; 1252,915;    0,617;    1,227
222,147; 1363,694;   -1,292;   -0,409
222,746; 1663,115;    1,254;   -0,955
223,345; 1563,098;   -1,019;    0,500
223,944; 1596,508;    1,163;    0,773
224,543; 1812,588;    4,072;   -1,409
225,142; 1927,268;    1,345;    0,136
225,741; 1850,577;    1,163;    1,045
226,340; 1897,777;    1,254;   -0,955
226,939; 2417,392;    2,708;   -0,136
227,538; 2484,567;    1,163;   -0,773
228,137; 2606,601;    0,435;    0,864
228,735; 2867,132;    0,435;    1,227
229,334; 2563,648;   -0,474;   -0,227
229,933; 2956,839;    0,799;    0,591
230,532; 3104,843;   -1,201;   -0,409
231,131; 3164,941;    1,253;    0,318
231,729; 3379,038;    1,163;   -2,318
232,328; 3627,594;    0,435;   -1,500
232,927; 3772,635;    4,526;   -0,500
233,525; 3949,475;    0,981;    0,045
234,124; 4181,353;    1,890;   -1,591
234,723; 4252,017;    1,617;   -1,045
235,321; 4468,583;    1,163;    0,136
235,920; 4777,325;    2,526;   -1,227
236,518; 5075,163;    1,072;    0,318
237,117; 5376,894;    2,890;   -0,227
237,715; 5592,173;    1,163;   -0,500
238,314; 5624,706;    1,708;   -2,318
238,912; 5726,832;    0,526;   -1,409
239,510; 5819,681;    1,162;   -1,227
240,109; 6004,916;   -0,474;    3,773
240,707; 6112,136;   -0,474;    1,227
241,305; 6630,548;   -0,383;    0,136
241,904; 6860,094;   -0,292;   -2,045
242,502; 6817,138;    3,253;   -0,227
243,100; 6808,052;    3,344;   -0,955
243,698; 7089,604;    2,799;    1,682
244,297; 7301,481;   -0,656;    0,682
244,895; 7133,462;   -0,474;   -2,318
245,493; 7527,302;    2,981;   -0,591
246,091; 7609,753;    5,163;   -1,318
246,689; 7626,284;    2,163;    0,591
247,287; 7821,325;   -0,019;   -1,136
247,885; 8213,348;   -1,019;    1,227
248,483; 8361,093;   -0,201;   -0,500
249,081; 8480,504;    0,981;    1,591
249,679; 8694,207;   -1,019;    1,682
250,277; 9010,790;   -2,292;    0,864
250,875; 8994,522;    0,617;   -1,045
251,473; 9085,035;   -0,019;    0,500
252,071; 9300,911;   -0,383;    1,045
252,669; 9497,599;   -1,565;    0,318
253,267; 9807,194;    1,618;    0,773
253,864; 9794,779;    0,617;    0,682
254,462; 9589,395;    1,526;    1,591
255,060; 9632,775;    0,072;    1,318
255,658;10049,872;   -3,292;   -0,136
256,255;10480,674;   -0,201;   -2,045
256,853;10332,894;    2,345;    1,409
257,451;10391,454;    1,981;    1,864
258,048;10644,744;    2,072;    1,864
258,646;10422,016;    0,436;   -1,045
259,243;10631,530;    2,981;    2,227
259,841;10720,033;    1,799;    0,318
260,438;10588,237;    0,254;    0,864
261,036;11483,804;    0,617;    1,409
261,633;11378,174;    1,526;    2,227
262,231;11110,499;   -0,110;   -0,045
262,828;11196,245;   -0,383;    1,136
263,425;11252,714;   -1,928;   -0,591
264,023;11579,866;    1,436;    0,045
264,620;11065,623;    1,526;   -0,318
265,217;11483,705;    2,890;    3,136
265,815;11593,383;    2,527;    2,136
266,412;11344,189;    0,072;    0,136
267,009;11441,894;    0,526;    0,773
267,606;11268,198;    0,345;   -0,955
268,203;11284,989;   -0,383;   -0,591
268,801;11639,892;   -0,474;    0,591
269,398;11978,064;   -0,564;    2,500
269,995;11994,245;    0,890;    1,591
270,592;11700,229;    0,799;   -0,500
271,189;12001,463;    1,981;    0,409
271,786;12158,037;    2,072;    1,227
272,383;11919,651;   -0,383;    0,227
272,980;12156,252;    1,617;    0,318
273,577;12718,323;    2,162;    1,227
274,174;12251,963;    1,435;    2,591
274,771;12284,963;    1,890;   -0,773
275,367;12390,945;    3,253;    1,409
275,964;12347,193;   -0,565;   -0,500
276,561;12551,098;   -2,474;   -1,045
277,158;12833,207;    1,799;   -1,773
277,755;12890,322;   -0,110;    0,409
278,351;12216,911;    0,436;   -1,500
278,948;12605,181;   -0,201;    0,045
279,545;12676,402;    0,527;    2,318
280,141;13338,122;    1,254;   -2,045
280,738;13202,115;    2,435;   -0,136
281,334;13499,064;   -0,383;    0,591
281,931;12854,518;    2,890;   -1,318
282,528;12988,661;    4,072;   -0,500
283,124;13819,758;    3,345;   -0,500
283,721;13715,732;    0,709;    1,409
284,317;13528,058;    0,163;    2,500
284,913;14155,726;   -0,110;    0,591
285,510;14367,090;    2,890;   -0,318
286,106;14415,044;    2,345;   -0,955
286,703;13987,465;    0,072;    1,955
287,299;14214,215;    1,254;   -0,591
287,895;14497,931;    0,890;   -1,045
288,491;15197,428;    0,163;    2,136
289,088;14878,799;    0,163;    2,409
289,684;14900,417;    2,890;    1,500
290,280;14971,987;    1,890;    0,682
290,876;15022,300;    0,163;    5,500
291,472;14939,242;    2,163;    2,227
292,068;15008,164;    1,254;    0,227
292,665;14726,306;   -0,564;    0,773
293,261;14248,038;   -1,292;    2,136
293,857;14679,957;    4,072;    2,136
294,453;14668,279;   -0,928;    0,955
295,049;14553,898;    0,253;    1,955
295,644;14456,186;   -1,292;    0,136
296,240;14401,445;    0,162;   -0,136
296,836;14480,664;   -0,747;    0,318
297,432;14785,433;    2,980;   -0,500
298,028;14810,594;    0,435;    0,773
298,624;15283,527;    0,889;    1,864
299,220;15661,267;    0,435;    0,591
299,815;15273,243;    0,526;   -0,409
300,411;15025,807;    0,435;    1,773
301,007;15051,004;    1,889;    0,227
301,602;15181,204;    2,071;   -2,318
302,198;15343,310;    1,435;   -0,773
302,794;15673,551;    1,526;   -0,500
303,389;15876,868;    1,071;    1,045
303,985;15919,332;    1,253;    1,409
304,580;15857,173;    0,889;    1,591
305,176;15906,499;    0,344;    0,136
305,771;15870,486;   -0,929;   -1,227
306,367;15623,736;    3,071;    0,136
306,962;16026,022;    2,889;    1,500
307,558;15782,043;    2,435;    0,136
308,153;15728,059;   -0,383;   -1,136
308,748;15996,208;    0,162;    1,682
309,344;15982,589;    0,253;   -1,318
309,939;16051,128;    2,071;   -1,318
310,534;16423,677;   -2,020;   -1,682
311,130;16382,566;   -0,656;   -2,500
311,725;16107,593;    0,526;   -0,500
312,320;16431,471;    1,253;    0,045
312,915;16254,146;    2,890;   -1,045
313,510;16316,007;    0,526;   -0,500
314,105;16922,700;   -3,565;    1,409
314,700;16274,273;   -1,656;   -1,045
315,295;15841,718;   -0,020;    0,045
315,890;15319,447;   -0,292;    0,864
316,485;15700,532;    0,253;   -0,318
317,080;15879,870;   -0,929;    1,591
317,675;16453,486;    3,071;   -0,682
318,270;15693,112;    6,889;    3,318
318,865;15764,188;    2,435;    3,045
319,460;15560,169;   -1,565;    0,591
320,055;15837,747;   -2,565;   -1,227
320,650;15478,728;   -1,838;   -0,591
321,244;15531,184;    0,889;   -1,409
321,839;16607,045;    0,980;   -0,227
322,434;16492,380;   -0,111;   -1,591
323,029;16016,312;   -0,474;    1,591
323,623;15841,026;    0,798;    0,773
324,218;15589,663;    2,707;    1,409
324,812;15497,021;    0,889;    1,591
325,407;15282,260;   -0,929;    2,045
326,002;15196,072;    0,526;   -0,409
326,596;15533,410;   -0,656;    1,318
327,191;15777,362;   -0,383;   -1,045
327,785;15257,774;   -0,747;   -0,227
328,379;15503,397;   -0,383;    0,136
328,974;15331,796;    1,798;   -3,955
329,568;15532,252;    2,889;   -2,409
330,163;15374,922;    2,435;    1,045
330,757;15768,450;    0,253;    1,591
331,351;15010,323;   -0,292;    0,682
331,945;15311,627;   -0,383;    1,409
332,540;14812,428;    1,617;   -0,591
333,134;14962,172;    3,344;    0,773
333,728;15249,757;    2,799;    0,318
334,322;15659,403;    0,889;   -0,864
334,916;14899,845;    0,344;    0,955
335,510;15226,692;   -0,111;   -0,136
336,105;15514,816;   -0,929;    1,591
336,699;15154,927;   -1,292;    0,591
337,293;15045,235;    1,071;    0,318
337,887;15212,688;    0,071;    1,955
338,481;15342,449;    2,980;    0,591
339,074;15484,103;    2,071;    2,682
339,668;15248,357;   -0,110;    1,227
340,262;15522,858;    7,708;    3,227
340,856;15029,504;    1,708;   -0,682
341,450;14309,238;    0,708;    1,864
342,044;15295,780;    1,799;    0,136
342,637;15007,916;    1,162;   -2,136
343,231;14829,616;   -1,474;    0,682
343,825;14790,185;   -0,747;   -0,591
344,419;14722,353;   -0,474;    0,500
345,012;14403,618;    2,889;    4,045
345,606;14410,130;   -0,656;    1,591
346,199;14242,336;   -0,111;   -0,227
346,793;13631,682;    2,525;    2,045
347,386;13882,698;    0,889;   -1,136
347,980;13880,721;   -0,838;   -0,045
348,573;13609,903;   -1,748;    0,409
349,167;13187,146;    6,161;    4,773
349,760;13586,939;    2,252;    2,682
350,354;13599,005;    1,616;    1,136
350,947;13244,987;    2,798;    1,682
351,540;12887,902;    0,616;   -1,409
352,134;12809,428;   -1,111;    1,136
352,727;12864,010;   -0,657;    1,136
353,320;12657,720;    2,343;    0,591
353,913;12490,389;   -1,929;    1,864
354,507;12651,281;    0,434;   -1,227
355,100;12614,647;    0,071;    0,864
355,693;11672,008;    4,798;    2,409
356,286;11776,323;    0,980;    2,773
356,879;12202,786;   -0,475;    1,227
357,472;11749,139;    0,980;    1,500
358,065;11949,139;    3,161;    2,500
358,658;11863,772;    0,798;    2,318
359,251;11434,165;    0,252;   -0,591
359,844;10809,277;    0,343;   -1,136
360,437;10940,187;    0,252;    0,045
361,030;11280,311;    0,525;   -0,682
361,623;10818,037;    0,434;    0,318
362,215;10853,039;    0,979;    2,045
362,808;10704,855;   -2,293;   -1,682
363,401;10879,884;    0,798;    0,136
363,994;10547,442;    3,252;   -1,500
364,586;10466,957;    0,888;   -1,500
365,179;10715,180;   -0,203;   -1,136
365,772;10109,243;   -0,930;    2,045
366,364;10460,636;    1,524;   -3,227
366,957;10705,318;    1,342;   -0,045
367,549;10690,084;   -0,203;   -0,864
368,142;10279,805;    0,978;   -1,500
368,734;10502,372;    2,523;   -2,136
369,327;10444,454;    2,341;   -0,500
369,919;10344,111;   -1,659;    0,409
370,512;10087,526;   -1,023;   -0,500
371,104; 9751,944;    2,704;    1,591
371,696; 9924,740;    1,703;   -0,955
372,289;10040,407;    0,157;    1,136
372,881;10223,970;    1,156;    1,318
373,473;10178,046;    4,064;    1,136
374,066; 9928,468;    1,336;    0,500
374,658; 9754,270;    0,879;    1,136
375,250;10198,236;   -1,668;   -1,409
375,842; 9999,318;   -0,124;   -0,045
376,434; 9833,589;   -2,762;   -0,409
377,026;10559,465;   -1,855;   -2,500
377,618;10410,085;    0,779;   -0,682
378,210;10244,589;    3,141;   -1,955
378,802;10074,015;    3,412;   -0,591
379,394; 9947,291;    3,411;    0,682
379,986;10687,349;    1,138;   -0,955
380,578;10815,808;    1,410;    0,773
381,170;10000,008;    0,320;    0,045
381,762; 9963,556;   -0,224;    1,409
382,354;10260,435;   -0,223;   -1,318
382,945;10344,485;    0,870;    0,318
383,537;10520,796;    1,144;   -1,955
384,129;10509,833;    0,963;   -1,136
384,721;10732,915;    0,418;    0,955
385,312;10671,801;   -1,399;   -0,955
385,904;10746,867;   -0,945;    1,591
386,496;10042,545;    0,691;    1,045
387,087;10223,732;    0,418;    2,500
387,679;10269,938;   -0,401;    0,045
388,270;10418,052;   -2,401;    2,045
388,862;10526,597;   -0,401;   -0,318
389,453;10410,358;    1,054;    1,045
390,045;10743,050;    3,236;   -2,682
390,636;10665,433;    0,144;   -0,591
391,227;10520,118;    2,054;   -0,045
391,819;10586,370;    0,781;    0,773
392,410;10670,509;    0,600;    0,045
393,001;10605,142;    1,600;   -1,591
393,593;10926,308;    0,600;   -0,045
394,184;10743,353;    0,873;   -0,409
394,775;10682,767;    1,146;    2,136
395,366;10945,562;    1,782;    0,773
395,957;10966,483;   -2,400;    0,136
396,548;11326,141;    1,054;    2,682
397,139;11646,184;    2,236;    0,591
397,730;11333,133;    0,873;    0,955
398,321;11402,944;    0,509;    0,955
398,912;11447,279;   -0,764;    0,136
399,503;11542,012;   -1,945;   -1,409
400,094;10931,557;   -1,582;    1,682
400,685;10771,465;    3,600;    0,045
401,276;10875,983;   -0,400;   -0,955
401,867;11218,719;   -1,127;    0,773
402,458;11320,463;    1,509;   -2,318
403,048;11282,277;    0,146;    0,591
403,639;10865,454;    1,509;    0,864
404,230;11071,797;    0,691;    0,318
404,821;10983,739;   -0,127;    0,045
405,411;11152,769;   -0,763;   -2,591
406,002;10668,160;    3,237;   -1,136
406,592;10451,531;    2,691;    0,045
407,183;10816,873;    0,328;   -1,500
407,774;10695,918;    1,419;   -0,136
408,364;11104,386;    2,600;    0,409
408,954;10637,514;   -0,036;    1,227
409,545;10664,833;    1,873;    1,045
410,135;10137,430;   -1,581;    0,500
410,726;10342,388;    0,783;    0,318
411,316;10786,910;    2,237;    0,773
411,906;10410,635;    0,146;   -0,409
412,497; 9797,849;   -0,490;   -0,045
413,087;10491,767;    0,783;   -0,227
413,677;10960,877;   -2,490;    3,864
414,267;10760,147;   -1,035;    1,409
414,857;10790,872;    0,419;    4,227
415,448;11082,058;   -0,763;    0,500
416,038;10721,531;   -2,945;   -0,591
416,628;10691,015;    0,965;    0,409
417,218;10077,551;   -1,762;    3,318
417,808;10392,640;    0,965;   -0,409
418,398;10948,781;   -1,035;    2,682
418,988;10982,547;   -2,217;    0,591
419,578;11266,204;    3,601;    1,409
420,168;11662,483;    0,692;   -0,955
420,757;11151,912;    0,964;   -1,500
421,347;10801,327;    1,601;   -0,227
421,937;11034,318;    3,329;    1,409
422,527;10937,783;    2,602;   -0,773
423,116;10727,437;    2,692;   -0,045
423,706;11217,686;    2,965;    0,318
424,296;11185,838;    1,601;    0,682
424,885;11611,656;    1,510;   -3,045
425,475;11971,242;    1,147;   -2,864
426,065;11875,884;   -1,489;   -0,318
426,654;11427,017;    0,329;   -0,318
427,244;11521,700;    1,147;    1,409
427,833;10928,415;    1,056;   -0,500
428,423;11488,727;    0,147;    1,136
429,012;12355,128;    2,420;   -1,136
429,601;11767,279;    2,057;    0,136
430,191;12069,111;    2,511;    4,318
430,780;11665,813;   -1,671;   -0,409
431,369;11528,112;    1,329;   -0,045
431,959;12267,404;    1,693;    0,500
432,548;12064,392;   -1,398;   -0,045
433,137;12249,934;    0,329;   -1,318
433,726;12804,437;    0,148;    0,500
434,315;12072,808;    0,148;    2,409
434,905;12152,163;    0,693;    1,409
435,494;12061,902;    3,148;    0,955
436,083;12576,748;    1,420;   -0,955
436,672;12397,017;    1,148;    0,500
437,261;11908,035;    0,512;   -1,955
437,850;12003,670;   -1,125;    0,682
438,439;12016,638;    2,239;    1,955
439,027;11796,302;    3,421;    1,773
439,616;12255,542;    2,239;    1,227
440,205;12112,953;    0,057;   -2,136
440,794;12244,253;   -0,306;   -0,045
441,383;12536,043;    1,603;   -0,591
441,971;12432,165;   -0,306;    0,591
442,560;12266,556;    0,603;   -1,773
443,149;12033,862;    3,060;   -1,318
443,737;12173,354;    0,968;   -2,318
444,326;12447,055;    0,331;    0,318
444,915;12497,471;   -1,851;    0,864
445,503;12916,490;    0,058;   -0,318
446,092;12117,972;    7,876;    2,136
446,680;12735,103;    1,876;    0,318
447,269;12947,474;   -1,487;   -0,318
447,857;12667,498;    2,240;   -1,773
448,445;12812,455;    2,149;    1,318
449,034;13057,219;    0,876;   -1,136
449,622;13172,962;    1,240;    3,500
450,210;12192,508;    3,149;    2,227
450,799;12818,521;    2,604;   -0,591
451,387;12843,675;    1,786;   -0,591
451,975;12386,784;   -1,305;    0,864
452,563;12464,664;    0,422;    2,318
453,151;12559,730;   -1,032;   -1,227
453,739;12459,848;   -1,577;    0,136
454,328;12299,438;    0,604;   -2,136
454,916;11916,529;    1,150;   -0,136
455,504;12125,887;    3,513;    1,227
456,092;12337,275;    2,150;   -1,591
456,679;12339,830;    0,604;    0,682
457,267;12173,490;    3,604;    1,045
457,855;12429,996;    3,241;    1,409
458,443;12185,897;   -0,304;    1,682
459,031;12264,130;    1,332;    2,409
459,619;12825,356;   -3,577;    2,864
460,206;13015,343;   -0,759;    2,045
460,794;13101,586;   -0,668;   -0,227
461,382;13342,975;    0,878;   -0,864
461,970;12870,722;    0,605;    1,864
462,557;12927,183;    0,878;   -0,682
463,145;13168,257;   -0,304;   -1,682
463,732;13329,459;    2,514;   -1,045
464,320;13255,304;    1,514;   -3,045
464,907;12832,135;    0,423;   -0,773
465,495;12692,902;    2,696;   -1,227
466,082;12845,568;    2,060;   -0,045
466,670;12795,718;    2,605;    1,227
467,257;13257,593;    0,060;    2,045
467,844;13438,944;    1,514;    0,045
468,432;13426,947;   -0,031;    3,500
469,019;12865,236;    1,606;   -1,773
469,606;13344,873;    0,969;    3,682
470,193;13123,280;    2,151;    0,227
470,780;12627,542;    0,333;    0,864
471,368;13052,481;   -1,212;   -0,773
471,955;12792,529;    1,060;   -0,682
472,542;12409,041;   -0,303;   -1,136
473,129;12655,401;   -0,485;    0,136
473,716;12383,171;    0,060;    0,591
474,303;12638,383;    1,333;   -0,864
474,890;12947,205;    2,333;   -0,500
475,477;12903,545;   -0,576;    0,409
476,064;12843,520;    0,697;   -1,591
476,650;12787,498;    2,152;    0,318
477,237;12634,044;    1,879;    0,955
477,824;12826,531;    3,879;    0,864
478,411;12866,381;    0,606;   -0,318
478,997;13081,449;    0,606;   -0,773
479,584;13152,495;   -0,666;   -0,409
480,171;13926,226;    1,243;   -0,773
480,757;13586,207;   -0,848;    0,773
481,344;13922,403;    0,334;    0,409
481,931;13423,204;   -0,393;    1,045
482,517;14533,973;    0,425;    0,318
483,104;15268,187;    1,334;    2,864
483,690;15684,595;    0,243;    0,045
484,276;16212,684;    0,698;    0,227
484,863;15923,491;    2,152;    1,136
485,449;16575,132;    0,152;    0,318
486,035;16607,772;   -0,666;   -0,136
486,622;17099,370;   -2,393;    0,045
487,208;17034,452;    1,334;    1,500
487,794;16904,132;    0,971;    0,318
488,380;16999,705;    0,698;   -1,409
488,967;17050,647;   -1,120;   -0,409
489,553;17078,627;   -1,029;   -1,409
490,139;17255,712;    0,971;    0,773
490,725;16650,059;    0,789;   -0,227
491,311;16117,222;    1,516;    3,045
491,897;15215,630;   -0,665;    1,500
492,483;14937,784;    0,426;    1,227
493,069;14569,382;    5,426;    0,864
493,655;14549,789;    1,789;    0,682
494,241;14488,498;    1,517;   -0,955
494,826;14927,794;    0,335;   -1,045
495,412;14307,283;    0,335;   -0,682
495,998;14467,948;    0,971;   -0,318
496,584;14649,973;    2,244;    1,045
497,169;14683,555;    2,335;   -0,682
497,755;14632,781;    1,244;    1,227
498,341;15197,995;    2,153;    0,318
498,926;14750,742;    2,881;    1,955
499,512;14986,403;   -0,028;    2,955
500,097;15193,081;   -0,574;   -0,318
500,683;15089,721;   -0,028;    2,136
501,268;15474,968;    1,881;   -0,955
501,854;15150,201;   -0,119;    1,227
502,439;15047,616;   -0,573;   -1,773
503,024;15289,830;    1,608;    0,500
503,610;15365,275;    1,335;   -0,682
504,195;15414,928;    1,245;    1,955
504,780;15500,573;    2,335;    1,227
505,366;15295,665;    4,063;    2,864
505,951;14970,133;   -1,119;    1,045
506,536;14989,261;    1,427;   -3,682
507,121;14988,573;    1,699;   -0,318
507,706;15566,072;   -0,392;    1,045
508,291;15983,239;   -2,937;    1,136
508,876;15398,271;   -0,482;    2,591
509,461;14814,596;    1,427;   -0,773
510,046;15229,845;   -0,391;    0,318
510,631;15485,684;   -0,119;   -0,773
511,216;15175,220;   -0,664;   -0,500
511,801;15549,907;   -0,755;    2,591
512,386;15892,767;    0,972;    0,500
512,971;15852,455;    0,427;    0,955
513,555;15350,956;    1,154;   -1,500
514,140;16183,732;    1,336;   -3,136
514,725;16244,080;    1,791;   -1,136
515,309;16376,536;    1,064;    0,318
515,894;15729,759;   -0,300;   -2,227
516,479;16188,725;    1,973;   -0,955
517,063;16072,137;    0,882;    1,227
517,648;16228,379;    0,155;   -1,136
518,232;15848,595;   -1,300;   -1,409
518,817;16206,407;    1,337;    1,682
519,401;16409,828;    0,700;    0,591
519,985;15878,074;    2,700;    1,136
520,570;15775,557;   -0,118;   -1,955
521,154;16061,366;    0,064;    0,591
521,738;16247,690;    1,064;    2,409
522,323;16868,459;   -0,390;    1,682
522,907;16615,247;    2,428;   -0,136
523,491;16286,927;    1,155;    0,955
524,075;16260,195;    0,428;    0,591
524,659;16378,887;    0,973;    0,591
525,243;15710,982;    0,883;    0,409
525,827;16007,811;    0,883;   -0,045
526,411;16996,069;    1,155;   -0,136
526,995;17212,909;    0,337;    1,409
527,579;16789,094;    1,974;   -1,045
528,163;17110,639;    0,428;   -1,500
528,747;17022,928;    1,065;   -0,773
529,331;17339,344;    0,883;   -1,409
529,915;17579,249;    2,338;    0,955
530,499;17490,759;    0,247;    1,227
531,082;17176,610;    1,065;    1,591
531,666;16614,969;    0,520;    0,773
532,250;17362,196;    0,428;    2,682
532,833;17743,314;    0,610;    2,773
533,417;17628,197;    1,247;    0,864
534,001;17533,423;    0,429;   -0,318
534,584;18301,678;    1,974;    0,500
535,168;18175,194;    3,247;    1,409
535,751;18215,019;    4,520;    0,045
536,334;17652,061;    4,520;   -0,409
536,918;18325,688;    1,974;    1,591
537,501;18475,623;    1,520;    1,318
538,085;18386,181;    1,702;    1,045
538,668;18597,448;    0,883;    2,409
539,251;18968,625;    3,156;    3,773
539,834;18953,384;    0,156;    0,773
540,418;18894,743;    3,247;    4,318
541,001;19053,134;    2,702;    1,773
541,584;19104,887;    1,429;    2,227
542,167;18686,201;    0,702;    2,955
542,750;18888,460;    0,793;   -0,773
543,333;18462,733;    1,429;    2,136
543,916;19325,260;   -0,298;    2,500
544,499;20018,827;    2,520;    0,227
545,082;20021,291;    0,248;    3,591
545,665;20216,662;   -0,207;    1,500
546,248;20591,733;    0,520;   -0,318
546,830;20225,260;   -1,752;    1,955
547,413;20660,202;    0,157;   -0,773
547,996;21228,450;    0,157;    0,500
548,579;21020,303;   -0,843;    0,955
549,161;20800,676;    0,884;    2,682
549,744;20637,529;    0,612;    0,409
550,326;21161,013;    0,885;   -1,136
550,909;20839,731;    2,339;    0,591
551,492;21296,379;    0,521;    0,227
552,074;21079,975;   -0,024;   -1,318
552,657;21672,591;    2,430;    0,045
553,239;21424,938;   -3,024;   -0,773
553,821;21356,460;   -1,570;    1,045
554,404;20838,359;   -0,024;    1,136
554,986;21232,446;    2,248;    1,045
555,568;21845,975;    0,430;   -0,955
556,151;21002,242;    4,067;   -0,227
556,733;21213,281;   -1,388;   -0,864
557,315;21733,756;    4,703;    0,500
557,897;21542,479;    0,521;   -0,500
558,479;21672,181;    1,703;    1,318
559,061;21825,807;    1,067;   -0,864
559,643;22171,292;   -0,297;    0,045
560,225;22574,893;   -0,388;    2,864
560,807;22598,292;    0,340;    0,318
561,389;22070,800;   -1,206;    2,318
561,971;22898,727;   -0,660;    2,136
562,553;22716,039;    0,613;    1,591
563,135;22852,757;    1,249;    1,136
563,717;22422,343;    3,158;    1,136
564,298;23219,708;    3,976;   -0,045
564,880;22935,311;    0,340;   -1,409
565,462;23143,765;    1,977;    1,318
566,043;24411,311;   -0,933;    2,318
566,625;23930,024;    4,067;    1,227
567,207;23867,200;    0,704;    1,682
567,788;25079,455;   -0,114;    1,500
568,370;26069,518;   -1,841;   -0,500
568,951;25944,524;   -0,569;    0,227
569,533;26901,089;    0,977;   -0,500
570,114;27461,389;   -0,296;    0,682
570,695;28058,694;   -0,478;   -1,318
571,277;28714,054;   -0,205;   -1,682
571,858;29600,941;    2,704;   -1,136
572,439;30666,349;    0,795;   -1,045
573,021;30911,352;    0,432;   -2,773
573,602;31541,977;    1,795;    0,318
574,183;32543,589;   -0,114;    2,227
574,764;32855,782;    2,068;    0,409
575,345;33550,309;    0,250;   -0,136
575,926;34263,393;    2,704;    0,136
576,507;34240,599;    2,704;   -0,227
577,088;35429,655;    1,704;    1,682
577,669;35485,628;    1,704;    1,955
578,250;36300,862;   -0,750;   -1,045
578,831;37137,058;   -0,841;   -2,227
579,412;37507,623;   -1,205;    0,955
579,993;38513,359;    1,432;    0,227
580,573;38831,227;   -0,023;   -0,955
581,154;37758,769;    1,613;   -0,591
581,735;38678,669;    0,341;    0,773
582,315;38223,942;    0,523;    2,136
582,896;38463,964;   -1,750;    1,227
583,477;37917,774;    0,614;    1,227
584,057;38033,324;    1,159;    0,955
584,638;38323,177;   -2,750;    2,318
585,218;38332,203;    2,886;    2,682
585,799;38460,938;    1,977;   -0,227
586,379;38441,564;    1,250;    1,591
586,959;37069,660;    2,613;    0,318
587,540;36304,817;    0,432;    2,227
588,120;35716,449;   -1,113;   -0,045
588,700;34469,871;    2,977;    2,136
589,281;34729,430;    1,250;   -0,955
589,861;34696,008;   -0,296;   -1,682
590,441;34474,550;   -1,477;   -2,682
591,021;33347,344;    1,432;   -2,591
591,601;33580,313;    0,431;    0,500
592,181;33542,835;   -1,296;   -0,773
592,761;32765,065;    2,250;    1,409
593,341;32584,337;    1,522;    0,045
593,921;32549,801;   -0,569;    1,591
594,501;32430,332;    1,250;    1,318
595,081;32209,989;    0,522;   -0,318
595,661;32552,571;    1,068;    0,955
596,240;33145,985;   -1,023;    0,136
596,820;32765,557;    2,613;    1,955
597,400;32995,653;    1,977;    0,773
597,980;33269,265;   -0,750;    1,045
598,559;33283,063;    0,341;   -0,227
599,139;32923,606;   -0,750;   -1,227
599,718;32842,061;    0,795;   -0,409
600,298;33105,007;   -2,387;    0,682
600,877;33320,219;    4,795;    1,409
601,457;33637,154;    0,340;    1,136
602,036;33481,480;    1,795;    2,045
602,616;33724,160;    2,250;    1,682
603,195;34055,230;    0,431;    3,500
603,774;33629,284;   -0,296;    2,045
604,354;33523,188;    2,522;   -0,500
604,933;32918,087;    0,250;    1,864
605,512;33059,197;    2,340;    0,591
606,091;33091,001;    1,886;    3,773
606,671;33949,679;    0,249;    0,773
607,250;32890,709;    1,431;    3,136
607,829;33229,823;    1,158;    3,227
608,408;33057,754;    4,613;    2,591
608,987;31999,567;    2,704;    3,409
609,566;32300,404;    0,341;   -2,500
610,145;32392,137;    2,885;    0,682
610,723;32829,868;    1,613;    6,864
611,302;32002,252;    1,067;    1,682
611,881;31440,371;    5,158;   11,227
612,460;32225,652;    0,795;    3,955
613,039;32702,391;    1,703;    2,045
613,617;31364,645;    0,886;    4,773
614,196;31540,142;    1,613;    1,227
614,775;31861,963;    1,249;    2,409
615,353;31863,765;   -1,660;    0,864
615,932;31446,137;    0,249;    2,409
616,510;32043,039;    0,158;    0,591
617,089;31533,601;    8,794;   17,591
617,667;31234,243;    4,885;    6,136
618,246;31080,101;   -1,115;    1,318
618,824;31292,125;    1,612;   -0,955
619,402;30813,412;    0,431;   -1,773
619,981;31291,947;    1,067;   -1,045
620,559;31162,687;    0,794;    1,682
621,137;30691,286;    3,067;    1,864
621,715;30640,199;    3,703;   -0,682
622,293;30492,418;    1,885;   -0,773
622,871;30999,119;    0,340;    0,500
623,450;30474,597;    0,430;   -0,864
624,028;30365,344;   -0,388;   -0,955
624,606;29957,853;    2,339;    1,682
625,183;30326,701;   -0,661;   -1,136
625,761;29970,413;    1,885;    1,136
626,339;30281,800;    2,339;    2,591
626,917;30652,193;    0,339;   -0,045
627,495;30673,091;    2,794;    1,318
628,073;30100,176;    5,248;    2,864
628,650;29755,679;    3,067;    2,136
629,228;30196,391;    1,248;    4,409
629,806;29555,163;   -0,024;    1,136
630,383;29818,785;    0,066;   -0,318
630,961;29560,925;   -2,206;   -0,955
631,539;29277,083;   -2,479;    0,227
632,116;28484,471;   12,703;   15,409
632,694;29136,814;    4,885;    6,500
633,271;29426,830;    1,975;    2,682
633,848;29347,401;    1,430;    2,045
634,426;29393,465;    1,521;    1,773
635,003;28475,896;   -0,207;   -0,409
635,580;28843,746;    1,884;    3,682
636,158;29368,035;    3,793;    1,227
636,735;29341,865;    3,339;   -0,500
637,312;29492,440;    0,521;   -0,682
637,889;29582,810;    2,248;   -0,682
638,466;29048,748;    0,066;   -0,409
639,043;29075,990;    1,702;   -1,136
639,620;29411,939;    0,611;   -0,955
640,197;29739,423;    1,612;    1,682
640,774;29850,869;    1,430;    1,136
641,351;30296,770;    0,612;    1,136
641,928;29676,034;    2,794;    1,409
642,505;29231,752;    0,794;   -0,500
643,082;29365,107;    1,885;    1,227
643,658;28350,099;    1,157;    1,500
644,235;29131,726;   -2,479;    2,500
644,812;29426,354;    1,794;    0,773
645,388;29165,164;    1,612;    1,409
645,965;29265,882;    1,521;    1,682
646,542;29312,328;    3,430;   -0,227
647,118;29278,410;    3,703;   -0,955
647,695;29620,583;    0,339;    1,136
648,271;29521,211;   -2,115;    0,500
648,848;29848,930;    0,248;    2,227
649,424;29674,921;    0,976;    1,318
650,000;29421,822;   -0,388;   -1,045
650,577;29261,995;    0,158;   -0,955
651,153;29767,895;   -1,115;    0,955
651,729;30821,432;    0,521;    0,864
652,305;31154,605;    1,339;    2,773
652,881;36458,324;   -1,297;    1,136
653,458;44590,497;    0,249;    0,227
654,034;49324,852;    0,703;    1,591
654,610;51218,025;    0,339;    0,773
655,186;52758,653;    1,612;    3,045
655,762;52484,735;   -1,842;    0,409
656,338;52557,453;    0,703;    0,136
656,913;53552,536;   -0,297;    0,409
657,489;52862,891;    0,249;   -0,318
658,065;52824,064;    0,794;   -1,591
658,641;53393,510;    2,158;   -0,864
659,217;52481,956;    2,067;    0,409
659,792;51867,947;   -1,751;   -0,409
660,368;52192,756;   -0,388;   -0,682
660,944;51701,202;    1,794;    1,227
661,519;46339,921;    0,522;    0,409
662,095;39028,821;   -0,206;    0,591
662,670;33421,358;   -0,206;   -0,136
663,246;31935,622;   -0,660;   -0,409
663,821;31045,613;    0,431;    1,682
664,396;30521,514;    0,613;    1,864
664,972;30817,414;   -0,660;   -0,500
665,547;31143,224;    3,794;    0,136
666,122;31061,033;    1,340;    0,318
666,698;31372,479;    2,431;    0,318
667,273;30670,198;    0,885;    0,136
667,848;31576,280;    0,340;    1,500
668,423;31361,999;    1,795;    2,318
668,998;32008,626;    0,976;   -0,682
669,573;32636,436;    2,067;   -1,500
670,148;32334,336;    1,885;   -0,682
670,723;32175,782;   -0,024;    0,318
671,298;32672,228;   -1,296;    1,045
671,873;32822,856;   -0,296;   -0,136
672,448;32749,847;    1,704;    0,136
673,023;33076,384;    0,249;   -0,227
673,597;33378,102;    2,704;    2,318
674,172;33135,821;    2,431;    0,318
674,747;32673,267;   -0,205;   -1,045
675,321;32529,531;   -0,933;    3,318
675,896;32071,886;    2,158;    1,045
676,471;33146,605;    2,522;    1,591
677,045;32912,505;   -0,296;    0,682
677,620;32927,860;    2,158;    1,136
678,194;33259,760;    0,249;    1,136
678,769;32766,479;    0,886;   -0,318
679,343;33003,834;   -0,023;    1,773
679,917;32843,734;    0,340;    1,955
680,492;32954,726;    0,249;    3,227
681,066;33103,262;    0,613;    0,409
681,640;33211,254;    1,795;   -0,318
682,214;34038,972;    2,340;    0,500
682,788;33560,418;    0,613;   -0,773
683,363;33545,864;    1,977;    1,682
683,937;33204,037;    0,886;   -0,318
684,511;34034,665;   -1,023;   -0,591
685,085;33764,111;   -1,478;    0,318
685,659;33519,193;    1,431;    0,864
686,232;33653,184;    1,159;   -0,318
686,806;33425,721;    2,159;    0,409
687,380;34097,349;   -1,932;    0,591
687,954;34387,158;    2,432;    1,136
688,528;34051,786;    2,613;    1,955
689,101;34851,596;    0,432;    1,045
689,675;34425,769;    0,886;   -0,136
690,249;33773,669;    3,432;    0,409
690,822;34058,206;    1,159;    0,318
691,396;34098,197;    2,068;    1,227
691,969;33575,643;    2,523;    0,136
692,543;34061,634;   -0,568;   -1,955
693,116;33678,353;   -0,659;   -1,409
693,690;33515,254;   -0,296;    0,500
694,263;34037,427;    2,341;    2,955
694,836;34150,236;    2,795;    3,591
695,410;32696,500;    1,159;    1,773
695,983;33199,128;    1,614;    0,591
696,556;33124,301;   -0,750;   -1,045
697,129;33588,747;   -1,114;    1,409
697,703;33150,284;    1,341;    1,955
698,276;33160,548;    1,705;   -0,773
698,849;32860,630;   -1,023;    1,409
699,422;33233,349;    1,250;    0,591
699,995;32871,158;   -0,659;    0,136
700,568;33454,604;   -0,204;    3,045
701,140;33500,414;   -1,841;    1,682
701,713;33223,496;    0,341;    2,409
702,286;32955,487;    0,796;    0,864
702,859;32796,206;    0,614;   -0,591
703,432;31937,288;   -0,841;    0,682
704,004;32408,007;    1,978;    0,318
704,577;32323,543;    1,068;    0,136
705,150;32921,989;    0,887;    2,500
705,722;32683,708;    1,523;   -3,227
706,295;32463,608;    1,432;   -0,591
706,867;32209,963;    0,250;    1,955
707,440;32460,591;   -0,113;   -0,409
708,012;32768,400;   -0,022;    0,591
708,584;32628,755;    2,705;    0,227
709,157;32986,565;    1,160;   -0,591
709,729;32605,829;    1,069;    2,045
710,301;33570,548;   -1,204;    0,045
710,874;33594,357;    0,341;   -0,227
711,446;32382,803;   -0,295;    0,864
712,018;32268,794;   -3,022;    0,500
712,590;31990,513;   -0,204;    1,682
713,162;32501,595;   -0,477;    1,318
713,734;32806,041;    1,796;   -2,045
714,306;32690,941;    0,342;   -0,409
714,878;31288,478;   -0,295;    0,864
715,450;32116,924;   -0,113;    0,864
716,022;32401,006;    2,433;    1,318
716,593;32508,361;    0,978;    0,591
717,165;32460,444;    1,796;   -1,227
717,737;32125,889;    0,796;    0,409
718,309;31807,608;    1,160;   -0,045
718,880;31771,054;   -1,295;   -1,409
719,452;31950,500;    0,887;   -1,591
720,024;31446,491;    1,705;   -0,591
720,595;32060,028;    2,978;    0,955
721,167;31513,292;    1,160;   -2,045
721,738;31001,101;    2,069;   -1,045
722,309;30930,093;    1,251;   -1,227
722,881;30751,720;    2,705;    0,773
723,452;31495,530;    1,251;    2,864
724,023;31630,885;    1,524;    2,682
724,595;31366,785;    2,342;    0,682
725,166;31124,049;    1,524;   -0,409
725,737;30805,132;    1,887;    0,227
726,308;30845,487;    0,797;    0,318
726,879;31244,205;    1,069;    1,227
727,450;31160,742;   -2,022;   -0,045
728,021;31073,915;    1,069;    0,682
728,592;30911,179;    1,160;    0,500
729,163;31282,261;    1,433;   -0,136
729,734;31259,525;    2,160;   -0,227
730,305;31645,426;    0,615;    0,136
730,876;32030,326;    0,888;    2,955
731,447;31717,409;    0,797;    2,682
732,017;31803,218;   -0,840;    1,864
732,588;31261,755;   -0,021;    1,227
733,159;31454,564;    3,615;   -1,045
733,729;31330,192;    1,251;    0,409
734,300;30560,729;    0,160;    0,864
734,870;31034,084;   -1,385;    0,591
735,441;31605,439;    0,888;   -0,591
736,011;31292,703;    1,070;   -1,591
736,582;31247,421;    1,251;    0,045
737,152;30661,322;    0,979;   -2,045
737,722;31160,859;    1,070;   -0,682
738,293;30896,759;   -2,021;    1,318
738,863;30747,750;    1,797;    2,318
739,433;30534,105;    4,524;    0,318
740,003;31156,824;    1,524;   -0,682
740,573;30481,270;    2,252;   -1,591
741,143;30475,079;    3,615;    0,318
741,713;31291,162;    0,252;   -0,500
742,283;30899,062;    1,706;    1,591
742,853;30692,599;    0,524;    1,591
743,423;30101,590;    0,161;    0,045
743,993;30201,400;    1,070;    1,500
744,563;29479,209;    2,524;   -0,864
745,133;29492,473;   -0,112;   -0,864
745,702;30254,555;    2,797;    1,773
746,272;29370,547;    0,434;    0,591
746,842;29081,720;   -0,748;   -0,591
747,411;29564,802;   -0,839;   -0,318
747,981;29844,521;   -0,930;    0,500
748,551;29874,967;   -0,021;   -1,045
749,120;29639,958;   -0,112;   -0,227
749,690;30061,858;    2,161;    2,409
750,259;30387,668;    0,979;    2,955
750,828;30340,205;    4,070;   -1,955
751,398;30592,923;   -0,112;   -0,045
751,967;30053,369;    2,888;    0,409
752,536;30270,088;    1,161;   -0,227
753,105;30737,261;   -1,384;    0,227
753,675;30542,252;   -0,112;    1,773
754,244;30464,789;    0,888;    3,591
754,813;30504,417;    0,979;    1,227
755,382;30117,954;    0,798;    0,955
755,951;30635,763;   -0,112;    3,682
756,520;30169,663;    2,525;    1,864
757,089;30750,928;    1,888;    0,500
757,658;30925,555;    2,434;    1,227
758,227;30996,547;   -1,111;    0,318
758,795;31281,992;   -1,021;    1,136
759,364;31512,256;    0,525;   -0,591
759,933;30514,248;    1,343;   -0,045
760,501;30004,785;    0,252;   -1,318
761,070;30474,412;   -0,293;   -1,409
761,639;31223,676;    1,434;    1,318
762,207;30504,577;    0,889;   -0,955
762,776;30439,932;    2,889;    0,864
763,344;30367,832;    0,071;    0,591
763,913;29454,460;    1,616;    1,409
764,481;30201,451;    1,980;   -0,136
765,049;29992,806;    0,616;    1,409
765,618;29864,888;    1,434;    0,318
766,186;29935,152;    2,434;    0,136
766,754;30138,780;    1,798;    1,864
767,322;29049,044;    1,162;    0,409
767,890;29077,036;    0,525;   -1,773
768,459;29443,027;    2,616;   -0,318
769,027;29640,564;    2,525;    3,409
769,595;28587,919;    2,616;    2,591
770,163;29045,728;    3,344;    2,955
770,730;28693,447;    2,525;   -0,136
771,298;28581,529;    1,162;   -1,409
771,866;28678,157;    0,253;    4,955
772,434;29028,421;    1,162;   -1,864
773,002;29107,412;    2,616;    0,682
773,569;28697,676;    1,071;    1,682
774,137;28580,304;    0,889;   -0,045
774,705;29412,659;   -0,747;   -0,136
775,272;28805,559;    0,253;    0,682
775,840;28608,187;   -0,111;    2,682
776,407;28062,996;   -0,293;    1,955
776,975;27641,079;    1,162;    0,318
777,542;28693,888;    2,162;   -0,045
778,110;28575,607;    0,707;   -0,045
778,677;28267,780;    1,071;   -0,864
779,244;27953,135;   -1,020;    1,045
779,812;28069,035;    0,980;    0,864
780,379;27894,027;    2,435;    1,136
780,946;28122,200;    2,617;   -0,773
781,513;28451,464;   -0,565;    0,318
782,080;27728,910;    1,253;    2,864
782,647;28545,992;    1,708;    3,045
783,214;28114,983;   -0,201;    3,864
783,781;27664,520;    1,708;   -0,682
784,348;27576,693;    0,253;    1,500
784,915;28078,957;   -1,474;    0,318
785,482;27775,858;    2,708;    2,591
786,049;28260,849;    1,071;   -0,591
786,615;28383,931;    1,708;   -0,955
787,182;28164,832;   -3,201;   -0,682
787,749;27780,641;   -2,201;    1,409
788,315;27060,087;    0,253;   -0,409
788,882;27381,351;    0,981;   -1,227
789,448;28083,615;    1,435;   -0,955
790,015;28104,606;    1,799;    3,227
790,581;27575,052;    0,708;    0,227
791,148;27472,407;    1,344;    1,045
791,714;27808,762;   -1,019;    3,136
792,280;27432,299;    3,708;    1,591
792,847;26995,018;   -0,928;    2,500
793,413;27550,373;   -0,110;   -0,318
793,979;27020,728;    1,526;   -1,318
794,545;27066,537;    2,981;    2,682
795,111;26476,165;    2,435;    1,318
795,678;26693,065;    3,526;   -1,682
796,244;26331,784;    2,799;    0,136
796,810;26890,321;    0,799;    0,773
797,375;26591,403;   -0,292;   -2,136
797,941;26620,576;   -1,110;    0,591
798,507;26761,022;    0,254;   -0,955
799,073;26305,922;    2,708;    0,591
799,639;26340,005;    1,435;    3,136
800,205;26377,632;   -1,565;    2,682
800,770;25833,533;    1,345;    1,773
801,336;25874,160;    2,981;   -0,955
801,901;25575,606;    6,072;    3,136
802,467;26109,779;    0,526;    2,045
803,033;25422,862;   -0,019;    0,864
803,598;25655,035;    1,072;   -1,045
804,163;25700,662;    0,708;   -0,318
804,729;25622,836;   -0,110;    1,136
805,294;26099,281;    1,072;    2,227
805,859;25918,636;    0,890;   -0,409
806,425;25272,900;    3,890;    2,682
806,990;25003,437;    1,890;    4,318
807,555;25534,247;   -0,110;    2,591
808,120;25369,056;   -1,292;   -0,409
808,685;25416,684;    1,072;   -2,500
809,250;24841,403;    2,072;   -0,500
809,815;25203,212;   -0,201;    0,682
810,380;25721,931;    0,981;    1,591
810,945;26288,922;    2,890;    2,045
811,510;25478,095;   -0,200;    1,591
812,075;25131,359;    2,800;   -1,409
812,640;25238,351;    3,709;    1,409
813,204;25211,342;    2,163;   -0,227
813,769;25692,061;    0,254;   -0,045
814,334;25099,143;    0,527;    0,864
814,898;25135,316;    1,981;    0,591
815,463;25013,307;    0,981;   -0,773
816,027;24957,299;    1,345;   -2,318
816,592;25082,563;    2,163;   -2,045
817,156;24545,554;   -2,200;    1,136
817,721;24313,545;    0,982;    2,318
818,285;24316,446;    0,618;    1,500
818,849;25014,801;   -0,018;    1,682
819,414;24892,519;    0,073;    2,955
819,978;24404,238;   -0,291;    1,773
820,542;25024,866;    2,891;    0,500
821,106;24737,402;    2,800;    0,682
821,670;24806,212;    2,709;    2,591
822,234;24508,112;    1,073;    1,409
822,798;23856,831;   -0,836;    0,500
823,362;23793,913;    1,527;    4,227
823,926;23067,632;   -0,018;    1,136
824,490;23302,259;    3,527;   -0,682
825,054;23812,705;    2,527;   -1,136
825,618;23340,515;   -1,200;   -1,500
826,181;23269,961;    0,982;   -1,318
826,745;23136,134;   -0,745;   -1,045
827,309;23497,762;    2,255;    1,318
827,872;22894,935;    0,527;    0,955
828,436;23921,926;    1,982;   -0,773
828,999;23995,008;    2,436;    1,227
829,563;22731,909;   -0,654;    1,136
830,126;22543,718;   -0,018;   -0,591
830,690;22556,710;    0,709;    2,864
831,253;22068,519;   -0,473;    2,227
831,816;22219,238;   -0,018;    0,500
832,380;22086,683;    1,164;    0,864
832,943;22300,129;    3,073;   -0,500
833,506;21805,212;    0,255;   -1,227
834,069;22613,203;    2,164;   -0,955
834,632;22650,558;   -2,200;    1,318
835,195;22500,549;    1,346;    0,955
835,758;21690,722;    0,709;    1,955
836,321;21505,805;    1,073;   -1,045
836,884;21627,341;   -1,291;   -0,955
837,447;21632,515;    0,528;    1,773
838,010;21895,415;    1,800;    3,227
838,573;22244,134;    0,528;    0,773
839,135;22140,125;   -0,109;   -0,955
839,698;21535,844;    2,528;    0,409
840,261;21052,835;    0,255;   -0,227
840,823;20879,553;   -0,927;    0,864
841,386;21200,727;   -0,018;   -2,409
841,948;20978,082;    0,255;    1,773
842,511;20747,164;    0,255;    1,682
843,073;20880,519;    2,982;    0,227
843,636;20706,692;    0,619;   -0,227
844,198;20612,047;    1,255;    0,591
844,760;20777,402;    0,619;    1,955
845,322;20400,120;    0,164;    1,136
845,885;20827,385;   -0,290;    0,591
846,447;21269,285;    0,710;    0,227
847,009;20774,731;    3,983;   -0,682
847,571;21202,268;    1,346;   -2,045
848,133;21292,168;   -0,199;   -1,864
848,695;21122,614;    2,346;    1,409
849,257;20610,787;    1,346;   -1,682
849,819;20794,869;    2,983;   -0,409
850,381;20898,406;    1,801;   -0,864
850,942;21227,943;    1,892;   -0,591
851,504;21184,571;    0,983;    0,227
852,066;21252,289;    1,619;   -1,591
852,628;20715,644;    0,165;    1,955
853,189;20264,272;    0,256;    2,682
853,751;20422,536;   -0,654;    1,409
854,312;20256,527;    1,256;   -1,682
854,874;20793,246;   -0,108;   -0,773
855,435;21294,328;    0,528;   -1,682
855,997;21397,319;    3,983;   -0,136
856,558;20658,856;    0,801;    1,773
857,119;20778,847;   -0,744;    2,864
857,681;20437,657;   -0,108;    0,318
858,242;20462,830;    1,347;   -2,136
858,803;20896,276;    1,074;   -0,773
859,364;21510,176;    0,892;   -4,773
859,925;20810,622;   -0,290;   -0,955
860,486;20699,159;    0,529;   -0,955
861,047;20370,605;    0,165;   -1,227
861,608;20221,142;    0,165;   -0,773
862,169;20418,224;   -0,562;   -0,045
862,730;20149,033;   -0,290;    1,409
863,291;20333,388;    0,438;   -0,500
863,852;20708,471;   -0,926;    1,955
864,412;20156,553;   -1,835;   -0,864
864,973;18696,090;    1,892;    0,500
865,534;18507,808;    2,074;    0,227
866,094;20099,800;    2,620;    0,227
866,655;19682,700;    4,711;    3,318
867,215;19986,055;    0,074;    0,136
867,776;19851,683;   -1,199;   -0,136
868,336;19927,674;    1,529;    0,136
868,897;19297,211;    3,438;    1,682
869,457;19080,929;    3,256;    0,318
870,017;19352,194;    2,438;   -1,227
870,578;19881,458;    1,893;    0,773
871,138;19485,722;    2,620;   -0,955
871,698;19015,258;   -0,562;   -1,318
872,258;18884,977;    0,711;   -2,864
872,818;19280,787;    2,347;    0,045
873,378;19230,687;   -2,198;    1,045
873,938;18767,224;    4,984;    0,500
874,498;19121,579;    1,256;   -1,955
875,058;18980,025;    4,347;    1,773
875,618;18842,834;    1,438;   -2,682
876,177;18791,098;   -0,471;    0,136
876,737;18364,544;   -0,289;    1,955
877,297;18335,717;    2,711;    1,955
877,856;18372,708;    2,529;    0,318
878,416;18341,791;    2,438;   -0,136
878,976;18571,782;    3,438;    0,409
879,535;18738,955;    4,529;    3,136
880,095;18433,583;    1,347;    0,045
880,654;18575,756;    0,347;    1,318
881,213;18664,475;    2,347;    1,500
881,773;18314,375;    1,984;    2,682
882,332;18659,821;    6,075;    5,136
882,891;18501,540;    0,711;    2,136
883,451;18971,258;   -2,016;    1,682
884,010;18366,068;   -1,107;   -0,409
884,569;18419,150;   -2,289;   -0,045
885,128;18609,505;   -0,743;   -1,864
885,687;18697,678;   -0,743;    0,682
886,246;18388,215;    2,620;    2,136
886,805;18096,388;    1,620;    2,045
887,364;18450,561;    1,166;   -0,500
887,922;18786,189;   -0,016;    0,045
888,481;18286,089;    1,530;    0,591
889,040;18621,353;    3,711;    2,136
889,599;19370,254;    2,166;    1,409
890,157;19426,609;    2,166;    2,409
890,716;19086,055;    2,166;    0,227
891,274;18906,319;    0,075;   -1,136
891,833;19310,583;    1,166;    0,864
892,391;19197,392;    1,802;    0,500
892,950;19276,656;    0,166;   -0,773
893,508;19642,829;    0,984;   -0,409
894,067;19012,275;   -0,379;    0,136
894,625;18906,903;   -1,016;   -1,500
895,183;19118,985;   -0,198;   -0,682
895,741;19041,158;    2,257;   -1,773
896,299;18843,877;    1,621;   -2,409
896,858;19058,141;    1,530;   -1,591
897,416;19148,223;    0,166;   -1,318
897,974;18880,487;   -2,197;    0,318
898,532;18997,388;    6,530;    2,682
899,089;18890,106;    0,621;   -0,682
899,647;18987,461;    0,530;    1,318
900,205;18677,998;    0,257;    1,045
900,763;18869,989;    2,166;    0,227
901,321;18861,072;    3,530;   -1,409
901,878;18279,518;    3,257;   -0,773
902,436;18083,782;    0,257;    1,318
902,994;18510,955;    6,712;    3,682
903,551;17910,219;    1,439;    0,409
904,109;18332,756;    1,530;   -1,409
904,666;17896,020;    1,439;    1,045
905,224;17686,102;    3,894;   -0,409
905,781;17386,184;   -0,470;   -0,318
906,338;17449,994;    0,167;    1,045
906,895;17416,894;    1,894;    2,045
907,453;17353,976;    2,348;    1,136
908,010;17341,695;    3,348;    0,409
908,567;16999,413;   -0,561;    0,591
909,124;16493,587;    2,439;   -1,500
909,681;16593,942;   -1,288;    0,682
910,238;16693,751;   -0,106;   -1,318
910,795;16980,470;   -1,561;   -1,136
911,352;16621,561;   -0,379;   -2,682
911,909;15971,924;    2,803;   -0,864
912,466;16545,561;    1,985;    1,500
913,022;16050,652;   -0,924;    0,500
913,579;16368,470;   -0,470;    2,045
914,136;16046,561;   -2,561;    0,955
914,692;16387,742;    1,530;   -1,227
915,249;15963,742;    0,530;    0,409
915,806;16210,379;    1,803;    1,955
916,362;15874,379;    0,894;    1,864
916,918;15428,015;    2,439;    1,045
917,475;15421,561;    1,621;    0,955
918,031;15550,561;    0,076;   -0,045
918,587;14970,652;    0,621;   -0,318
919,144;15138,197;   -0,379;    0,227
919,700;15496,924;    0,167;    0,773
920,256;15093,561;    0,439;    0,045
920,812;14623,197;    1,439;   -1,045
921,368;14604,470;    1,348;   -1,045
921,924;14271,470;    0,439;   -0,136
922,480;13767,106;    0,076;    1,227
923,036;14429,015;   -0,652;    1,955
923,592;14391,197;    0,621;    0,318
924,148;14282,015;    1,894;   -0,955
924,704;13602,833;    0,258;   -0,409
925,259;13842,924;   -0,561;    0,591
925,815;13569,833;    3,803;    0,500
926,371;13109,924;    3,530;    1,409
926,926;12958,470;    1,621;    0,591
927,482;12520,561;    1,621;    0,773
928,037;12380,015;   -0,833;    2,045
928,593;12703,561;    0,258;    1,045
929,148;12492,561;    1,167;   -1,500
929,704;12011,561;    2,439;   -0,500
930,259;12224,197;    0,894;   -0,136
930,814;11233,833;    1,803;    1,955
931,369;10925,561;    0,258;   -0,773
931,925;10812,379;   -1,924;    0,136
932,480;10637,924;    3,076;   -2,591
933,035;10486,470;    3,985;   -0,318
933,590;10231,015;   -1,742;   -1,773
934,145; 9893,288;   -1,288;   -0,318
934,700;10240,015;    0,348;   -0,591
935,255; 9988,197;    4,803;    0,045
935,809; 9205,470;    6,258;    0,864
936,364; 8298,924;    2,167;   -0,136
936,919; 8219,288;    2,348;   -1,773
937,474; 8113,652;    1,348;    0,136
938,028; 7865,652;    3,076;    1,136
938,583; 7245,742;    6,348;    4,682
939,138; 7569,379;    0,167;    2,136
939,692; 6989,561;   -1,015;   -1,136
940,247; 6600,470;    1,167;   -1,045
940,801; 6118,197;    0,621;    0,227
941,355; 6029,742;    0,439;    2,591
941,910; 5673,288;    0,712;   -2,136
942,464; 5750,470;    2,712;   -0,318
943,018; 5500,015;    3,258;   -0,227
943,572; 5451,742;    2,803;   -0,682
944,126; 4807,197;   -0,924;   -0,409
944,681; 4685,652;    0,712;    0,227
945,235; 4665,379;    2,167;   -0,591
945,789; 4618,015;    1,258;   -1,864
946,342; 4646,015;   -0,561;   -0,591
946,896; 4494,561;    0,348;    0,955
947,450; 4267,561;   -0,561;   -0,227
948,004; 4421,561;    1,076;   -0,045
948,558; 4457,561;    1,258;   -0,864
949,111; 4383,379;   -1,197;   -0,318
949,665; 4355,106;   -0,106;   -0,682
950,219; 4214,470;    0,621;   -1,045
950,772; 4329,924;    0,258;    1,864
951,326; 4252,561;   -1,106;   -0,955
951,879; 4350,288;    1,076;   -2,318
952,433; 4359,015;    1,348;    2,227
952,986; 4208,561;    0,348;    0,682
953,539; 4139,015;    1,530;    0,591
954,093; 4063,379;    0,985;   -1,318
954,646; 4193,742;   -0,288;    1,318
955,199; 4021,561;    1,258;   -0,500
955,752; 3873,197;    1,985;    1,773
956,305; 3818,197;    0,894;    2,955
956,858; 4004,924;    0,621;   -0,318
957,411; 4200,652;    3,621;    2,136
957,964; 4024,379;    2,076;    2,136
958,517; 4013,561;    0,985;    3,136
959,070; 3814,379;   -1,197;    1,955
959,623; 3854,470;    1,076;    1,500
960,176; 3610,742;    0,712;    2,045
960,728; 3601,652;    1,712;    0,773
961,281; 3691,652;    2,258;    0,500
961,834; 3720,924;   -0,833;    0,864
962,386; 3616,015;    1,258;    1,045
962,939; 3545,561;    3,439;   -0,318
963,491; 3702,197;    2,621;    1,136
964,043; 3563,742;    0,076;    2,409
964,596; 3689,197;    1,712;    2,227
965,148; 3516,288;   -0,379;    1,773
965,700; 3445,924;   -0,015;   -0,227
966,253; 3613,106;   -0,833;    0,318
966,805; 3412,106;    1,894;    0,773
967,357; 3474,288;    0,439;   -1,500
967,909; 3406,015;    1,167;   -1,227
968,461; 3552,470;    0,894;    3,136
969,013; 3487,106;   -1,561;   -0,864
969,565; 3539,379;    1,803;   -1,136
970,117; 3566,379;    3,803;    1,045
970,669; 3447,742;    3,258;   -0,136
971,220; 3310,470;    2,167;   -1,500
971,772; 3221,197;    1,348;   -0,318
972,324; 3335,742;   -1,197;   -0,500
972,876; 3297,379;    0,167;   -0,045
973,427; 3420,652;   -1,197;   -1,045
973,979; 3397,379;    0,076;   -2,500
974,530; 3428,833;    0,803;    1,318
975,082; 3437,288;    2,167;    1,682
975,633; 3337,015;    2,894;    1,682
976,184; 3499,742;    2,076;    0,773
976,736; 3273,106;    0,348;    0,227
977,287; 3032,652;    0,258;   -0,500
977,838; 3238,015;   -0,924;   -0,318
978,389; 3279,561;    0,803;   -0,500
978,940; 3168,833;    1,258;   -0,409
979,491; 3196,106;    2,258;   -0,500
980,042; 3127,561;   -0,652;    3,045
980,593; 3222,015;    1,894;    0,227
981,144; 3234,470;    3,530;   -0,500
981,695; 3181,197;   -0,470;    1,500
982,246; 3163,379;   -1,833;    1,045
982,797; 3338,015;   -0,561;    0,682
983,347; 3463,288;    2,167;    0,591
983,898; 3597,379;    4,167;    0,409
984,449; 3408,197;    2,530;    0,773
984,999; 3358,379;    1,894;   -1,136
985,550; 3087,379;    3,167;   -0,318
986,100; 3165,197;    0,712;   -0,318
986,651; 3210,652;    0,258;    0,045
987,201; 3169,470;    0,894;   -0,591
987,751; 3257,924;   -0,288;    2,864
988,302; 3217,561;   -0,379;    1,500
988,852; 3250,561;    1,985;   -1,136
989,402; 3269,561;    0,985;    0,682
989,952; 3192,470;    1,621;    0,864
990,502; 3320,924;    1,076;    0,682
991,052; 3291,742;   -0,106;    0,045
991,602; 3147,106;    1,167;    1,318
992,152; 3127,379;    2,803;    0,682
992,702; 3102,561;    1,167;   -0,045
993,252; 3009,833;    0,076;   -0,500
993,802; 3094,197;    1,167;    1,318
994,352; 3399,288;   -0,742;    1,136
994,901; 3510,652;    1,076;    3,227
995,451; 3397,379;   -1,197;    0,318
996,000; 3470,379;    1,076;    0,318
996,550; 3165,288;    2,894;    0,227
997,100; 3188,561;   -0,561;   -0,045
997,649; 3480,742;   -0,197;    0,955
998,198; 3087,288;   -0,288;   -1,500
998,748; 3268,833;    0,348;   -2,318
999,297; 3188,742;    0,985;   -0,409
999,846; 3251,833;    1,894;   -0,773
1000,395; 3325,742;    1,530;    0,500
1000,945; 3235,288;    1,076;   -0,773
1001,494; 3300,561;    0,167;    0,682
1002,043; 3319,015;    0,712;    0,864
1002,592; 3171,379;    3,439;    1,955
1003,141; 3322,924;    2,439;   -0,682
1003,690; 3146,106;    1,258;    0,500
1004,238; 3238,561;   -0,106;   -0,045
1004,787; 2856,652;   -1,288;    1,227
1005,336; 3090,833;    1,621;    0,682
1005,885; 3245,015;   -0,197;   -2,773
1006,433; 3411,288;   -0,470;    0,955
1006,982; 3416,379;    2,167;    1,682
1007,531; 3350,833;    2,712;   -0,227
1008,079; 3326,652;    0,258;    0,500
1008,627; 3496,924;    1,621;    0,409
1009,176; 3205,561;    0,076;   -1,955
1009,724; 3258,652;   -2,742;    0,864
1010,273; 3294,742;    1,076;    0,500
1010,821; 3442,288;    1,076;    1,409
1011,369; 3170,470;    0,076;    1,318
1011,917; 3133,652;   -0,833;   -0,591
1012,465; 3430,833;    2,530;   -1,591
1013,013; 3550,015;    0,439;   -1,682
1013,561; 3392,833;   -1,288;   -0,773
1014,109; 3425,106;   -0,833;    1,682
1014,657; 3299,652;    1,348;    0,591
1015,205; 3455,288;    0,894;   -0,955
1015,753; 3502,833;    0,258;   -1,409
1016,301; 3524,742;    2,621;    3,045
1016,848; 3552,652;    2,167;    0,409
1017,396; 3565,106;    1,621;    0,045
1017,944; 3700,561;    2,621;    1,864
1018,491; 3466,924;   -0,197;    1,409
1019,039; 3600,197;   -0,652;    0,591
1019,586; 3532,197;    0,076;    1,682
1020,134; 3664,197;    0,712;    1,500
1020,681; 3655,561;    2,894;   -1,136
1021,228; 3675,288;   -0,561;   -2,227
1021,776; 3503,924;   -0,833;   -1,136
1022,323; 3727,379;    0,803;    0,773
1022,870; 3664,470;   -0,470;   -0,045
1023,417; 3540,470;    2,076;    1,864
1023,964; 3706,561;    0,621;    1,227
1024,511; 3524,288;   -0,652;    0,773
1025,058; 3311,561;    0,439;   -0,045
1025,605; 3358,106;   -1,742;    3,136
1026,152; 3546,561;   -0,106;   -0,591
1026,699; 3303,833;    0,167;    1,318
1027,245; 3483,470;    2,439;    0,318
1027,792; 3746,015;    0,712;    1,409
1028,339; 3563,197;    4,076;   -0,045
1028,885; 3412,379;    3,621;   -0,227
1029,432; 3352,742;   -0,106;    0,227
1029,978; 3414,106;    1,348;   -1,591
1030,525; 3298,197;    1,621;    0,409
1031,071; 3603,742;    0,348;    1,136
1031,618; 3668,106;    1,258;    1,682
1032,164; 3454,652;    2,076;    3,045
1032,710; 3516,288;    0,076;   -1,500
1033,256; 3424,561;    0,712;   -0,136
1033,803; 3403,742;   -0,288;    1,500
1034,349; 3139,015;    1,803;    0,136
1034,895; 3311,197;    2,621;   -0,318
1035,441; 3268,288;    0,439;    0,318
1035,987; 3267,470;   -2,288;   -0,682
1036,533; 3245,197;   -0,197;   -0,955
1037,078; 3460,379;    4,712;    1,682
1037,624; 3283,106;    2,439;   -0,955
1038,170; 3305,106;    1,712;   -0,318
1038,716; 3179,924;    2,167;   -0,409
1039,261; 3115,924;    2,167;   -0,773
1039,807; 3040,470;   -0,015;    3,409
1040,352; 3099,742;   -1,288;   -0,318
1040,898; 3179,015;    0,167;   -0,682
1041,443; 3080,379;    0,803;   -2,591
1041,989; 3049,742;    3,621;    1,591
1042,534; 2942,197;    0,985;    2,591
1043,079; 3105,742;    1,985;    0,955
1043,625; 2855,742;    0,258;    0,500
1044,170; 2900,561;    2,439;    1,045
1044,715; 3155,652;    0,167;    0,955
1045,260; 2959,561;   -0,833;   -0,955
1045,805; 3024,470;    0,258;   -0,591
1046,350; 2989,379;    0,530;   -0,409
1046,895; 2909,470;    0,803;    1,591
1047,440; 2843,106;    1,530;    0,409
1047,985; 2771,197;   -1,197;   -0,955
1048,530; 2682,015;    1,348;    1,227
1049,074; 2729,561;    2,803;    0,318
1049,619; 2710,106;   -0,924;    1,955
1050,164; 2526,015;    1,076;    0,227
1050,708; 2562,924;    2,621;    0,045
1051,253; 2911,742;    3,258;   -2,227
1051,797; 2623,015;   -0,197;   -1,318
1052,342; 2669,379;    1,348;    1,045
1052,886; 2631,379;    1,803;   -1,409
1053,430; 2543,561;    2,167;    0,136
1053,975; 2533,106;    0,894;   -0,318
1054,519; 2505,561;    1,803;    3,227
1055,063; 2494,015;    3,621;    1,318
1055,607; 2370,833;    1,348;    0,227
1056,151; 2405,924;    0,530;    1,682
1056,695; 2340,379;   -1,833;   -1,136
1057,239; 2399,652;   -1,197;   -0,682
1057,783; 2401,924;    2,258;   -1,500
1058,327; 2334,015;    3,076;    1,409
1058,871; 2545,561;    3,985;    1,318
1059,415; 2254,742;   -0,561;   -0,045
1059,958; 2500,470;    2,985;    2,591
1060,502; 2232,470;    1,348;   -0,773
1061,046; 2150,015;    1,712;   -0,955
1061,589; 2116,561;    2,803;   -1,136
1062,133; 2009,924;    0,985;    1,864
1062,676; 1931,924;    1,439;    0,864
1063,220; 1934,288;    0,985;    0,500
1063,763; 1942,742;    2,985;    1,136
1064,306; 2010,924;    0,985;    1,864
1064,849; 1910,288;    2,076;    0,591
1065,393; 1923,197;    2,894;   -1,500
1065,936; 2046,561;    2,530;   -0,409
1066,479; 1943,652;    2,621;    1,318
1067,022; 1957,288;    1,894;   -0,227
1067,565; 1840,652;   -1,197;   -1,318
1068,108; 1867,106;    1,258;   -0,591
1068,651; 1863,652;   -2,470;    1,409
1069,194; 1781,470;   -1,106;   -1,682
1069,736; 1773,379;    3,803;    0,955
1070,279; 1752,924;   -1,652;   -0,500
1070,822; 1783,470;    1,530;   -0,318
1071,364; 1850,288;    0,530;    1,318
1071,907; 1684,106;    0,348;    3,227
1072,450; 1628,561;    0,258;   -0,045
1072,992; 1597,379;   -0,561;    3,136
1073,535; 1711,470;    0,167;    2,136
1074,077; 1535,288;    2,985;    2,045
1074,619; 1485,379;    0,985;    0,591
1075,161; 1509,106;   -0,561;    1,500
1075,704; 1689,561;    0,258;    1,227
1076,246; 1503,288;    1,530;    0,682
1076,788; 1431,833;   -1,015;    1,773
1077,330; 1523,197;   -2,106;    2,136
1077,872; 1460,742;   -1,924;    0,955
1078,414; 1671,288;    3,712;    0,773
1078,956; 1403,561;    0,167;   -0,227
1079,498; 1651,652;    0,439;    0,318
1080,040; 1361,924;    0,985;   -1,318
1080,581; 1306,742;    0,621;   -0,318
1081,123; 1242,833;   -0,106;   -0,773
1081,665; 1293,379;    3,803;   -0,955
1082,206; 1555,288;    3,258;   -0,500
1082,748; 1432,379;    3,258;    2,045
1083,289; 1331,106;    0,167;    1,318
1083,831; 1226,288;    0,258;    0,227
1084,372; 1237,652;    0,894;    0,591
1084,913; 1236,652;    3,348;    0,864
1085,455; 1234,288;    1,530;   -2,045
1085,996; 1194,197;    0,530;    0,136
1086,537; 1201,197;    0,985;    0,864
1087,078; 1229,379;    0,439;   -2,136
1087,619; 1269,106;   -1,652;    0,227
1088,160; 1193,652;    1,439;    1,318
1088,701; 1188,652;   -0,742;    0,682
1089,242; 1124,833;   -0,561;   -2,227
1089,783; 1215,561;   -0,561;    1,409
1090,324; 1182,561;   -0,833;    0,682
1090,865; 1059,379;   -1,924;   -0,409
1091,405; 1049,833;   -0,561;    2,227
1091,946; 1078,197;   -0,197;   -0,955
1092,487;  996,379;   -1,288;   -1,409
1093,027; 1141,742;    1,803;   -1,500
1093,568; 1006,652;    2,258;    1,227
1094,108; 1072,561;    0,621;    1,773
1094,649; 1022,197;   -0,470;    0,136
1095,189;  974,742;    1,167;   -0,682
1095,729;  906,833;    0,712;    0,955
1096,269;  922,106;    1,258;   -0,955
1096,810; 1229,015;   -0,197;    0,500
1097,350; 1055,379;   -0,561;   -0,773
1097,890;  963,470;    2,985;    1,227
1098,430; 1203,470;    4,985;    2,864
1098,970; 1072,288;    1,894;    1,682
1099,510;  961,652;   -0,833;   -2,318
1100,050;  883,652;    0,258;   -1,591
1100,589;  836,106;    0,076;   -0,318
1101,129;  960,833;    0,894;   -0,955
1101,669; 1083,924;    2,803;    2,136
1102,209;  928,742;    1,530;    2,227
1102,748;  881,833;    3,439;    0,955
1103,288;  869,924;    0,712;   -1,227
1103,827;  888,652;    3,530;   -2,227
1104,367;  766,197;    1,712;   -2,409
1104,906;  742,924;   -1,015;   -1,136
1105,445;  804,015;    0,985;   -1,136
1105,985;  737,015;   -0,652;    1,500
1106,524;  782,379;    1,530;   -0,682
1107,063;  767,106;    1,167;    1,409
1107,602;  750,652;    1,894;   -1,500
1108,141;  671,288;    1,621;    1,500
1108,680;  765,470;    3,985;   -0,591
1109,219;  709,742;    0,167;   -0,500
1109,758;  710,833;    4,167;    0,682
1110,297;  677,652;   -1,106;   -0,682
1110,836;  630,197;    1,439;    0,955
1111,375;  775,379;    0,348;    0,409
1111,913;  790,742;    0,985;    0,773
1112,452;  735,288;    0,894;    0,136
1112,991;  628,106;    1,076;    1,955
1113,529;  570,924;    0,167;   -0,045
1114,068;  638,015;    0,439;    2,955
1114,606;  548,197;   -0,561;   -0,955
1115,144;  700,106;    1,530;    1,045
1115,683;  641,379;    1,985;    0,318
1116,221;  695,924;    2,076;   -0,864
1116,759;  601,470;    1,621;   -0,864
1117,297;  782,379;    1,621;    1,864
1117,836;  589,379;    1,985;   -1,227
1118,374;  597,652;    0,258;   -0,682
1118,912;  553,924;    0,439;    2,682
1119,450;  536,561;    0,985;    0,864
1119,988;  588,288;    3,348;    2,136
1120,525; 1043,561;    7,258;    3,318
1121,063;  727,197;    0,530;    1,864
1121,601;  548,833;    1,076;   -1,227
1122,139;  504,652;    1,076;   -2,045
1122,676;  685,833;   -1,652;    2,773
1123,214;  624,470;    0,712;    4,409
1123,751;  440,652;    0,621;    2,227
1124,289;  567,106;    0,894;   -0,409
1124,826;  431,379;   -0,379;    0,227
1125,364;  368,470;    0,712;   -0,955
1125,901;  557,015;    6,258;    1,227
1126,438;  648,470;    3,530;    0,955
1126,975;  384,833;    2,985;   -0,773
1127,513;  455,742;    2,621;    2,136
1128,050;  366,833;   -0,561;   -0,682
1128,587;  467,015;    1,348;   -0,227
1129,124;  505,015;   -0,015;    1,318
1129,661;  386,379;   -1,924;    0,227
1130,198;  535,833;    2,439;    0,773
1130,734;  477,106;   -0,379;    1,409
1131,271;  341,470;   -1,197;    0,864
1131,808;  508,470;    1,621;    3,045
1132,345;  385,742;    4,530;    0,318
1132,881;  268,197;   -0,561;   -1,864
1133,418;  399,015;    0,348;   -1,136
1133,954;  335,470;    0,712;   -2,682
1134,491;  389,742;    1,712;   -0,773
1135,027;  303,197;    2,167;    0,864
1135,564;  390,833;    1,439;    2,955
1136,100;  367,288;   -0,742;    2,136
1136,636;  271,924;   -1,015;   -1,045
1137,172;  350,288;    0,894;   -1,045
1137,708;  290,470;   -1,561;   -1,045
1138,245;  297,379;    0,803;   -1,227
1138,781;  249,379;    1,803;   -3,318
1139,317;  307,106;    1,894;   -1,409
1139,852;  296,015;    3,076;    0,136
1140,388;  407,197;    2,076;   -0,409
1140,924;  285,015;    1,076;   -2,227
1141,460;  236,742;   -0,288;    0,136
1141,996;  177,924;   -0,652;    2,682
1142,531;  210,015;    1,076;    3,318
1143,067;  426,015;    1,167;    1,045
1143,602;  477,470;    3,439;   -0,318
1144,138;  317,561;    0,803;    1,045
1144,673;  191,924;    1,621;    1,409
1145,209;  257,470;    2,894;   -0,318
1145,744;  188,379;    0,803;    0,864
1146,279;  299,197;    1,530;   -0,136
1146,815;  228,742;    1,530;   -2,682
1147,350;  269,561;   -0,924;    0,045
1147,885;  186,379;   -1,924;   -1,318
1148,420;  190,288;    2,439;    0,773
1148,955;  171,197;   -1,470;    1,864
1149,490;  197,652;   -1,106;   -1,591
1150,025;  171,561;   -1,106;   -1,773
1150,560;  278,106;   -0,288;   -0,955
1151,094;  247,379;    0,258;   -0,591
1151,629;  256,106;   -3,742;    0,864
1152,164;  188,379;   -1,288;    1,318
1152,698;  153,833;    1,258;   -0,136
1153,233;  110,015;   -1,379;   -0,682
1153,767;  147,470;   -0,288;   -2,318
1154,302;  190,742;   -0,379;    1,773
1154,836;  189,652;    0,803;   -2,136
1155,371;  252,015;    2,258;    3,682
1155,905;  207,924;    1,985;    1,682
1156,439;  172,197;    0,530;   -0,500
1156,973;  203,015;    0,439;    0,318
1157,507;  144,652;   -1,742;    0,682
1158,042;  168,833;   -0,652;    1,045
1158,576;  214,924;   -0,561;    1,773
1159,110;  200,924;    0,076;    2,409
1159,643;  175,288;   -2,470;   -0,045
1160,177;  120,379;   -2,015;    1,500

