
Integration time [ms]:   0,050
Averaging Nr. [scans]: 11
Smoothing Nr. [pixels]: 0
Data measured with spectrometer [name]: 7318044SP
Wave   ;Sample   ;Dark     ;Reference
[nm]   ;[counts] ;[counts] ;[counts] 

186,757;  -31,788;   38,161;    1,318
187,357;   -5,601;   26,706;    0,955
187,958;  -18,603;   17,252;   -1,591
188,558;   18,288;   12,979;   -1,227
189,159;   -7,305;   10,070;   -4,500
189,759;  -27,982;    5,797;   -3,591
190,360;  -30,986;    6,797;   -2,136
190,960;   -2,881;    5,706;   -4,136
191,560;   -1,701;    2,614;   -6,591
192,161;  175,564;    5,885;   -3,500
192,761;   61,890;    5,520;   -3,227
193,361;    8,684;    3,065;   -3,773
193,962;   45,936;    1,612;   -2,682
194,562;   -8,496;   -0,114;   -3,955
195,162;    4,219;   -0,567;   -2,227
195,762;  103,711;    2,433;   -0,045
196,362;   62,804;    1,706;   -2,500
196,963;  -13,213;    1,706;   -0,864
197,563;   28,023;    1,252;   -0,955
198,163;  -11,763;   -0,111;   -0,682
198,763;  -10,772;   -0,020;   -0,500
199,363;   26,673;    3,616;   -0,500
199,963;   13,013;    2,162;    0,409
200,563;    6,238;    6,344;   -1,409
201,163;  -10,150;    5,435;   -0,227
201,763;   19,720;    1,435;    0,318
202,363;  -10,152;    0,980;    1,500
202,963;   18,129;    1,526;    1,045
203,563;   70,531;    0,344;    0,500
204,162;    9,289;    1,889;   -1,864
204,762;   12,169;    2,071;    0,591
205,362;  -13,542;    0,708;    1,955
205,962;    1,296;    3,435;    1,955
206,562;    4,149;    1,889;    2,318
207,161;   -4,687;    1,708;    0,318
207,761;   60,182;    4,435;    2,409
208,361;   -3,332;    1,889;    1,409
208,960;   13,357;    2,889;    1,500
209,560;   12,374;    0,435;    1,591
210,160;   28,083;    5,071;    1,864
210,759;    1,766;    0,708;    1,227
211,359;   -6,782;   -0,474;    1,045
211,958;   80,470;    3,526;    2,045
212,558;   79,151;    0,799;    1,864
213,157;   16,161;   -0,929;    1,500
213,757;  144,901;    5,617;   -0,227
214,356;   45,355;    1,708;   -0,409
214,956;  120,915;    3,526;    0,409
215,555;   29,031;    0,617;    2,136
216,154;    1,791;   -0,292;   -0,591
216,754;    3,685;    1,253;    0,773
217,353;   12,488;   -0,383;   -1,045
217,952;  -20,839;    2,072;    0,318
218,552;   28,896;    0,254;   -0,773
219,151;   -0,341;   -1,110;    0,955
219,750;   -8,219;    0,890;   -0,227
220,349;  -15,734;   -2,292;    1,045
220,948;   37,102;    1,163;    1,136
221,548;   -2,787;    0,617;    1,227
222,147;   -5,066;   -1,292;   -0,409
222,746;   61,351;    1,254;   -0,955
223,345;   16,117;   -1,019;    0,500
223,944;   18,846;    1,163;    0,773
224,543;   20,745;    4,072;   -1,409
225,142;    5,967;    1,345;    0,136
225,741;    6,413;    1,163;    1,045
226,340;    4,485;    1,254;   -0,955
226,939;   47,464;    2,708;   -0,136
227,538;   -3,123;    1,163;   -0,773
228,137;   54,006;    0,435;    0,864
228,735;   28,180;    0,435;    1,227
229,334;  -21,018;   -0,474;   -0,227
229,933;   63,155;    0,799;    0,591
230,532;   53,425;   -1,201;   -0,409
231,131;   84,396;    1,253;    0,318
231,729;   19,207;    1,163;   -2,318
232,328;    7,787;    0,435;   -1,500
232,927;    7,498;    4,526;   -0,500
233,525;    3,403;    0,981;    0,045
234,124;   16,301;    1,890;   -1,591
234,723;   -9,455;    1,617;   -1,045
235,321;  -15,545;    1,163;    0,136
235,920;   -9,331;    2,526;   -1,227
236,518;   55,215;    1,072;    0,318
237,117;   -4,176;    2,890;   -0,227
237,715;    9,321;    1,163;   -0,500
238,314;   15,721;    1,708;   -2,318
238,912;   49,845;    0,526;   -1,409
239,510;   25,723;    1,162;   -1,227
240,109;   60,923;   -0,474;    3,773
240,707;   43,838;   -0,474;    1,227
241,305;  -10,802;   -0,383;    0,136
241,904;   20,471;   -0,292;   -2,045
242,502;   77,858;    3,253;   -0,227
243,100;   32,033;    3,344;   -0,955
243,698;   -3,744;    2,799;    1,682
244,297;   12,263;   -0,656;    0,682
244,895;    8,530;   -0,474;   -2,318
245,493;   69,211;    2,981;   -0,591
246,091;   76,693;    5,163;   -1,318
246,689;   35,231;    2,163;    0,591
247,287;   34,463;   -0,019;   -1,136
247,885;   19,800;   -1,019;    1,227
248,483;   -1,851;   -0,201;   -0,500
249,081;   29,460;    0,981;    1,591
249,679;   37,098;   -1,019;    1,682
250,277;   -2,073;   -2,292;    0,864
250,875;   29,040;    0,617;   -1,045
251,473;   -0,680;   -0,019;    0,500
252,071;   41,331;   -0,383;    1,045
252,669;   13,301;   -1,565;    0,318
253,267;    2,474;    1,618;    0,773
253,864;   12,735;    0,617;    0,682
254,462;   50,049;    1,526;    1,591
255,060;   -3,899;    0,072;    1,318
255,658;   -4,881;   -3,292;   -0,136
256,255;    6,909;   -0,201;   -2,045
256,853;   28,436;    2,345;    1,409
257,451;    6,741;    1,981;    1,864
258,048;  152,884;    2,072;    1,864
258,646;   59,314;    0,436;   -1,045
259,243;   85,618;    2,981;    2,227
259,841;   37,184;    1,799;    0,318
260,438;   -5,862;    0,254;    0,864
261,036;   29,304;    0,617;    1,409
261,633;   -0,411;    1,526;    2,227
262,231;   -6,599;   -0,110;   -0,045
262,828;  -19,205;   -0,383;    1,136
263,425;   -5,404;   -1,928;   -0,591
264,023;   -5,535;    1,436;    0,045
264,620;   31,844;    1,526;   -0,318
265,217;   70,854;    2,890;    3,136
265,815;    9,081;    2,527;    2,136
266,412;   35,233;    0,072;    0,136
267,009;   24,824;    0,526;    0,773
267,606;   48,042;    0,345;   -0,955
268,203;    6,640;   -0,383;   -0,591
268,801;    5,689;   -0,474;    0,591
269,398;   -7,326;   -0,564;    2,500
269,995;   19,158;    0,890;    1,591
270,592;    4,833;    0,799;   -0,500
271,189;  -14,020;    1,981;    0,409
271,786;  -12,182;    2,072;    1,227
272,383;   36,046;   -0,383;    0,227
272,980;    4,443;    1,617;    0,318
273,577;   -9,351;    2,162;    1,227
274,174;   -9,105;    1,435;    2,591
274,771;   20,573;    1,890;   -0,773
275,367;  155,460;    3,253;    1,409
275,964;   61,437;   -0,565;   -0,500
276,561;    7,597;   -2,474;   -1,045
277,158;  -14,174;    1,799;   -1,773
277,755;   60,824;   -0,110;    0,409
278,351;   25,306;    0,436;   -1,500
278,948;   43,147;   -0,201;    0,045
279,545;   26,177;    0,527;    2,318
280,141;   59,801;    1,254;   -2,045
280,738;   65,558;    2,435;   -0,136
281,334;    8,311;   -0,383;    0,591
281,931;   -1,829;    2,890;   -1,318
282,528;   46,074;    4,072;   -0,500
283,124;   64,140;    3,345;   -0,500
283,721;   54,594;    0,709;    1,409
284,317;   20,244;    0,163;    2,500
284,913;   63,849;   -0,110;    0,591
285,510;  112,486;    2,890;   -0,318
286,106;   68,261;    2,345;   -0,955
286,703;   23,909;    0,072;    1,955
287,299;    7,003;    1,254;   -0,591
287,895;    2,968;    0,890;   -1,045
288,491;   -2,326;    0,163;    2,136
289,088;   16,075;    0,163;    2,409
289,684;   21,119;    2,890;    1,500
290,280;   78,505;    1,890;    0,682
290,876;   55,349;    0,163;    5,500
291,472;   41,040;    2,163;    2,227
292,068;   47,822;    1,254;    0,227
292,665;   18,275;   -0,564;    0,773
293,261;  -13,823;   -1,292;    2,136
293,857;   39,126;    4,072;    2,136
294,453;   21,147;   -0,928;    0,955
295,049;   79,240;    0,253;    1,955
295,644;   28,152;   -1,292;    0,136
296,240;   -6,650;    0,162;   -0,136
296,836;   21,452;   -0,747;    0,318
297,432;   55,527;    2,980;   -0,500
298,028;   49,411;    0,435;    0,773
298,624;   17,384;    0,889;    1,864
299,220;   16,009;    0,435;    0,591
299,815;    7,622;    0,526;   -0,409
300,411;   41,603;    0,435;    1,773
301,007;   51,842;    1,889;    0,227
301,602;    7,435;    2,071;   -2,318
302,198;   57,037;    1,435;   -0,773
302,794;   20,589;    1,526;   -0,500
303,389;   -3,660;    1,071;    1,045
303,985;   -3,761;    1,253;    1,409
304,580;   59,127;    0,889;    1,591
305,176;   26,843;    0,344;    0,136
305,771;  -26,963;   -0,929;   -1,227
306,367;  122,240;    3,071;    0,136
306,962;   35,071;    2,889;    1,500
307,558;   59,642;    2,435;    0,136
308,153;   37,396;   -0,383;   -1,136
308,748;  -12,229;    0,162;    1,682
309,344;  104,909;    0,253;   -1,318
309,939;   98,600;    2,071;   -1,318
310,534;   20,755;   -2,020;   -1,682
311,130;    3,663;   -0,656;   -2,500
311,725;   -5,729;    0,526;   -0,500
312,320;    8,963;    1,253;    0,045
312,915;   39,126;    2,890;   -1,045
313,510;  114,584;    0,526;   -0,500
314,105;   24,691;   -3,565;    1,409
314,700;  -15,792;   -1,656;   -1,045
315,295;    6,218;   -0,020;    0,045
315,890;   -2,945;   -0,292;    0,864
316,485;   21,650;    0,253;   -0,318
317,080;   -6,368;   -0,929;    1,591
317,675;  107,789;    3,071;   -0,682
318,270;  207,894;    6,889;    3,318
318,865;  128,068;    2,435;    3,045
319,460;   68,311;   -1,565;    0,591
320,055;   11,420;   -2,565;   -1,227
320,650;    8,348;   -1,838;   -0,591
321,244;   11,277;    0,889;   -1,409
321,839;    4,595;    0,980;   -0,227
322,434;   20,054;   -0,111;   -1,591
323,029;   -3,580;   -0,474;    1,591
323,623;   -8,956;    0,798;    0,773
324,218;   73,002;    2,707;    1,409
324,812;   38,506;    0,889;    1,591
325,407;   31,402;   -0,929;    2,045
326,002;   87,657;    0,526;   -0,409
326,596;   59,185;   -0,656;    1,318
327,191;    4,709;   -0,383;   -1,045
327,785;   18,276;   -0,747;   -0,227
328,379;    8,287;   -0,383;    0,136
328,974;    8,411;    1,798;   -3,955
329,568;   25,365;    2,889;   -2,409
330,163;   59,741;    2,435;    1,045
330,757;    3,731;    0,253;    1,591
331,351;  -13,321;   -0,292;    0,682
331,945;  -17,055;   -0,383;    1,409
332,540;   22,595;    1,617;   -0,591
333,134;   19,805;    3,344;    0,773
333,728;   32,653;    2,799;    0,318
334,322;   -4,513;    0,889;   -0,864
334,916;   -3,961;    0,344;    0,955
335,510;   46,605;   -0,111;   -0,136
336,105;   29,073;   -0,929;    1,591
336,699;   -0,745;   -1,292;    0,591
337,293;   14,264;    1,071;    0,318
337,887;    0,450;    0,071;    1,955
338,481;   39,075;    2,980;    0,591
339,074;   75,122;    2,071;    2,682
339,668;   63,960;   -0,110;    1,227
340,262;  301,845;    7,708;    3,227
340,856;  118,811;    1,708;   -0,682
341,450;   11,394;    0,708;    1,864
342,044;   25,445;    1,799;    0,136
342,637;   71,923;    1,162;   -2,136
343,231;   26,716;   -1,474;    0,682
343,825;   14,702;   -0,747;   -0,591
344,419;   16,082;   -0,474;    0,500
345,012;  246,863;    2,889;    4,045
345,606;  143,238;   -0,656;    1,591
346,199;   25,625;   -0,111;   -0,227
346,793;   65,008;    2,525;    2,045
347,386;    5,647;    0,889;   -1,136
347,980;  -18,507;   -0,838;   -0,045
348,573;    7,154;   -1,748;    0,409
349,167;  160,617;    6,161;    4,773
349,760;   80,938;    2,252;    2,682
350,354;   63,697;    1,616;    1,136
350,947;   75,711;    2,798;    1,682
351,540;   36,819;    0,616;   -1,409
352,134;   -5,938;   -1,111;    1,136
352,727;    0,727;   -0,657;    1,136
353,320;    6,497;    2,343;    0,591
353,913;  -19,423;   -1,929;    1,864
354,507;   65,616;    0,434;   -1,227
355,100;   15,569;    0,071;    0,864
355,693;  222,827;    4,798;    2,409
356,286;   97,509;    0,980;    2,773
356,879;   32,772;   -0,475;    1,227
357,472;   43,010;    0,980;    1,500
358,065;   49,216;    3,161;    2,500
358,658;   -5,781;    0,798;    2,318
359,251;   -3,766;    0,252;   -0,591
359,844;   56,466;    0,343;   -1,136
360,437;   83,188;    0,252;    0,045
361,030;   15,383;    0,525;   -0,682
361,623;   24,843;    0,434;    0,318
362,215;  127,044;    0,979;    2,045
362,808;   49,000;   -2,293;   -1,682
363,401;   14,929;    0,798;    0,136
363,994;  126,008;    3,252;   -1,500
364,586;   29,816;    0,888;   -1,500
365,179;   10,436;   -0,203;   -1,136
365,772;  -38,250;   -0,930;    2,045
366,364;   14,183;    1,524;   -3,227
366,957;   26,280;    1,342;   -0,045
367,549;    7,129;   -0,203;   -0,864
368,142;   20,025;    0,978;   -1,500
368,734;    8,033;    2,523;   -2,136
369,327;  -15,751;    2,341;   -0,500
369,919;   -2,131;   -1,659;    0,409
370,512;    3,619;   -1,023;   -0,500
371,104;  168,918;    2,704;    1,591
371,696;  178,431;    1,703;   -0,955
372,289;   83,090;    0,157;    1,136
372,881;   62,451;    1,156;    1,318
373,473;   -8,545;    4,064;    1,136
374,066;   45,194;    1,336;    0,500
374,658;   22,876;    0,879;    1,136
375,250;  -22,084;   -1,668;   -1,409
375,842;    0,822;   -0,124;   -0,045
376,434;  -27,719;   -2,762;   -0,409
377,026;  -42,423;   -1,855;   -2,500
377,618;  -13,373;    0,779;   -0,682
378,210;  -69,733;    3,141;   -1,955
378,802;  -77,729;    3,412;   -0,591
379,394;  268,922;    3,411;    0,682
379,986;   50,218;    1,138;   -0,955
380,578;  -36,124;    1,410;    0,773
381,170;  184,572;    0,320;    0,045
381,762;  110,575;   -0,224;    1,409
382,354;   72,899;   -0,223;   -1,318
382,945;    6,734;    0,870;    0,318
383,537;  -28,400;    1,144;   -1,955
384,129;  -25,231;    0,963;   -1,136
384,721;   74,815;    0,418;    0,955
385,312;   27,242;   -1,399;   -0,955
385,904;   88,522;   -0,945;    1,591
386,496;   12,530;    0,691;    1,045
387,087;  127,238;    0,418;    2,500
387,679;   73,558;   -0,401;    0,045
388,270;   36,470;   -2,401;    2,045
388,862;   12,445;   -0,401;   -0,318
389,453;    6,549;    1,054;    1,045
390,045;    8,335;    3,236;   -2,682
390,636;  -80,908;    0,144;   -0,591
391,227;  -27,553;    2,054;   -0,045
391,819;  -40,421;    0,781;    0,773
392,410;  165,915;    0,600;    0,045
393,001;    2,318;    1,600;   -1,591
393,593;   54,376;    0,600;   -0,045
394,184;   85,788;    0,873;   -0,409
394,775;   -4,808;    1,146;    2,136
395,366;  -65,030;    1,782;    0,773
395,957;   69,145;   -2,400;    0,136
396,548;  -22,562;    1,054;    2,682
397,139;   71,218;    2,236;    0,591
397,730;    6,558;    0,873;    0,955
398,321;   15,290;    0,509;    0,955
398,912;  -32,342;   -0,764;    0,136
399,503;  -27,052;   -1,945;   -1,409
400,094;    6,014;   -1,582;    1,682
400,685;   -5,435;    3,600;    0,045
401,276;  -38,043;   -0,400;   -0,955
401,867;  -57,623;   -1,127;    0,773
402,458;  -90,182;    1,509;   -2,318
403,048;   24,523;    0,146;    0,591
403,639;  -24,718;    1,509;    0,864
404,230;   72,662;    0,691;    0,318
404,821;  112,130;   -0,127;    0,045
405,411;   33,575;   -0,763;   -2,591
406,002;  -28,338;    3,237;   -1,136
406,592;  160,129;    2,691;    0,045
407,183;   37,691;    0,328;   -1,500
407,774;   15,557;    1,419;   -0,136
408,364;  -15,454;    2,600;    0,409
408,954;   75,598;   -0,036;    1,227
409,545;   79,757;    1,873;    1,045
410,135;   41,611;   -1,581;    0,500
410,726;   -2,786;    0,783;    0,318
411,316;  153,719;    2,237;    0,773
411,906;   28,469;    0,146;   -0,409
412,497;   28,487;   -0,490;   -0,045
413,087;  -12,886;    0,783;   -0,227
413,677;  -67,662;   -2,490;    3,864
414,267;  -66,544;   -1,035;    1,409
414,857;  -89,770;    0,419;    4,227
415,448;  -85,906;   -0,763;    0,500
416,038;  -56,561;   -2,945;   -0,591
416,628;  -25,776;    0,965;    0,409
417,218;   22,663;   -1,762;    3,318
417,808;  153,892;    0,965;   -0,409
418,398;   43,296;   -1,035;    2,682
418,988;  -45,880;   -2,217;    0,591
419,578;   41,533;    3,601;    1,409
420,168;  -22,152;    0,692;   -0,955
420,757;   83,127;    0,964;   -1,500
421,347;  -10,345;    1,601;   -0,227
421,937;  -35,063;    3,329;    1,409
422,527;   85,129;    2,602;   -0,773
423,116;  203,594;    2,692;   -0,045
423,706;  -24,974;    2,965;    0,318
424,296;  -60,626;    1,601;    0,682
424,885;   38,101;    1,510;   -3,045
425,475;   11,399;    1,147;   -2,864
426,065;  -70,492;   -1,489;   -0,318
426,654;  -71,471;    0,329;   -0,318
427,244;  142,463;    1,147;    1,409
427,833;  111,773;    1,056;   -0,500
428,423;   -2,954;    0,147;    1,136
429,012;    5,438;    2,420;   -1,136
429,601;  111,580;    2,057;    0,136
430,191;   19,593;    2,511;    4,318
430,780;  -63,153;   -1,671;   -0,409
431,369;   86,497;    1,329;   -0,045
431,959;    3,205;    1,693;    0,500
432,548;  -49,739;   -1,398;   -0,045
433,137;  -88,827;    0,329;   -1,318
433,726;  -28,079;    0,148;    0,500
434,315;  -19,588;    0,148;    2,409
434,905;   79,574;    0,693;    1,409
435,494;   75,361;    3,148;    0,955
436,083;  -32,710;    1,420;   -0,955
436,672;   36,566;    1,148;    0,500
437,261;   -0,024;    0,512;   -1,955
437,850;  190,593;   -1,125;    0,682
438,439;  225,848;    2,239;    1,955
439,027;  332,364;    3,421;    1,773
439,616;  259,371;    2,239;    1,227
440,205;   56,918;    0,057;   -2,136
440,794;   27,410;   -0,306;   -0,045
441,383;  -26,429;    1,603;   -0,591
441,971;  -57,914;   -0,306;    0,591
442,560;  -46,240;    0,603;   -1,773
443,149; -123,470;    3,060;   -1,318
443,737;  -92,344;    0,968;   -2,318
444,326;  -62,671;    0,331;    0,318
444,915;  -20,405;   -1,851;    0,864
445,503;   -9,854;    0,058;   -0,318
446,092;  219,845;    7,876;    2,136
446,680;  153,416;    1,876;    0,318
447,269;   66,817;   -1,487;   -0,318
447,857;   56,790;    2,240;   -1,773
448,445;   13,514;    2,149;    1,318
449,034;  -38,500;    0,876;   -1,136
449,622;  -29,310;    1,240;    3,500
450,210;  213,933;    3,149;    2,227
450,799;  138,351;    2,604;   -0,591
451,387;  105,173;    1,786;   -0,591
451,975;   84,906;   -1,305;    0,864
452,563;  156,915;    0,422;    2,318
453,151;    1,141;   -1,032;   -1,227
453,739;   40,517;   -1,577;    0,136
454,328;  138,656;    0,604;   -2,136
454,916;   76,541;    1,150;   -0,136
455,504;   95,730;    3,513;    1,227
456,092;   -1,429;    2,150;   -1,591
456,679;  -41,348;    0,604;    0,682
457,267;  342,444;    3,604;    1,045
457,855;   50,413;    3,241;    1,409
458,443;  -66,673;   -0,304;    1,682
459,031;   53,120;    1,332;    2,409
459,619;   19,713;   -3,577;    2,864
460,206;  -58,366;   -0,759;    2,045
460,794;  -54,133;   -0,668;   -0,227
461,382;  -12,867;    0,878;   -0,864
461,970;  -11,206;    0,605;    1,864
462,557;  -60,643;    0,878;   -0,682
463,145;   31,057;   -0,304;   -1,682
463,732;  239,851;    2,514;   -1,045
464,320;   44,889;    1,514;   -3,045
464,907;  168,513;    0,423;   -0,773
465,495;   92,035;    2,696;   -1,227
466,082;   13,716;    2,060;   -0,045
466,670;   37,202;    2,605;    1,227
467,257;  -44,448;    0,060;    2,045
467,844;   45,655;    1,514;    0,045
468,432;   16,992;   -0,031;    3,500
469,019;   -8,096;    1,606;   -1,773
469,606;   69,292;    0,969;    3,682
470,193;   80,812;    2,151;    0,227
470,780;   33,463;    0,333;    0,864
471,368;  -15,546;   -1,212;   -0,773
471,955;   71,020;    1,060;   -0,682
472,542;   38,073;   -0,303;   -1,136
473,129;  -57,693;   -0,485;    0,136
473,716;  -52,872;    0,060;    0,591
474,303;  -16,947;    1,333;   -0,864
474,890;  -17,821;    2,333;   -0,500
475,477;   68,792;   -0,576;    0,409
476,064;  -13,346;    0,697;   -1,591
476,650;   87,634;    2,152;    0,318
477,237;   14,725;    1,879;    0,955
477,824;   -5,014;    3,879;    0,864
478,411;  -76,227;    0,606;   -0,318
478,997;  -85,139;    0,606;   -0,773
479,584; -122,393;   -0,666;   -0,409
480,171;   28,059;    1,243;   -0,773
480,757;   78,665;   -0,848;    0,773
481,344;  -21,140;    0,334;    0,409
481,931;  -93,816;   -0,393;    1,045
482,517;   14,647;    0,425;    0,318
483,104;   97,756;    1,334;    2,864
483,690;  -19,494;    0,243;    0,045
484,276;  -41,926;    0,698;    0,227
484,863;  147,791;    2,152;    1,136
485,449;    5,214;    0,152;    0,318
486,035;  -37,359;   -0,666;   -0,136
486,622;   43,933;   -2,393;    0,045
487,208;  -13,537;    1,334;    1,500
487,794;  -87,538;    0,971;    0,318
488,380;  -81,112;    0,698;   -1,409
488,967;  -85,718;   -1,120;   -0,409
489,553;  -71,719;   -1,029;   -1,409
490,139;   -4,373;    0,971;    0,773
490,725;  -63,061;    0,789;   -0,227
491,311;  -22,951;    1,516;    3,045
491,897;  -43,837;   -0,665;    1,500
492,483;  -32,287;    0,426;    1,227
493,069;  365,434;    5,426;    0,864
493,655;  100,433;    1,789;    0,682
494,241;  -11,548;    1,517;   -0,955
494,826;   -9,636;    0,335;   -1,045
495,412;   44,852;    0,335;   -0,682
495,998;  -27,843;    0,971;   -0,318
496,584;   25,998;    2,244;    1,045
497,169;   36,505;    2,335;   -0,682
497,755;  -11,520;    1,244;    1,227
498,341;  102,952;    2,153;    0,318
498,926;  206,680;    2,881;    1,955
499,512;  -21,673;   -0,028;    2,955
500,097;  -20,755;   -0,574;   -0,318
500,683;   -6,940;   -0,028;    2,136
501,268;  -47,164;    1,881;   -0,955
501,854;  -24,103;   -0,119;    1,227
502,439;  -30,886;   -0,573;   -1,773
503,024;  -23,529;    1,608;    0,500
503,610;    3,663;    1,335;   -0,682
504,195;  -37,401;    1,245;    1,955
504,780;   37,322;    2,335;    1,227
505,366;  104,548;    4,063;    2,864
505,951;   50,276;   -1,119;    1,045
506,536;  -21,193;    1,427;   -3,682
507,121;   21,565;    1,699;   -0,318
507,706;    0,225;   -0,392;    1,045
508,291;  -47,444;   -2,937;    1,136
508,876;  -50,074;   -0,482;    2,591
509,461;  -18,056;    1,427;   -0,773
510,046;   12,673;   -0,391;    0,318
510,631;   22,996;   -0,119;   -0,773
511,216;  -37,747;   -0,664;   -0,500
511,801;   12,889;   -0,755;    2,591
512,386;   23,570;    0,972;    0,500
512,971;   31,515;    0,427;    0,955
513,555;   58,062;    1,154;   -1,500
514,140;   16,513;    1,336;   -3,136
514,725;  129,093;    1,791;   -1,136
515,309;   47,410;    1,064;    0,318
515,894;  -22,449;   -0,300;   -2,227
516,479;    6,901;    1,973;   -0,955
517,063;    8,286;    0,882;    1,227
517,648;  -22,956;    0,155;   -1,136
518,232;  -54,178;   -1,300;   -1,409
518,817;   13,895;    1,337;    1,682
519,401;  113,270;    0,700;    0,591
519,985;  107,390;    2,700;    1,136
520,570;   10,926;   -0,118;   -1,955
521,154;   89,093;    0,064;    0,591
521,738;  235,492;    1,064;    2,409
522,323;  125,955;   -0,390;    1,682
522,907;  157,164;    2,428;   -0,136
523,491;  125,823;    1,155;    0,955
524,075;  140,351;    0,428;    0,591
524,659;  398,888;    0,973;    0,591
525,243;  396,225;    0,883;    0,409
525,827;  420,417;    0,883;   -0,045
526,411;  539,888;    1,155;   -0,136
526,995;  820,206;    0,337;    1,409
527,579; 1021,403;    1,974;   -1,045
528,163; 1114,015;    0,428;   -1,500
528,747; 1496,703;    1,065;   -0,773
529,331; 1680,697;    0,883;   -1,409
529,915; 1752,154;    2,338;    0,955
530,499; 2149,848;    0,247;    1,227
531,082; 2470,205;    1,065;    1,591
531,666; 2725,250;    0,520;    0,773
532,250; 3263,322;    0,428;    2,682
532,833; 3849,451;    0,610;    2,773
533,417; 4174,772;    1,247;    0,864
534,001; 4523,134;    0,429;   -0,318
534,584; 5362,058;    1,974;    0,500
535,168; 5711,951;    3,247;    1,409
535,751; 6298,563;    4,520;    0,045
536,334; 6298,542;    4,520;   -0,409
536,918; 7244,279;    1,974;    1,591
537,501; 7713,933;    1,520;    1,318
538,085; 8161,715;    1,702;    1,045
538,668; 8624,061;    0,883;    2,409
539,251; 9354,862;    3,156;    3,773
539,834; 9817,195;    0,156;    0,773
540,418;10195,718;    3,247;    4,318
541,001;10618,168;    2,702;    1,773
541,584;10930,955;    1,429;    2,227
542,167;10959,964;    0,702;    2,955
542,750;11385,430;    0,793;   -0,773
543,333;11300,836;    1,429;    2,136
543,916;12326,243;   -0,298;    2,500
544,499;13087,379;    2,520;    0,227
545,082;13336,733;    0,248;    3,591
545,665;13742,613;   -0,207;    1,500
546,248;14273,199;    0,520;   -0,318
546,830;14135,218;   -1,752;    1,955
547,413;14754,819;    0,157;   -0,773
547,996;15466,342;    0,157;    0,500
548,579;15404,350;   -0,843;    0,955
549,161;15361,886;    0,884;    2,682
549,744;15323,803;    0,612;    0,409
550,326;15919,546;    0,885;   -1,136
550,909;15872,895;    2,339;    0,591
551,492;16411,499;    0,521;    0,227
552,074;16324,353;   -0,024;   -1,318
552,657;16990,692;    2,430;    0,045
553,239;16878,913;   -3,024;   -0,773
553,821;16916,575;   -1,570;    1,045
554,404;16525,106;   -0,024;    1,136
554,986;16938,654;    2,248;    1,045
555,568;17644,783;    0,430;   -0,955
556,151;16954,948;    4,067;   -0,227
556,733;17216,978;   -1,388;   -0,864
557,315;17740,773;    4,703;    0,500
557,897;17595,618;    0,521;   -0,500
558,479;17790,757;    1,703;    1,318
559,061;17977,263;    1,067;   -0,864
559,643;18375,212;   -0,297;    0,045
560,225;18799,410;   -0,388;    2,864
560,807;18907,849;    0,340;    0,318
561,389;18436,408;   -1,206;    2,318
561,971;19163,521;   -0,660;    2,136
562,553;19062,940;    0,613;    1,591
563,135;19262,768;    1,249;    1,136
563,717;18888,909;    3,158;    1,136
564,298;19694,474;    3,976;   -0,045
564,880;19422,321;    0,340;   -1,409
565,462;19598,321;    1,977;    1,318
566,043;20787,552;   -0,933;    2,318
566,625;20317,817;    4,067;    1,227
567,207;20274,866;    0,704;    1,682
567,788;21446,359;   -0,114;    1,500
568,370;22339,339;   -1,841;   -0,500
568,951;22138,653;   -0,569;    0,227
569,533;23057,993;    0,977;   -0,500
570,114;23584,109;   -0,296;    0,682
570,695;24097,140;   -0,478;   -1,318
571,277;24628,778;   -0,205;   -1,682
571,858;25421,188;    2,704;   -1,136
572,439;26419,509;    0,795;   -1,045
573,021;26606,226;    0,432;   -2,773
573,602;27105,307;    1,795;    0,318
574,183;28073,739;   -0,114;    2,227
574,764;28264,592;    2,068;    0,409
575,345;28851,677;    0,250;   -0,136
575,926;29541,756;    2,704;    0,136
576,507;29505,845;    2,704;   -0,227
577,088;30649,630;    1,704;    1,682
577,669;30722,745;    1,704;    1,955
578,250;31522,648;   -0,750;   -1,045
578,831;32235,698;   -0,841;   -2,227
579,412;32559,091;   -1,205;    0,955
579,993;33536,809;    1,432;    0,227
580,573;33867,395;   -0,023;   -0,955
581,154;32813,876;    1,613;   -0,591
581,735;33703,159;    0,341;    0,773
582,315;33288,250;    0,523;    2,136
582,896;33650,592;   -1,750;    1,227
583,477;33129,869;    0,614;    1,227
584,057;33269,049;    1,159;    0,955
584,638;33579,991;   -2,750;    2,318
585,218;33681,851;    2,886;    2,682
585,799;33815,822;    1,977;   -0,227
586,379;33810,903;    1,250;    1,591
586,959;32572,805;    2,613;    0,318
587,540;31911,030;    0,432;    2,227
588,120;31417,826;   -1,113;   -0,045
588,700;30404,135;    2,977;    2,136
589,281;30724,147;    1,250;   -0,955
589,861;30685,772;   -0,296;   -1,682
590,441;30516,345;   -1,477;   -2,682
591,021;29454,528;    1,432;   -2,591
591,601;29721,609;    0,431;    0,500
592,181;29762,429;   -1,296;   -0,773
592,761;28995,280;    2,250;    1,409
593,341;28941,582;    1,522;    0,045
593,921;28962,961;   -0,569;    1,591
594,501;28757,656;    1,250;    1,318
595,081;28667,705;    0,522;   -0,318
595,661;29063,667;    1,068;    0,955
596,240;29535,732;   -1,023;    0,136
596,820;29168,436;    2,613;    1,955
597,400;29388,495;    1,977;    0,773
597,980;29665,612;   -0,750;    1,045
598,559;29714,744;    0,341;   -0,227
599,139;29471,791;   -0,750;   -1,227
599,718;29384,246;    0,795;   -0,409
600,298;29620,868;   -2,387;    0,682
600,877;29798,817;    4,795;    1,409
601,457;30149,339;    0,340;    1,136
602,036;30064,510;    1,795;    2,045
602,616;30328,150;    2,250;    1,682
603,195;30639,149;    0,431;    3,500
603,774;30163,436;   -0,296;    2,045
604,354;30060,509;    2,522;   -0,500
604,933;29549,767;    0,250;    1,864
605,512;29673,863;    2,340;    0,591
606,091;29682,335;    1,886;    3,773
606,671;30518,950;    0,249;    0,773
607,250;29539,602;    1,431;    3,136
607,829;29882,060;    1,158;    3,227
608,408;29745,650;    4,613;    2,591
608,987;28805,227;    2,704;    3,409
609,566;29095,766;    0,341;   -2,500
610,145;29121,498;    2,885;    0,682
610,723;29647,017;    1,613;    6,864
611,302;28852,884;    1,067;    1,682
611,881;28281,765;    5,158;   11,227
612,460;29122,301;    0,795;    3,955
613,039;29635,996;    1,703;    2,045
613,617;28322,578;    0,886;    4,773
614,196;28528,515;    1,613;    1,227
614,775;28938,402;    1,249;    2,409
615,353;28870,102;   -1,660;    0,864
615,932;28556,547;    0,249;    2,409
616,510;29126,849;    0,158;    0,591
617,089;28674,901;    8,794;   17,591
617,667;28444,828;    4,885;    6,136
618,246;28226,222;   -1,115;    1,318
618,824;28477,311;    1,612;   -0,955
619,402;28007,228;    0,431;   -1,773
619,981;28516,490;    1,067;   -1,045
620,559;28400,933;    0,794;    1,682
621,137;27886,401;    3,067;    1,864
621,715;27881,192;    3,703;   -0,682
622,293;27808,270;    1,885;   -0,773
622,871;28295,409;    0,340;    0,500
623,450;27844,321;    0,430;   -0,864
624,028;27728,231;   -0,388;   -0,955
624,606;27355,996;    2,339;    1,682
625,183;27731,127;   -0,661;   -1,136
625,761;27392,665;    1,885;    1,136
626,339;27706,548;    2,339;    2,591
626,917;28096,320;    0,339;   -0,045
627,495;28132,376;    2,794;    1,318
628,073;27614,747;    5,248;    2,864
628,650;27286,446;    3,067;    2,136
629,228;27725,141;    1,248;    4,409
629,806;27057,371;   -0,024;    1,136
630,383;27398,842;    0,066;   -0,318
630,961;27174,767;   -2,206;   -0,955
631,539;26865,885;   -2,479;    0,227
632,116;26110,313;   12,703;   15,409
632,694;26765,221;    4,885;    6,500
633,271;27076,460;    1,975;    2,682
633,848;26982,932;    1,430;    2,045
634,426;27021,531;    1,521;    1,773
635,003;26143,491;   -0,207;   -0,409
635,580;26487,187;    1,884;    3,682
636,158;27080,372;    3,793;    1,227
636,735;27029,129;    3,339;   -0,500
637,312;27142,757;    0,521;   -0,682
637,889;27306,550;    2,248;   -0,682
638,466;26773,413;    0,066;   -0,409
639,043;26795,675;    1,702;   -1,136
639,620;27097,635;    0,611;   -0,955
640,197;27427,081;    1,612;    1,682
640,774;27537,418;    1,430;    1,136
641,351;27968,028;    0,612;    1,136
641,928;27383,729;    2,794;    1,409
642,505;27028,066;    0,794;   -0,500
643,082;27132,495;    1,885;    1,227
643,658;26125,741;    1,157;    1,500
644,235;26909,624;   -2,479;    2,500
644,812;27172,598;    1,794;    0,773
645,388;26952,481;    1,612;    1,409
645,965;26990,363;    1,521;    1,682
646,542;27130,610;    3,430;   -0,227
647,118;27130,856;    3,703;   -0,955
647,695;27464,557;    0,339;    1,136
648,271;27349,713;   -2,115;    0,500
648,848;27652,323;    0,248;    2,227
649,424;27475,933;    0,976;    1,318
650,000;27233,361;   -0,388;   -1,045
650,577;27096,244;    0,158;   -0,955
651,153;27575,127;   -1,115;    0,955
651,729;28575,828;    0,521;    0,864
652,305;28764,802;    1,339;    2,773
652,881;33446,230;   -1,297;    1,136
653,458;40734,113;    0,249;    0,227
654,034;44771,996;    0,703;    1,591
654,610;46351,060;    0,339;    0,773
655,186;47765,670;    1,612;    3,045
655,762;47520,462;   -1,842;    0,409
656,338;47584,981;    0,703;    0,136
656,913;48633,682;   -0,297;    0,409
657,489;47907,383;    0,249;   -0,318
658,065;47889,357;    0,794;   -1,591
658,641;48404,240;    2,158;   -0,864
659,217;47659,305;    2,067;    0,409
659,792;47024,369;   -1,751;   -0,409
660,368;47373,252;   -0,388;   -0,682
660,944;47049,044;    1,794;    1,227
661,519;42203,836;    0,522;    0,409
662,095;35806,537;   -0,206;    0,591
662,670;30849,056;   -0,206;   -0,136
663,246;29571,666;   -0,660;   -0,409
663,821;28825,640;    0,431;    1,682
664,396;28379,341;    0,613;    1,864
664,972;28647,587;   -0,660;   -0,500
665,547;28971,925;    3,794;    0,136
666,122;28970,626;    1,340;    0,318
666,698;29240,236;    2,431;    0,318
667,273;28579,755;    0,885;    0,136
667,848;29434,274;    0,340;    1,500
668,423;29174,430;    1,795;    2,318
668,998;29713,767;    0,976;   -0,682
669,573;30335,195;    2,067;   -1,500
670,148;30140,078;    1,885;   -0,682
670,723;29934,779;   -0,024;    0,318
671,298;30404,208;   -1,296;    1,045
671,873;30508,272;   -0,296;   -0,136
672,448;30431,519;    1,704;    0,136
673,023;30808,583;    0,249;   -0,227
673,597;31134,193;    2,704;    2,318
674,172;30897,076;    2,431;    0,318
674,747;30347,595;   -0,205;   -1,045
675,321;30244,751;   -0,933;    3,318
675,896;29768,997;    2,158;    1,045
676,471;30793,971;    2,522;    1,591
677,045;30584,763;   -0,296;    0,682
677,620;30574,282;    2,158;    1,136
678,194;30919,529;    0,249;    1,136
678,769;30465,230;    0,886;   -0,318
679,343;30684,931;   -0,023;    1,773
679,917;30566,086;    0,340;    1,955
680,492;30641,424;    0,249;    3,227
681,066;30851,943;    0,613;    0,409
681,640;30905,098;    1,795;   -0,318
682,214;31746,708;    2,340;    0,500
682,788;31253,591;    0,613;   -0,773
683,363;31209,656;    1,977;    1,682
683,937;30852,266;    0,886;   -0,318
684,511;31668,149;   -1,023;   -0,591
685,085;31356,486;   -1,478;    0,318
685,659;31138,824;    1,431;    0,864
686,232;31365,070;    1,159;   -0,318
686,806;31084,589;    2,159;    0,409
687,380;31766,654;   -1,932;    0,591
687,954;32025,537;    2,432;    1,136
688,528;31646,238;    2,613;    1,955
689,101;32420,575;    0,432;    1,045
689,675;31977,185;    0,886;   -0,136
690,249;31342,068;    3,432;    0,409
690,822;31647,769;    1,159;    0,318
691,396;31794,288;    2,068;    1,227
691,969;31214,898;    2,523;    0,136
692,543;31719,690;   -0,568;   -1,955
693,116;31358,664;   -0,659;   -1,409
693,690;31195,456;   -0,296;    0,500
694,263;31766,066;    2,341;    2,955
694,836;31828,494;    2,795;    3,591
695,410;30447,832;    1,159;    1,773
695,983;30894,533;    1,614;    0,591
696,556;30799,506;   -0,750;   -1,045
697,129;31224,207;   -1,114;    1,409
697,703;30811,363;    1,341;    1,955
698,276;30888,973;    1,705;   -0,773
698,849;30665,583;   -1,023;    1,409
699,422;30987,102;    1,250;    0,591
699,995;30647,167;   -0,659;    0,136
700,568;31168,322;   -0,204;    3,045
701,140;31213,205;   -1,841;    1,682
701,713;30920,997;    0,341;    2,409
702,286;30644,516;    0,796;    0,864
702,859;30597,490;    0,614;   -0,591
703,432;29728,373;   -0,841;    0,682
704,004;30268,438;    1,978;    0,318
704,577;30053,957;    1,068;    0,136
705,150;30635,385;    0,887;    2,500
705,722;30503,904;    1,523;   -3,227
706,295;30213,696;    1,432;   -0,591
706,867;30069,579;    0,250;    1,955
707,440;30289,007;   -0,113;   -0,409
708,012;30535,072;   -0,022;    0,591
708,584;30450,318;    2,705;    0,227
709,157;30771,292;    1,160;   -0,591
709,729;30434,811;    1,069;    2,045
710,301;31333,421;   -1,204;    0,045
710,874;31291,850;    0,341;   -0,227
711,446;30080,551;   -0,295;    0,864
712,018;30012,342;   -3,022;    0,500
712,590;29738,680;   -0,204;    1,682
713,162;30276,835;   -0,477;    1,318
713,734;30576,264;    1,796;   -2,045
714,306;30457,601;    0,342;   -0,409
714,878;29133,847;   -0,295;    0,864
715,450;29980,458;   -0,113;    0,864
716,022;30225,068;    2,433;    1,318
716,593;30374,860;    0,978;    0,591
717,165;30299,015;    1,796;   -1,227
717,737;29968,353;    0,796;    0,409
718,309;29631,235;    1,160;   -0,045
718,880;29568,755;   -1,295;   -1,409
719,452;29842,546;    0,887;   -1,591
720,024;29378,702;    1,705;   -0,591
720,595;29951,767;    2,978;    0,955
721,167;29388,559;    1,160;   -2,045
721,738;28975,805;    2,069;   -1,045
722,309;28889,051;    1,251;   -1,227
722,881;28707,934;    2,705;    0,773
723,452;29363,544;    1,251;    2,864
724,023;29527,518;    1,524;    2,682
724,595;29292,128;    2,342;    0,682
725,166;29003,284;    1,524;   -0,409
725,737;28634,530;    1,887;    0,227
726,308;28734,504;    0,797;    0,318
726,879;29125,114;    1,069;    1,227
727,450;29073,997;   -2,022;   -0,045
728,021;29006,243;    1,069;    0,682
728,592;28814,944;    1,160;    0,500
729,163;29112,918;    1,433;   -0,136
729,734;29197,255;    2,160;   -0,227
730,305;29498,866;    0,615;    0,136
730,876;29823,021;    0,888;    2,955
731,447;29548,631;    0,797;    2,682
732,017;29713,878;   -0,840;    1,864
732,588;29179,306;   -0,021;    1,227
733,159;29362,825;    3,615;   -1,045
733,729;29209,072;    1,251;    0,409
734,300;28490,409;    0,160;    0,864
734,870;28909,383;   -1,385;    0,591
735,441;29504,084;    0,888;   -0,591
736,011;29207,421;    1,070;   -1,591
736,582;29148,940;    1,251;    0,045
737,152;28562,641;    0,979;   -2,045
737,722;29012,342;    1,070;   -0,682
738,293;28739,589;   -2,021;    1,318
738,863;28568,835;    1,797;    2,318
739,433;28377,354;    4,524;    0,318
740,003;29042,237;    1,524;   -0,682
740,573;28429,847;    2,252;   -1,591
741,143;28404,730;    3,615;    0,318
741,713;29166,431;    0,252;   -0,500
742,283;28833,041;    1,706;    1,591
742,853;28586,197;    0,524;    1,591
743,423;28043,716;    0,161;    0,045
743,993;28194,144;    1,070;    1,500
744,563;27499,754;    2,524;   -0,864
745,133;27476,455;   -0,112;   -0,864
745,702;28183,793;    2,797;    1,773
746,272;27350,948;    0,434;    0,591
746,842;27146,104;   -0,748;   -0,591
747,411;27586,077;   -0,839;   -0,318
747,981;27730,324;   -0,930;    0,500
748,551;27797,934;   -0,021;   -1,045
749,120;27681,362;   -0,112;   -0,227
749,690;28097,427;    2,161;    2,409
750,259;28404,855;    0,979;    2,955
750,828;28301,193;    4,070;   -1,955
751,398;28565,984;   -0,112;   -0,045
751,967;28036,322;    2,888;    0,409
752,536;28277,387;    1,161;   -0,227
753,105;28697,906;   -1,384;    0,227
753,675;28507,607;   -0,112;    1,773
754,244;28389,853;    0,888;    3,591
754,813;28445,554;    0,979;    1,227
755,382;28080,255;    0,798;    0,955
755,951;28599,229;   -0,112;    3,682
756,520;28118,839;    2,525;    1,864
757,089;28695,358;    1,888;    0,500
757,658;28835,059;    2,434;    1,227
758,227;28855,760;   -1,111;    0,318
758,795;29161,188;   -1,021;    1,136
759,364;29419,617;    0,525;   -0,591
759,933;28370,500;    1,343;   -0,045
760,501;27869,564;    0,252;   -1,318
761,070;28348,720;   -0,293;   -1,409
761,639;29115,057;    1,434;    1,318
762,207;28352,576;    0,889;   -0,955
762,776;28330,732;    2,889;    0,864
763,344;28274,251;    0,071;    0,591
763,913;27400,134;    1,616;    1,409
764,481;28145,471;    1,980;   -0,136
765,049;27888,536;    0,616;    1,409
765,618;27763,328;    1,434;    0,318
766,186;27908,120;    2,434;    0,136
766,754;28096,821;    1,798;    1,864
767,322;27033,067;    1,162;    0,409
767,890;27052,495;    0,525;   -1,773
768,459;27488,469;    2,616;   -0,318
769,027;27635,443;    2,525;    3,409
769,595;26628,326;    2,616;    2,591
770,163;26995,299;    3,344;    2,955
770,730;26739,728;    2,525;   -0,136
771,298;26629,701;    1,162;   -1,409
771,866;26719,402;    0,253;    4,955
772,434;26995,103;    1,162;   -1,864
773,002;27139,986;    2,616;    0,682
773,569;26792,778;    1,071;    1,682
774,137;26642,388;    0,889;   -0,045
774,705;27383,544;   -0,747;   -0,136
775,272;26881,245;    0,253;    0,682
775,840;26690,764;   -0,111;    2,682
776,407;26200,101;   -0,293;    1,955
776,975;25726,166;    1,162;    0,318
777,542;26788,685;    2,162;   -0,045
778,110;26715,114;    0,707;   -0,045
778,677;26348,087;    1,071;   -0,864
779,244;26049,879;   -1,020;    1,045
779,812;26192,762;    0,980;    0,864
780,379;26004,008;    2,435;    1,136
780,946;26258,891;    2,617;   -0,773
781,513;26620,501;   -0,565;    0,318
782,080;25903,930;    1,253;    2,864
782,647;26706,176;    1,708;    3,045
783,214;26256,695;   -0,201;    3,864
783,781;25822,214;    1,708;   -0,682
784,348;25731,097;    0,253;    1,500
784,915;26211,889;   -1,474;    0,318
785,482;25950,136;    2,708;    2,591
786,049;26387,473;    1,071;   -0,591
786,615;26505,265;    1,708;   -0,955
787,182;26259,602;   -3,201;   -0,682
787,749;25937,667;   -2,201;    1,409
788,315;25218,550;    0,253;   -0,409
788,882;25493,887;    0,981;   -1,227
789,448;26214,861;    1,435;   -0,955
790,015;26249,107;    1,799;    3,227
790,581;25815,354;    0,708;    0,227
791,148;25640,873;    1,344;    1,045
791,714;25917,665;   -1,019;    3,136
792,280;25553,275;    3,708;    1,591
792,847;25172,794;   -0,928;    2,500
793,413;25762,586;   -0,110;   -0,318
793,979;25267,014;    1,526;   -1,318
794,545;25282,715;    2,981;    2,682
795,111;24674,962;    2,435;    1,318
795,678;24840,663;    3,526;   -1,682
796,244;24520,091;    2,799;    0,136
796,810;25091,428;    0,799;    0,773
797,375;24787,402;   -0,292;   -2,136
797,941;24831,649;   -1,110;    0,591
798,507;24976,713;    0,254;   -0,955
799,073;24530,051;    2,708;    0,591
799,639;24584,024;    1,435;    3,136
800,205;24613,180;   -1,565;    2,682
800,770;24093,154;    1,345;    1,773
801,336;24108,491;    2,981;   -0,955
801,901;23833,283;    6,072;    3,136
802,467;24449,711;    0,526;    2,045
803,033;23749,049;   -0,019;    0,864
803,598;23958,113;    1,072;   -1,045
804,163;24007,087;    0,708;   -0,318
804,729;23942,515;   -0,110;    1,136
805,294;24349,853;    1,072;    2,227
805,859;24122,917;    0,890;   -0,409
806,425;23593,800;    3,890;    2,682
806,990;23257,228;    1,890;    4,318
807,555;23772,293;   -0,110;    2,591
808,120;23645,721;   -1,292;   -0,409
808,685;23708,331;    1,072;   -2,500
809,250;23187,123;    2,072;   -0,500
809,815;23543,006;   -0,201;    0,682
810,380;24066,798;    0,981;    1,591
810,945;24575,772;    2,890;    2,045
811,510;23764,745;   -0,200;    1,591
812,075;23423,719;    2,800;   -1,409
812,640;23482,420;    3,709;    1,409
813,204;23511,758;    2,163;   -0,227
813,769;24019,550;    0,254;   -0,045
814,334;23430,160;    0,527;    0,864
814,898;23451,406;    1,981;    0,591
815,463;23340,562;    0,981;   -0,773
816,027;23301,081;    1,345;   -2,318
816,592;23398,236;    2,163;   -2,045
817,156;22867,301;   -2,200;    1,136
817,721;22677,547;    0,982;    2,318
818,285;22650,612;    0,618;    1,500
818,849;23319,768;   -0,018;    1,682
819,414;23245,014;    0,073;    2,955
819,978;22774,170;   -0,291;    1,773
820,542;23400,507;    2,891;    0,500
821,106;23064,572;    2,800;    0,682
821,670;23177,454;    2,709;    2,591
822,234;22873,792;    1,073;    1,409
822,798;22231,402;   -0,836;    0,500
823,362;22165,194;    1,527;    4,227
823,926;21472,349;   -0,018;    1,136
824,490;21705,141;    3,527;   -0,682
825,054;22161,297;    2,527;   -1,136
825,618;21800,725;   -1,200;   -1,500
826,181;21719,063;    0,982;   -1,318
826,745;21594,491;   -0,745;   -1,045
827,309;21971,555;    2,255;    1,318
827,872;21380,347;    0,527;    0,955
828,436;22368,139;    1,982;   -0,773
828,999;22474,477;    2,436;    1,227
829,563;21290,087;   -0,654;    1,136
830,126;21045,424;   -0,018;   -0,591
830,690;21124,307;    0,709;    2,864
831,253;20583,281;   -0,473;    2,227
831,816;20693,436;   -0,018;    0,500
832,380;20589,955;    1,164;    0,864
832,943;20781,384;    3,073;   -0,500
833,506;20321,357;    0,255;   -1,227
834,069;21098,695;    2,164;   -0,955
834,632;21211,123;   -2,200;    1,318
835,195;21067,915;    1,346;    0,955
835,758;20244,525;    0,709;    1,955
836,321;20062,408;    1,073;   -1,045
836,884;20168,382;   -1,291;   -0,955
837,447;20205,537;    0,528;    1,773
838,010;20427,420;    1,800;    3,227
838,573;20748,303;    0,528;    0,773
839,135;20712,640;   -0,109;   -0,955
839,698;20158,068;    2,528;    0,409
840,261;19696,769;    0,255;   -0,227
840,823;19582,107;   -0,927;    0,864
841,386;19828,899;   -0,018;   -2,409
841,948;19684,691;    0,255;    1,773
842,511;19432,028;    0,255;    1,682
843,073;19565,093;    2,982;    0,227
843,636;19348,248;    0,619;   -0,227
844,198;19300,040;    1,255;    0,591
844,760;19418,923;    0,619;    1,955
845,322;19081,078;    0,164;    1,136
845,885;19477,325;   -0,290;    0,591
846,447;19887,935;    0,710;    0,227
847,009;19445,454;    3,983;   -0,682
847,571;19792,701;    1,346;   -2,045
848,133;19903,220;   -0,199;   -1,864
848,695;19703,284;    2,346;    1,409
849,257;19237,713;    1,346;   -1,682
849,819;19452,323;    2,983;   -0,409
850,381;19494,115;    1,801;   -0,864
850,942;19885,179;    1,892;   -0,591
851,504;19776,517;    0,983;    0,227
852,066;19821,218;    1,619;   -1,591
852,628;19365,282;    0,165;    1,955
853,189;18916,711;    0,256;    2,682
853,751;19062,594;   -0,654;    1,409
854,312;18895,385;    1,256;   -1,682
854,874;19391,814;   -0,108;   -0,773
855,435;19844,787;    0,528;   -1,682
855,997;20006,034;    3,983;   -0,136
856,558;19298,735;    0,801;    1,773
857,119;19432,709;   -0,744;    2,864
857,681;19062,319;   -0,108;    0,318
858,242;19111,202;    1,347;   -2,136
858,803;19570,266;    1,074;   -0,773
859,364;20131,876;    0,892;   -4,773
859,925;19441,850;   -0,290;   -0,955
860,486;19321,006;    0,529;   -0,955
861,047;19069,070;    0,165;   -1,227
861,608;18858,498;    0,165;   -0,773
862,169;19048,290;   -0,562;   -0,045
862,730;18813,901;   -0,290;    1,409
863,291;19054,511;    0,438;   -0,500
863,852;19356,757;   -0,926;    1,955
864,412;18823,185;   -1,835;   -0,864
864,973;17384,250;    1,892;    0,500
865,534;17178,224;    2,074;    0,227
866,094;18713,379;    2,620;    0,227
866,655;18366,626;    4,711;    3,318
867,215;18678,963;    0,074;    0,136
867,776;18566,210;   -1,199;   -0,136
868,336;18633,638;    1,529;    0,136
868,897;18084,975;    3,438;    1,682
869,457;17821,040;    3,256;    0,318
870,017;18086,195;    2,438;   -1,227
870,578;18614,805;    1,893;    0,773
871,138;18203,234;    2,620;   -0,955
871,698;17742,389;   -0,562;   -1,318
872,258;17610,090;    0,711;   -2,864
872,818;18014,337;    2,347;    0,045
873,378;17975,401;   -2,198;    1,045
873,938;17516,102;    4,984;    0,500
874,498;17898,622;    1,256;   -1,955
875,058;17748,595;    4,347;    1,773
875,618;17570,296;    1,438;   -2,682
876,177;17537,816;   -0,471;    0,136
876,737;17150,607;   -0,289;    1,955
877,297;17137,308;    2,711;    1,955
877,856;17194,737;    2,529;    0,318
878,416;17089,801;    2,438;   -0,136
878,976;17293,321;    3,438;    0,409
879,535;17492,385;    4,529;    3,136
880,095;17236,995;    1,347;    0,045
880,654;17360,878;    0,347;    1,318
881,213;17436,761;    2,347;    1,500
881,773;17050,371;    1,984;    2,682
882,332;17425,799;    6,075;    5,136
882,891;17279,682;    0,711;    2,136
883,451;17735,292;   -2,016;    1,682
884,010;17173,266;   -1,107;   -0,409
884,569;17274,603;   -2,289;   -0,045
885,128;17420,941;   -0,743;   -1,864
885,687;17482,642;   -0,743;    0,682
886,246;17161,343;    2,620;    2,136
886,805;16889,316;    1,620;    2,045
887,364;17265,563;    1,166;   -0,500
887,922;17635,900;   -0,016;    0,045
888,481;17096,692;    1,530;    0,591
889,040;17412,393;    3,711;    2,136
889,599;18076,185;    2,166;    1,409
890,157;18161,432;    2,166;    2,409
890,716;17843,314;    2,166;    0,227
891,274;17617,834;    0,075;   -1,136
891,833;18056,716;    1,166;    0,864
892,391;17905,326;    1,802;    0,500
892,950;18008,846;    0,166;   -0,773
893,508;18395,547;    0,984;   -0,409
894,067;17676,066;   -0,379;    0,136
894,625;17601,403;   -1,016;   -1,500
895,183;17848,377;   -0,198;   -0,682
895,741;17761,260;    2,257;   -1,773
896,299;17608,415;    1,621;   -2,409
896,858;17798,025;    1,530;   -1,591
897,416;17869,545;    0,166;   -1,318
897,974;17603,518;   -2,197;    0,318
898,532;17767,128;    6,530;    2,682
899,089;17648,648;    0,621;   -0,682
899,647;17711,167;    0,530;    1,318
900,205;17418,231;    0,257;    1,045
900,763;17655,569;    2,166;    0,227
901,321;17640,815;    3,530;   -1,409
901,878;17041,425;    3,257;   -0,773
902,436;16911,945;    0,257;    1,318
902,994;17329,646;    6,712;    3,682
903,551;16728,983;    1,439;    0,409
904,109;17112,957;    1,530;   -1,409
904,666;16732,749;    1,439;    1,045
905,224;16530,359;    3,894;   -0,409
905,781;16284,423;   -0,470;   -0,318
906,338;16367,033;    0,167;    1,045
906,895;16297,007;    1,894;    2,045
907,453;16220,799;    2,348;    1,136
908,010;16224,227;    3,348;    0,409
908,567;15856,110;   -0,561;    0,591
909,124;15383,447;    2,439;   -1,500
909,681;15416,148;   -1,288;    0,682
910,238;15597,031;   -0,106;   -1,318
910,795;15892,278;   -1,561;   -1,136
911,352;15548,823;   -0,379;   -2,682
911,909;14940,460;    2,803;   -0,864
912,466;15444,551;    1,985;    1,500
913,022;14966,914;   -0,924;    0,500
913,579;15296,732;   -0,470;    2,045
914,136;15009,914;   -2,561;    0,955
914,692;15409,823;    1,530;   -1,227
915,249;14926,278;    0,530;    0,409
915,806;15148,187;    1,803;    1,955
916,362;14851,278;    0,894;    1,864
916,918;14401,551;    2,439;    1,045
917,475;14413,460;    1,621;    0,955
918,031;14547,641;    0,076;   -0,045
918,587;13989,551;    0,621;   -0,318
919,144;14188,914;   -0,379;    0,227
919,700;14484,641;    0,167;    0,773
920,256;14085,005;    0,439;    0,045
920,812;13669,823;    1,439;   -1,045
921,368;13655,641;    1,348;   -1,045
921,924;13297,278;    0,439;   -0,136
922,480;12864,187;    0,076;    1,227
923,036;13504,551;   -0,652;    1,955
923,592;13441,369;    0,621;    0,318
924,148;13324,096;    1,894;   -0,955
924,704;12644,187;    0,258;   -0,409
925,259;12917,551;   -0,561;    0,591
925,815;12649,641;    3,803;    0,500
926,371;12168,278;    3,530;    1,409
926,926;12065,005;    1,621;    0,591
927,482;11727,732;    1,621;    0,773
928,037;11555,551;   -0,833;    2,045
928,593;11869,005;    0,258;    1,045
929,148;11672,278;    1,167;   -1,500
929,704;11196,005;    2,439;   -0,500
930,259;11421,096;    0,894;   -0,136
930,814;10478,551;    1,803;    1,955
931,369;10151,914;    0,258;   -0,773
931,925;10050,187;   -1,924;    0,136
932,480; 9913,551;    3,076;   -2,591
933,035; 9773,005;    3,985;   -0,318
933,590; 9533,551;   -1,742;   -1,773
934,145; 9220,460;   -1,288;   -0,318
934,700; 9560,005;    0,348;   -0,591
935,255; 9317,278;    4,803;    0,045
935,809; 8597,005;    6,258;    0,864
936,364; 7725,187;    2,167;   -0,136
936,919; 7688,732;    2,348;   -1,773
937,474; 7592,096;    1,348;    0,136
938,028; 7334,641;    3,076;    1,136
938,583; 6768,732;    6,348;    4,682
939,138; 7069,187;    0,167;    2,136
939,692; 6542,005;   -1,015;   -1,136
940,247; 6186,551;    1,167;   -1,045
940,801; 5702,096;    0,621;    0,227
941,355; 5611,369;    0,439;    2,591
941,910; 5268,914;    0,712;   -2,136
942,464; 5346,278;    2,712;   -0,318
943,018; 5123,732;    3,258;   -0,227
943,572; 5085,278;    2,803;   -0,682
944,126; 4479,823;   -0,924;   -0,409
944,681; 4349,369;    0,712;    0,227
945,235; 4355,187;    2,167;   -0,591
945,789; 4310,369;    1,258;   -1,864
946,342; 4381,641;   -0,561;   -0,591
946,896; 4178,641;    0,348;    0,955
947,450; 3940,096;   -0,561;   -0,227
948,004; 4120,460;    1,076;   -0,045
948,558; 4162,823;    1,258;   -0,864
949,111; 4087,460;   -1,197;   -0,318
949,665; 4091,187;   -0,106;   -0,682
950,219; 3964,005;    0,621;   -1,045
950,772; 4038,823;    0,258;    1,864
951,326; 3964,823;   -1,106;   -0,955
951,879; 4063,096;    1,076;   -2,318
952,433; 4073,551;    1,348;    2,227
952,986; 3914,369;    0,348;    0,682
953,539; 3853,641;    1,530;    0,591
954,093; 3805,005;    0,985;   -1,318
954,646; 3952,278;   -0,288;    1,318
955,199; 3744,096;    1,258;   -0,500
955,752; 3604,005;    1,985;    1,773
956,305; 3554,187;    0,894;    2,955
956,858; 3726,914;    0,621;   -0,318
957,411; 3936,641;    3,621;    2,136
957,964; 3753,369;    2,076;    2,136
958,517; 3735,914;    0,985;    3,136
959,070; 3572,096;   -1,197;    1,955
959,623; 3632,551;    1,076;    1,500
960,176; 3405,187;    0,712;    2,045
960,728; 3378,096;    1,712;    0,773
961,281; 3446,005;    2,258;    0,500
961,834; 3477,551;   -0,833;    0,864
962,386; 3403,732;    1,258;    1,045
962,939; 3306,732;    3,439;   -0,318
963,491; 3476,823;    2,621;    1,136
964,043; 3335,369;    0,076;    2,409
964,596; 3452,823;    1,712;    2,227
965,148; 3276,823;   -0,379;    1,773
965,700; 3232,641;   -0,015;   -0,227
966,253; 3389,278;   -0,833;    0,318
966,805; 3199,732;    1,894;    0,773
967,357; 3260,732;    0,439;   -1,500
967,909; 3221,641;    1,167;   -1,227
968,461; 3326,187;    0,894;    3,136
969,013; 3240,278;   -1,561;   -0,864
969,565; 3318,551;    1,803;   -1,136
970,117; 3381,823;    3,803;    1,045
970,669; 3210,914;    3,258;   -0,136
971,220; 3068,369;    2,167;   -1,500
971,772; 2993,823;    1,348;   -0,318
972,324; 3121,641;   -1,197;   -0,500
972,876; 3087,732;    0,167;   -0,045
973,427; 3212,096;   -1,197;   -1,045
973,979; 3202,005;    0,076;   -2,500
974,530; 3213,914;    0,803;    1,318
975,082; 3211,460;    2,167;    1,682
975,633; 3091,823;    2,894;    1,682
976,184; 3252,005;    2,076;    0,773
976,736; 3049,187;    0,348;    0,227
977,287; 2841,823;    0,258;   -0,500
977,838; 3014,096;   -0,924;   -0,318
978,389; 3071,005;    0,803;   -0,500
978,940; 2946,823;    1,258;   -0,409
979,491; 2984,187;    2,258;   -0,500
980,042; 2930,096;   -0,652;    3,045
980,593; 2998,914;    1,894;    0,227
981,144; 3044,096;    3,530;   -0,500
981,695; 3013,641;   -0,470;    1,500
982,246; 2975,005;   -1,833;    1,045
982,797; 3158,005;   -0,561;    0,682
983,347; 3263,823;    2,167;    0,591
983,898; 3402,187;    4,167;    0,409
984,449; 3222,369;    2,530;    0,773
984,999; 3144,460;    1,894;   -1,136
985,550; 2911,460;    3,167;   -0,318
986,100; 2954,096;    0,712;   -0,318
986,651; 2990,278;    0,258;    0,045
987,201; 2971,005;    0,894;   -0,591
987,751; 3063,914;   -0,288;    2,864
988,302; 3021,823;   -0,379;    1,500
988,852; 3050,823;    1,985;   -1,136
989,402; 3094,187;    0,985;    0,682
989,952; 2994,460;    1,621;    0,864
990,502; 3115,551;    1,076;    0,682
991,052; 3082,732;   -0,106;    0,045
991,602; 2927,005;    1,167;    1,318
992,152; 2934,460;    2,803;    0,682
992,702; 2911,005;    1,167;   -0,045
993,252; 2812,278;    0,076;   -0,500
993,802; 2899,460;    1,167;    1,318
994,352; 3151,641;   -0,742;    1,136
994,901; 3259,096;    1,076;    3,227
995,451; 3158,914;   -1,197;    0,318
996,000; 3255,369;    1,076;    0,318
996,550; 2964,369;    2,894;    0,227
997,100; 2968,641;   -0,561;   -0,045
997,649; 3270,732;   -0,197;    0,955
998,198; 2889,641;   -0,288;   -1,500
998,748; 3074,732;    0,348;   -2,318
999,297; 2977,096;    0,985;   -0,409
999,846; 3056,823;    1,894;   -0,773
1000,395; 3103,823;    1,530;    0,500
1000,945; 3038,369;    1,076;   -0,773
1001,494; 3119,732;    0,167;    0,682
1002,043; 3116,460;    0,712;    0,864
1002,592; 2959,278;    3,439;    1,955
1003,141; 3112,096;    2,439;   -0,682
1003,690; 2953,369;    1,258;    0,500
1004,238; 3014,369;   -0,106;   -0,045
1004,787; 2638,914;   -1,288;    1,227
1005,336; 2886,823;    1,621;    0,682
1005,885; 3033,823;   -0,197;   -2,773
1006,433; 3178,278;   -0,470;    0,955
1006,982; 3241,369;    2,167;    1,682
1007,531; 3174,460;    2,712;   -0,227
1008,079; 3123,187;    0,258;    0,500
1008,627; 3276,005;    1,621;    0,409
1009,176; 2991,369;    0,076;   -1,955
1009,724; 3039,005;   -2,742;    0,864
1010,273; 3087,096;    1,076;    0,500
1010,821; 3223,096;    1,076;    1,409
1011,369; 2952,460;    0,076;    1,318
1011,917; 2926,914;   -0,833;   -0,591
1012,465; 3227,005;    2,530;   -1,591
1013,013; 3338,369;    0,439;   -1,682
1013,561; 3181,732;   -1,288;   -0,773
1014,109; 3223,732;   -0,833;    1,682
1014,657; 3098,005;    1,348;    0,591
1015,205; 3223,823;    0,894;   -0,955
1015,753; 3278,732;    0,258;   -1,409
1016,301; 3309,369;    2,621;    3,045
1016,848; 3317,369;    2,167;    0,409
1017,396; 3363,369;    1,621;    0,045
1017,944; 3467,551;    2,621;    1,864
1018,491; 3230,823;   -0,197;    1,409
1019,039; 3393,187;   -0,652;    0,591
1019,586; 3315,369;    0,076;    1,682
1020,134; 3411,460;    0,712;    1,500
1020,681; 3418,641;    2,894;   -1,136
1021,228; 3460,823;   -0,561;   -2,227
1021,776; 3280,369;   -0,833;   -1,136
1022,323; 3466,914;    0,803;    0,773
1022,870; 3425,641;   -0,470;   -0,045
1023,417; 3300,460;    2,076;    1,864
1023,964; 3462,551;    0,621;    1,227
1024,511; 3291,551;   -0,652;    0,773
1025,058; 3076,551;    0,439;   -0,045
1025,605; 3147,187;   -1,742;    3,136
1026,152; 3343,187;   -0,106;   -0,591
1026,699; 3074,096;    0,167;    1,318
1027,245; 3255,641;    2,439;    0,318
1027,792; 3483,551;    0,712;    1,409
1028,339; 3353,187;    4,076;   -0,045
1028,885; 3200,732;    3,621;   -0,227
1029,432; 3144,551;   -0,106;    0,227
1029,978; 3199,187;    1,348;   -1,591
1030,525; 3076,278;    1,621;    0,409
1031,071; 3353,369;    0,348;    1,136
1031,618; 3461,096;    1,258;    1,682
1032,164; 3243,823;    2,076;    3,045
1032,710; 3271,460;    0,076;   -1,500
1033,256; 3207,551;    0,712;   -0,136
1033,803; 3185,641;   -0,288;    1,500
1034,349; 2916,005;    1,803;    0,136
1034,895; 3095,278;    2,621;   -0,318
1035,441; 3066,551;    0,439;    0,318
1035,987; 3053,641;   -2,288;   -0,682
1036,533; 3061,005;   -0,197;   -0,955
1037,078; 3249,914;    4,712;    1,682
1037,624; 3064,732;    2,439;   -0,955
1038,170; 3103,187;    1,712;   -0,318
1038,716; 2988,187;    2,167;   -0,409
1039,261; 2918,732;    2,167;   -0,773
1039,807; 2856,460;   -0,015;    3,409
1040,352; 2912,551;   -1,288;   -0,318
1040,898; 2965,278;    0,167;   -0,682
1041,443; 2872,278;    0,803;   -2,591
1041,989; 2891,369;    3,621;    1,591
1042,534; 2770,641;    0,985;    2,591
1043,079; 2903,278;    1,985;    0,955
1043,625; 2676,278;    0,258;    0,500
1044,170; 2713,460;    2,439;    1,045
1044,715; 2967,278;    0,167;    0,955
1045,260; 2768,187;   -0,833;   -0,955
1045,805; 2852,641;    0,258;   -0,591
1046,350; 2790,914;    0,530;   -0,409
1046,895; 2748,551;    0,803;    1,591
1047,440; 2685,460;    1,530;    0,409
1047,985; 2578,187;   -1,197;   -0,955
1048,530; 2494,005;    1,348;    1,227
1049,074; 2568,096;    2,803;    0,318
1049,619; 2541,460;   -0,924;    1,955
1050,164; 2337,551;    1,076;    0,227
1050,708; 2394,096;    2,621;    0,045
1051,253; 2741,551;    3,258;   -2,227
1051,797; 2474,278;   -0,197;   -1,318
1052,342; 2505,641;    1,348;    1,045
1052,886; 2471,278;    1,803;   -1,409
1053,430; 2365,187;    2,167;    0,136
1053,975; 2376,278;    0,894;   -0,318
1054,519; 2363,096;    1,803;    3,227
1055,063; 2362,460;    3,621;    1,318
1055,607; 2239,278;    1,348;    0,227
1056,151; 2277,005;    0,530;    1,682
1056,695; 2192,732;   -1,833;   -1,136
1057,239; 2255,187;   -1,197;   -0,682
1057,783; 2264,914;    2,258;   -1,500
1058,327; 2192,551;    3,076;    1,409
1058,871; 2422,278;    3,985;    1,318
1059,415; 2125,732;   -0,561;   -0,045
1059,958; 2369,551;    2,985;    2,591
1060,502; 2111,641;    1,348;   -0,773
1061,046; 2032,551;    1,712;   -0,955
1061,589; 2010,187;    2,803;   -1,136
1062,133; 1883,914;    0,985;    1,864
1062,676; 1809,278;    1,439;    0,864
1063,220; 1827,096;    0,985;    0,500
1063,763; 1835,096;    2,985;    1,136
1064,306; 1908,823;    0,985;    1,864
1064,849; 1792,914;    2,076;    0,591
1065,393; 1818,914;    2,894;   -1,500
1065,936; 1947,369;    2,530;   -0,409
1066,479; 1830,460;    2,621;    1,318
1067,022; 1834,823;    1,894;   -0,227
1067,565; 1736,641;   -1,197;   -1,318
1068,108; 1770,823;    1,258;   -0,591
1068,651; 1744,187;   -2,470;    1,409
1069,194; 1665,460;   -1,106;   -1,682
1069,736; 1665,551;    3,803;    0,955
1070,279; 1641,369;   -1,652;   -0,500
1070,822; 1685,369;    1,530;   -0,318
1071,364; 1762,914;    0,530;    1,318
1071,907; 1587,460;    0,348;    3,227
1072,450; 1505,369;    0,258;   -0,045
1072,992; 1500,187;   -0,561;    3,136
1073,535; 1621,732;    0,167;    2,136
1074,077; 1437,914;    2,985;    2,045
1074,619; 1387,005;    0,985;    0,591
1075,161; 1420,823;   -0,561;    1,500
1075,704; 1600,369;    0,258;    1,227
1076,246; 1399,823;    1,530;    0,682
1076,788; 1335,914;   -1,015;    1,773
1077,330; 1420,278;   -2,106;    2,136
1077,872; 1371,187;   -1,924;    0,955
1078,414; 1586,823;    3,712;    0,773
1078,956; 1321,732;    0,167;   -0,227
1079,498; 1565,369;    0,439;    0,318
1080,040; 1275,551;    0,985;   -1,318
1080,581; 1231,914;    0,621;   -0,318
1081,123; 1166,460;   -0,106;   -0,773
1081,665; 1220,369;    3,803;   -0,955
1082,206; 1489,551;    3,258;   -0,500
1082,748; 1354,732;    3,258;    2,045
1083,289; 1242,187;    0,167;    1,318
1083,831; 1146,914;    0,258;    0,227
1084,372; 1174,460;    0,894;    0,591
1084,913; 1163,096;    3,348;    0,864
1085,455; 1159,096;    1,530;   -2,045
1085,996; 1112,369;    0,530;    0,136
1086,537; 1143,914;    0,985;    0,864
1087,078; 1170,641;    0,439;   -2,136
1087,619; 1205,278;   -1,652;    0,227
1088,160; 1142,551;    1,439;    1,318
1088,701; 1116,732;   -0,742;    0,682
1089,242; 1060,096;   -0,561;   -2,227
1089,783; 1155,005;   -0,561;    1,409
1090,324; 1118,914;   -0,833;    0,682
1090,865;  987,278;   -1,924;   -0,409
1091,405;  986,823;   -0,561;    2,227
1091,946; 1004,096;   -0,197;   -0,955
1092,487;  920,914;   -1,288;   -1,409
1093,027; 1077,914;    1,803;   -1,500
1093,568;  938,278;    2,258;    1,227
1094,108; 1012,369;    0,621;    1,773
1094,649;  969,823;   -0,470;    0,136
1095,189;  920,278;    1,167;   -0,682
1095,729;  865,551;    0,712;    0,955
1096,269;  879,096;    1,258;   -0,955
1096,810; 1170,732;   -0,197;    0,500
1097,350; 1000,914;   -0,561;   -0,773
1097,890;  904,369;    2,985;    1,227
1098,430; 1152,914;    4,985;    2,864
1098,970; 1022,732;    1,894;    1,682
1099,510;  899,278;   -0,833;   -2,318
1100,050;  830,278;    0,258;   -1,591
1100,589;  794,914;    0,076;   -0,318
1101,129;  915,914;    0,894;   -0,955
1101,669; 1047,187;    2,803;    2,136
1102,209;  880,641;    1,530;    2,227
1102,748;  838,460;    3,439;    0,955
1103,288;  827,823;    0,712;   -1,227
1103,827;  857,551;    3,530;   -2,227
1104,367;  734,551;    1,712;   -2,409
1104,906;  702,369;   -1,015;   -1,136
1105,445;  771,278;    0,985;   -1,136
1105,985;  710,278;   -0,652;    1,500
1106,524;  745,641;    1,530;   -0,682
1107,063;  734,187;    1,167;    1,409
1107,602;  704,914;    1,894;   -1,500
1108,141;  636,551;    1,621;    1,500
1108,680;  726,914;    3,985;   -0,591
1109,219;  668,005;    0,167;   -0,500
1109,758;  676,732;    4,167;    0,682
1110,297;  650,187;   -1,106;   -0,682
1110,836;  594,732;    1,439;    0,955
1111,375;  743,187;    0,348;    0,409
1111,913;  756,551;    0,985;    0,773
1112,452;  699,732;    0,894;    0,136
1112,991;  595,460;    1,076;    1,955
1113,529;  540,187;    0,167;   -0,045
1114,068;  603,096;    0,439;    2,955
1114,606;  511,641;   -0,561;   -0,955
1115,144;  668,823;    1,530;    1,045
1115,683;  614,823;    1,985;    0,318
1116,221;  655,551;    2,076;   -0,864
1116,759;  572,096;    1,621;   -0,864
1117,297;  745,641;    1,621;    1,864
1117,836;  577,096;    1,985;   -1,227
1118,374;  577,551;    0,258;   -0,682
1118,912;  532,369;    0,439;    2,682
1119,450;  499,551;    0,985;    0,864
1119,988;  555,005;    3,348;    2,136
1120,525; 1003,005;    7,258;    3,318
1121,063;  699,096;    0,530;    1,864
1121,601;  515,187;    1,076;   -1,227
1122,139;  475,278;    1,076;   -2,045
1122,676;  655,278;   -1,652;    2,773
1123,214;  596,641;    0,712;    4,409
1123,751;  428,005;    0,621;    2,227
1124,289;  552,460;    0,894;   -0,409
1124,826;  420,369;   -0,379;    0,227
1125,364;  349,187;    0,712;   -0,955
1125,901;  523,732;    6,258;    1,227
1126,438;  623,187;    3,530;    0,955
1126,975;  370,187;    2,985;   -0,773
1127,513;  435,187;    2,621;    2,136
1128,050;  342,369;   -0,561;   -0,682
1128,587;  433,005;    1,348;   -0,227
1129,124;  475,187;   -0,015;    1,318
1129,661;  358,641;   -1,924;    0,227
1130,198;  517,914;    2,439;    0,773
1130,734;  464,278;   -0,379;    1,409
1131,271;  322,641;   -1,197;    0,864
1131,808;  482,369;    1,621;    3,045
1132,345;  356,823;    4,530;    0,318
1132,881;  240,914;   -0,561;   -1,864
1133,418;  369,460;    0,348;   -1,136
1133,954;  309,005;    0,712;   -2,682
1134,491;  377,096;    1,712;   -0,773
1135,027;  290,551;    2,167;    0,864
1135,564;  369,005;    1,439;    2,955
1136,100;  343,732;   -0,742;    2,136
1136,636;  258,914;   -1,015;   -1,045
1137,172;  342,914;    0,894;   -1,045
1137,708;  268,096;   -1,561;   -1,045
1138,245;  271,005;    0,803;   -1,227
1138,781;  238,005;    1,803;   -3,318
1139,317;  292,732;    1,894;   -1,409
1139,852;  271,732;    3,076;    0,136
1140,388;  382,641;    2,076;   -0,409
1140,924;  276,187;    1,076;   -2,227
1141,460;  220,914;   -0,288;    0,136
1141,996;  164,823;   -0,652;    2,682
1142,531;  202,005;    1,076;    3,318
1143,067;  404,823;    1,167;    1,045
1143,602;  460,460;    3,439;   -0,318
1144,138;  303,914;    0,803;    1,045
1144,673;  179,187;    1,621;    1,409
1145,209;  259,005;    2,894;   -0,318
1145,744;  178,732;    0,803;    0,864
1146,279;  297,641;    1,530;   -0,136
1146,815;  228,096;    1,530;   -2,682
1147,350;  256,369;   -0,924;    0,045
1147,885;  176,460;   -1,924;   -1,318
1148,420;  174,551;    2,439;    0,773
1148,955;  157,369;   -1,470;    1,864
1149,490;  191,187;   -1,106;   -1,591
1150,025;  173,369;   -1,106;   -1,773
1150,560;  266,732;   -0,288;   -0,955
1151,094;  236,641;    0,258;   -0,591
1151,629;  238,823;   -3,742;    0,864
1152,164;  179,460;   -1,288;    1,318
1152,698;  139,914;    1,258;   -0,136
1153,233;   98,278;   -1,379;   -0,682
1153,767;  142,641;   -0,288;   -2,318
1154,302;  182,551;   -0,379;    1,773
1154,836;  186,187;    0,803;   -2,136
1155,371;  242,005;    2,258;    3,682
1155,905;  204,005;    1,985;    1,682
1156,439;  164,187;    0,530;   -0,500
1156,973;  185,641;    0,439;    0,318
1157,507;  127,460;   -1,742;    0,682
1158,042;  146,823;   -0,652;    1,045
1158,576;  191,278;   -0,561;    1,773
1159,110;  188,005;    0,076;    2,409
1159,643;  162,278;   -2,470;   -0,045
1160,177;  106,096;   -2,015;    1,500

