
Integration time [ms]:   0,050
Averaging Nr. [scans]: 11
Smoothing Nr. [pixels]: 0
Data measured with spectrometer [name]: 7318044SP
Wave   ;Sample   ;Dark     ;Reference
[nm]   ;[counts] ;[counts] ;[counts] 

186,757;    2,150;   38,161;    1,318
187,357;   23,997;   26,706;    0,955
187,958;   14,701;   17,252;   -1,591
188,558;   49,882;   12,979;   -1,227
189,159;   33,581;   10,070;   -4,500
189,759;    7,887;    5,797;   -3,591
190,360;    6,104;    6,797;   -2,136
190,960;   36,794;    5,706;   -4,136
191,560;   49,751;    2,614;   -6,591
192,161;  236,033;    5,885;   -3,500
192,761;  117,001;    5,520;   -3,227
193,361;   80,103;    3,065;   -3,773
193,962;  121,966;    1,612;   -2,682
194,562;   54,689;   -0,114;   -3,955
195,162;   70,546;   -0,567;   -2,227
195,762;  201,385;    2,433;   -0,045
196,362;  154,177;    1,706;   -2,500
196,963;   61,472;    1,706;   -0,864
197,563;  116,107;    1,252;   -0,955
198,163;   69,544;   -0,111;   -0,682
198,763;   84,369;   -0,020;   -0,500
199,363;  160,121;    3,616;   -0,500
199,963;  127,141;    2,162;    0,409
200,563;  116,445;    6,344;   -1,409
201,163;   94,970;    5,435;   -0,227
201,763;  155,117;    1,435;    0,318
202,363;  114,401;    0,980;    1,500
202,963;  182,849;    1,526;    1,045
203,563;  276,024;    0,344;    0,500
204,162;  162,288;    1,889;   -1,864
204,762;  149,784;    2,071;    0,591
205,362;  123,216;    0,708;    1,955
205,962;  199,472;    3,435;    1,955
206,562;  199,841;    1,889;    2,318
207,161;  176,246;    1,708;    0,318
207,761;  297,674;    4,435;    2,409
208,361;  188,920;    1,889;    1,409
208,960;  262,199;    2,889;    1,500
209,560;  305,459;    0,435;    1,591
210,160;  306,672;    5,071;    1,864
210,759;  269,890;    0,708;    1,227
211,359;  257,108;   -0,474;    1,045
211,958;  483,165;    3,526;    2,045
212,558;  533,724;    0,799;    1,864
213,157;  401,105;   -0,929;    1,500
213,757;  758,277;    5,617;   -0,227
214,356;  507,417;    1,708;   -0,409
214,956;  776,512;    3,526;    0,409
215,555;  464,493;    0,617;    2,136
216,154;  410,417;   -0,292;   -0,591
216,754;  409,966;    1,253;    0,773
217,353;  510,680;   -0,383;   -1,045
217,952;  374,296;    2,072;    0,318
218,552;  584,339;    0,254;   -0,773
219,151;  486,509;   -1,110;    0,955
219,750;  480,723;    0,890;   -0,227
220,349;  525,087;   -2,292;    1,045
220,948;  639,692;    1,163;    1,136
221,548;  582,534;    0,617;    1,227
222,147;  679,151;   -1,292;   -0,409
222,746;  939,381;    1,254;   -0,955
223,345;  785,597;   -1,019;    0,500
223,944;  801,852;    1,163;    0,773
224,543;  898,653;    4,072;   -1,409
225,142; 1012,902;    1,345;    0,136
225,741;  919,322;    1,163;    1,045
226,340;  911,098;    1,254;   -0,955
226,939; 1255,246;    2,708;   -0,136
227,538; 1095,115;    1,163;   -0,773
228,137; 1295,067;    0,435;    0,864
228,735; 1290,933;    0,435;    1,227
229,334; 1090,665;   -0,474;   -0,227
229,933; 1453,417;    0,799;    0,591
230,532; 1555,898;   -1,201;   -0,409
231,131; 1629,293;    1,253;    0,318
231,729; 1585,655;    1,163;   -2,318
232,328; 1583,147;    0,435;   -1,500
232,927; 1604,565;    4,526;   -0,500
233,525; 1630,214;    0,981;    0,045
234,124; 1788,065;    1,890;   -1,591
234,723; 1766,229;    1,617;   -1,045
235,321; 1835,634;    1,163;    0,136
235,920; 1976,607;    2,526;   -1,227
236,518; 2233,012;    1,072;    0,318
237,117; 2214,472;    2,890;   -0,227
237,715; 2305,966;    1,163;   -0,500
238,314; 2345,573;    1,708;   -2,318
238,912; 2503,314;    0,526;   -1,409
239,510; 2415,869;    1,162;   -1,227
240,109; 2565,233;   -0,474;    3,773
240,707; 2540,071;   -0,474;    1,227
241,305; 2713,570;   -0,383;    0,136
241,904; 2848,479;   -0,292;   -2,045
242,502; 2835,246;    3,253;   -0,227
243,100; 2760,334;    3,344;   -0,955
243,698; 2904,647;    2,799;    1,682
244,297; 3002,072;   -0,656;    0,682
244,895; 2907,366;   -0,474;   -2,318
245,493; 3174,875;    2,981;   -0,591
246,091; 3152,233;    5,163;   -1,318
246,689; 3077,644;    2,163;    0,591
247,287; 3130,586;   -0,019;   -1,136
247,885; 3347,361;   -1,019;    1,227
248,483; 3379,347;   -0,201;   -0,500
249,081; 3451,259;    0,981;    1,591
249,679; 3562,191;   -1,019;    1,682
250,277; 3709,785;   -2,292;    0,864
250,875; 3663,560;    0,617;   -1,045
251,473; 3686,075;   -0,019;    0,500
252,071; 3789,620;   -0,383;    1,045
252,669; 3864,761;   -1,565;    0,318
253,267; 3994,413;    1,618;    0,773
253,864; 3896,496;    0,617;    0,682
254,462; 3945,049;    1,526;    1,591
255,060; 3843,378;    0,072;    1,318
255,658; 4006,215;   -3,292;   -0,136
256,255; 4350,725;   -0,201;   -2,045
256,853; 4259,997;    2,345;    1,409
257,451; 4217,697;    1,981;    1,864
258,048; 4579,936;    2,072;    1,864
258,646; 4219,278;    0,436;   -1,045
259,243; 4352,270;    2,981;    2,227
259,841; 4341,244;    1,799;    0,318
260,438; 4253,935;    0,254;    0,864
261,036; 4732,129;    0,617;    1,409
261,633; 4705,302;    1,526;    2,227
262,231; 4518,463;   -0,110;   -0,045
262,828; 4610,918;   -0,383;    1,136
263,425; 4594,576;   -1,928;   -0,591
264,023; 4778,287;    1,436;    0,045
264,620; 4465,465;    1,526;   -0,318
265,217; 4701,258;    2,890;    3,136
265,815; 4724,991;    2,527;    2,136
266,412; 4653,163;    0,072;    0,136
267,009; 4637,381;    0,526;    0,773
267,606; 4654,006;    0,345;   -0,955
268,203; 4541,590;   -0,383;   -0,591
268,801; 4759,914;   -0,474;    0,591
269,398; 4939,868;   -0,564;    2,500
269,995; 4937,009;    0,890;    1,591
270,592; 4736,952;    0,799;   -0,500
271,189; 4870,701;    1,981;    0,409
271,786; 4997,452;    2,072;    1,227
272,383; 4976,398;   -0,383;    0,227
272,980; 5005,090;    1,617;    0,318
273,577; 5338,160;    2,162;    1,227
274,174; 4955,166;    1,435;    2,591
274,771; 4925,942;    1,890;   -0,773
275,367; 5146,299;    3,253;    1,409
275,964; 5104,938;   -0,565;   -0,500
276,561; 5143,890;   -2,474;   -1,045
277,158; 5252,737;    1,799;   -1,773
277,755; 5417,622;   -0,110;    0,409
278,351; 4868,690;    0,436;   -1,500
278,948; 5137,928;   -0,201;    0,045
279,545; 5091,606;    0,527;    2,318
280,141; 5641,797;    1,254;   -2,045
280,738; 5412,856;    2,435;   -0,136
281,334; 5453,232;   -0,383;    0,591
281,931; 5031,645;    2,890;   -1,318
282,528; 5177,534;    4,072;   -0,500
283,124; 5727,140;    3,345;   -0,500
283,721; 5556,654;    0,709;    1,409
284,317; 5394,717;    0,163;    2,500
284,913; 5844,908;   -0,110;    0,591
285,510; 6055,271;    2,890;   -0,318
286,106; 6007,331;    2,345;   -0,955
286,703; 5528,421;    0,072;    1,955
287,299; 5711,699;    1,254;   -0,591
287,895; 5885,479;    0,890;   -1,045
288,491; 6315,868;    0,163;    2,136
289,088; 6103,698;    0,163;    2,409
289,684; 6132,670;    2,890;    1,500
290,280; 6179,213;    1,890;    0,682
290,876; 6221,771;    0,163;    5,500
291,472; 6141,569;    2,163;    2,227
292,068; 6197,508;    1,254;    0,227
292,665; 5929,789;   -0,564;    0,773
293,261; 5713,515;   -1,292;    2,136
293,857; 5977,854;    4,072;    2,136
294,453; 5928,192;   -0,928;    0,955
295,049; 5823,205;    0,253;    1,955
295,644; 5852,038;   -1,292;    0,136
296,240; 5777,743;    0,162;   -0,136
296,836; 5870,519;   -0,747;    0,318
297,432; 6072,027;    2,980;   -0,500
298,028; 6131,147;    0,435;    0,773
298,624; 6339,467;    0,889;    1,864
299,220; 6508,245;    0,435;    0,591
299,815; 6223,702;    0,526;   -0,409
300,411; 6102,841;    0,435;    1,773
301,007; 6117,017;    1,889;    0,227
301,602; 6078,682;    2,071;   -2,318
302,198; 6215,312;    1,435;   -0,773
302,794; 6451,737;    1,526;   -0,500
303,389; 6559,503;    1,071;    1,045
303,985; 6571,891;    1,253;    1,409
304,580; 6592,512;    0,889;    1,591
305,176; 6561,100;    0,344;    0,136
305,771; 6486,503;   -0,929;   -1,227
306,367; 6519,428;    3,071;    0,136
306,962; 6686,500;    2,889;    1,500
307,558; 6442,562;    2,435;    0,136
308,153; 6426,688;   -0,383;   -1,136
308,748; 6550,687;    0,162;    1,682
309,344; 6618,443;    0,253;   -1,318
309,939; 6775,431;    2,071;   -1,318
310,534; 6896,528;   -2,020;   -1,682
311,130; 6769,396;   -0,656;   -2,500
311,725; 6549,833;    0,526;   -0,500
312,320; 6812,481;    1,253;    0,045
312,915; 6815,844;    2,890;   -1,045
313,510; 6852,890;    0,526;   -0,500
314,105; 7165,463;   -3,565;    1,409
314,700; 6657,354;   -1,656;   -1,045
315,295; 6494,785;   -0,020;    0,045
315,890; 6148,868;   -0,292;    0,864
316,485; 6355,737;    0,253;   -0,318
317,080; 6449,405;   -0,929;    1,591
317,675; 6891,252;    3,071;   -0,682
318,270; 6509,528;    6,889;    3,318
318,865; 6500,212;    2,435;    3,045
319,460; 6345,122;   -1,565;    0,591
320,055; 6512,354;   -2,565;   -1,227
320,650; 6256,214;   -1,838;   -0,591
321,244; 6287,570;    0,889;   -1,409
321,839; 6997,484;    0,980;   -0,227
322,434; 6885,572;   -0,111;   -1,591
323,029; 6659,759;   -0,474;    1,591
323,623; 6549,687;    0,798;    0,773
324,218; 6411,274;    2,707;    1,409
324,812; 6357,507;    0,889;    1,591
325,407; 6239,849;   -0,929;    2,045
326,002; 6195,830;    0,526;   -0,409
326,596; 6452,316;   -0,656;    1,318
327,191; 6573,796;   -0,383;   -1,045
327,785; 6247,588;   -0,747;   -0,227
328,379; 6516,174;   -0,383;    0,136
328,974; 6248,552;    1,798;   -3,955
329,568; 6519,292;    2,889;   -2,409
330,163; 6404,587;    2,435;    1,045
330,757; 6635,216;    0,253;    1,591
331,351; 6149,210;   -0,292;    0,682
331,945; 6389,875;   -0,383;    1,409
332,540; 6124,707;    1,617;   -0,591
333,134; 6192,379;    3,344;    0,773
333,728; 6300,784;    2,799;    0,318
334,322; 6595,556;    0,889;   -0,864
334,916; 6015,295;    0,344;    0,955
335,510; 6302,865;   -0,111;   -0,136
336,105; 6503,978;   -0,929;    1,591
336,699; 6207,746;   -1,292;    0,591
337,293; 6164,740;    1,071;    0,318
337,887; 6216,586;    0,071;    1,955
338,481; 6316,497;    2,980;    0,591
339,074; 6500,434;    2,071;    2,682
339,668; 6375,658;   -0,110;    1,227
340,262; 6691,346;    7,708;    3,227
340,856; 6201,168;    1,708;   -0,682
341,450; 5708,088;    0,708;    1,864
342,044; 6342,649;    1,799;    0,136
342,637; 6186,870;    1,162;   -2,136
343,231; 6098,817;   -1,474;    0,682
343,825; 6006,703;   -0,747;   -0,591
344,419; 6030,044;   -0,474;    0,500
345,012; 6089,306;    2,889;    4,045
345,606; 6042,032;   -0,656;    1,591
346,199; 5864,757;   -0,111;   -0,227
346,793; 5600,253;    2,525;    2,045
347,386; 5725,086;    0,889;   -1,136
347,980; 5685,930;   -0,838;   -0,045
348,573; 5613,406;   -1,748;    0,409
349,167; 5464,885;    6,161;    4,773
349,760; 5746,623;    2,252;    2,682
350,354; 5673,422;    1,616;    1,136
350,947; 5516,072;    2,798;    1,682
351,540; 5291,637;    0,616;   -1,409
352,134; 5224,001;   -1,111;    1,136
352,727; 5280,260;   -0,657;    1,136
353,320; 5204,868;    2,343;    0,591
353,913; 5062,596;   -1,929;    1,864
354,507; 5226,085;    0,434;   -1,227
355,100; 5268,735;    0,071;    0,864
355,693; 4861,225;    4,798;    2,409
356,286; 4814,139;    0,980;    2,773
356,879; 5065,800;   -0,475;    1,227
357,472; 4734,853;    0,980;    1,500
358,065; 4937,602;    3,161;    2,500
358,658; 4901,030;    0,798;    2,318
359,251; 4632,207;    0,252;   -0,591
359,844; 4332,381;    0,343;   -1,136
360,437; 4514,262;    0,252;    0,045
361,030; 4685,920;    0,525;   -0,682
361,623; 4409,039;    0,434;    0,318
362,215; 4446,486;    0,979;    2,045
362,808; 4344,291;   -2,293;   -1,682
363,401; 4471,406;    0,798;    0,136
363,994; 4393,548;    3,252;   -1,500
364,586; 4310,035;    0,888;   -1,500
365,179; 4409,544;   -0,203;   -1,136
365,772; 4010,561;   -0,930;    2,045
366,364; 4190,536;    1,524;   -3,227
366,957; 4439,637;    1,342;   -0,045
367,549; 4367,951;   -0,203;   -0,864
368,142; 4152,052;    0,978;   -1,500
368,734; 4285,812;    2,523;   -2,136
369,327; 4269,263;    2,341;   -0,500
369,919; 4211,367;   -1,659;    0,409
370,512; 4147,396;   -1,023;   -0,500
371,104; 3994,844;    2,704;    1,591
371,696; 4137,538;    1,703;   -0,955
372,289; 4160,525;    0,157;    1,136
372,881; 4222,442;    1,156;    1,318
373,473; 4129,146;    4,064;    1,136
374,066; 4044,439;    1,336;    0,500
374,658; 3965,850;    0,879;    1,136
375,250; 4173,919;   -1,668;   -1,409
375,842; 4073,097;   -0,124;   -0,045
376,434; 3968,600;   -2,762;   -0,409
377,026; 4384,641;   -1,855;   -2,500
377,618; 4299,535;    0,779;   -0,682
378,210; 4161,956;    3,141;   -1,955
378,802; 3999,064;    3,412;   -0,591
379,394; 4132,594;    3,411;    0,682
379,986; 4447,614;    1,138;   -0,955
380,578; 4477,843;    1,410;    0,773
381,170; 4103,598;    0,320;    0,045
381,762; 4022,633;   -0,224;    1,409
382,354; 4134,414;   -0,223;   -1,318
382,945; 4164,702;    0,870;    0,318
383,537; 4314,478;    1,144;   -1,955
384,129; 4321,212;    0,963;   -1,136
384,721; 4420,482;    0,418;    0,955
385,312; 4344,819;   -1,399;   -0,955
385,904; 4469,871;   -0,945;    1,591
386,496; 3994,037;    0,691;    1,045
387,087; 4142,126;    0,418;    2,500
387,679; 4087,144;   -0,401;    0,045
388,270; 4229,513;   -2,401;    2,045
388,862; 4298,401;   -0,401;   -0,318
389,453; 4115,878;    1,054;    1,045
390,045; 4341,045;    3,236;   -2,682
390,636; 4333,136;    0,144;   -0,591
391,227; 4201,333;    2,054;   -0,045
391,819; 4293,432;    0,781;    0,773
392,410; 4376,638;    0,600;    0,045
393,001; 4310,996;    1,600;   -1,591
393,593; 4466,841;    0,600;   -0,045
394,184; 4367,901;    0,873;   -0,409
394,775; 4221,958;    1,146;    2,136
395,366; 4464,932;    1,782;    0,773
395,957; 4435,011;   -2,400;    0,136
396,548; 4619,954;    1,054;    2,682
397,139; 4835,042;    2,236;    0,591
397,730; 4606,831;    0,873;    0,955
398,321; 4628,142;    0,509;    0,955
398,912; 4621,139;   -0,764;    0,136
399,503; 4768,794;   -1,945;   -1,409
400,094; 4370,046;   -1,582;    1,682
400,685; 4259,165;    3,600;    0,045
401,276; 4286,001;   -0,400;   -0,955
401,867; 4489,641;   -1,127;    0,773
402,458; 4569,082;    1,509;   -2,318
403,048; 4600,671;    0,146;    0,591
403,639; 4266,785;    1,509;    0,864
404,230; 4555,045;    0,691;    0,318
404,821; 4530,158;   -0,127;    0,045
405,411; 4604,951;   -0,763;   -2,591
406,002; 4270,681;    3,237;   -1,136
406,592; 4284,399;    2,691;    0,045
407,183; 4406,295;    0,328;   -1,500
407,774; 4269,718;    1,419;   -0,136
408,364; 4521,133;    2,600;    0,409
408,954; 4290,867;   -0,036;    1,227
409,545; 4334,646;    1,873;    1,045
410,135; 3946,403;   -1,581;    0,500
410,726; 4066,398;    0,783;    0,318
411,316; 4391,099;    2,237;    0,773
411,906; 4134,247;    0,146;   -0,409
412,497; 3817,297;   -0,490;   -0,045
413,087; 4239,958;    0,783;   -0,227
413,677; 4475,049;   -2,490;    3,864
414,267; 4314,680;   -1,035;    1,409
414,857; 4304,485;    0,419;    4,227
415,448; 4506,280;   -0,763;    0,500
416,038; 4320,056;   -2,945;   -0,591
416,628; 4280,919;    0,965;    0,409
417,218; 4047,147;   -1,762;    3,318
417,808; 4243,497;    0,965;   -0,409
418,398; 4452,646;   -1,035;    2,682
418,988; 4399,575;   -2,217;    0,591
419,578; 4534,567;    3,601;    1,409
420,168; 4796,061;    0,692;   -0,955
420,757; 4525,022;    0,964;   -1,500
421,347; 4233,890;    1,601;   -0,227
421,937; 4344,684;    3,329;    1,409
422,527; 4363,610;    2,602;   -0,773
423,116; 4263,526;    2,692;   -0,045
423,706; 4436,983;    2,965;    0,318
424,296; 4335,624;    1,601;    0,682
424,885; 4715,260;    1,510;   -3,045
425,475; 4892,545;    1,147;   -2,864
426,065; 4790,382;   -1,489;   -0,318
426,654; 4547,184;    0,329;   -0,318
427,244; 4739,278;    1,147;    1,409
427,833; 4334,430;    1,056;   -0,500
428,423; 4561,785;    0,147;    1,136
429,012; 5097,498;    2,420;   -1,136
429,601; 4733,118;    2,057;    0,136
430,191; 4864,917;    2,511;    4,318
430,780; 4542,766;   -1,671;   -0,409
431,369; 4627,707;    1,329;   -0,045
431,959; 5029,756;    1,693;    0,500
432,548; 4844,718;   -1,398;   -0,045
433,137; 4902,873;    0,329;   -1,318
433,726; 5271,939;    0,148;    0,500
434,315; 4865,768;    0,148;    2,409
434,905; 4962,422;    0,693;    1,409
435,494; 4945,935;    3,148;    0,955
436,083; 5191,777;    1,420;   -0,955
436,672; 5033,660;    1,148;    0,500
437,261; 4859,597;    0,512;   -1,955
437,850; 4997,786;   -1,125;    0,682
438,439; 4965,008;    2,239;    1,955
439,027; 4895,991;    3,421;    1,773
439,616; 5135,598;    2,239;    1,227
440,205; 4926,670;    0,057;   -2,136
440,794; 4861,814;   -0,306;   -0,045
441,383; 5008,790;    1,603;   -0,591
441,971; 4899,071;   -0,306;    0,591
442,560; 4775,306;    0,603;   -1,773
443,149; 4581,245;    3,060;   -1,318
443,737; 4725,789;    0,968;   -2,318
444,326; 4883,072;    0,331;    0,318
444,915; 4898,961;   -1,851;    0,864
445,503; 5119,940;    0,058;   -0,318
446,092; 4788,286;    7,876;    2,136
446,680; 5141,571;    1,876;    0,318
447,269; 5206,491;   -1,487;   -0,318
447,857; 5027,083;    2,240;   -1,773
448,445; 5116,764;    2,149;    1,318
449,034; 5310,156;    0,876;   -1,136
449,622; 5313,290;    1,240;    3,500
450,210; 4975,968;    3,149;    2,227
450,799; 5308,725;    2,604;   -0,591
451,387; 5170,904;    1,786;   -0,591
451,975; 4966,973;   -1,305;    0,864
452,563; 5118,089;    0,422;    2,318
453,151; 5054,162;   -1,032;   -1,227
453,739; 4980,739;   -1,577;    0,136
454,328; 4968,435;    0,604;   -2,136
454,916; 4773,869;    1,150;   -0,136
455,504; 4864,689;    3,513;    1,227
456,092; 5004,232;    2,150;   -1,591
456,679; 4898,893;    0,604;    0,682
457,267; 5096,122;    3,604;    1,045
457,855; 5037,444;    3,241;    1,409
458,443; 4742,482;   -0,304;    1,682
459,031; 4971,925;    1,332;    2,409
459,619; 5270,802;   -3,577;    2,864
460,206; 5228,479;   -0,759;    2,045
460,794; 5312,008;   -0,668;   -0,227
461,382; 5459,138;    0,878;   -0,864
461,970; 5146,564;    0,605;    1,864
462,557; 5217,764;    0,878;   -0,682
463,145; 5395,456;   -0,304;   -1,682
463,732; 5504,749;    2,514;   -1,045
464,320; 5325,802;    1,514;   -3,045
464,907; 5171,034;    0,423;   -0,773
465,495; 5054,460;    2,696;   -1,227
466,082; 5146,232;    2,060;   -0,045
466,670; 4994,496;    2,605;    1,227
467,257; 5324,746;    0,060;    2,045
467,844; 5509,059;    1,514;    0,045
468,432; 5521,065;   -0,031;    3,500
469,019; 5185,898;    1,606;   -1,773
469,606; 5491,464;    0,969;    3,682
470,193; 5400,098;    2,151;    0,227
470,780; 5126,556;    0,333;    0,864
471,368; 5345,258;   -1,212;   -0,773
471,955; 5217,142;    1,060;   -0,682
472,542; 4942,644;   -0,303;   -1,136
473,129; 5062,932;   -0,485;    0,136
473,716; 4928,342;    0,060;    0,591
474,303; 5009,611;    1,333;   -0,864
474,890; 5197,931;    2,333;   -0,500
475,477; 5247,206;   -0,576;    0,409
476,064; 5170,824;    0,697;   -1,591
476,650; 5075,517;    2,152;    0,318
477,237; 4962,517;    1,879;    0,955
477,824; 5080,973;    3,879;    0,864
478,411; 5048,618;    0,606;   -0,318
478,997; 5157,886;    0,606;   -0,773
479,584; 5207,987;   -0,666;   -0,409
480,171; 5717,832;    1,243;   -0,773
480,757; 5534,832;   -0,848;    0,773
481,344; 5650,813;    0,334;    0,409
481,931; 5222,484;   -0,393;    1,045
482,517; 5875,831;    0,425;    0,318
483,104; 6170,882;    1,334;    2,864
483,690; 6274,557;    0,243;    0,045
484,276; 6409,887;    0,698;    0,227
484,863; 6296,779;    2,152;    1,136
485,449; 6627,665;    0,152;    0,318
486,035; 6563,671;   -0,666;   -0,136
486,622; 6926,581;   -2,393;    0,045
487,208; 6818,626;    1,334;    1,500
487,794; 6787,826;    0,971;    0,318
488,380; 6874,990;    0,698;   -1,409
488,967; 6867,586;   -1,120;   -0,409
489,553; 6919,818;   -1,029;   -1,409
490,139; 7052,981;    0,971;    0,773
490,725; 6727,015;    0,789;   -0,227
491,311; 6457,966;    1,516;    3,045
491,897; 5975,187;   -0,665;    1,500
492,483; 6014,911;    0,426;    1,227
493,069; 6180,800;    5,426;    0,864
493,655; 5947,455;    1,789;    0,682
494,241; 5868,678;    1,517;   -0,955
494,826; 6135,866;    0,335;   -1,045
495,412; 5723,607;    0,335;   -0,682
495,998; 5862,631;    0,971;   -0,318
496,584; 5894,083;    2,244;    1,045
497,169; 5800,545;    2,335;   -0,682
497,755; 5789,633;    1,244;    1,227
498,341; 6269,956;    2,153;    0,318
498,926; 5962,725;    2,881;    1,955
499,512; 6033,338;   -0,028;    2,955
500,097; 5971,322;   -0,574;   -0,318
500,683; 5971,257;   -0,028;    2,136
501,268; 6263,176;    1,881;   -0,955
501,854; 6116,499;   -0,119;    1,227
502,439; 6028,983;   -0,573;   -1,773
503,024; 6093,467;    1,608;    0,500
503,610; 6140,988;    1,335;   -0,682
504,195; 6109,115;    1,245;    1,955
504,780; 6229,531;    2,335;    1,227
505,366; 6163,817;    4,063;    2,864
505,951; 5955,050;   -1,119;    1,045
506,536; 5997,350;    1,427;   -3,682
507,121; 5947,664;    1,699;   -0,318
507,706; 6295,157;   -0,392;    1,045
508,291; 6478,275;   -2,937;    1,136
508,876; 6080,305;   -0,482;    2,591
509,461; 5760,578;    1,427;   -0,773
510,046; 6081,965;   -0,391;    0,318
510,631; 6201,684;   -0,119;   -0,773
511,216; 5984,184;   -0,664;   -0,500
511,801; 6317,647;   -0,755;    2,591
512,386; 6396,743;    0,972;    0,500
512,971; 6343,409;    0,427;    0,955
513,555; 6069,663;    1,154;   -1,500
514,140; 6625,890;    1,336;   -3,136
514,725; 6566,623;    1,791;   -1,136
515,309; 6628,727;    1,064;    0,318
515,894; 6339,033;   -0,300;   -2,227
516,479; 6587,556;    1,973;   -0,955
517,063; 6385,985;    0,882;    1,227
517,648; 6551,068;    0,155;   -1,136
518,232; 6161,201;   -1,300;   -1,409
518,817; 6458,092;    1,337;    1,682
519,401; 6657,090;    0,700;    0,591
519,985; 6189,290;    2,700;    1,136
520,570; 6128,355;   -0,118;   -1,955
521,154; 6368,765;    0,064;    0,591
521,738; 6504,430;    1,064;    2,409
522,323; 6946,323;   -0,390;    1,682
522,907; 6719,377;    2,428;   -0,136
523,491; 6511,689;    1,155;    0,955
524,075; 6477,579;    0,428;    0,591
524,659; 6545,040;    0,973;    0,591
525,243; 6195,318;    0,883;    0,409
525,827; 6339,244;    0,883;   -0,045
526,411; 6850,858;    1,155;   -0,136
526,995; 7083,276;    0,337;    1,409
527,579; 6764,513;    1,974;   -1,045
528,163; 6940,583;    0,428;   -1,500
528,747; 6979,185;    1,065;   -0,773
529,331; 7126,347;    0,883;   -1,409
529,915; 7134,411;    2,338;    0,955
530,499; 7139,579;    0,247;    1,227
531,082; 6890,245;    1,065;    1,591
531,666; 6595,449;    0,520;    0,773
532,250; 7009,984;    0,428;    2,682
532,833; 7208,946;    0,610;    2,773
533,417; 7125,956;    1,247;    0,864
534,001; 6991,883;    0,429;   -0,318
534,584; 7504,442;    1,974;    0,500
535,168; 7349,537;    3,247;    1,409
535,751; 7400,961;    4,520;    0,045
536,334; 6930,714;    4,520;   -0,409
536,918; 7417,599;    1,974;    1,591
537,501; 7411,568;    1,520;    1,318
538,085; 7416,962;    1,702;    1,045
538,668; 7416,398;    0,883;    2,409
539,251; 7723,561;    3,156;    3,773
539,834; 7773,933;    0,156;    0,773
540,418; 7714,431;    3,247;    4,318
541,001; 7733,253;    2,702;    1,773
541,584; 7706,817;    1,429;    2,227
542,167; 7458,801;    0,702;    2,955
542,750; 7475,204;    0,793;   -0,773
543,333; 7095,799;    1,429;    2,136
543,916; 7741,044;   -0,298;    2,500
544,499; 8034,825;    2,520;    0,227
545,082; 8069,213;    0,248;    3,591
545,665; 8178,518;   -0,207;    1,500
546,248; 8315,163;    0,520;   -0,318
546,830; 8083,659;   -1,752;    1,955
547,413; 8374,094;    0,157;   -0,773
547,996; 8774,369;    0,157;    0,500
548,579; 8511,454;   -0,843;    0,955
549,161; 8383,660;    0,884;    2,682
549,744; 8198,108;    0,612;    0,409
550,326; 8594,195;    0,885;   -1,136
550,909; 8440,149;    2,339;    0,591
551,492; 8682,753;    0,521;    0,227
552,074; 8521,146;   -0,024;   -1,318
552,657; 8951,448;    2,430;    0,045
553,239; 8796,028;   -3,024;   -0,773
553,821; 8773,526;   -1,570;    1,045
554,404; 8338,754;   -0,024;    1,136
554,986; 8599,636;    2,248;    1,045
555,568; 9004,762;    0,430;   -0,955
556,151; 8491,470;    4,067;   -0,227
556,733; 8620,420;   -1,388;   -0,864
557,315; 8905,077;    4,703;    0,500
557,897; 8593,980;    0,521;   -0,500
558,479; 8743,263;    1,703;    1,318
559,061; 8863,106;    1,067;   -0,864
559,643; 9098,668;   -0,297;    0,045
560,225; 9257,604;   -0,388;    2,864
560,807; 9286,123;    0,340;    0,318
561,389; 8956,186;   -1,206;    2,318
561,971; 9327,011;   -0,660;    2,136
562,553; 9273,709;    0,613;    1,591
563,135; 9404,958;    1,249;    1,136
563,717; 9081,536;    3,158;    1,136
564,298; 9511,892;    3,976;   -0,045
564,880; 9213,920;    0,340;   -1,409
565,462; 9293,101;    1,977;    1,318
566,043;10137,689;   -0,933;    2,318
566,625; 9719,009;    4,067;    1,227
567,207; 9584,697;    0,704;    1,682
567,788;10252,731;   -0,114;    1,500
568,370;10756,889;   -1,841;   -0,500
568,951;10435,019;   -0,569;    0,227
569,533;11032,313;    0,977;   -0,500
570,114;11311,274;   -0,296;    0,682
570,695;11499,234;   -0,478;   -1,318
571,277;11666,389;   -0,205;   -1,682
571,858;12154,971;    2,704;   -1,136
572,439;12617,940;    0,795;   -1,045
573,021;12620,065;    0,432;   -2,773
573,602;12911,321;    1,795;    0,318
574,183;13452,232;   -0,114;    2,227
574,764;13445,815;    2,068;    0,409
575,345;13594,473;    0,250;   -0,136
575,926;13953,937;    2,704;    0,136
576,507;13987,368;    2,704;   -0,227
577,088;14667,899;    1,704;    1,682
577,669;14711,434;    1,704;    1,955
578,250;15179,596;   -0,750;   -1,045
578,831;15354,325;   -0,841;   -2,227
579,412;15411,233;   -1,205;    0,955
579,993;16164,803;    1,432;    0,227
580,573;16374,497;   -0,023;   -0,955
581,154;15466,037;    1,613;   -0,591
581,735;16165,376;    0,341;    0,773
582,315;15729,285;    0,523;    2,136
582,896;15986,724;   -1,750;    1,227
583,477;15606,580;    0,614;    1,227
584,057;15768,243;    1,159;    0,955
584,638;15928,530;   -2,750;    2,318
585,218;16009,702;    2,886;    2,682
585,799;15993,552;    1,977;   -0,227
586,379;16055,354;    1,250;    1,591
586,959;15337,170;    2,613;    0,318
587,540;14996,788;    0,432;    2,227
588,120;14689,104;   -1,113;   -0,045
588,700;14147,942;    2,977;    2,136
589,281;14447,196;    1,250;   -0,955
589,861;14335,833;   -0,296;   -1,682
590,441;14243,282;   -1,477;   -2,682
591,021;13447,942;    1,432;   -2,591
591,601;13752,611;    0,431;    0,500
592,181;13870,361;   -1,296;   -0,773
592,761;13297,790;    2,250;    1,409
593,341;13368,567;    1,522;    0,045
593,921;13344,339;   -0,569;    1,591
594,501;13252,275;    1,250;    1,318
595,081;13150,722;    0,522;   -0,318
595,661;13509,092;    1,068;    0,955
596,240;13909,716;   -1,023;    0,136
596,820;13392,909;    2,613;    1,955
597,400;13370,159;    1,977;    0,773
597,980;13576,203;   -0,750;    1,045
598,559;13688,938;    0,341;   -0,227
599,139;13551,743;   -0,750;   -1,227
599,718;13421,652;    0,795;   -0,409
600,298;13648,589;   -2,387;    0,682
600,877;13874,060;    4,795;    1,409
601,457;14060,798;    0,340;    1,136
602,036;13989,204;    1,795;    2,045
602,616;14032,523;    2,250;    1,682
603,195;14247,482;    0,431;    3,500
603,774;13827,545;   -0,296;    2,045
604,354;13756,981;    2,522;   -0,500
604,933;13495,027;    0,250;    1,864
605,512;13626,369;    2,340;    0,591
606,091;13685,437;    1,886;    3,773
606,671;14244,827;    0,249;    0,773
607,250;13673,913;    1,431;    3,136
607,829;13816,646;    1,158;    3,227
608,408;13748,518;    4,613;    2,591
608,987;13075,359;    2,704;    3,409
609,566;13179,499;    0,341;   -2,500
610,145;13347,791;    2,885;    0,682
610,723;13751,978;    1,613;    6,864
611,302;13110,516;    1,067;    1,682
611,881;12696,862;    5,158;   11,227
612,460;13299,977;    0,795;    3,955
613,039;13636,217;    1,703;    2,045
613,617;12649,197;    0,886;    4,773
614,196;12737,809;    1,613;    1,227
614,775;13094,207;    1,249;    2,409
615,353;13050,262;   -1,660;    0,864
615,932;12904,287;    0,249;    2,409
616,510;13392,618;    0,158;    0,591
617,089;13085,948;    8,794;   17,591
617,667;13021,785;    4,885;    6,136
618,246;12799,462;   -1,115;    1,318
618,824;12918,893;    1,612;   -0,955
619,402;12602,936;    0,431;   -1,773
619,981;12961,374;    1,067;   -1,045
620,559;12915,061;    0,794;    1,682
621,137;12664,943;    3,067;    1,864
621,715;12492,312;    3,703;   -0,682
622,293;12436,976;    1,885;   -0,773
622,871;12977,713;    0,340;    0,500
623,450;12626,082;    0,430;   -0,864
624,028;12593,396;   -0,388;   -0,955
624,606;12261,753;    2,339;    1,682
625,183;12513,133;   -0,661;   -1,136
625,761;12323,453;    1,885;    1,136
626,339;12620,864;    2,339;    2,591
626,917;12828,545;    0,339;   -0,045
627,495;12902,235;    2,794;    1,318
628,073;12468,600;    5,248;    2,864
628,650;12231,260;    3,067;    2,136
629,228;12555,833;    1,248;    4,409
629,806;12032,529;   -0,024;    1,136
630,383;12258,324;    0,066;   -0,318
630,961;12185,089;   -2,206;   -0,955
631,539;11935,314;   -2,479;    0,227
632,116;11549,907;   12,703;   15,409
632,694;11955,502;    4,885;    6,500
633,271;12039,314;    1,975;    2,682
633,848;12116,101;    1,430;    2,045
634,426;12110,413;    1,521;    1,773
635,003;11511,114;   -0,207;   -0,409
635,580;11663,395;    1,884;    3,682
636,158;12057,774;    3,793;    1,227
636,735;12036,874;    3,339;   -0,500
637,312;12060,121;    0,521;   -0,682
637,889;12159,909;    2,248;   -0,682
638,466;11859,045;    0,066;   -0,409
639,043;11859,987;    1,702;   -1,136
639,620;11996,747;    0,611;   -0,955
640,197;12218,706;    1,612;    1,682
640,774;12442,450;    1,430;    1,136
641,351;12687,831;    0,612;    1,136
641,928;12331,393;    2,794;    1,409
642,505;12060,865;    0,794;   -0,500
643,082;12186,064;    1,885;    1,227
643,658;11493,354;    1,157;    1,500
644,235;11915,462;   -2,479;    2,500
644,812;12030,842;    1,794;    0,773
645,388;11926,496;    1,612;    1,409
645,965;11917,877;    1,521;    1,682
646,542;12029,348;    3,430;   -0,227
647,118;12178,820;    3,703;   -0,955
647,695;12293,746;    0,339;    1,136
648,271;12182,763;   -2,115;    0,500
648,848;12324,690;    0,248;    2,227
649,424;12264,888;    0,976;    1,318
650,000;11963,269;   -0,388;   -1,045
650,577;11938,377;    0,158;   -0,955
651,153;12252,485;   -1,115;    0,955
651,729;12817,866;    0,521;    0,864
652,305;12861,338;    1,339;    2,773
652,881;15005,991;   -1,297;    1,136
653,458;18384,645;    0,249;    0,227
654,034;20261,298;    0,703;    1,591
654,610;20903,315;    0,339;    0,773
655,186;21795,514;    1,612;    3,045
655,762;21546,986;   -1,842;    0,409
656,338;21624,185;    0,703;    0,136
656,913;22442,111;   -0,297;    0,409
657,489;21902,583;    0,249;   -0,318
658,065;21987,145;    0,794;   -1,591
658,641;22597,435;    2,158;   -0,864
659,217;22061,452;    2,067;    0,409
659,792;21564,378;   -1,751;   -0,409
660,368;21885,759;   -0,388;   -0,682
660,944;22012,231;    1,794;    1,227
661,519;19595,702;    0,522;    0,409
662,095;16436,629;   -0,206;    0,591
662,670;13961,918;   -0,206;   -0,136
663,246;13413,754;   -0,660;   -0,409
663,821;12994,225;    0,431;    1,682
664,396;12519,333;    0,613;    1,864
664,972;12727,260;   -0,660;   -0,500
665,547;12980,731;    3,794;    0,136
666,122;12936,567;    1,340;    0,318
666,698;13123,220;    2,431;    0,318
667,273;12540,419;    0,885;    0,136
667,848;13148,709;    0,340;    1,500
668,423;12940,090;    1,795;    2,318
668,998;13193,743;    0,976;   -0,682
669,573;13580,124;    2,067;   -1,500
670,148;13503,595;    1,885;   -0,682
670,723;13252,522;   -0,024;    0,318
671,298;13638,902;   -1,296;    1,045
671,873;13607,192;   -0,296;   -0,136
672,448;13587,028;    1,704;    0,136
673,023;13811,590;    0,249;   -0,227
673,597;14092,153;    2,704;    2,318
674,172;13929,897;    2,431;    0,318
674,747;13522,187;   -0,205;   -1,045
675,321;13312,386;   -0,933;    3,318
675,896;13067,767;    2,158;    1,045
676,471;13705,784;    2,522;    1,591
677,045;13515,346;   -0,296;    0,682
677,620;13459,545;    2,158;    1,136
678,194;13812,017;    0,249;    1,136
678,769;13534,943;    0,886;   -0,318
679,343;13688,778;   -0,023;    1,773
679,917;13570,250;    0,340;    1,955
680,492;13521,722;    0,249;    3,227
681,066;13608,830;    0,613;    0,409
681,640;13706,847;    1,795;   -0,318
682,214;14286,137;    2,340;    0,500
682,788;13865,790;    0,613;   -0,773
683,363;13741,262;    1,977;    1,682
683,937;13527,915;    0,886;   -0,318
684,511;14125,660;   -1,023;   -0,591
685,085;13928,131;   -1,478;    0,318
685,659;13679,785;    1,431;    0,864
686,232;13896,166;    1,159;   -0,318
686,806;13734,546;    2,159;    0,409
687,380;14161,018;   -1,932;    0,591
687,954;14392,126;    2,432;    1,136
688,528;14065,416;    2,613;    1,955
689,101;14674,615;    0,432;    1,045
689,675;14282,450;    0,886;   -0,136
690,249;13789,649;    3,432;    0,409
690,822;14132,302;    1,159;    0,318
691,396;14192,956;    2,068;    1,227
691,969;13845,519;    2,523;    0,136
692,543;14214,627;   -0,568;   -1,955
693,116;13896,007;   -0,659;   -1,409
693,690;13841,297;   -0,296;    0,500
694,263;14216,678;    2,341;    2,955
694,836;14296,331;    2,795;    3,591
695,410;13303,258;    1,159;    1,773
695,983;13584,638;    1,614;    0,591
696,556;13624,565;   -0,750;   -1,045
697,129;13881,854;   -1,114;    1,409
697,703;13632,144;    1,341;    1,955
698,276;13709,707;    1,705;   -0,773
698,849;13490,360;   -1,023;    1,409
699,422;13771,650;    1,250;    0,591
699,995;13611,304;   -0,659;    0,136
700,568;13977,502;   -0,204;    3,045
701,140;13923,065;   -1,841;    1,682
701,713;13814,264;    0,341;    2,409
702,286;13628,372;    0,796;    0,864
702,859;13441,389;    0,614;   -0,591
703,432;12968,679;   -0,841;    0,682
704,004;13256,423;    1,978;    0,318
704,577;13122,804;    1,068;    0,136
705,150;13524,276;    0,887;    2,500
705,722;13465,747;    1,523;   -3,227
706,295;13348,037;    1,432;   -0,591
706,867;13114,054;    0,250;    1,955
707,440;13378,981;   -0,113;   -0,409
708,012;13517,816;   -0,022;    0,591
708,584;13410,378;    2,705;    0,227
709,157;13683,577;    1,160;   -0,591
709,729;13540,776;    1,069;    2,045
710,301;14094,339;   -1,204;    0,045
710,874;14136,174;    0,341;   -0,227
711,446;13175,555;   -0,295;    0,864
712,018;13127,572;   -3,022;    0,500
712,590;12920,407;   -0,204;    1,682
713,162;13322,152;   -0,477;    1,318
713,734;13501,987;    1,796;   -2,045
714,306;13458,277;    0,342;   -0,409
714,878;12563,203;   -0,295;    0,864
715,450;13215,766;   -0,113;    0,864
716,022;13428,783;    2,433;    1,318
716,593;13599,800;    0,978;    0,591
717,165;13531,544;    1,796;   -1,227
717,737;13344,561;    0,796;    0,409
718,309;13128,397;    1,160;   -0,045
718,880;13078,414;   -1,295;   -1,409
719,452;13295,158;    0,887;   -1,591
720,024;13020,539;    1,705;   -0,591
720,595;13372,465;    2,978;    0,955
721,167;13040,846;    1,160;   -2,045
721,738;12693,136;    2,069;   -1,045
722,309;12690,880;    1,251;   -1,227
722,881;12536,261;    2,705;    0,773
723,452;12998,551;    1,251;    2,864
724,023;13203,113;    1,524;    2,682
724,595;13065,312;    2,342;    0,682
725,166;12826,693;    1,524;   -0,409
725,737;12537,346;    1,887;    0,227
726,308;12673,727;    0,797;    0,318
726,879;12910,835;    1,069;    1,227
727,450;12788,307;   -2,022;   -0,045
728,021;12725,051;    1,069;    0,682
728,592;12708,159;    1,160;    0,500
729,163;12944,176;    1,433;   -0,136
729,734;12836,284;    2,160;   -0,227
730,305;13102,301;    0,615;    0,136
730,876;13347,137;    0,888;    2,955
731,447;13182,608;    0,797;    2,682
732,017;13217,262;   -0,840;    1,864
732,588;12971,552;   -0,021;    1,227
733,159;13043,114;    3,615;   -1,045
733,729;12842,495;    1,251;    0,409
734,300;12396,694;    0,160;    0,864
734,870;12692,347;   -1,385;    0,591
735,441;13065,365;    0,888;   -0,591
736,011;12838,018;    1,070;   -1,591
736,582;12801,762;    1,251;    0,045
737,152;12294,780;    0,979;   -2,045
737,722;12789,524;    1,070;   -0,682
738,293;12559,359;   -2,021;    1,318
738,863;12520,104;    1,797;    2,318
739,433;12434,303;    4,524;    0,318
740,003;12914,501;    1,524;   -0,682
740,573;12521,700;    2,252;   -1,591
741,143;12553,627;    3,615;    0,318
741,713;13045,735;    0,252;   -0,500
742,283;12857,934;    1,706;    1,591
742,853;12705,405;    0,524;    1,591
743,423;12290,241;    0,161;    0,045
743,993;12327,258;    1,070;    1,500
744,563;11888,184;    2,524;   -0,864
745,133;11861,019;   -0,112;   -0,864
745,702;12437,491;    2,797;    1,773
746,272;11818,872;    0,434;    0,591
746,842;11768,525;   -0,748;   -0,591
747,411;12116,088;   -0,839;   -0,318
747,981;12151,832;   -0,930;    0,500
748,551;12223,940;   -0,021;   -1,045
749,120;12144,139;   -0,112;   -0,227
749,690;12414,611;    2,161;    2,409
750,259;12611,810;    0,979;    2,955
750,828;12462,099;    4,070;   -1,955
751,398;12659,753;   -0,112;   -0,045
751,967;12320,406;    2,888;    0,409
752,536;12472,514;    1,161;   -0,227
753,105;12834,713;   -1,384;    0,227
753,675;12580,367;   -0,112;    1,773
754,244;12510,566;    0,888;    3,591
754,813;12531,310;    0,979;    1,227
755,382;12206,054;    0,798;    0,955
755,951;12502,526;   -0,112;    3,682
756,520;12286,725;    2,525;    1,864
757,089;12727,379;    1,888;    0,500
757,658;12728,396;    2,434;    1,227
758,227;12761,140;   -1,111;    0,318
758,795;12913,884;   -1,021;    1,136
759,364;13242,629;    0,525;   -0,591
759,933;12436,737;    1,343;   -0,045
760,501;12199,663;    0,252;   -1,318
761,070;12467,498;   -0,293;   -1,409
761,639;13061,879;    1,434;    1,318
762,207;12441,805;    0,889;   -0,955
762,776;12423,277;    2,889;    0,864
763,344;12424,294;    0,071;    0,591
763,913;11666,766;    1,616;    1,409
764,481;12357,510;    1,980;   -0,136
765,049;12298,891;    0,616;    1,409
765,618;12161,181;    1,434;    0,318
766,186;12241,925;    2,434;    0,136
766,754;12428,033;    1,798;    1,864
767,322;11719,141;    1,162;    0,409
767,890;11674,704;    0,525;   -1,773
768,459;12054,994;    2,616;   -0,318
769,027;12191,102;    2,525;    3,409
769,595;11455,210;    2,616;    2,591
770,163;11742,863;    3,344;    2,955
770,730;11618,971;    2,525;   -0,136
771,298;11547,988;    1,162;   -1,409
771,866;11655,733;    0,253;    4,955
772,434;11809,022;    1,162;   -1,864
773,002;12047,676;    2,616;    0,682
773,569;11801,420;    1,071;    1,682
774,137;11629,165;    0,889;   -0,045
774,705;12238,727;   -0,747;   -0,136
775,272;11881,199;    0,253;    0,682
775,840;11887,580;   -0,111;    2,682
776,407;11400,960;   -0,293;    1,955
776,975;10978,796;    1,162;    0,318
777,542;11807,904;    2,162;   -0,045
778,110;11743,466;    0,707;   -0,045
778,677;11455,756;    1,071;   -0,864
779,244;11308,682;   -1,020;    1,045
779,812;11429,245;    0,980;    0,864
780,379;11297,444;    2,435;    1,136
780,946;11501,279;    2,617;   -0,773
781,513;11676,660;   -0,565;    0,318
782,080;11176,132;    1,253;    2,864
782,647;11769,149;    1,708;    3,045
783,214;11455,893;   -0,201;    3,864
783,781;11145,637;    1,708;   -0,682
784,348;11158,473;    0,253;    1,500
784,915;11463,217;   -1,474;    0,318
785,482;11281,689;    2,708;    2,591
786,049;11698,070;    1,071;   -0,591
786,615;11786,996;    1,708;   -0,955
787,182;11599,649;   -3,201;   -0,682
787,749;11395,939;   -2,201;    1,409
788,315;10860,411;    0,253;   -0,409
788,882;11185,701;    0,981;   -1,227
789,448;11643,354;    1,435;   -0,955
790,015;11616,098;    1,799;    3,227
790,581;11344,388;    0,708;    0,227
791,148;11201,860;    1,344;    1,045
791,714;11374,332;   -1,019;    3,136
792,280;11220,167;    3,708;    1,591
792,847;11010,820;   -0,928;    2,500
793,413;11300,747;   -0,110;   -0,318
793,979;11031,400;    1,526;   -1,318
794,545;11115,872;    2,981;    2,682
795,111;10725,889;    2,435;    1,318
795,678;10799,088;    3,526;   -1,682
796,244;10627,014;    2,799;    0,136
796,810;11021,031;    0,799;    0,773
797,375;10822,503;   -0,292;   -2,136
797,941;10727,793;   -1,110;    0,591
798,507;10796,991;    0,254;   -0,955
799,073;10532,736;    2,708;    0,591
799,639;10696,480;    1,435;    3,136
800,205;10687,679;   -1,565;    2,682
800,770;10386,878;    1,345;    1,773
801,336;10301,713;    2,981;   -0,955
801,901;10231,185;    6,072;    3,136
802,467;10685,020;    0,526;    2,045
803,033;10104,219;   -0,019;    0,864
803,598;10226,327;    1,072;   -1,045
804,163;10350,163;    0,708;   -0,318
804,729;10323,543;   -0,110;    1,136
805,294;10486,470;    1,072;    2,227
805,859;10421,578;    0,890;   -0,409
806,425;10202,231;    3,890;    2,682
806,990; 9943,339;    1,890;    4,318
807,555;10207,356;   -0,110;    2,591
808,120;10210,555;   -1,292;   -0,409
808,685;10194,663;    1,072;   -2,500
809,250; 9858,862;    2,072;   -0,500
809,815;10076,879;   -0,201;    0,682
810,380;10432,169;    0,981;    1,591
810,945;10739,732;    2,890;    2,045
811,510;10299,931;   -0,200;    1,591
812,075;10006,493;    2,800;   -1,409
812,640;10077,874;    3,709;    1,409
813,204;10169,164;    2,163;   -0,227
813,769;10564,908;    0,254;   -0,045
814,334;10164,834;    0,527;    0,864
814,898;10207,397;    1,981;    0,591
815,463;10017,959;    0,981;   -0,773
816,027;10007,340;    1,345;   -2,318
816,592;10179,812;    2,163;   -2,045
817,156; 9798,829;   -2,200;    1,136
817,721; 9701,937;    0,982;    2,318
818,285; 9759,681;    0,618;    1,500
818,849;10219,062;   -0,018;    1,682
819,414;10045,988;    0,073;    2,955
819,978; 9745,460;   -0,291;    1,773
820,542;10261,477;    2,891;    0,500
821,106;10141,131;    2,800;    0,682
821,670;10136,966;    2,709;    2,591
822,234; 9875,619;    1,073;    1,409
822,798; 9546,546;   -0,836;    0,500
823,362; 9664,017;    1,527;    4,227
823,926; 9205,216;   -0,018;    1,136
824,490; 9320,233;    3,527;   -0,682
825,054; 9632,796;    2,527;   -1,136
825,618; 9396,904;   -1,200;   -1,500
826,181; 9315,648;    0,982;   -1,318
826,745; 9227,665;   -0,745;   -1,045
827,309; 9571,410;    2,255;    1,318
827,872; 9168,518;    0,527;    0,955
828,436; 9837,898;    1,982;   -0,773
828,999; 9969,734;    2,436;    1,227
829,563; 9259,387;   -0,654;    1,136
830,126; 9118,768;   -0,018;   -0,591
830,690; 9113,240;    0,709;    2,864
831,253; 8684,620;   -0,473;    2,227
831,816; 8834,547;   -0,018;    0,500
832,380; 8758,200;    1,164;    0,864
832,943; 8955,581;    3,073;   -0,500
833,506; 8659,052;    0,255;   -1,227
834,069; 9263,888;    2,164;   -0,955
834,632; 9312,541;   -2,200;    1,318
835,195; 9212,740;    1,346;    0,955
835,758; 8717,666;    0,709;    1,955
836,321; 8574,774;    1,073;   -1,045
836,884; 8679,973;   -1,291;   -0,955
837,447; 8722,172;    0,528;    1,773
838,010; 8841,098;    1,800;    3,227
838,573; 9130,752;    0,528;    0,773
839,135; 9106,224;   -0,109;   -0,955
839,698; 8661,513;    2,528;    0,409
840,261; 8370,712;    0,255;   -0,227
840,823; 8320,002;   -0,927;    0,864
841,386; 8506,747;   -0,018;   -2,409
841,948; 8525,946;    0,255;    1,773
842,511; 8260,781;    0,255;    1,682
843,073; 8401,889;    2,982;    0,227
843,636; 8262,724;    0,619;   -0,227
844,198; 8215,650;    1,255;    0,591
844,760; 8338,577;    0,619;    1,955
845,322; 8030,776;    0,164;    1,136
845,885; 8361,065;   -0,290;    0,591
846,447; 8687,628;    0,710;    0,227
847,009; 8430,190;    3,983;   -0,682
847,571; 8577,753;    1,346;   -2,045
848,133; 8643,043;   -0,199;   -1,864
848,695; 8518,787;    2,346;    1,409
849,257; 8246,804;    1,346;   -1,682
849,819; 8435,822;    2,983;   -0,409
850,381; 8373,384;    1,801;   -0,864
850,942; 8597,401;    1,892;   -0,591
851,504; 8473,600;    0,983;    0,227
852,066; 8572,345;    1,619;   -1,591
852,628; 8365,998;    0,165;    1,955
853,189; 7967,015;    0,256;    2,682
853,751; 8164,487;   -0,654;    1,409
854,312; 8038,868;    1,256;   -1,682
854,874; 8386,157;   -0,108;   -0,773
855,435; 8618,993;    0,528;   -1,682
855,997; 8764,464;    3,983;   -0,136
856,558; 8214,300;    0,801;    1,773
857,119; 8283,408;   -0,744;    2,864
857,681; 8078,607;   -0,108;    0,318
858,242; 8110,442;    1,347;   -2,136
858,803; 8482,641;    1,074;   -0,773
859,364; 8848,203;    0,892;   -4,773
859,925; 8496,766;   -0,290;   -0,955
860,486; 8436,147;    0,529;   -0,955
861,047; 8198,346;    0,165;   -1,227
861,608; 8091,726;    0,165;   -0,773
862,169; 8284,289;   -0,562;   -0,045
862,730; 8048,306;   -0,290;    1,409
863,291; 8274,505;    0,438;   -0,500
863,852; 8398,886;   -0,926;    1,955
864,412; 8069,903;   -1,835;   -0,864
864,973; 7181,011;    1,892;    0,500
865,534; 7120,119;    2,074;    0,227
866,094; 8036,409;    2,620;    0,227
866,655; 7805,608;    4,711;    3,318
867,215; 8080,534;    0,074;    0,136
867,776; 8017,187;   -1,199;   -0,136
868,336; 8049,477;    1,529;    0,136
868,897; 7766,403;    3,438;    1,682
869,457; 7650,693;    3,256;    0,318
870,017; 7833,892;    2,438;   -1,227
870,578; 8166,637;    1,893;    0,773
871,138; 7779,017;    2,620;   -0,955
871,698; 7483,943;   -0,562;   -1,318
872,258; 7366,051;    0,711;   -2,864
872,818; 7719,796;    2,347;    0,045
873,378; 7714,086;   -2,198;    1,045
873,938; 7424,648;    4,984;    0,500
874,498; 7618,938;    1,256;   -1,955
875,058; 7529,955;    4,347;    1,773
875,618; 7464,336;    1,438;   -2,682
876,177; 7422,808;   -0,471;    0,136
876,737; 7125,916;   -0,289;    1,955
877,297; 7257,387;    2,711;    1,955
877,856; 7289,404;    2,529;    0,318
878,416; 7190,694;    2,438;   -0,136
878,976; 7332,166;    3,438;    0,409
879,535; 7525,183;    4,529;    3,136
880,095; 7408,837;    1,347;    0,045
880,654; 7403,763;    0,347;    1,318
881,213; 7532,598;    2,347;    1,500
881,773; 7235,797;    1,984;    2,682
882,332; 7617,814;    6,075;    5,136
882,891; 7446,104;    0,711;    2,136
883,451; 7688,030;   -2,016;    1,682
884,010; 7305,593;   -1,107;   -0,409
884,569; 7393,792;   -2,289;   -0,045
885,128; 7527,627;   -0,743;   -1,864
885,687; 7597,917;   -0,743;    0,682
886,246; 7418,752;    2,620;    2,136
886,805; 7130,406;    1,620;    2,045
887,364; 7281,877;    1,166;   -0,500
887,922; 7525,167;   -0,016;    0,045
888,481; 7164,275;    1,530;    0,591
889,040; 7434,019;    3,711;    2,136
889,599; 7774,218;    2,166;    1,409
890,157; 7839,145;    2,166;    2,409
890,716; 7511,798;    2,166;    0,227
891,274; 7353,452;    0,075;   -1,136
891,833; 7638,469;    1,166;    0,864
892,391; 7472,849;    1,802;    0,500
892,950; 7636,503;    0,166;   -0,773
893,508; 7830,065;    0,984;   -0,409
894,067; 7361,446;   -0,379;    0,136
894,625; 7339,645;   -1,016;   -1,500
895,183; 7467,026;   -0,198;   -0,682
895,741; 7488,043;    2,257;   -1,773
896,299; 7329,969;    1,621;   -2,409
896,858; 7446,532;    1,530;   -1,591
897,416; 7607,913;    0,166;   -1,318
897,974; 7454,202;   -2,197;    0,318
898,532; 7655,219;    6,530;    2,682
899,089; 7493,964;    0,621;   -0,682
899,647; 7517,799;    0,530;    1,318
900,205; 7435,362;    0,257;    1,045
900,763; 7561,470;    2,166;    0,227
901,321; 7597,850;    3,530;   -1,409
901,878; 7173,686;    3,257;   -0,773
902,436; 7122,430;    0,257;    1,318
902,994; 7609,902;    6,712;    3,682
903,551; 7138,828;    1,439;    0,409
904,109; 7443,663;    1,530;   -1,409
904,666; 7222,044;    1,439;    1,045
905,224; 7057,698;    3,894;   -0,409
905,781; 6950,078;   -0,470;   -0,318
906,338; 6957,732;    0,167;    1,045
906,895; 6938,476;    1,894;    2,045
907,453; 6903,857;    2,348;    1,136
908,010; 6899,238;    3,348;    0,409
908,567; 6676,164;   -0,561;    0,591
909,124; 6342,090;    2,439;   -1,500
909,681; 6383,198;   -1,288;    0,682
910,238; 6666,306;   -0,106;   -1,318
910,795; 6925,687;   -1,561;   -1,136
911,352; 6713,778;   -0,379;   -2,682
911,909; 6293,596;    2,803;   -0,864
912,466; 6638,323;    1,985;    1,500
913,022; 6252,960;   -0,924;    0,500
913,579; 6562,596;   -0,470;    2,045
914,136; 6404,960;   -2,561;    0,955
914,692; 6686,778;    1,530;   -1,227
915,249; 6329,232;    0,530;    0,409
915,806; 6439,596;    1,803;    1,955
916,362; 6370,414;    0,894;    1,864
916,918; 6024,869;    2,439;    1,045
917,475; 6107,869;    1,621;    0,955
918,031; 6160,960;    0,076;   -0,045
918,587; 5868,778;    0,621;   -0,318
919,144; 6065,778;   -0,379;    0,227
919,700; 6213,414;    0,167;    0,773
920,256; 5918,778;    0,439;    0,045
920,812; 5725,232;    1,439;   -1,045
921,368; 5797,596;    1,348;   -1,045
921,924; 5570,687;    0,439;   -0,136
922,480; 5315,505;    0,076;    1,227
923,036; 5729,687;   -0,652;    1,955
923,592; 5749,687;    0,621;    0,318
924,148; 5711,414;    1,894;   -0,955
924,704; 5349,414;    0,258;   -0,409
925,259; 5612,051;   -0,561;    0,591
925,815; 5403,232;    3,803;    0,500
926,371; 5126,414;    3,530;    1,409
926,926; 5101,323;    1,621;    0,591
927,482; 4915,323;    1,621;    0,773
928,037; 4872,869;   -0,833;    2,045
928,593; 5161,505;    0,258;    1,045
929,148; 5009,323;    1,167;   -1,500
929,704; 4775,869;    2,439;   -0,500
930,259; 4801,505;    0,894;   -0,136
930,814; 4391,141;    1,803;    1,955
931,369; 4263,323;    0,258;   -0,773
931,925; 4171,232;   -1,924;    0,136
932,480; 4121,505;    3,076;   -2,591
933,035; 4270,141;    3,985;   -0,318
933,590; 4099,141;   -1,742;   -1,773
934,145; 3836,869;   -1,288;   -0,318
934,700; 4034,141;    0,348;   -0,591
935,255; 3988,778;    4,803;    0,045
935,809; 3769,960;    6,258;    0,864
936,364; 3197,778;    2,167;   -0,136
936,919; 3264,505;    2,348;   -1,773
937,474; 3201,051;    1,348;    0,136
938,028; 3116,323;    3,076;    1,136
938,583; 3042,687;    6,348;    4,682
939,138; 3062,596;    0,167;    2,136
939,692; 2747,960;   -1,015;   -1,136
940,247; 2578,960;    1,167;   -1,045
940,801; 2492,960;    0,621;    0,227
941,355; 2443,960;    0,439;    2,591
941,910; 2198,596;    0,712;   -2,136
942,464; 2299,778;    2,712;   -0,318
943,018; 2383,687;    3,258;   -0,227
943,572; 2275,505;    2,803;   -0,682
944,126; 2033,051;   -0,924;   -0,409
944,681; 1899,596;    0,712;    0,227
945,235; 1867,960;    2,167;   -0,591
945,789; 1821,505;    1,258;   -1,864
946,342; 2117,323;   -0,561;   -0,591
946,896; 1838,869;    0,348;    0,955
947,450; 1680,960;   -0,561;   -0,227
948,004; 1977,323;    1,076;   -0,045
948,558; 1854,960;    1,258;   -0,864
949,111; 1800,141;   -1,197;   -0,318
949,665; 2002,960;   -0,106;   -0,682
950,219; 1887,960;    0,621;   -1,045
950,772; 1859,141;    0,258;    1,864
951,326; 1847,323;   -1,106;   -0,955
951,879; 1813,596;    1,076;   -2,318
952,433; 1906,960;    1,348;    2,227
952,986; 1731,232;    0,348;    0,682
953,539; 1650,960;    1,530;    0,591
954,093; 1628,960;    0,985;   -1,318
954,646; 1785,323;   -0,288;    1,318
955,199; 1632,323;    1,258;   -0,500
955,752; 1741,596;    1,985;    1,773
956,305; 1611,596;    0,894;    2,955
956,858; 1714,505;    0,621;   -0,318
957,411; 1855,051;    3,621;    2,136
957,964; 1660,596;    2,076;    2,136
958,517; 1605,960;    0,985;    3,136
959,070; 1542,596;   -1,197;    1,955
959,623; 1792,778;    1,076;    1,500
960,176; 1641,051;    0,712;    2,045
960,728; 1608,778;    1,712;    0,773
961,281; 1633,687;    2,258;    0,500
961,834; 1574,414;   -0,833;    0,864
962,386; 1531,869;    1,258;    1,045
962,939; 1467,323;    3,439;   -0,318
963,491; 1566,778;    2,621;    1,136
964,043; 1472,232;    0,076;    2,409
964,596; 1652,778;    1,712;    2,227
965,148; 1497,687;   -0,379;    1,773
965,700; 1418,960;   -0,015;   -0,227
966,253; 1609,596;   -0,833;    0,318
966,805; 1522,414;    1,894;    0,773
967,357; 1467,869;    0,439;   -1,500
967,909; 1524,778;    1,167;   -1,227
968,461; 1485,687;    0,894;    3,136
969,013; 1416,414;   -1,561;   -0,864
969,565; 1556,414;    1,803;   -1,136
970,117; 1851,687;    3,803;    1,045
970,669; 1539,778;    3,258;   -0,136
971,220; 1331,596;    2,167;   -1,500
971,772; 1363,869;    1,348;   -0,318
972,324; 1500,778;   -1,197;   -0,500
972,876; 1406,232;    0,167;   -0,045
973,427; 1556,960;   -1,197;   -1,045
973,979; 1592,323;    0,076;   -2,500
974,530; 1427,596;    0,803;    1,318
975,082; 1467,778;    2,167;    1,682
975,633; 1399,414;    2,894;    1,682
976,184; 1563,687;    2,076;    0,773
976,736; 1461,051;    0,348;    0,227
977,287; 1368,596;    0,258;   -0,500
977,838; 1422,051;   -0,924;   -0,318
978,389; 1454,960;    0,803;   -0,500
978,940; 1291,596;    1,258;   -0,409
979,491; 1300,414;    2,258;   -0,500
980,042; 1347,141;   -0,652;    3,045
980,593; 1352,778;    1,894;    0,227
981,144; 1489,778;    3,530;   -0,500
981,695; 1547,778;   -0,470;    1,500
982,246; 1460,505;   -1,833;    1,045
982,797; 1398,141;   -0,561;    0,682
983,347; 1582,960;    2,167;    0,591
983,898; 1799,778;    4,167;    0,409
984,449; 1695,505;    2,530;    0,773
984,999; 1493,505;    1,894;   -1,136
985,550; 1387,778;    3,167;   -0,318
986,100; 1283,232;    0,712;   -0,318
986,651; 1287,960;    0,258;    0,045
987,201; 1314,687;    0,894;   -0,591
987,751; 1383,323;   -0,288;    2,864
988,302; 1412,778;   -0,379;    1,500
988,852; 1424,232;    1,985;   -1,136
989,402; 1519,778;    0,985;    0,682
989,952; 1500,960;    1,621;    0,864
990,502; 1422,778;    1,076;    0,682
991,052; 1317,051;   -0,106;    0,045
991,602; 1283,414;    1,167;    1,318
992,152; 1348,414;    2,803;    0,682
992,702; 1362,051;    1,167;   -0,045
993,252; 1290,323;    0,076;   -0,500
993,802; 1396,232;    1,167;    1,318
994,352; 1470,141;   -0,742;    1,136
994,901; 1452,414;    1,076;    3,227
995,451; 1406,232;   -1,197;    0,318
996,000; 1458,960;    1,076;    0,318
996,550; 1318,505;    2,894;    0,227
997,100; 1362,051;   -0,561;   -0,045
997,649; 1596,051;   -0,197;    0,955
998,198; 1326,505;   -0,288;   -1,500
998,748; 1491,414;    0,348;   -2,318
999,297; 1371,596;    0,985;   -0,409
999,846; 1524,141;    1,894;   -0,773
1000,395; 1463,596;    1,530;    0,500
1000,945; 1559,232;    1,076;   -0,773
1001,494; 1587,232;    0,167;    0,682
1002,043; 1544,687;    0,712;    0,864
1002,592; 1337,869;    3,439;    1,955
1003,141; 1414,232;    2,439;   -0,682
1003,690; 1443,051;    1,258;    0,500
1004,238; 1377,960;   -0,106;   -0,045
1004,787; 1146,051;   -1,288;    1,227
1005,336; 1433,323;    1,621;    0,682
1005,885; 1438,869;   -0,197;   -2,773
1006,433; 1458,869;   -0,470;    0,955
1006,982; 1691,687;    2,167;    1,682
1007,531; 1511,051;    2,712;   -0,227
1008,079; 1423,323;    0,258;    0,500
1008,627; 1462,051;    1,621;    0,409
1009,176; 1352,232;    0,076;   -1,955
1009,724; 1346,051;   -2,742;    0,864
1010,273; 1498,323;    1,076;    0,500
1010,821; 1473,505;    1,076;    1,409
1011,369; 1303,596;    0,076;    1,318
1011,917; 1310,687;   -0,833;   -0,591
1012,465; 1507,687;    2,530;   -1,591
1013,013; 1528,505;    0,439;   -1,682
1013,561; 1562,505;   -1,288;   -0,773
1014,109; 1670,141;   -0,833;    1,682
1014,657; 1509,051;    1,348;    0,591
1015,205; 1463,869;    0,894;   -0,955
1015,753; 1438,869;    0,258;   -1,409
1016,301; 1510,414;    2,621;    3,045
1016,848; 1569,596;    2,167;    0,409
1017,396; 1582,505;    1,621;    0,045
1017,944; 1641,960;    2,621;    1,864
1018,491; 1434,323;   -0,197;    1,409
1019,039; 1804,414;   -0,652;    0,591
1019,586; 1545,232;    0,076;    1,682
1020,134; 1551,505;    0,712;    1,500
1020,681; 1608,414;    2,894;   -1,136
1021,228; 1530,232;   -0,561;   -2,227
1021,776; 1457,596;   -0,833;   -1,136
1022,323; 1747,778;    0,803;    0,773
1022,870; 1665,687;   -0,470;   -0,045
1023,417; 1680,323;    2,076;    1,864
1023,964; 1571,414;    0,621;    1,227
1024,511; 1497,596;   -0,652;    0,773
1025,058; 1402,687;    0,439;   -0,045
1025,605; 1414,505;   -1,742;    3,136
1026,152; 1679,141;   -0,106;   -0,591
1026,699; 1437,687;    0,167;    1,318
1027,245; 1510,051;    2,439;    0,318
1027,792; 1570,232;    0,712;    1,409
1028,339; 1686,778;    4,076;   -0,045
1028,885; 1508,141;    3,621;   -0,227
1029,432; 1420,051;   -0,106;    0,227
1029,978; 1556,960;    1,348;   -1,591
1030,525; 1483,414;    1,621;    0,409
1031,071; 1511,596;    0,348;    1,136
1031,618; 1794,232;    1,258;    1,682
1032,164; 1560,232;    2,076;    3,045
1032,710; 1594,414;    0,076;   -1,500
1033,256; 1538,960;    0,712;   -0,136
1033,803; 1412,323;   -0,288;    1,500
1034,349; 1229,596;    1,803;    0,136
1034,895; 1329,323;    2,621;   -0,318
1035,441; 1351,051;    0,439;    0,318
1035,987; 1414,596;   -2,288;   -0,682
1036,533; 1482,869;   -0,197;   -0,955
1037,078; 1709,778;    4,712;    1,682
1037,624; 1510,141;    2,439;   -0,955
1038,170; 1422,141;    1,712;   -0,318
1038,716; 1460,323;    2,167;   -0,409
1039,261; 1312,778;    2,167;   -0,773
1039,807; 1296,141;   -0,015;    3,409
1040,352; 1375,232;   -1,288;   -0,318
1040,898; 1381,687;    0,167;   -0,682
1041,443; 1279,596;    0,803;   -2,591
1041,989; 1549,596;    3,621;    1,591
1042,534; 1317,778;    0,985;    2,591
1043,079; 1270,596;    1,985;    0,955
1043,625; 1266,051;    0,258;    0,500
1044,170; 1322,232;    2,439;    1,045
1044,715; 1585,960;    0,167;    0,955
1045,260; 1417,232;   -0,833;   -0,955
1045,805; 1324,323;    0,258;   -0,591
1046,350; 1279,141;    0,530;   -0,409
1046,895; 1409,323;    0,803;    1,591
1047,440; 1401,505;    1,530;    0,409
1047,985; 1238,505;   -1,197;   -0,955
1048,530; 1176,323;    1,348;    1,227
1049,074; 1259,960;    2,803;    0,318
1049,619; 1186,596;   -0,924;    1,955
1050,164; 1108,232;    1,076;    0,227
1050,708; 1193,141;    2,621;    0,045
1051,253; 1559,051;    3,258;   -2,227
1051,797; 1274,323;   -0,197;   -1,318
1052,342; 1148,051;    1,348;    1,045
1052,886; 1223,414;    1,803;   -1,409
1053,430; 1070,414;    2,167;    0,136
1053,975; 1145,869;    0,894;   -0,318
1054,519; 1158,232;    1,803;    3,227
1055,063; 1241,596;    3,621;    1,318
1055,607; 1189,232;    1,348;    0,227
1056,151; 1183,869;    0,530;    1,682
1056,695; 1058,141;   -1,833;   -1,136
1057,239; 1085,232;   -1,197;   -0,682
1057,783; 1139,505;    2,258;   -1,500
1058,327; 1192,596;    3,076;    1,409
1058,871; 1402,505;    3,985;    1,318
1059,415; 1162,596;   -0,561;   -0,045
1059,958; 1411,232;    2,985;    2,591
1060,502; 1131,960;    1,348;   -0,773
1061,046;  984,323;    1,712;   -0,955
1061,589;  951,051;    2,803;   -1,136
1062,133;  878,869;    0,985;    1,864
1062,676;  891,323;    1,439;    0,864
1063,220;  939,869;    0,985;    0,500
1063,763;  972,141;    2,985;    1,136
1064,306; 1023,141;    0,985;    1,864
1064,849;  973,778;    2,076;    0,591
1065,393;  962,960;    2,894;   -1,500
1065,936; 1013,414;    2,530;   -0,409
1066,479;  887,414;    2,621;    1,318
1067,022;  923,505;    1,894;   -0,227
1067,565;  856,687;   -1,197;   -1,318
1068,108;  846,051;    1,258;   -0,591
1068,651;  807,687;   -2,470;    1,409
1069,194;  789,414;   -1,106;   -1,682
1069,736;  816,960;    3,803;    0,955
1070,279;  777,414;   -1,652;   -0,500
1070,822;  878,778;    1,530;   -0,318
1071,364; 1010,778;    0,530;    1,318
1071,907;  820,596;    0,348;    3,227
1072,450;  669,960;    0,258;   -0,045
1072,992;  739,960;   -0,561;    3,136
1073,535;  869,051;    0,167;    2,136
1074,077;  706,141;    2,985;    2,045
1074,619;  702,323;    0,985;    0,591
1075,161;  725,960;   -0,561;    1,500
1075,704;  914,596;    0,258;    1,227
1076,246;  709,596;    1,530;    0,682
1076,788;  621,414;   -1,015;    1,773
1077,330;  662,960;   -2,106;    2,136
1077,872;  694,051;   -1,924;    0,955
1078,414;  930,051;    3,712;    0,773
1078,956;  701,414;    0,167;   -0,227
1079,498;  929,051;    0,439;    0,318
1080,040;  688,141;    0,985;   -1,318
1080,581;  621,960;    0,621;   -0,318
1081,123;  546,687;   -0,106;   -0,773
1081,665;  578,141;    3,803;   -0,955
1082,206;  859,869;    3,258;   -0,500
1082,748;  739,869;    3,258;    2,045
1083,289;  609,505;    0,167;    1,318
1083,831;  581,778;    0,258;    0,227
1084,372;  634,232;    0,894;    0,591
1084,913;  621,051;    3,348;    0,864
1085,455;  563,869;    1,530;   -2,045
1085,996;  577,596;    0,530;    0,136
1086,537;  614,869;    0,985;    0,864
1087,078;  625,323;    0,439;   -2,136
1087,619;  673,778;   -1,652;    0,227
1088,160;  600,960;    1,439;    1,318
1088,701;  577,869;   -0,742;    0,682
1089,242;  540,505;   -0,561;   -2,227
1089,783;  624,323;   -0,561;    1,409
1090,324;  607,778;   -0,833;    0,682
1090,865;  501,232;   -1,924;   -0,409
1091,405;  469,687;   -0,561;    2,227
1091,946;  507,323;   -0,197;   -0,955
1092,487;  437,141;   -1,288;   -1,409
1093,027;  603,687;    1,803;   -1,500
1093,568;  495,960;    2,258;    1,227
1094,108;  562,869;    0,621;    1,773
1094,649;  511,778;   -0,470;    0,136
1095,189;  459,232;    1,167;   -0,682
1095,729;  438,869;    0,712;    0,955
1096,269;  439,505;    1,258;   -0,955
1096,810;  683,687;   -0,197;    0,500
1097,350;  569,869;   -0,561;   -0,773
1097,890;  483,596;    2,985;    1,227
1098,430;  702,687;    4,985;    2,864
1098,970;  612,960;    1,894;    1,682
1099,510;  466,141;   -0,833;   -2,318
1100,050;  426,960;    0,258;   -1,591
1100,589;  411,960;    0,076;   -0,318
1101,129;  517,141;    0,894;   -0,955
1101,669;  638,505;    2,803;    2,136
1102,209;  501,687;    1,530;    2,227
1102,748;  459,414;    3,439;    0,955
1103,288;  452,869;    0,712;   -1,227
1103,827;  455,323;    3,530;   -2,227
1104,367;  373,414;    1,712;   -2,409
1104,906;  361,869;   -1,015;   -1,136
1105,445;  428,051;    0,985;   -1,136
1105,985;  390,596;   -0,652;    1,500
1106,524;  419,505;    1,530;   -0,682
1107,063;  406,414;    1,167;    1,409
1107,602;  365,869;    1,894;   -1,500
1108,141;  324,687;    1,621;    1,500
1108,680;  420,414;    3,985;   -0,591
1109,219;  365,687;    0,167;   -0,500
1109,758;  357,323;    4,167;    0,682
1110,297;  350,141;   -1,106;   -0,682
1110,836;  301,141;    1,439;    0,955
1111,375;  405,960;    0,348;    0,409
1111,913;  442,141;    0,985;    0,773
1112,452;  389,960;    0,894;    0,136
1112,991;  301,596;    1,076;    1,955
1113,529;  284,051;    0,167;   -0,045
1114,068;  333,869;    0,439;    2,955
1114,606;  265,232;   -0,561;   -0,955
1115,144;  381,869;    1,530;    1,045
1115,683;  331,414;    1,985;    0,318
1116,221;  384,505;    2,076;   -0,864
1116,759;  308,505;    1,621;   -0,864
1117,297;  458,141;    1,621;    1,864
1117,836;  314,687;    1,985;   -1,227
1118,374;  310,051;    0,258;   -0,682
1118,912;  293,687;    0,439;    2,682
1119,450;  286,687;    0,985;    0,864
1119,988;  308,596;    3,348;    2,136
1120,525;  694,414;    7,258;    3,318
1121,063;  433,869;    0,530;    1,864
1121,601;  291,051;    1,076;   -1,227
1122,139;  263,323;    1,076;   -2,045
1122,676;  420,323;   -1,652;    2,773
1123,214;  375,687;    0,712;    4,409
1123,751;  232,687;    0,621;    2,227
1124,289;  315,778;    0,894;   -0,409
1124,826;  232,051;   -0,379;    0,227
1125,364;  171,051;    0,712;   -0,955
1125,901;  328,232;    6,258;    1,227
1126,438;  382,596;    3,530;    0,955
1126,975;  183,778;    2,985;   -0,773
1127,513;  229,596;    2,621;    2,136
1128,050;  174,323;   -0,561;   -0,682
1128,587;  243,323;    1,348;   -0,227
1129,124;  284,141;   -0,015;    1,318
1129,661;  189,869;   -1,924;    0,227
1130,198;  316,323;    2,439;    0,773
1130,734;  260,687;   -0,379;    1,409
1131,271;  166,051;   -1,197;    0,864
1131,808;  289,596;    1,621;    3,045
1132,345;  203,960;    4,530;    0,318
1132,881;  113,232;   -0,561;   -1,864
1133,418;  221,141;    0,348;   -1,136
1133,954;  173,051;    0,712;   -2,682
1134,491;  223,414;    1,712;   -0,773
1135,027;  159,869;    2,167;    0,864
1135,564;  215,596;    1,439;    2,955
1136,100;  208,414;   -0,742;    2,136
1136,636;  131,869;   -1,015;   -1,045
1137,172;  187,141;    0,894;   -1,045
1137,708;  146,323;   -1,561;   -1,045
1138,245;  144,778;    0,803;   -1,227
1138,781;  124,960;    1,803;   -3,318
1139,317;  160,232;    1,894;   -1,409
1139,852;  160,687;    3,076;    0,136
1140,388;  230,596;    2,076;   -0,409
1140,924;  154,051;    1,076;   -2,227
1141,460;  114,141;   -0,288;    0,136
1141,996;   75,232;   -0,652;    2,682
1142,531;  102,869;    1,076;    3,318
1143,067;  248,232;    1,167;    1,045
1143,602;  293,323;    3,439;   -0,318
1144,138;  179,414;    0,803;    1,045
1144,673;   99,687;    1,621;    1,409
1145,209;  140,051;    2,894;   -0,318
1145,744;   86,051;    0,803;    0,864
1146,279;  175,505;    1,530;   -0,136
1146,815;  117,232;    1,530;   -2,682
1147,350;  150,414;   -0,924;    0,045
1147,885;   93,778;   -1,924;   -1,318
1148,420;   92,778;    2,439;    0,773
1148,955;   87,960;   -1,470;    1,864
1149,490;   98,687;   -1,106;   -1,591
1150,025;   76,505;   -1,106;   -1,773
1150,560;  157,414;   -0,288;   -0,955
1151,094;  133,778;    0,258;   -0,591
1151,629;  139,778;   -3,742;    0,864
1152,164;   92,687;   -1,288;    1,318
1152,698;   69,505;    1,258;   -0,136
1153,233;   45,960;   -1,379;   -0,682
1153,767;   76,232;   -0,288;   -2,318
1154,302;  103,596;   -0,379;    1,773
1154,836;  101,232;    0,803;   -2,136
1155,371;  137,051;    2,258;    3,682
1155,905;  103,051;    1,985;    1,682
1156,439;   93,141;    0,530;   -0,500
1156,973;  107,687;    0,439;    0,318
1157,507;   66,323;   -1,742;    0,682
1158,042;   88,596;   -0,652;    1,045
1158,576;  116,960;   -0,561;    1,773
1159,110;  105,960;    0,076;    2,409
1159,643;   86,505;   -2,470;   -0,045
1160,177;   54,778;   -2,015;    1,500

