
Integration time [ms]:   0,050
Averaging Nr. [scans]: 11
Smoothing Nr. [pixels]: 0
Data measured with spectrometer [name]: 7318044SP
Wave   ;Sample   ;Dark     ;Reference
[nm]   ;[counts] ;[counts] ;[counts] 

186,757;  -28,315;   38,161;    1,318
187,357;   -1,607;   26,706;    0,955
187,958;  -15,345;   17,252;   -1,591
188,558;   14,402;   12,979;   -1,227
189,159;   -7,228;   10,070;   -4,500
189,759;  -24,356;    5,797;   -3,591
190,360;  -24,706;    6,797;   -2,136
190,960;    2,330;    5,706;   -4,136
191,560;    5,027;    2,614;   -6,591
192,161;  189,891;    5,885;   -3,500
192,761;   59,787;    5,520;   -3,227
193,361;   13,447;    3,065;   -3,773
193,962;   42,604;    1,612;   -2,682
194,562;    1,533;   -0,114;   -3,955
195,162;    4,657;   -0,567;   -2,227
195,762;  110,637;    2,433;   -0,045
196,362;   70,428;    1,706;   -2,500
196,963;  -14,087;    1,706;   -0,864
197,563;   35,316;    1,252;   -0,955
198,163;   -5,740;   -0,111;   -0,682
198,763;    0,657;   -0,020;   -0,500
199,363;   42,459;    3,616;   -0,500
199,963;   17,355;    2,162;    0,409
200,563;   10,456;    6,344;   -1,409
201,163;   -0,609;    5,435;   -0,227
201,763;   22,910;    1,435;    0,318
202,363;   -2,348;    0,980;    1,500
202,963;   24,437;    1,526;    1,045
203,563;   70,320;    0,344;    0,500
204,162;    8,705;    1,889;   -1,864
204,762;    3,841;    2,071;    0,591
205,362;  -12,190;    0,708;    1,955
205,962;    8,749;    3,435;    1,955
206,562;   13,977;    1,889;    2,318
207,161;   -2,587;    1,708;    0,318
207,761;   59,281;    4,435;    2,409
208,361;    0,079;    1,889;    1,409
208,960;   21,469;    2,889;    1,500
209,560;   16,493;    0,435;    1,591
210,160;   26,510;    5,071;    1,864
210,759;    0,490;    0,708;    1,227
211,359;   -0,246;   -0,474;    1,045
211,958;   89,981;    3,526;    2,045
212,558;   94,767;    0,799;    1,864
213,157;   29,745;   -0,929;    1,500
213,757;  166,604;    5,617;   -0,227
214,356;   59,279;    1,708;   -0,409
214,956;  144,276;    3,526;    0,409
215,555;   37,540;    0,617;    2,136
216,154;    6,026;   -0,292;   -0,591
216,754;    7,379;    1,253;    0,773
217,353;   18,509;   -0,383;   -1,045
217,952;  -22,473;    2,072;    0,318
218,552;   32,351;    0,254;   -0,773
219,151;    6,173;   -1,110;    0,955
219,750;    1,156;    0,890;   -0,227
220,349;  -10,018;   -2,292;    1,045
220,948;   36,510;    1,163;    1,136
221,548;   -6,044;    0,617;    1,227
222,147;    4,779;   -1,292;   -0,409
222,746;   71,040;    1,254;   -0,955
223,345;   25,975;   -1,019;    0,500
223,944;   36,479;    1,163;    0,773
224,543;   32,592;    4,072;   -1,409
225,142;   15,594;    1,345;    0,136
225,741;   23,211;    1,163;    1,045
226,340;   12,451;    1,254;   -0,955
226,939;   61,042;    2,708;   -0,136
227,538;   10,864;    1,163;   -0,773
228,137;   71,149;    0,435;    0,864
228,735;   37,235;    0,435;    1,227
229,334;  -19,321;   -0,474;   -0,227
229,933;   72,299;    0,799;    0,591
230,532;   65,599;   -1,201;   -0,409
231,131;  103,225;    1,253;    0,318
231,729;   42,454;    1,163;   -2,318
232,328;    8,134;    0,435;   -1,500
232,927;   10,889;    4,526;   -0,500
233,525;    7,688;    0,981;    0,045
234,124;   25,658;    1,890;   -1,591
234,723;    1,882;    1,617;   -1,045
235,321;   -4,520;    1,163;    0,136
235,920;   -2,904;    2,526;   -1,227
236,518;   62,694;    1,072;    0,318
237,117;   -0,344;    2,890;   -0,227
237,715;   18,743;    1,163;   -0,500
238,314;   27,979;    1,708;   -2,318
238,912;   76,465;    0,526;   -1,409
239,510;   34,081;    1,162;   -1,227
240,109;   78,697;   -0,474;    3,773
240,707;   63,600;   -0,474;    1,227
241,305;   -0,149;   -0,383;    0,136
241,904;   26,760;   -0,292;   -2,045
242,502;   87,776;    3,253;   -0,227
243,100;   39,005;    3,344;   -0,955
243,698;    4,728;    2,799;    1,682
244,297;   25,593;   -0,656;    0,682
244,895;   16,015;   -0,474;   -2,318
245,493;   88,763;    2,981;   -0,591
246,091;   95,801;    5,163;   -1,318
246,689;   49,341;    2,163;    0,591
247,287;   46,849;   -0,019;   -1,136
247,885;   24,863;   -1,019;    1,227
248,483;   13,811;   -0,201;   -0,500
249,081;   58,022;    0,981;    1,591
249,679;   67,579;   -1,019;    1,682
250,277;   22,372;   -2,292;    0,864
250,875;   70,829;    0,617;   -1,045
251,473;   31,330;   -0,019;    0,500
252,071;   83,357;   -0,383;    1,045
252,669;   49,206;   -1,565;    0,318
253,267;   31,477;    1,618;    0,773
253,864;   47,122;    0,617;    0,682
254,462;  118,484;    1,526;    1,591
255,060;   38,094;    0,072;    1,318
255,658;   42,297;   -3,292;   -0,136
256,255;   65,571;   -0,201;   -2,045
256,853;  102,500;    2,345;    1,409
257,451;   71,843;    1,981;    1,864
258,048;  322,271;    2,072;    1,864
258,646;  166,479;    0,436;   -1,045
259,243;  234,227;    2,981;    2,227
259,841;  159,816;    1,799;    0,318
260,438;   86,382;    0,254;    0,864
261,036;  156,358;    0,617;    1,409
261,633;   96,308;    1,526;    2,227
262,231;   71,495;   -0,110;   -0,045
262,828;   73,412;   -0,383;    1,136
263,425;  115,443;   -1,928;   -0,591
264,023;  124,730;    1,436;    0,045
264,620;  229,559;    1,526;   -0,318
265,217;  335,757;    2,890;    3,136
265,815;  166,194;    2,527;    2,136
266,412;  246,859;    0,072;    0,136
267,009;  257,474;    0,526;    0,773
267,606;  331,660;    0,345;   -0,955
268,203;  203,502;   -0,383;   -0,591
268,801;  230,779;   -0,474;    0,591
269,398;  165,820;   -0,564;    2,500
269,995;  285,139;    0,890;    1,591
270,592;  242,802;    0,799;   -0,500
271,189;  177,398;    1,981;    0,409
271,786;  150,844;    2,072;    1,227
272,383;  345,732;   -0,383;    0,227
272,980;  240,907;    1,617;    0,318
273,577;  200,920;    2,162;    1,227
274,174;  177,701;    1,435;    2,591
274,771;  289,206;    1,890;   -0,773
275,367;  606,279;    3,253;    1,409
275,964;  432,497;   -0,565;   -0,500
276,561;  262,677;   -2,474;   -1,045
277,158;  190,033;    1,799;   -1,773
277,755;  392,113;   -0,110;    0,409
278,351;  298,473;    0,436;   -1,500
278,948;  352,622;   -0,201;    0,045
279,545;  299,136;    0,527;    2,318
280,141;  435,186;    1,254;   -2,045
280,738;  423,378;    2,435;   -0,136
281,334;  257,820;   -0,383;    0,591
281,931;  275,235;    2,890;   -1,318
282,528;  365,332;    4,072;   -0,500
283,124;  430,757;    3,345;   -0,500
283,721;  424,578;    0,709;    1,409
284,317;  305,577;    0,163;    2,500
284,913;  476,556;   -0,110;    0,591
285,510;  700,556;    2,890;   -0,318
286,106;  530,274;    2,345;   -0,955
286,703;  359,483;    0,072;    1,955
287,299;  320,089;    1,254;   -0,591
287,895;  316,955;    0,890;   -1,045
288,491;  336,729;    0,163;    2,136
289,088;  466,472;    0,163;    2,409
289,684;  527,479;    2,890;    1,500
290,280;  697,170;    1,890;    0,682
290,876;  676,885;    0,163;    5,500
291,472;  614,520;    2,163;    2,227
292,068;  656,012;    1,254;    0,227
292,665;  559,998;   -0,564;    0,773
293,261;  475,318;   -1,292;    2,136
293,857;  736,977;    4,072;    2,136
294,453;  686,112;   -0,928;    0,955
295,049;  954,249;    0,253;    1,955
295,644;  808,910;   -1,292;    0,136
296,240;  724,334;    0,162;   -0,136
296,836;  924,309;   -0,747;    0,318
297,432; 1134,337;    2,980;   -0,500
298,028; 1249,947;    0,435;    0,773
298,624; 1151,961;    0,889;    1,864
299,220; 1204,791;    0,435;    0,591
299,815; 1199,555;    0,526;   -0,409
300,411; 1354,613;    0,435;    1,773
301,007; 1548,931;    1,889;    0,227
301,602; 1409,560;    2,071;   -2,318
302,198; 1573,060;    1,435;   -0,773
302,794; 1500,107;    1,526;   -0,500
303,389; 1585,850;    1,071;    1,045
303,985; 1686,652;    1,253;    1,409
304,580; 1800,647;    0,889;    1,591
305,176; 1708,035;    0,344;    0,136
305,771; 1606,206;   -0,929;   -1,227
306,367; 2018,665;    3,071;    0,136
306,962; 1879,015;    2,889;    1,500
307,558; 1770,496;    2,435;    0,136
308,153; 1869,313;   -0,383;   -1,136
308,748; 1729,250;    0,162;    1,682
309,344; 2084,697;    0,253;   -1,318
309,939; 2121,046;    2,071;   -1,318
310,534; 1843,917;   -2,020;   -1,682
311,130; 1715,046;   -0,656;   -2,500
311,725; 1566,816;    0,526;   -0,500
312,320; 1658,902;    1,253;    0,045
312,915; 1780,740;    2,890;   -1,045
313,510; 1944,944;    0,526;   -0,500
314,105; 1773,043;   -3,565;    1,409
314,700; 1427,358;   -1,656;   -1,045
315,295; 1419,465;   -0,020;    0,045
315,890; 1240,822;   -0,292;    0,864
316,485; 1338,190;    0,253;   -0,318
317,080; 1279,207;   -0,929;    1,591
317,675; 1602,817;    3,071;   -0,682
318,270; 1717,086;    6,889;    3,318
318,865; 1587,445;    2,435;    3,045
319,460; 1316,710;   -1,565;    0,591
320,055; 1180,547;   -2,565;   -1,227
320,650; 1110,216;   -1,838;   -0,591
321,244; 1099,755;    0,889;   -1,409
321,839; 1234,737;    0,980;   -0,227
322,434; 1248,902;   -0,111;   -1,591
323,029; 1102,417;   -0,474;    1,591
323,623; 1038,522;    0,798;    0,773
324,218; 1179,926;    2,707;    1,409
324,812; 1119,930;    0,889;    1,591
325,407; 1129,801;   -0,929;    2,045
326,002; 1241,143;    0,526;   -0,409
326,596; 1218,160;   -0,656;    1,318
327,191; 1102,753;   -0,383;   -1,045
327,785; 1036,706;   -0,747;   -0,227
328,379; 1189,785;   -0,383;    0,136
328,974; 1221,544;    1,798;   -3,955
329,568; 1331,331;    2,889;   -2,409
330,163; 1405,460;    2,435;    1,045
330,757; 1388,538;    0,253;    1,591
331,351; 1333,057;   -0,292;    0,682
331,945; 1431,283;   -0,383;    1,409
332,540; 1578,244;    1,617;   -0,591
333,134; 1609,607;    3,344;    0,773
333,728; 1676,485;    2,799;    0,318
334,322; 1800,807;    0,889;   -0,864
334,916; 1688,087;    0,344;    0,955
335,510; 2006,533;   -0,111;   -0,136
336,105; 2183,753;   -0,929;    1,591
336,699; 2080,896;   -1,292;    0,591
337,293; 2185,954;    1,071;    0,318
337,887; 2278,025;    0,071;    1,955
338,481; 2561,180;    2,980;    0,591
339,074; 2875,446;    2,071;    2,682
339,668; 2903,751;   -0,110;    1,227
340,262; 3613,553;    7,708;    3,227
340,856; 3211,472;    1,708;   -0,682
341,450; 2889,305;    0,708;    1,864
342,044; 3420,681;    1,799;    0,136
342,637; 3542,970;    1,162;   -2,136
343,231; 3627,089;   -1,474;    0,682
343,825; 3618,800;   -0,747;   -0,591
344,419; 3797,497;   -0,474;    0,500
345,012; 4170,027;    2,889;    4,045
345,606; 4166,326;   -0,656;    1,591
346,199; 4117,017;   -0,111;   -0,227
346,793; 4063,686;    2,525;    2,045
347,386; 4263,438;    0,889;   -1,136
347,980; 4273,928;   -0,838;   -0,045
348,573; 4353,629;   -1,748;    0,409
349,167; 4363,775;    6,161;    4,773
349,760; 4697,908;    2,252;    2,682
350,354; 4682,602;    1,616;    1,136
350,947; 4612,381;    2,798;    1,682
351,540; 4466,130;    0,616;   -1,409
352,134; 4439,486;   -1,111;    1,136
352,727; 4553,265;   -0,657;    1,136
353,320; 4507,908;    2,343;    0,591
353,913; 4374,790;   -1,929;    1,864
354,507; 4608,271;    0,434;   -1,227
355,100; 4671,148;    0,071;    0,864
355,693; 4333,135;    4,798;    2,409
356,286; 4295,753;    0,980;    2,773
356,879; 4460,374;   -0,475;    1,227
357,472; 4186,694;    0,980;    1,500
358,065; 4359,032;    3,161;    2,500
358,658; 4300,005;    0,798;    2,318
359,251; 4033,561;    0,252;   -0,591
359,844; 3791,562;    0,343;   -1,136
360,437; 3945,763;    0,252;    0,045
361,030; 4035,892;    0,525;   -0,682
361,623; 3752,691;    0,434;    0,318
362,215; 3816,594;    0,979;    2,045
362,808; 3691,262;   -2,293;   -1,682
363,401; 3764,344;    0,798;    0,136
363,994; 3698,719;    3,252;   -1,500
364,586; 3555,143;    0,888;   -1,500
365,179; 3618,535;   -0,203;   -1,136
365,772; 3223,225;   -0,930;    2,045
366,364; 3375,256;    1,524;   -3,227
366,957; 3556,650;    1,342;   -0,045
367,549; 3446,255;   -0,203;   -0,864
368,142; 3252,032;    0,978;   -1,500
368,734; 3335,437;    2,523;   -2,136
369,327; 3305,428;    2,341;   -0,500
369,919; 3242,403;   -1,659;    0,409
370,512; 3171,455;   -1,023;   -0,500
371,104; 3068,151;    2,704;    1,591
371,696; 3184,463;    1,703;   -0,955
372,289; 3133,007;    0,157;    1,136
372,881; 3148,197;    1,156;    1,318
373,473; 3032,979;    4,064;    1,136
374,066; 2992,880;    1,336;    0,500
374,658; 2883,858;    0,879;    1,136
375,250; 3001,895;   -1,668;   -1,409
375,842; 2918,143;   -0,124;   -0,045
376,434; 2801,360;   -2,762;   -0,409
377,026; 3133,229;   -1,855;   -2,500
377,618; 3030,552;    0,779;   -0,682
378,210; 2905,665;    3,141;   -1,955
378,802; 2742,521;    3,412;   -0,591
379,394; 2973,771;    3,411;    0,682
379,986; 3131,040;    1,138;   -0,955
380,578; 3114,042;    1,410;    0,773
381,170; 2882,132;    0,320;    0,045
381,762; 2784,267;   -0,224;    1,409
382,354; 2829,681;   -0,223;   -1,318
382,945; 2837,417;    0,870;    0,318
383,537; 2915,498;    1,144;   -1,955
384,129; 2977,717;    0,963;   -1,136
384,721; 3056,622;    0,418;    0,955
385,312; 2951,860;   -1,399;   -0,955
385,904; 3089,215;   -0,945;    1,591
386,496; 2661,854;    0,691;    1,045
387,087; 2826,259;    0,418;    2,500
387,679; 2790,651;   -0,401;    0,045
388,270; 2880,166;   -2,401;    2,045
388,862; 2893,374;   -0,401;   -0,318
389,453; 2704,867;    1,054;    1,045
390,045; 2902,016;    3,236;   -2,682
390,636; 2897,660;    0,144;   -0,591
391,227; 2790,839;    2,054;   -0,045
391,819; 2877,384;    0,781;    0,773
392,410; 2997,024;    0,600;    0,045
393,001; 2898,703;    1,600;   -1,591
393,593; 3046,269;    0,600;   -0,045
394,184; 2969,804;    0,873;   -0,409
394,775; 2790,205;    1,146;    2,136
395,366; 3001,256;    1,782;    0,773
395,957; 3008,248;   -2,400;    0,136
396,548; 3108,385;    1,054;    2,682
397,139; 3273,901;    2,236;    0,591
397,730; 3066,668;    0,873;    0,955
398,321; 3106,704;    0,509;    0,955
398,912; 3040,687;   -0,764;    0,136
399,503; 3204,709;   -1,945;   -1,409
400,094; 2887,371;   -1,582;    1,682
400,685; 2817,715;    3,600;    0,045
401,276; 2778,127;   -0,400;   -0,955
401,867; 2926,773;   -1,127;    0,773
402,458; 2952,903;    1,509;   -2,318
403,048; 2990,810;    0,146;    0,591
403,639; 2726,373;    1,509;    0,864
404,230; 2981,125;    0,691;    0,318
404,821; 2958,163;   -0,127;    0,045
405,411; 2931,745;   -0,763;   -2,591
406,002; 2637,034;    3,237;   -1,136
406,592; 2727,439;    2,691;    0,045
407,183; 2724,009;    0,328;   -1,500
407,774; 2551,999;    1,419;   -0,136
408,364; 2667,465;    2,600;    0,409
408,954; 2563,582;   -0,036;    1,227
409,545; 2526,475;    1,873;    1,045
410,135; 2188,259;   -1,581;    0,500
410,726; 2202,100;    0,783;    0,318
411,316; 2445,606;    2,237;    0,773
411,906; 2159,117;    0,146;   -0,409
412,497; 1926,318;   -0,490;   -0,045
413,087; 2072,483;    0,783;   -0,227
413,677; 2119,860;   -2,490;    3,864
414,267; 1973,170;   -1,035;    1,409
414,857; 1855,838;    0,419;    4,227
415,448; 1906,815;   -0,763;    0,500
416,038; 1757,328;   -2,945;   -0,591
416,628; 1691,662;    0,965;    0,409
417,218; 1641,249;   -1,762;    3,318
417,808; 1777,281;    0,965;   -0,409
418,398; 1620,227;   -1,035;    2,682
418,988; 1440,222;   -2,217;    0,591
419,578; 1469,405;    3,601;    1,409
420,168; 1520,037;    0,692;   -0,955
420,757; 1516,028;    0,964;   -1,500
421,347; 1245,156;    1,601;   -0,227
421,937; 1157,263;    3,329;    1,409
422,527; 1258,059;    2,602;   -0,773
423,116; 1342,709;    2,692;   -0,045
423,706; 1043,382;    2,965;    0,318
424,296;  895,371;    1,601;    0,682
424,885; 1104,735;    1,510;   -3,045
425,475; 1019,450;    1,147;   -2,864
426,065;  822,926;   -1,489;   -0,318
426,654;  760,116;    0,329;   -0,318
427,244; 1085,140;    1,147;    1,409
427,833;  958,648;    1,056;   -0,500
428,423;  761,480;    0,147;    1,136
429,012;  791,077;    2,420;   -1,136
429,601;  875,001;    2,057;    0,136
430,191;  693,442;    2,511;    4,318
430,780;  484,550;   -1,671;   -0,409
431,369;  755,007;    1,329;   -0,045
431,959;  626,247;    1,693;    0,500
432,548;  479,022;   -1,398;   -0,045
433,137;  373,631;    0,329;   -1,318
433,726;  475,492;    0,148;    0,500
434,315;  434,962;    0,148;    2,409
434,905;  559,660;    0,693;    1,409
435,494;  559,496;    3,148;    0,955
436,083;  350,396;    1,420;   -0,955
436,672;  417,823;    1,148;    0,500
437,261;  332,452;    0,512;   -1,955
437,850;  622,913;   -1,125;    0,682
438,439;  654,258;    2,239;    1,955
439,027;  736,482;    3,421;    1,773
439,616;  648,347;    2,239;    1,227
440,205;  356,851;    0,057;   -2,136
440,794;  270,009;   -0,306;   -0,045
441,383;  158,655;    1,603;   -0,591
441,971;   99,088;   -0,306;    0,591
442,560;  114,338;    0,603;   -1,773
443,149;   -7,597;    3,060;   -1,318
443,737;   35,225;    0,968;   -2,318
444,326;   53,354;    0,331;    0,318
444,915;   95,359;   -1,851;    0,864
445,503;  100,483;    0,058;   -0,318
446,092;  362,343;    7,876;    2,136
446,680;  277,513;    1,876;    0,318
447,269;  160,711;   -1,487;   -0,318
447,857;  137,271;    2,240;   -1,773
448,445;   92,158;    2,149;    1,318
449,034;   29,886;    0,876;   -1,136
449,622;   25,073;    1,240;    3,500
450,210;  292,754;    3,149;    2,227
450,799;  203,427;    2,604;   -0,591
451,387;  149,956;    1,786;   -0,591
451,975;  141,989;   -1,305;    0,864
452,563;  210,953;    0,422;    2,318
453,151;   40,015;   -1,032;   -1,227
453,739;   75,381;   -1,577;    0,136
454,328;  171,553;    0,604;   -2,136
454,916;  110,306;    1,150;   -0,136
455,504;  119,623;    3,513;    1,227
456,092;   13,041;    2,150;   -1,591
456,679;  -20,976;    0,604;    0,682
457,267;  383,948;    3,604;    1,045
457,855;   76,798;    3,241;    1,409
458,443;  -54,530;   -0,304;    1,682
459,031;   75,118;    1,332;    2,409
459,619;   48,108;   -3,577;    2,864
460,206;  -36,267;   -0,759;    2,045
460,794;  -37,252;   -0,668;   -0,227
461,382;   -0,152;    0,878;   -0,864
461,970;    4,147;    0,605;    1,864
462,557;  -57,377;    0,878;   -0,682
463,145;   49,806;   -0,304;   -1,682
463,732;  267,247;    2,514;   -1,045
464,320;   63,315;    1,514;   -3,045
464,907;  170,690;    0,423;   -0,773
465,495;   85,366;    2,696;   -1,227
466,082;   24,786;    2,060;   -0,045
466,670;   47,716;    2,605;    1,227
467,257;  -37,777;    0,060;    2,045
467,844;   47,848;    1,514;    0,045
468,432;   19,992;   -0,031;    3,500
469,019;   -5,983;    1,606;   -1,773
469,606;   75,173;    0,969;    3,682
470,193;   93,786;    2,151;    0,227
470,780;   49,055;    0,333;    0,864
471,368;  -10,454;   -1,212;   -0,773
471,955;   83,680;    1,060;   -0,682
472,542;   50,486;   -0,303;   -1,136
473,129;  -47,502;   -0,485;    0,136
473,716;  -41,935;    0,060;    0,591
474,303;   -9,742;    1,333;   -0,864
474,890;   -5,917;    2,333;   -0,500
475,477;   89,665;   -0,576;    0,409
476,064;    6,000;    0,697;   -1,591
476,650;  106,954;    2,152;    0,318
477,237;   25,136;    1,879;    0,955
477,824;    6,472;    3,879;    0,864
478,411;  -64,367;    0,606;   -0,318
478,997;  -74,337;    0,606;   -0,773
479,584; -112,301;   -0,666;   -0,409
480,171;   33,272;    1,243;   -0,773
480,757;   88,719;   -0,848;    0,773
481,344;   -5,023;    0,334;    0,409
481,931;  -84,173;   -0,393;    1,045
482,517;   26,193;    0,425;    0,318
483,104;  102,394;    1,334;    2,864
483,690;  -10,590;    0,243;    0,045
484,276;  -27,624;    0,698;    0,227
484,863;  152,307;    2,152;    1,136
485,449;   10,925;    0,152;    0,318
486,035;  -24,385;   -0,666;   -0,136
486,622;   53,504;   -2,393;    0,045
487,208;  -13,272;    1,334;    1,500
487,794;  -72,504;    0,971;    0,318
488,380;  -67,552;    0,698;   -1,409
488,967;  -71,346;   -1,120;   -0,409
489,553;  -57,490;   -1,029;   -1,409
490,139;    7,943;    0,971;    0,773
490,725;  -52,303;    0,789;   -0,227
491,311;  -12,543;    1,516;    3,045
491,897;  -29,982;   -0,665;    1,500
492,483;  -22,817;    0,426;    1,227
493,069;  386,462;    5,426;    0,864
493,655;  110,230;    1,789;    0,682
494,241;   -2,555;    1,517;   -0,955
494,826;    7,232;    0,335;   -1,045
495,412;   67,628;    0,335;   -0,682
495,998;  -18,194;    0,971;   -0,318
496,584;   41,951;    2,244;    1,045
497,169;   55,977;    2,335;   -0,682
497,755;   -4,592;    1,244;    1,227
498,341;  110,336;    2,153;    0,318
498,926;  226,388;    2,881;    1,955
499,512;   -3,436;   -0,028;    2,955
500,097;  -12,433;   -0,574;   -0,318
500,683;   15,958;   -0,028;    2,136
501,268;  -30,999;    1,881;   -0,955
501,854;    0,850;   -0,119;    1,227
502,439;   -8,730;   -0,573;   -1,773
503,024;    1,769;    1,608;    0,500
503,610;   35,695;    1,335;   -0,682
504,195;  -12,306;    1,245;    1,955
504,780;   74,931;    2,335;    1,227
505,366;  161,717;    4,063;    2,864
505,951;   99,370;   -1,119;    1,045
506,536;   30,643;    1,427;   -3,682
507,121;   96,703;    1,699;   -0,318
507,706;   65,992;   -0,392;    1,045
508,291;   37,466;   -2,937;    1,136
508,876;   58,789;   -0,482;    2,591
509,461;  151,951;    1,427;   -0,773
510,046;  246,416;   -0,391;    0,318
510,631;  300,781;   -0,119;   -0,773
511,216;  264,550;   -0,664;   -0,500
511,801;  438,354;   -0,755;    2,591
512,386;  568,518;    0,972;    0,500
512,971;  705,393;    0,427;    0,955
513,555;  892,897;    1,154;   -1,500
514,140; 1050,239;    1,336;   -3,136
514,725; 1356,467;    1,791;   -1,136
515,309; 1463,344;    1,064;    0,318
515,894; 1568,580;   -0,300;   -2,227
516,479; 1959,996;    1,973;   -0,955
517,063; 2208,221;    0,882;    1,227
517,648; 2627,515;    0,155;   -1,136
518,232; 2761,078;   -1,300;   -1,409
518,817; 3417,148;    1,337;    1,682
519,401; 4066,811;    0,700;    0,591
519,985; 4109,406;    2,700;    1,136
520,570; 4526,260;   -0,118;   -1,955
521,154; 5241,393;    0,064;    0,591
521,738; 5890,086;    1,064;    2,409
522,323; 6844,906;   -0,390;    1,682
522,907; 7092,947;    2,428;   -0,136
523,491; 7383,872;    1,155;    0,955
524,075; 7825,032;    0,428;    0,591
524,659; 8348,702;    0,973;    0,591
525,243; 8385,755;    0,883;    0,409
525,827; 9000,551;    0,883;   -0,045
526,411;10107,247;    1,155;   -0,136
526,995;10701,904;    0,337;    1,409
527,579;10702,281;    1,974;   -1,045
528,163;11305,943;    0,428;   -1,500
528,747;11578,553;    1,065;   -0,773
529,331;12126,923;    0,883;   -1,409
529,915;12589,804;    2,338;    0,955
530,499;12792,772;    0,247;    1,227
531,082;12702,725;    1,065;    1,591
531,666;12421,203;    0,520;    0,773
532,250;13293,168;    0,428;    2,682
532,833;13772,145;    0,610;    2,773
533,417;13828,460;    1,247;    0,864
534,001;13940,229;    0,429;   -0,318
534,584;14812,099;    1,974;    0,500
535,168;14760,907;    3,247;    1,409
535,751;14942,695;    4,520;    0,045
536,334;14471,197;    4,520;   -0,409
536,918;15185,395;    1,974;    1,591
537,501;15404,651;    1,520;    1,318
538,085;15436,870;    1,702;    1,045
538,668;15702,121;    0,883;    2,409
539,251;16110,554;    3,156;    3,773
539,834;16183,260;    0,156;    0,773
540,418;16144,349;    3,247;    4,318
541,001;16340,275;    2,702;    1,773
541,584;16462,854;    1,429;    2,227
542,167;16190,675;    0,702;    2,955
542,750;16360,118;    0,793;   -0,773
543,333;15975,897;    1,429;    2,136
543,916;16824,994;   -0,298;    2,500
544,499;17475,106;    2,520;    0,227
545,082;17519,453;    0,248;    3,591
545,665;17694,443;   -0,207;    1,500
546,248;18085,715;    0,520;   -0,318
546,830;17755,565;   -1,752;    1,955
547,413;18179,655;    0,157;   -0,773
547,996;18806,600;    0,157;    0,500
548,579;18569,567;   -0,843;    0,955
549,161;18422,551;    0,884;    2,682
549,744;18196,972;    0,612;    0,409
550,326;18725,074;    0,885;   -1,136
550,909;18446,206;    2,339;    0,591
551,492;18893,315;    0,521;    0,227
552,074;18695,917;   -0,024;   -1,318
552,657;19309,436;    2,430;    0,045
553,239;19092,826;   -3,024;   -0,773
553,821;19006,356;   -1,570;    1,045
554,404;18522,489;   -0,024;    1,136
554,986;18924,734;    2,248;    1,045
555,568;19477,852;    0,430;   -0,955
556,151;18686,557;    4,067;   -0,227
556,733;18918,526;   -1,388;   -0,864
557,315;19429,877;    4,703;    0,500
557,897;19243,733;    0,521;   -0,500
558,479;19366,048;    1,703;    1,318
559,061;19499,570;    1,067;   -0,864
559,643;19826,919;   -0,297;    0,045
560,225;20220,563;   -0,388;    2,864
560,807;20271,282;    0,340;    0,318
561,389;19801,645;   -1,206;    2,318
561,971;20569,664;   -0,660;    2,136
562,553;20366,244;    0,613;    1,591
563,135;20496,714;    1,249;    1,136
563,717;20110,404;    3,158;    1,136
564,298;20862,398;    3,976;   -0,045
564,880;20582,684;    0,340;   -1,409
565,462;20719,866;    1,977;    1,318
566,043;21953,178;   -0,933;    2,318
566,625;21486,173;    4,067;    1,227
567,207;21382,813;    0,704;    1,682
567,788;22507,749;   -0,114;    1,500
568,370;23381,485;   -1,841;   -0,500
568,951;23198,936;   -0,569;    0,227
569,533;24116,195;    0,977;   -0,500
570,114;24658,894;   -0,296;    0,682
570,695;25132,009;   -0,478;   -1,318
571,277;25681,072;   -0,205;   -1,682
571,858;26456,143;    2,704;   -1,136
572,439;27428,951;    0,795;   -1,045
573,021;27601,354;    0,432;   -2,773
573,602;28137,921;    1,795;    0,318
574,183;29097,594;   -0,114;    2,227
574,764;29307,819;    2,068;    0,409
575,345;29874,695;    0,250;   -0,136
575,926;30504,927;    2,704;    0,136
576,507;30582,643;    2,704;   -0,227
577,088;31639,793;    1,704;    1,682
577,669;31704,770;    1,704;    1,955
578,250;32464,503;   -0,750;   -1,045
578,831;33148,742;   -0,841;   -2,227
579,412;33443,840;   -1,205;    0,955
579,993;34379,824;    1,432;    0,227
580,573;34672,497;   -0,023;   -0,955
581,154;33642,899;    1,613;   -0,591
581,735;34583,915;    0,341;    0,773
582,315;34020,279;    0,523;    2,136
582,896;34376,365;   -1,750;    1,227
583,477;33824,309;    0,614;    1,227
584,057;33983,882;    1,159;    0,955
584,638;34257,642;   -2,750;    2,318
585,218;34274,326;    2,886;    2,682
585,799;34454,044;    1,977;   -0,227
586,379;34440,975;    1,250;    1,591
586,959;33184,931;    2,613;    0,318
587,540;32464,266;    0,432;    2,227
588,120;31918,173;   -1,113;   -0,045
588,700;30848,993;    2,977;    2,136
589,281;31198,979;    1,250;   -0,955
589,861;31141,588;   -0,296;   -1,682
590,441;30928,171;   -1,477;   -2,682
591,021;29822,273;    1,432;   -2,591
591,601;30077,697;    0,431;    0,500
592,181;30113,890;   -1,296;   -0,773
592,761;29307,575;    2,250;    1,409
593,341;29264,348;    1,522;    0,045
593,921;29189,670;   -0,569;    1,591
594,501;29079,781;    1,250;    1,318
595,081;28981,601;    0,522;   -0,318
595,661;29307,900;    1,068;    0,955
596,240;29832,548;   -1,023;    0,136
596,820;29412,843;    2,613;    1,955
597,400;29613,643;    1,977;    0,773
597,980;29885,083;   -0,750;    1,045
598,559;29939,445;    0,341;   -0,227
599,139;29581,932;   -0,750;   -1,227
599,718;29474,841;    0,795;   -0,409
600,298;29750,932;   -2,387;    0,682
600,877;30020,008;    4,795;    1,409
601,457;30240,485;    0,340;    1,136
602,036;30209,601;    1,795;    2,045
602,616;30374,169;    2,250;    1,682
603,195;30681,116;    0,431;    3,500
603,774;30224,934;   -0,296;    2,045
604,354;30142,549;    2,522;   -0,500
604,933;29623,318;    0,250;    1,864
605,512;29738,987;    2,340;    0,591
606,091;29743,320;    1,886;    3,773
606,671;30582,822;    0,249;    0,773
607,250;29617,378;    1,431;    3,136
607,829;29968,348;    1,158;    3,227
608,408;29762,914;    4,613;    2,591
608,987;28723,841;    2,704;    3,409
609,566;29020,905;    0,341;   -2,500
610,145;29143,466;    2,885;    0,682
610,723;29623,520;    1,613;    6,864
611,302;28799,884;    1,067;    1,682
611,881;28255,745;    5,158;   11,227
612,460;29105,183;    0,795;    3,955
613,039;29624,292;    1,703;    2,045
613,617;28310,310;    0,886;    4,773
614,196;28449,306;    1,613;    1,227
614,775;28826,522;    1,249;    2,409
615,353;28720,704;   -1,660;    0,864
615,932;28393,870;    0,249;    2,409
616,510;29054,698;    0,158;    0,591
617,089;28499,581;    8,794;   17,591
617,667;28252,148;    4,885;    6,136
618,246;28038,298;   -1,115;    1,318
618,824;28216,106;    1,612;   -0,955
619,402;27773,293;    0,431;   -1,773
619,981;28340,406;    1,067;   -1,045
620,559;28207,326;    0,794;    1,682
621,137;27679,053;    3,067;    1,864
621,715;27634,652;    3,703;   -0,682
622,293;27591,016;    1,885;   -0,773
622,871;28128,149;    0,340;    0,500
623,450;27604,301;    0,430;   -0,864
624,028;27506,353;   -0,388;   -0,955
624,606;27191,236;    2,339;    1,682
625,183;27578,585;   -0,661;   -1,136
625,761;27181,307;    1,885;    1,136
626,339;27457,503;    2,339;    2,591
626,917;27806,923;    0,339;   -0,045
627,495;27927,335;    2,794;    1,318
628,073;27363,288;    5,248;    2,864
628,650;26979,292;    3,067;    2,136
629,228;27438,130;    1,248;    4,409
629,806;26766,211;   -0,024;    1,136
630,383;27085,271;    0,066;   -0,318
630,961;26830,152;   -2,206;   -0,955
631,539;26579,774;   -2,479;    0,227
632,116;25809,698;   12,703;   15,409
632,694;26424,191;    4,885;    6,500
633,271;26765,236;    1,975;    2,682
633,848;26646,946;    1,430;    2,045
634,426;26701,333;    1,521;    1,773
635,003;25810,384;   -0,207;   -0,409
635,580;26085,999;    1,884;    3,682
636,158;26665,296;    3,793;    1,227
636,735;26669,541;    3,339;   -0,500
637,312;26780,031;    0,521;   -0,682
637,889;26907,911;    2,248;   -0,682
638,466;26377,876;    0,066;   -0,409
639,043;26405,755;    1,702;   -1,136
639,620;26752,264;    0,611;   -0,955
640,197;27054,470;    1,612;    1,682
640,774;27196,438;    1,430;    1,136
641,351;27573,133;    0,612;    1,136
641,928;26966,918;    2,794;    1,409
642,505;26598,977;    0,794;   -0,500
643,082;26724,126;    1,885;    1,227
643,658;25718,457;    1,157;    1,500
644,235;26466,606;   -2,479;    2,500
644,812;26771,665;    1,794;    0,773
645,388;26534,360;    1,612;    1,409
645,965;26574,963;    1,521;    1,682
646,542;26646,840;    3,430;   -0,227
647,118;26650,535;    3,703;   -0,955
647,695;26926,230;    0,339;    1,136
648,271;26816,470;   -2,115;    0,500
648,848;27167,710;    0,248;    2,227
649,424;26988,678;    0,976;    1,318
650,000;26760,372;   -0,388;   -1,045
650,577;26566,249;    0,158;   -0,955
651,153;27051,671;   -1,115;    0,955
651,729;28048,275;    0,521;    0,864
652,305;28259,151;    1,339;    2,773
652,881;32870,301;   -1,297;    1,136
653,458;40036,541;    0,249;    0,227
654,034;44144,781;    0,703;    1,591
654,610;45786,749;    0,339;    0,773
655,186;47121,262;    1,612;    3,045
655,762;46885,229;   -1,842;    0,409
656,338;46879,106;    0,703;    0,136
656,913;47934,164;   -0,297;    0,409
657,489;47244,677;    0,249;   -0,318
658,065;47224,099;    0,794;   -1,591
658,641;47783,885;    2,158;   -0,864
659,217;46990,579;    2,067;    0,409
659,792;46339,001;   -1,751;   -0,409
660,368;46630,787;   -0,388;   -0,682
660,944;46337,391;    1,794;    1,227
661,519;41646,359;    0,522;    0,409
662,095;35238,962;   -0,206;    0,591
662,670;30245,475;   -0,206;   -0,136
663,246;29067,625;   -0,660;   -0,409
663,821;28251,228;    0,431;    1,682
664,396;27756,651;    0,613;    1,864
664,972;28039,618;   -0,660;   -0,500
665,547;28425,767;    3,794;    0,136
666,122;28460,098;    1,340;    0,318
666,698;28715,157;    2,431;    0,318
667,273;27966,215;    0,885;    0,136
667,848;28819,001;    0,340;    1,500
668,423;28561,332;    1,795;    2,318
668,998;29149,663;    0,976;   -0,682
669,573;29689,903;    2,067;   -1,500
670,148;29517,507;    1,885;   -0,682
670,723;29370,929;   -0,024;    0,318
671,298;29763,170;   -1,296;    1,045
671,873;29882,955;   -0,296;   -0,136
672,448;29870,741;    1,704;    0,136
673,023;30170,072;    0,249;   -0,227
673,597;30490,403;    2,704;    2,318
674,172;30201,280;    2,431;    0,318
674,747;29732,611;   -0,205;   -1,045
675,321;29603,124;   -0,933;    3,318
675,896;29158,364;    2,158;    1,045
676,471;30127,877;    2,522;    1,591
677,045;29875,208;   -0,296;    0,682
677,620;29928,085;    2,158;    1,136
678,194;30291,234;    0,249;    1,136
678,769;29781,020;    0,886;   -0,318
679,343;30003,351;   -0,023;    1,773
679,917;29854,046;    0,340;    1,955
680,492;29997,377;    0,249;    3,227
681,066;30191,799;    0,613;    0,409
681,640;30233,221;    1,795;   -0,318
682,214;31051,188;    2,340;    0,500
682,788;30536,428;    0,613;   -0,773
683,363;30528,487;    1,977;    1,682
683,937;30199,273;    0,886;   -0,318
684,511;30962,513;   -1,023;   -0,591
685,085;30675,662;   -1,478;    0,318
685,659;30473,993;    1,431;    0,864
686,232;30667,688;    1,159;   -0,318
686,806;30362,383;    2,159;    0,409
687,380;31060,168;   -1,932;    0,591
687,954;31262,954;    2,432;    1,136
688,528;30956,194;    2,613;    1,955
689,101;31732,253;    0,432;    1,045
689,675;31285,493;    0,886;   -0,136
690,249;30679,733;    3,432;    0,409
690,822;31003,610;    1,159;    0,318
691,396;31059,668;    2,068;    1,227
691,969;30551,363;    2,523;    0,136
692,543;31073,603;   -0,568;   -1,955
693,116;30696,843;   -0,659;   -1,409
693,690;30474,356;   -0,296;    0,500
694,263;31045,960;    2,341;    2,955
694,836;31078,473;    2,795;    3,591
695,410;29698,804;    1,159;    1,773
695,983;30157,317;    1,614;    0,591
696,556;30112,103;   -0,750;   -1,045
697,129;30576,070;   -1,114;    1,409
697,703;30134,583;    1,341;    1,955
698,276;30158,096;    1,705;   -0,773
698,849;29947,609;   -1,023;    1,409
699,422;30331,031;    1,250;    0,591
699,995;29990,090;   -0,659;    0,136
700,568;30470,694;   -0,204;    3,045
701,140;30491,843;   -1,841;    1,682
701,713;30193,356;    0,341;    2,409
702,286;29981,505;    0,796;    0,864
702,859;29839,836;    0,614;   -0,591
703,432;29001,622;   -0,841;    0,682
704,004;29517,044;    1,978;    0,318
704,577;29387,466;    1,068;    0,136
705,150;29953,433;    0,887;    2,500
705,722;29773,310;    1,523;   -3,227
706,295;29522,459;    1,432;   -0,591
706,867;29329,972;    0,250;    1,955
707,440;29527,485;   -0,113;   -0,409
708,012;29800,998;   -0,022;    0,591
708,584;29738,148;    2,705;    0,227
709,157;30083,297;    1,160;   -0,591
709,729;29750,719;    1,069;    2,045
710,301;30606,323;   -1,204;    0,045
710,874;30624,290;    0,341;   -0,227
711,446;29495,530;   -0,295;    0,864
712,018;29337,407;   -3,022;    0,500
712,590;29037,738;   -0,204;    1,682
713,162;29579,524;   -0,477;    1,318
713,734;29887,037;    1,796;   -2,045
714,306;29768,822;    0,342;   -0,409
714,878;28408,335;   -0,295;    0,864
715,450;29254,212;   -0,113;    0,864
716,022;29573,361;    2,433;    1,318
716,593;29680,420;    0,978;    0,591
717,165;29549,660;    1,796;   -1,227
717,737;29269,264;    0,796;    0,409
718,309;28969,140;    1,160;   -0,045
718,880;28889,835;   -1,295;   -1,409
719,452;29139,984;    0,887;   -1,591
720,024;28678,588;    1,705;   -0,591
720,595;29214,919;    2,978;    0,955
721,167;28731,523;    1,160;   -2,045
721,738;28239,854;    2,069;   -1,045
722,309;28198,731;    1,251;   -1,227
722,881;27989,789;    2,705;    0,773
723,452;28659,030;    1,251;    2,864
724,023;28862,815;    1,524;    2,682
724,595;28607,783;    2,342;    0,682
725,166;28353,296;    1,524;   -0,409
725,737;27971,445;    1,887;    0,227
726,308;28031,958;    0,797;    0,318
726,879;28462,653;    1,069;    1,227
727,450;28368,075;   -2,022;   -0,045
728,021;28312,224;    1,069;    0,682
728,592;28153,192;    1,160;    0,500
729,163;28505,977;    1,433;   -0,136
729,734;28443,127;    2,160;   -0,227
730,305;28819,003;    0,615;    0,136
730,876;29173,334;    0,888;    2,955
731,447;28846,029;    0,797;    2,682
732,017;28985,906;   -0,840;    1,864
732,588;28494,419;   -0,021;    1,227
733,159;28631,750;    3,615;   -1,045
733,729;28471,990;    1,251;    0,409
734,300;27732,139;    0,160;    0,864
734,870;28155,925;   -1,385;    0,591
735,441;28681,529;    0,888;   -0,591
736,011;28423,951;    1,070;   -1,591
736,582;28412,736;    1,251;    0,045
737,152;27872,068;    0,979;   -2,045
737,722;28329,308;    1,070;   -0,682
738,293;28035,184;   -2,021;    1,318
738,863;27920,061;    1,797;    2,318
739,433;27730,574;    4,524;    0,318
740,003;28374,905;    1,524;   -0,682
740,573;27748,873;    2,252;   -1,591
741,143;27692,386;    3,615;    0,318
741,713;28429,444;    0,252;   -0,500
742,283;28097,139;    1,706;    1,591
742,853;27860,379;    0,524;    1,591
743,423;27324,619;    0,161;    0,045
743,993;27486,496;    1,070;    1,500
744,563;26843,827;    2,524;   -0,864
745,133;26809,794;   -0,112;   -0,864
745,702;27562,580;    2,797;    1,773
746,272;26699,457;    0,434;    0,591
746,842;26473,333;   -0,748;   -0,591
747,411;26941,482;   -0,839;   -0,318
747,981;27156,814;   -0,930;    0,500
748,551;27152,963;   -0,021;   -1,045
749,120;27029,658;   -0,112;   -0,227
749,690;27370,171;    2,161;    2,409
750,259;27657,229;    0,979;    2,955
750,828;27557,742;    4,070;   -1,955
751,398;27835,255;   -0,112;   -0,045
751,967;27303,404;    2,888;    0,409
752,536;27581,099;    1,161;   -0,227
753,105;27987,703;   -1,384;    0,227
753,675;27765,943;   -0,112;    1,773
754,244;27745,002;    0,888;    3,591
754,813;27816,878;    0,979;    1,227
755,382;27403,573;    0,798;    0,955
755,951;27877,904;   -0,112;    3,682
756,520;27449,599;    2,525;    1,864
757,089;27994,294;    1,888;    0,500
757,658;28142,806;    2,434;    1,227
758,227;28161,138;   -1,111;    0,318
758,795;28450,196;   -1,021;    1,136
759,364;28724,891;    0,525;   -0,591
759,933;27713,676;    1,343;   -0,045
760,501;27241,008;    0,252;   -1,318
761,070;27678,066;   -0,293;   -1,409
761,639;28403,943;    1,434;    1,318
762,207;27716,274;    0,889;   -0,955
762,776;27602,514;    2,889;    0,864
763,344;27556,572;    0,071;    0,591
763,913;26690,540;    1,616;    1,409
764,481;27417,598;    1,980;   -0,136
765,049;27252,838;    0,616;    1,409
765,618;27153,079;    1,434;    0,318
766,186;27207,683;    2,434;    0,136
766,754;27402,105;    1,798;    1,864
767,322;26366,254;    1,162;    0,409
767,890;26333,130;    0,525;   -1,773
768,459;26770,643;    2,616;   -0,318
769,027;26951,975;    2,525;    3,409
769,595;25993,760;    2,616;    2,591
770,163;26398,273;    3,344;    2,955
770,730;26140,968;    2,525;   -0,136
771,298;25939,935;    1,162;   -1,409
771,866;26052,267;    0,253;    4,955
772,434;26352,052;    1,162;   -1,864
773,002;26507,656;    2,616;    0,682
773,569;26138,624;    1,071;    1,682
774,137;25934,773;    0,889;   -0,045
774,705;26763,922;   -0,747;   -0,136
775,272;26223,071;    0,253;    0,682
775,840;26015,312;   -0,111;    2,682
776,407;25502,461;   -0,293;    1,955
776,975;25063,338;    1,162;    0,318
777,542;26158,396;    2,162;   -0,045
778,110;26002,182;    0,707;   -0,045
778,677;25667,513;    1,071;   -0,864
779,244;25389,935;   -1,020;    1,045
779,812;25510,993;    0,980;    0,864
780,379;25346,597;    2,435;    1,136
780,946;25592,292;    2,617;   -0,773
781,513;25912,805;   -0,565;    0,318
782,080;25264,227;    1,253;    2,864
782,647;26008,467;    1,708;    3,045
783,214;25561,798;   -0,201;    3,864
783,781;25150,766;    1,708;   -0,682
784,348;25055,370;    0,253;    1,500
784,915;25528,519;   -1,474;    0,318
785,482;25291,032;    2,708;    2,591
786,049;25729,636;    1,071;   -0,591
786,615;25835,058;    1,708;   -0,955
787,182;25568,752;   -3,201;   -0,682
787,749;25254,902;   -2,201;    1,409
788,315;24580,415;    0,253;   -0,409
788,882;24876,382;    0,981;   -1,227
789,448;25564,259;    1,435;   -0,955
790,015;25561,681;    1,799;    3,227
790,581;25111,467;    0,708;    0,227
791,148;25043,889;    1,344;    1,045
791,714;25239,492;   -1,019;    3,136
792,280;24917,369;    3,708;    1,591
792,847;24516,882;   -0,928;    2,500
793,413;25127,213;   -0,110;   -0,318
793,979;24623,271;    1,526;   -1,318
794,545;24647,239;    2,981;    2,682
795,111;24037,297;    2,435;    1,318
795,678;24214,992;    3,526;   -1,682
796,244;23844,869;    2,799;    0,136
796,810;24496,200;    0,799;    0,773
797,375;24201,622;   -0,292;   -2,136
797,941;24193,953;   -1,110;    0,591
798,507;24329,466;    0,254;   -0,955
799,073;23866,706;    2,708;    0,591
799,639;23934,765;    1,435;    3,136
800,205;23963,914;   -1,565;    2,682
800,770;23551,791;    1,345;    1,773
801,336;23523,758;    2,981;   -0,955
801,901;23239,180;    6,072;    3,136
802,467;23807,329;    0,526;    2,045
803,033;23087,933;   -0,019;    0,864
803,598;23324,628;    1,072;   -1,045
804,163;23372,232;    0,708;   -0,318
804,729;23301,836;   -0,110;    1,136
805,294;23659,349;    1,072;    2,227
805,859;23486,589;    0,890;   -0,409
806,425;22939,193;    3,890;    2,682
806,990;22630,615;    1,890;    4,318
807,555;23172,582;   -0,110;    2,591
808,120;23027,732;   -1,292;   -0,409
808,685;23027,245;    1,072;   -2,500
809,250;22554,576;    2,072;   -0,500
809,815;22886,270;   -0,201;    0,682
810,380;23467,238;    0,981;    1,591
810,945;23941,933;    2,890;    2,045
811,510;23132,082;   -0,200;    1,591
812,075;22786,504;    2,800;   -1,409
812,640;22881,744;    3,709;    1,409
813,204;22913,439;    2,163;   -0,227
813,769;23458,588;    0,254;   -0,045
814,334;22801,647;    0,527;    0,864
814,898;22830,796;    1,981;    0,591
815,463;22650,400;    0,981;   -0,773
816,027;22665,731;    1,345;   -2,318
816,592;22777,789;    2,163;   -2,045
817,156;22265,211;   -2,200;    1,136
817,721;22099,997;    0,982;    2,318
818,285;22033,692;    0,618;    1,500
818,849;22738,932;   -0,018;    1,682
819,414;22629,900;    0,073;    2,955
819,978;22157,776;   -0,291;    1,773
820,542;22782,016;    2,891;    0,500
821,106;22503,166;    2,800;    0,682
821,670;22577,860;    2,709;    2,591
822,234;22245,919;    1,073;    1,409
822,798;21644,614;   -0,836;    0,500
823,362;21667,218;    1,527;    4,227
823,926;20965,003;   -0,018;    1,136
824,490;21172,062;    3,527;   -0,682
825,054;21639,484;    2,527;   -1,136
825,618;21247,724;   -1,200;   -1,500
826,181;21153,873;    0,982;   -1,318
826,745;21085,204;   -0,745;   -1,045
827,309;21424,354;    2,255;    1,318
827,872;20796,321;    0,527;    0,955
828,436;21823,016;    1,982;   -0,773
828,999;21904,074;    2,436;    1,227
829,563;20725,860;   -0,654;    1,136
830,126;20554,737;   -0,018;   -0,591
830,690;20518,886;    0,709;    2,864
831,253;19980,672;   -0,473;    2,227
831,816;20119,003;   -0,018;    0,500
832,380;20073,152;    1,164;    0,864
832,943;20264,847;    3,073;   -0,500
833,506;19825,723;    0,255;   -1,227
834,069;20568,418;    2,164;   -0,955
834,632;20621,113;   -2,200;    1,318
835,195;20539,808;    1,346;    0,955
835,758;19740,866;    0,709;    1,955
836,321;19563,561;    1,073;   -1,045
836,884;19663,892;   -1,291;   -0,955
837,447;19686,405;    0,528;    1,773
838,010;19935,191;    1,800;    3,227
838,573;20219,067;    0,528;    0,773
839,135;20185,671;   -0,109;   -0,955
839,698;19609,820;    2,528;    0,409
840,261;19134,697;    0,255;   -0,227
840,823;19011,392;   -0,927;    0,864
841,386;19286,905;   -0,018;   -2,409
841,948;19165,781;    0,255;    1,773
842,511;18894,567;    0,255;    1,682
843,073;19050,353;    2,982;    0,227
843,636;18844,775;    0,619;   -0,227
844,198;18742,924;    1,255;    0,591
844,760;18872,710;    0,619;    1,955
845,322;18566,222;    0,164;    1,136
845,885;19008,190;   -0,290;    0,591
846,447;19425,430;    0,710;    0,227
847,009;18950,398;    3,983;   -0,682
847,571;19306,729;    1,346;   -2,045
848,133;19366,878;   -0,199;   -1,864
848,695;19205,937;    2,346;    1,409
849,257;18765,904;    1,346;   -1,682
849,819;18952,508;    2,983;   -0,409
850,381;18961,384;    1,801;   -0,864
850,942;19390,806;    1,892;   -0,591
851,504;19250,683;    0,983;    0,227
852,066;19269,741;    1,619;   -1,591
852,628;18883,436;    0,165;    1,955
853,189;18413,131;    0,256;    2,682
853,751;18549,917;   -0,654;    1,409
854,312;18349,157;    1,256;   -1,682
854,874;18887,397;   -0,108;   -0,773
855,435;19363,819;    0,528;   -1,682
855,997;19500,787;    3,983;   -0,136
856,558;18786,209;    0,801;    1,773
857,119;18943,813;   -0,744;    2,864
857,681;18587,780;   -0,108;    0,318
858,242;18632,475;    1,347;   -2,136
858,803;19084,624;    1,074;   -0,773
859,364;19652,319;    0,892;   -4,773
859,925;18953,559;   -0,290;   -0,955
860,486;18835,254;    0,529;   -0,955
861,047;18559,312;    0,165;   -1,227
861,608;18392,007;    0,165;   -0,773
862,169;18537,793;   -0,562;   -0,045
862,730;18291,578;   -0,290;    1,409
863,291;18566,182;    0,438;   -0,500
863,852;18850,150;   -0,926;    1,955
864,412;18333,935;   -1,835;   -0,864
864,973;16934,085;    1,892;    0,500
865,534;16801,416;    2,074;    0,227
866,094;18269,838;    2,620;    0,227
866,655;17940,078;    4,711;    3,318
867,215;18215,227;    0,074;    0,136
867,776;18073,468;   -1,199;   -0,136
868,336;18173,072;    1,529;    0,136
868,897;17621,948;    3,438;    1,682
869,457;17371,007;    3,256;    0,318
870,017;17576,883;    2,438;   -1,227
870,578;18133,123;    1,893;    0,773
871,138;17728,818;    2,620;   -0,955
871,698;17290,513;   -0,562;   -1,318
872,258;17145,844;    0,711;   -2,864
872,818;17518,811;    2,347;    0,045
873,378;17520,688;   -2,198;    1,045
873,938;17052,837;    4,984;    0,500
874,498;17398,168;    1,256;   -1,955
875,058;17266,409;    4,347;    1,773
875,618;17104,831;    1,438;   -2,682
876,177;17108,980;   -0,471;    0,136
876,737;16669,402;   -0,289;    1,955
877,297;16629,370;    2,711;    1,955
877,856;16683,428;    2,529;    0,318
878,416;16617,759;    2,438;   -0,136
878,976;16848,999;    3,438;    0,409
879,535;17030,876;    4,529;    3,136
880,095;16783,480;    1,347;    0,045
880,654;16901,629;    0,347;    1,318
881,213;16996,597;    2,347;    1,500
881,773;16653,200;    1,984;    2,682
882,332;16978,986;    6,075;    5,136
882,891;16842,681;    0,711;    2,136
883,451;17256,557;   -2,016;    1,682
884,010;16722,434;   -1,107;   -0,409
884,569;16785,765;   -2,289;   -0,045
885,128;16927,551;   -0,743;   -1,864
885,687;17022,064;   -0,743;    0,682
886,246;16685,395;    2,620;    2,136
886,805;16415,272;    1,620;    2,045
887,364;16751,966;    1,166;   -0,500
887,922;17149,479;   -0,016;    0,045
888,481;16616,083;    1,530;    0,591
889,040;16893,232;    3,711;    2,136
889,599;17606,745;    2,166;    1,409
890,157;17703,531;    2,166;    2,409
890,716;17327,226;    2,166;    0,227
891,274;17140,648;    0,075;   -1,136
891,833;17571,524;    1,166;    0,864
892,391;17453,401;    1,802;    0,500
892,950;17539,914;    0,166;   -0,773
893,508;17829,791;    0,984;   -0,409
894,067;17209,758;   -0,379;    0,136
894,625;17150,453;   -1,016;   -1,500
895,183;17345,784;   -0,198;   -0,682
895,741;17279,933;    2,257;   -1,773
896,299;17079,446;    1,621;   -2,409
896,858;17269,414;    1,530;   -1,591
897,416;17369,199;    0,166;   -1,318
897,974;17125,712;   -2,197;    0,318
898,532;17317,680;    6,530;    2,682
899,089;17198,556;    0,621;   -0,682
899,647;17247,978;    0,530;    1,318
900,205;16940,128;    0,257;    1,045
900,763;17130,277;    2,166;    0,227
901,321;17166,972;    3,530;   -1,409
901,878;16577,667;    3,257;   -0,773
902,436;16459,543;    0,257;    1,318
902,994;16878,602;    6,712;    3,682
903,551;16261,296;    1,439;    0,409
904,109;16666,627;    1,530;   -1,409
904,666;16289,413;    1,439;    1,045
905,224;16071,562;    3,894;   -0,409
905,781;15800,621;   -0,470;   -0,318
906,338;15881,770;    0,167;    1,045
906,895;15871,283;    1,894;    2,045
907,453;15760,887;    2,348;    1,136
908,010;15778,309;    3,348;    0,409
908,567;15415,549;   -0,561;    0,591
909,124;14935,699;    2,439;   -1,500
909,681;14979,484;   -1,288;    0,682
910,238;15173,179;   -0,106;   -1,318
910,795;15497,056;   -1,561;   -1,136
911,352;15174,692;   -0,379;   -2,682
911,909;14540,874;    2,803;   -0,864
912,466;15028,419;    1,985;    1,500
913,022;14551,237;   -0,924;    0,500
913,579;14912,510;   -0,470;    2,045
914,136;14615,237;   -2,561;    0,955
914,692;14995,419;    1,530;   -1,227
915,249;14540,237;    0,530;    0,409
915,806;14728,146;    1,803;    1,955
916,362;14444,056;    0,894;    1,864
916,918;14049,237;    2,439;    1,045
917,475;14020,328;    1,621;    0,955
918,031;14142,692;    0,076;   -0,045
918,587;13560,965;    0,621;   -0,318
919,144;13782,783;   -0,379;    0,227
919,700;14114,783;    0,167;    0,773
920,256;13670,328;    0,439;    0,045
920,812;13281,237;    1,439;   -1,045
921,368;13290,419;    1,348;   -1,045
921,924;12946,328;    0,439;   -0,136
922,480;12501,783;    0,076;    1,227
923,036;13112,965;   -0,652;    1,955
923,592;13068,419;    0,621;    0,318
924,148;12950,237;    1,894;   -0,955
924,704;12319,419;    0,258;   -0,409
925,259;12602,056;   -0,561;    0,591
925,815;12327,419;    3,803;    0,500
926,371;11863,965;    3,530;    1,409
926,926;11746,874;    1,621;    0,591
927,482;11385,056;    1,621;    0,773
928,037;11268,692;   -0,833;    2,045
928,593;11554,510;    0,258;    1,045
929,148;11365,328;    1,167;   -1,500
929,704;10894,510;    2,439;   -0,500
930,259;11069,419;    0,894;   -0,136
930,814;10155,692;    1,803;    1,955
931,369; 9864,146;    0,258;   -0,773
931,925; 9764,237;   -1,924;    0,136
932,480; 9652,965;    3,076;   -2,591
933,035; 9527,237;    3,985;   -0,318
933,590; 9266,965;   -1,742;   -1,773
934,145; 8958,237;   -1,288;   -0,318
934,700; 9313,146;    0,348;   -0,591
935,255; 9067,056;    4,803;    0,045
935,809; 8342,965;    6,258;    0,864
936,364; 7476,510;    2,167;   -0,136
936,919; 7489,146;    2,348;   -1,773
937,474; 7385,328;    1,348;    0,136
938,028; 7144,056;    3,076;    1,136
938,583; 6552,146;    6,348;    4,682
939,138; 6860,692;    0,167;    2,136
939,692; 6323,874;   -1,015;   -1,136
940,247; 5993,056;    1,167;   -1,045
940,801; 5519,237;    0,621;    0,227
941,355; 5430,419;    0,439;    2,591
941,910; 5116,146;    0,712;   -2,136
942,464; 5213,146;    2,712;   -0,318
943,018; 4988,601;    3,258;   -0,227
943,572; 4945,419;    2,803;   -0,682
944,126; 4342,419;   -0,924;   -0,409
944,681; 4224,146;    0,712;    0,227
945,235; 4226,783;    2,167;   -0,591
945,789; 4161,510;    1,258;   -1,864
946,342; 4267,419;   -0,561;   -0,591
946,896; 4082,510;    0,348;    0,955
947,450; 3842,510;   -0,561;   -0,227
948,004; 4029,783;    1,076;   -0,045
948,558; 4057,965;    1,258;   -0,864
949,111; 3956,601;   -1,197;   -0,318
949,665; 3995,783;   -0,106;   -0,682
950,219; 3851,237;    0,621;   -1,045
950,772; 3929,783;    0,258;    1,864
951,326; 3880,874;   -1,106;   -0,955
951,879; 3973,510;    1,076;   -2,318
952,433; 3985,510;    1,348;    2,227
952,986; 3814,419;    0,348;    0,682
953,539; 3754,692;    1,530;    0,591
954,093; 3709,146;    0,985;   -1,318
954,646; 3814,419;   -0,288;    1,318
955,199; 3647,056;    1,258;   -0,500
955,752; 3518,510;    1,985;    1,773
956,305; 3460,692;    0,894;    2,955
956,858; 3651,419;    0,621;   -0,318
957,411; 3828,692;    3,621;    2,136
957,964; 3644,146;    2,076;    2,136
958,517; 3632,237;    0,985;    3,136
959,070; 3475,237;   -1,197;    1,955
959,623; 3536,510;    1,076;    1,500
960,176; 3309,419;    0,712;    2,045
960,728; 3282,237;    1,712;    0,773
961,281; 3351,692;    2,258;    0,500
961,834; 3389,783;   -0,833;    0,864
962,386; 3300,510;    1,258;    1,045
962,939; 3231,874;    3,439;   -0,318
963,491; 3374,601;    2,621;    1,136
964,043; 3234,237;    0,076;    2,409
964,596; 3370,419;    1,712;    2,227
965,148; 3184,874;   -0,379;    1,773
965,700; 3127,510;   -0,015;   -0,227
966,253; 3281,328;   -0,833;    0,318
966,805; 3100,419;    1,894;    0,773
967,357; 3165,510;    0,439;   -1,500
967,909; 3109,601;    1,167;   -1,227
968,461; 3228,237;    0,894;    3,136
969,013; 3154,965;   -1,561;   -0,864
969,565; 3230,056;    1,803;   -1,136
970,117; 3288,965;    3,803;    1,045
970,669; 3138,965;    3,258;   -0,136
971,220; 2998,965;    2,167;   -1,500
971,772; 2920,874;    1,348;   -0,318
972,324; 3032,510;   -1,197;   -0,500
972,876; 2986,237;    0,167;   -0,045
973,427; 3109,419;   -1,197;   -1,045
973,979; 3094,601;    0,076;   -2,500
974,530; 3116,237;    0,803;    1,318
975,082; 3117,419;    2,167;    1,682
975,633; 3020,874;    2,894;    1,682
976,184; 3181,237;    2,076;    0,773
976,736; 2959,328;    0,348;    0,227
977,287; 2757,783;    0,258;   -0,500
977,838; 2965,965;   -0,924;   -0,318
978,389; 3007,056;    0,803;   -0,500
978,940; 2878,965;    1,258;   -0,409
979,491; 2895,874;    2,258;   -0,500
980,042; 2849,146;   -0,652;    3,045
980,593; 2922,783;    1,894;    0,227
981,144; 2957,328;    3,530;   -0,500
981,695; 2946,237;   -0,470;    1,500
982,246; 2919,056;   -1,833;    1,045
982,797; 3070,510;   -0,561;    0,682
983,347; 3177,601;    2,167;    0,591
983,898; 3307,783;    4,167;    0,409
984,449; 3143,328;    2,530;    0,773
984,999; 3057,601;    1,894;   -1,136
985,550; 2812,783;    3,167;   -0,318
986,100; 2870,965;    0,712;   -0,318
986,651; 2916,056;    0,258;    0,045
987,201; 2908,419;    0,894;   -0,591
987,751; 2984,056;   -0,288;    2,864
988,302; 2944,601;   -0,379;    1,500
988,852; 2975,419;    1,985;   -1,136
989,402; 3010,692;    0,985;    0,682
989,952; 2910,692;    1,621;    0,864
990,502; 3019,874;    1,076;    0,682
991,052; 2993,510;   -0,106;    0,045
991,602; 2854,692;    1,167;    1,318
992,152; 2863,601;    2,803;    0,682
992,702; 2833,056;    1,167;   -0,045
993,252; 2764,237;    0,076;   -0,500
993,802; 2839,419;    1,167;    1,318
994,352; 3077,237;   -0,742;    1,136
994,901; 3178,783;    1,076;    3,227
995,451; 3090,237;   -1,197;    0,318
996,000; 3159,328;    1,076;    0,318
996,550; 2875,237;    2,894;    0,227
997,100; 2889,146;   -0,561;   -0,045
997,649; 3171,328;   -0,197;    0,955
998,198; 2791,783;   -0,288;   -1,500
998,748; 2971,328;    0,348;   -2,318
999,297; 2886,146;    0,985;   -0,409
999,846; 2971,783;    1,894;   -0,773
1000,395; 3019,419;    1,530;    0,500
1000,945; 2965,874;    1,076;   -0,773
1001,494; 3039,510;    0,167;    0,682
1002,043; 3030,237;    0,712;    0,864
1002,592; 2879,056;    3,439;    1,955
1003,141; 3035,237;    2,439;   -0,682
1003,690; 2859,783;    1,258;    0,500
1004,238; 2927,783;   -0,106;   -0,045
1004,787; 2573,692;   -1,288;    1,227
1005,336; 2796,419;    1,621;    0,682
1005,885; 2952,146;   -0,197;   -2,773
1006,433; 3100,965;   -0,470;    0,955
1006,982; 3167,237;    2,167;    1,682
1007,531; 3091,783;    2,712;   -0,227
1008,079; 3045,692;    0,258;    0,500
1008,627; 3188,056;    1,621;    0,409
1009,176; 2930,419;    0,076;   -1,955
1009,724; 2951,056;   -2,742;    0,864
1010,273; 3004,510;    1,076;    0,500
1010,821; 3119,965;    1,076;    1,409
1011,369; 2844,328;    0,076;    1,318
1011,917; 2833,237;   -0,833;   -0,591
1012,465; 3126,965;    2,530;   -1,591
1013,013; 3245,965;    0,439;   -1,682
1013,561; 3117,601;   -1,288;   -0,773
1014,109; 3163,328;   -0,833;    1,682
1014,657; 3013,692;    1,348;    0,591
1015,205; 3135,874;    0,894;   -0,955
1015,753; 3184,510;    0,258;   -1,409
1016,301; 3215,328;    2,621;    3,045
1016,848; 3236,328;    2,167;    0,409
1017,396; 3259,237;    1,621;    0,045
1017,944; 3396,146;    2,621;    1,864
1018,491; 3163,419;   -0,197;    1,409
1019,039; 3291,965;   -0,652;    0,591
1019,586; 3216,419;    0,076;    1,682
1020,134; 3303,328;    0,712;    1,500
1020,681; 3302,146;    2,894;   -1,136
1021,228; 3327,146;   -0,561;   -2,227
1021,776; 3166,510;   -0,833;   -1,136
1022,323; 3394,328;    0,803;    0,773
1022,870; 3329,056;   -0,470;   -0,045
1023,417; 3226,419;    2,076;    1,864
1023,964; 3377,510;    0,621;    1,227
1024,511; 3187,965;   -0,652;    0,773
1025,058; 2990,056;    0,439;   -0,045
1025,605; 3048,783;   -1,742;    3,136
1026,152; 3268,146;   -0,106;   -0,591
1026,699; 3009,874;    0,167;    1,318
1027,245; 3173,874;    2,439;    0,318
1027,792; 3417,601;    0,712;    1,409
1028,339; 3269,146;    4,076;   -0,045
1028,885; 3126,601;    3,621;   -0,227
1029,432; 3066,965;   -0,106;    0,227
1029,978; 3129,419;    1,348;   -1,591
1030,525; 3014,146;    1,621;    0,409
1031,071; 3270,146;    0,348;    1,136
1031,618; 3360,510;    1,258;    1,682
1032,164; 3146,965;    2,076;    3,045
1032,710; 3204,328;    0,076;   -1,500
1033,256; 3124,419;    0,712;   -0,136
1033,803; 3117,510;   -0,288;    1,500
1034,349; 2846,056;    1,803;    0,136
1034,895; 2989,783;    2,621;   -0,318
1035,441; 2972,510;    0,439;    0,318
1035,987; 2981,510;   -2,288;   -0,682
1036,533; 2969,510;   -0,197;   -0,955
1037,078; 3175,056;    4,712;    1,682
1037,624; 2989,146;    2,439;   -0,955
1038,170; 3017,056;    1,712;   -0,318
1038,716; 2903,601;    2,167;   -0,409
1039,261; 2830,056;    2,167;   -0,773
1039,807; 2776,692;   -0,015;    3,409
1040,352; 2842,965;   -1,288;   -0,318
1040,898; 2880,601;    0,167;   -0,682
1041,443; 2787,601;    0,803;   -2,591
1041,989; 2813,328;    3,621;    1,591
1042,534; 2702,419;    0,985;    2,591
1043,079; 2805,237;    1,985;    0,955
1043,625; 2595,056;    0,258;    0,500
1044,170; 2642,874;    2,439;    1,045
1044,715; 2918,237;    0,167;    0,955
1045,260; 2727,237;   -0,833;   -0,955
1045,805; 2769,237;    0,258;   -0,591
1046,350; 2724,146;    0,530;   -0,409
1046,895; 2685,783;    0,803;    1,591
1047,440; 2618,328;    1,530;    0,409
1047,985; 2517,692;   -1,197;   -0,955
1048,530; 2435,692;    1,348;    1,227
1049,074; 2504,692;    2,803;    0,318
1049,619; 2476,601;   -0,924;    1,955
1050,164; 2271,056;    1,076;    0,227
1050,708; 2332,237;    2,621;    0,045
1051,253; 2694,237;    3,258;   -2,227
1051,797; 2411,874;   -0,197;   -1,318
1052,342; 2424,692;    1,348;    1,045
1052,886; 2410,874;    1,803;   -1,409
1053,430; 2297,328;    2,167;    0,136
1053,975; 2321,783;    0,894;   -0,318
1054,519; 2306,601;    1,803;    3,227
1055,063; 2312,146;    3,621;    1,318
1055,607; 2192,056;    1,348;    0,227
1056,151; 2221,965;    0,530;    1,682
1056,695; 2137,783;   -1,833;   -1,136
1057,239; 2204,965;   -1,197;   -0,682
1057,783; 2213,965;    2,258;   -1,500
1058,327; 2156,692;    3,076;    1,409
1058,871; 2367,237;    3,985;    1,318
1059,415; 2085,783;   -0,561;   -0,045
1059,958; 2339,419;    2,985;    2,591
1060,502; 2063,601;    1,348;   -0,773
1061,046; 1964,874;    1,712;   -0,955
1061,589; 1954,237;    2,803;   -1,136
1062,133; 1837,146;    0,985;    1,864
1062,676; 1768,965;    1,439;    0,864
1063,220; 1772,874;    0,985;    0,500
1063,763; 1806,510;    2,985;    1,136
1064,306; 1877,146;    0,985;    1,864
1064,849; 1758,328;    2,076;    0,591
1065,393; 1767,146;    2,894;   -1,500
1065,936; 1886,965;    2,530;   -0,409
1066,479; 1782,419;    2,621;    1,318
1067,022; 1792,601;    1,894;   -0,227
1067,565; 1680,692;   -1,197;   -1,318
1068,108; 1733,510;    1,258;   -0,591
1068,651; 1708,419;   -2,470;    1,409
1069,194; 1629,056;   -1,106;   -1,682
1069,736; 1620,601;    3,803;    0,955
1070,279; 1586,056;   -1,652;   -0,500
1070,822; 1649,874;    1,530;   -0,318
1071,364; 1723,328;    0,530;    1,318
1071,907; 1557,692;    0,348;    3,227
1072,450; 1466,056;    0,258;   -0,045
1072,992; 1461,874;   -0,561;    3,136
1073,535; 1575,056;    0,167;    2,136
1074,077; 1392,965;    2,985;    2,045
1074,619; 1358,692;    0,985;    0,591
1075,161; 1384,328;   -0,561;    1,500
1075,704; 1556,510;    0,258;    1,227
1076,246; 1381,874;    1,530;    0,682
1076,788; 1297,874;   -1,015;    1,773
1077,330; 1375,601;   -2,106;    2,136
1077,872; 1330,146;   -1,924;    0,955
1078,414; 1555,510;    3,712;    0,773
1078,956; 1288,328;    0,167;   -0,227
1079,498; 1534,237;    0,439;    0,318
1080,040; 1236,510;    0,985;   -1,318
1080,581; 1197,237;    0,621;   -0,318
1081,123; 1135,874;   -0,106;   -0,773
1081,665; 1181,328;    3,803;   -0,955
1082,206; 1470,510;    3,258;   -0,500
1082,748; 1332,056;    3,258;    2,045
1083,289; 1210,783;    0,167;    1,318
1083,831; 1124,601;    0,258;    0,227
1084,372; 1150,601;    0,894;    0,591
1084,913; 1149,874;    3,348;    0,864
1085,455; 1133,783;    1,530;   -2,045
1085,996; 1089,510;    0,530;    0,136
1086,537; 1109,874;    0,985;    0,864
1087,078; 1156,146;    0,439;   -2,136
1087,619; 1189,783;   -1,652;    0,227
1088,160; 1110,783;    1,439;    1,318
1088,701; 1088,692;   -0,742;    0,682
1089,242; 1029,510;   -0,561;   -2,227
1089,783; 1108,146;   -0,561;    1,409
1090,324; 1087,965;   -0,833;    0,682
1090,865;  962,237;   -1,924;   -0,409
1091,405;  950,601;   -0,561;    2,227
1091,946;  985,510;   -0,197;   -0,955
1092,487;  911,419;   -1,288;   -1,409
1093,027; 1076,692;    1,803;   -1,500
1093,568;  923,237;    2,258;    1,227
1094,108;  997,874;    0,621;    1,773
1094,649;  952,692;   -0,470;    0,136
1095,189;  903,056;    1,167;   -0,682
1095,729;  836,419;    0,712;    0,955
1096,269;  849,783;    1,258;   -0,955
1096,810; 1152,056;   -0,197;    0,500
1097,350;  988,419;   -0,561;   -0,773
1097,890;  881,056;    2,985;    1,227
1098,430; 1133,419;    4,985;    2,864
1098,970; 1005,783;    1,894;    1,682
1099,510;  878,783;   -0,833;   -2,318
1100,050;  808,692;    0,258;   -1,591
1100,589;  774,419;    0,076;   -0,318
1101,129;  901,510;    0,894;   -0,955
1101,669; 1030,419;    2,803;    2,136
1102,209;  862,510;    1,530;    2,227
1102,748;  816,056;    3,439;    0,955
1103,288;  802,510;    0,712;   -1,227
1103,827;  823,237;    3,530;   -2,227
1104,367;  714,692;    1,712;   -2,409
1104,906;  685,965;   -1,015;   -1,136
1105,445;  753,601;    0,985;   -1,136
1105,985;  691,510;   -0,652;    1,500
1106,524;  736,874;    1,530;   -0,682
1107,063;  713,965;    1,167;    1,409
1107,602;  688,783;    1,894;   -1,500
1108,141;  613,419;    1,621;    1,500
1108,680;  717,965;    3,985;   -0,591
1109,219;  662,601;    0,167;   -0,500
1109,758;  654,419;    4,167;    0,682
1110,297;  629,146;   -1,106;   -0,682
1110,836;  578,419;    1,439;    0,955
1111,375;  723,510;    0,348;    0,409
1111,913;  730,328;    0,985;    0,773
1112,452;  679,965;    0,894;    0,136
1112,991;  572,874;    1,076;    1,955
1113,529;  534,510;    0,167;   -0,045
1114,068;  602,328;    0,439;    2,955
1114,606;  498,692;   -0,561;   -0,955
1115,144;  651,965;    1,530;    1,045
1115,683;  587,874;    1,985;    0,318
1116,221;  649,056;    2,076;   -0,864
1116,759;  569,874;    1,621;   -0,864
1117,297;  742,510;    1,621;    1,864
1117,836;  558,419;    1,985;   -1,227
1118,374;  567,783;    0,258;   -0,682
1118,912;  519,056;    0,439;    2,682
1119,450;  495,510;    0,985;    0,864
1119,988;  540,783;    3,348;    2,136
1120,525;  980,328;    7,258;    3,318
1121,063;  685,965;    0,530;    1,864
1121,601;  505,146;    1,076;   -1,227
1122,139;  457,510;    1,076;   -2,045
1122,676;  650,056;   -1,652;    2,773
1123,214;  596,056;    0,712;    4,409
1123,751;  413,146;    0,621;    2,227
1124,289;  529,510;    0,894;   -0,409
1124,826;  405,237;   -0,379;    0,227
1125,364;  342,146;    0,712;   -0,955
1125,901;  518,419;    6,258;    1,227
1126,438;  612,601;    3,530;    0,955
1126,975;  356,056;    2,985;   -0,773
1127,513;  419,146;    2,621;    2,136
1128,050;  331,237;   -0,561;   -0,682
1128,587;  431,419;    1,348;   -0,227
1129,124;  467,237;   -0,015;    1,318
1129,661;  349,237;   -1,924;    0,227
1130,198;  509,146;    2,439;    0,773
1130,734;  443,783;   -0,379;    1,409
1131,271;  313,328;   -1,197;    0,864
1131,808;  473,874;    1,621;    3,045
1132,345;  352,056;    4,530;    0,318
1132,881;  243,419;   -0,561;   -1,864
1133,418;  369,056;    0,348;   -1,136
1133,954;  302,965;    0,712;   -2,682
1134,491;  374,510;    1,712;   -0,773
1135,027;  285,510;    2,167;    0,864
1135,564;  355,874;    1,439;    2,955
1136,100;  338,419;   -0,742;    2,136
1136,636;  248,419;   -1,015;   -1,045
1137,172;  328,237;    0,894;   -1,045
1137,708;  263,783;   -1,561;   -1,045
1138,245;  270,237;    0,803;   -1,227
1138,781;  238,146;    1,803;   -3,318
1139,317;  282,874;    1,894;   -1,409
1139,852;  276,419;    3,076;    0,136
1140,388;  381,510;    2,076;   -0,409
1140,924;  267,510;    1,076;   -2,227
1141,460;  213,783;   -0,288;    0,136
1141,996;  151,965;   -0,652;    2,682
1142,531;  189,510;    1,076;    3,318
1143,067;  391,692;    1,167;    1,045
1143,602;  450,237;    3,439;   -0,318
1144,138;  295,965;    0,803;    1,045
1144,673;  180,328;    1,621;    1,409
1145,209;  241,237;    2,894;   -0,318
1145,744;  169,874;    0,803;    0,864
1146,279;  288,419;    1,530;   -0,136
1146,815;  217,965;    1,530;   -2,682
1147,350;  253,783;   -0,924;    0,045
1147,885;  177,056;   -1,924;   -1,318
1148,420;  177,783;    2,439;    0,773
1148,955;  157,419;   -1,470;    1,864
1149,490;  175,783;   -1,106;   -1,591
1150,025;  164,965;   -1,106;   -1,773
1150,560;  266,965;   -0,288;   -0,955
1151,094;  233,146;    0,258;   -0,591
1151,629;  240,146;   -3,742;    0,864
1152,164;  170,328;   -1,288;    1,318
1152,698;  133,783;    1,258;   -0,136
1153,233;   96,874;   -1,379;   -0,682
1153,767;  141,237;   -0,288;   -2,318
1154,302;  180,965;   -0,379;    1,773
1154,836;  178,328;    0,803;   -2,136
1155,371;  226,692;    2,258;    3,682
1155,905;  183,419;    1,985;    1,682
1156,439;  157,692;    0,530;   -0,500
1156,973;  188,237;    0,439;    0,318
1157,507;  125,601;   -1,742;    0,682
1158,042;  153,783;   -0,652;    1,045
1158,576;  191,783;   -0,561;    1,773
1159,110;  181,874;    0,076;    2,409
1159,643;  163,328;   -2,470;   -0,045
1160,177;  103,510;   -2,015;    1,500

