
Integration time [ms]:   0,050
Averaging Nr. [scans]: 11
Smoothing Nr. [pixels]: 0
Data measured with spectrometer [name]: 7318044SP
Wave   ;Sample   ;Dark     ;Reference
[nm]   ;[counts] ;[counts] ;[counts] 

186,757;  -21,905;   38,161;    1,318
187,357;   -7,098;   26,706;    0,955
187,958;  -20,383;   17,252;   -1,591
188,558;   19,812;   12,979;   -1,227
189,159;   -5,901;   10,070;   -4,500
189,759;  -21,029;    5,797;   -3,591
190,360;  -25,819;    6,797;   -2,136
190,960;   -2,859;    5,706;   -4,136
191,560;   -1,493;    2,614;   -6,591
192,161;  188,712;    5,885;   -3,500
192,761;   64,582;    5,520;   -3,227
193,361;   11,156;    3,065;   -3,773
193,962;   56,005;    1,612;   -2,682
194,562;   -1,790;   -0,114;   -3,955
195,162;    1,020;   -0,567;   -2,227
195,762;  110,343;    2,433;   -0,045
196,362;   66,948;    1,706;   -2,500
196,963;  -12,209;    1,706;   -0,864
197,563;   31,999;    1,252;   -0,955
198,163;   -3,251;   -0,111;   -0,682
198,763;    4,061;   -0,020;   -0,500
199,363;   45,134;    3,616;   -0,500
199,963;   27,292;    2,162;    0,409
200,563;   15,934;    6,344;   -1,409
201,163;   -7,137;    5,435;   -0,227
201,763;   22,930;    1,435;    0,318
202,363;   -2,331;    0,980;    1,500
202,963;   25,630;    1,526;    1,045
203,563;   68,426;    0,344;    0,500
204,162;    8,446;    1,889;   -1,864
204,762;    9,477;    2,071;    0,591
205,362;  -11,639;    0,708;    1,955
205,962;   14,767;    3,435;    1,955
206,562;   10,348;    1,889;    2,318
207,161;   -5,319;    1,708;    0,318
207,761;   68,653;    4,435;    2,409
208,361;   10,183;    1,889;    1,409
208,960;   18,660;    2,889;    1,500
209,560;   19,764;    0,435;    1,591
210,160;   27,877;    5,071;    1,864
210,759;   12,314;    0,708;    1,227
211,359;    5,384;   -0,474;    1,045
211,958;   97,437;    3,526;    2,045
212,558;  105,498;    0,799;    1,864
213,157;   36,017;   -0,929;    1,500
213,757;  164,141;    5,617;   -0,227
214,356;   59,184;    1,708;   -0,409
214,956;  145,191;    3,526;    0,409
215,555;   36,620;    0,617;    2,136
216,154;    9,834;   -0,292;   -0,591
216,754;   14,187;    1,253;    0,773
217,353;   16,143;   -0,383;   -1,045
217,952;  -20,399;    2,072;    0,318
218,552;   39,515;    0,254;   -0,773
219,151;    7,242;   -1,110;    0,955
219,750;   -0,873;    0,890;   -0,227
220,349;   -4,401;   -2,292;    1,045
220,948;   48,304;    1,163;    1,136
221,548;    1,940;    0,617;    1,227
222,147;    7,402;   -1,292;   -0,409
222,746;   80,289;    1,254;   -0,955
223,345;   30,041;   -1,019;    0,500
223,944;   25,915;    1,163;    0,773
224,543;   36,397;    4,072;   -1,409
225,142;   24,017;    1,345;    0,136
225,741;   30,373;    1,163;    1,045
226,340;   18,793;    1,254;   -0,955
226,939;   67,301;    2,708;   -0,136
227,538;   16,481;    1,163;   -0,773
228,137;   77,047;    0,435;    0,864
228,735;   55,679;    0,435;    1,227
229,334;  -13,149;   -0,474;   -0,227
229,933;   72,470;    0,799;    0,591
230,532;   69,229;   -1,201;   -0,409
231,131;  104,312;    1,253;    0,318
231,729;   46,173;    1,163;   -2,318
232,328;   13,762;    0,435;   -1,500
232,927;   23,069;    4,526;   -0,500
233,525;   12,490;    0,981;    0,045
234,124;   31,652;    1,890;   -1,591
234,723;    4,327;    1,617;   -1,045
235,321;   -9,625;    1,163;    0,136
235,920;    4,632;    2,526;   -1,227
236,518;   69,225;    1,072;    0,318
237,117;    3,640;    2,890;   -0,227
237,715;   21,460;    1,163;   -0,500
238,314;   26,062;    1,708;   -2,318
238,912;   72,367;    0,526;   -1,409
239,510;   44,710;    1,162;   -1,227
240,109;   82,061;   -0,474;    3,773
240,707;   61,781;   -0,474;    1,227
241,305;    7,030;   -0,383;    0,136
241,904;   39,393;   -0,292;   -2,045
242,502;  103,135;    3,253;   -0,227
243,100;   51,632;    3,344;   -0,955
243,698;    8,725;    2,799;    1,682
244,297;   27,856;   -0,656;    0,682
244,895;   27,637;   -0,474;   -2,318
245,493;  106,655;    2,981;   -0,591
246,091;  116,603;    5,163;   -1,318
246,689;   71,689;    2,163;    0,591
247,287;   64,925;   -0,019;   -1,136
247,885;   49,478;   -1,019;    1,227
248,483;   33,979;   -0,201;   -0,500
249,081;   71,086;    0,981;    1,591
249,679;  103,916;   -1,019;    1,682
250,277;   48,807;   -2,292;    0,864
250,875;  108,819;    0,617;   -1,045
251,473;   70,677;   -0,019;    0,500
252,071;  129,252;   -0,383;    1,045
252,669;   82,643;   -1,565;    0,318
253,267;   60,720;    1,618;    0,773
253,864;   90,289;    0,617;    0,682
254,462;  190,373;    1,526;    1,591
255,060;   74,439;    0,072;    1,318
255,658;   78,734;   -3,292;   -0,136
256,255;  117,556;   -0,201;   -2,045
256,853;  157,478;    2,345;    1,409
257,451;  141,918;    1,981;    1,864
258,048;  447,802;    2,072;    1,864
258,646;  247,640;    0,436;   -1,045
259,243;  330,933;    2,981;    2,227
259,841;  246,525;    1,799;    0,318
260,438;  145,088;    0,254;    0,864
261,036;  247,256;    0,617;    1,409
261,633;  173,289;    1,526;    2,227
262,231;  153,114;   -0,110;   -0,045
262,828;  150,949;   -0,383;    1,136
263,425;  210,247;   -1,928;   -0,591
264,023;  223,439;    1,436;    0,045
264,620;  352,449;    1,526;   -0,318
265,217;  474,102;    2,890;    3,136
265,815;  259,439;    2,527;    2,136
266,412;  377,839;    0,072;    0,136
267,009;  401,185;    0,526;    0,773
267,606;  480,822;    0,345;   -0,955
268,203;  315,672;   -0,383;   -0,591
268,801;  360,306;   -0,474;    0,591
269,398;  284,252;   -0,564;    2,500
269,995;  429,040;    0,890;    1,591
270,592;  373,792;    0,799;   -0,500
271,189;  298,830;    1,981;    0,409
271,786;  283,284;    2,072;    1,227
272,383;  517,084;   -0,383;    0,227
272,980;  380,527;    1,617;    0,318
273,577;  338,823;    2,162;    1,227
274,174;  311,693;    1,435;    2,591
274,771;  439,097;    1,890;   -0,773
275,367;  796,819;    3,253;    1,409
275,964;  613,942;   -0,565;   -0,500
276,561;  414,021;   -2,474;   -1,045
277,158;  334,734;    1,799;   -1,773
277,755;  566,995;   -0,110;    0,409
278,351;  446,635;    0,436;   -1,500
278,948;  514,776;   -0,201;    0,045
279,545;  449,749;    0,527;    2,318
280,141;  640,080;    1,254;   -2,045
280,738;  596,178;    2,435;   -0,136
281,334;  395,616;   -0,383;    0,591
281,931;  420,747;    2,890;   -1,318
282,528;  524,300;    4,072;   -0,500
283,124;  603,463;    3,345;   -0,500
283,721;  606,909;    0,709;    1,409
284,317;  469,725;    0,163;    2,500
284,913;  661,160;   -0,110;    0,591
285,510;  938,069;    2,890;   -0,318
286,106;  751,518;    2,345;   -0,955
286,703;  530,184;    0,072;    1,955
287,299;  488,797;    1,254;   -0,591
287,895;  510,208;    0,890;   -1,045
288,491;  541,889;    0,163;    2,136
289,088;  683,174;    0,163;    2,409
289,684;  747,461;    2,890;    1,500
290,280;  945,338;    1,890;    0,682
290,876;  937,957;    0,163;    5,500
291,472;  855,857;    2,163;    2,227
292,068;  912,801;    1,254;    0,227
292,665;  788,252;   -0,564;    0,773
293,261;  731,840;   -1,292;    2,136
293,857;  991,600;    4,072;    2,136
294,453;  971,374;   -0,928;    0,955
295,049; 1244,530;    0,253;    1,955
295,644; 1100,364;   -1,292;    0,136
296,240; 1045,339;    0,162;   -0,136
296,836; 1267,957;   -0,747;    0,318
297,432; 1500,355;    2,980;   -0,500
298,028; 1637,237;    0,435;    0,773
298,624; 1570,154;    0,889;    1,864
299,220; 1651,441;    0,435;    0,591
299,815; 1622,837;    0,526;   -0,409
300,411; 1772,985;    0,435;    1,773
301,007; 1945,677;    1,889;    0,227
301,602; 1861,662;    2,071;   -2,318
302,198; 2033,354;    1,435;   -0,773
302,794; 2040,758;    1,526;   -0,500
303,389; 2125,955;    1,071;    1,045
303,985; 2225,028;    1,253;    1,409
304,580; 2321,026;    0,889;    1,591
305,176; 2253,680;    0,344;    0,136
305,771; 2175,574;   -0,929;   -1,227
306,367; 2517,213;    3,071;    0,136
306,962; 2446,208;    2,889;    1,500
307,558; 2298,235;    2,435;    0,136
308,153; 2384,503;   -0,383;   -1,136
308,748; 2294,623;    0,162;    1,682
309,344; 2590,245;    0,253;   -1,318
309,939; 2651,415;    2,071;   -1,318
310,534; 2446,557;   -2,020;   -1,682
311,130; 2315,056;   -0,656;   -2,500
311,725; 2107,186;    0,526;   -0,500
312,320; 2229,095;    1,253;    0,045
312,915; 2301,835;    2,890;   -1,045
313,510; 2432,314;    0,526;   -0,500
314,105; 2354,060;   -3,565;    1,409
314,700; 1947,009;   -1,656;   -1,045
315,295; 1894,571;   -0,020;    0,045
315,890; 1691,471;   -0,292;    0,864
316,485; 1783,832;    0,253;   -0,318
317,080; 1746,036;   -0,929;    1,591
317,675; 2034,282;    3,071;   -0,682
318,270; 2108,197;    6,889;    3,318
318,865; 1997,192;    2,435;    3,045
319,460; 1732,267;   -1,565;    0,591
320,055; 1617,934;   -2,565;   -1,227
320,650; 1515,696;   -1,838;   -0,591
321,244; 1479,959;    0,889;   -1,409
321,839; 1672,842;    0,980;   -0,227
322,434; 1662,549;   -0,111;   -1,591
323,029; 1504,163;   -0,474;    1,591
323,623; 1449,169;    0,798;    0,773
324,218; 1558,674;    2,707;    1,409
324,812; 1496,036;    0,889;    1,591
325,407; 1497,540;   -0,929;    2,045
326,002; 1576,245;    0,526;   -0,409
326,596; 1594,266;   -0,656;    1,318
327,191; 1526,220;   -0,383;   -1,045
327,785; 1427,448;   -0,747;   -0,227
328,379; 1624,616;   -0,383;    0,136
328,974; 1613,557;    1,798;   -3,955
329,568; 1756,709;    2,889;   -2,409
330,163; 1840,569;    2,435;    1,045
330,757; 1881,088;    0,253;    1,591
331,351; 1791,429;   -0,292;    0,682
331,945; 1911,117;   -0,383;    1,409
332,540; 2025,252;    1,617;   -0,591
333,134; 2085,430;    3,344;    0,773
333,728; 2176,857;    2,799;    0,318
334,322; 2370,274;    0,889;   -0,864
334,916; 2196,270;    0,344;    0,955
335,510; 2557,997;   -0,111;   -0,136
336,105; 2762,311;   -0,929;    1,591
336,699; 2653,904;   -1,292;    0,591
337,293; 2768,683;    1,071;    0,318
337,887; 2895,127;    0,071;    1,955
338,481; 3154,916;    2,980;    0,591
339,074; 3481,629;    2,071;    2,682
339,668; 3528,845;   -0,110;    1,227
340,262; 4196,012;    7,708;    3,227
340,856; 3796,560;    1,708;   -0,682
341,450; 3490,482;    0,708;    1,864
342,044; 4089,137;    1,799;    0,136
342,637; 4190,516;    1,162;   -2,136
343,231; 4253,345;   -1,474;    0,682
343,825; 4247,171;   -0,747;   -0,591
344,419; 4435,964;   -0,474;    0,500
345,012; 4751,952;    2,889;    4,045
345,606; 4785,981;   -0,656;    1,591
346,199; 4740,767;   -0,111;   -0,227
346,793; 4643,892;    2,525;    2,045
347,386; 4857,999;    0,889;   -1,136
347,980; 4911,865;   -0,838;   -0,045
348,573; 4978,208;   -1,748;    0,409
349,167; 4938,269;    6,161;    4,773
349,760; 5306,857;    2,252;    2,682
350,354; 5271,475;    1,616;    1,136
350,947; 5175,792;    2,798;    1,682
351,540; 5042,451;    0,616;   -1,409
352,134; 5009,980;   -1,111;    1,136
352,727; 5119,477;   -0,657;    1,136
353,320; 5056,945;    2,343;    0,591
353,913; 4925,552;   -1,929;    1,864
354,507; 5116,304;    0,434;   -1,227
355,100; 5174,729;    0,071;    0,864
355,693; 4758,819;    4,798;    2,409
356,286; 4762,156;    0,980;    2,773
356,879; 4995,776;   -0,475;    1,227
357,472; 4686,277;    0,980;    1,500
358,065; 4885,257;    3,161;    2,500
358,658; 4813,225;    0,798;    2,318
359,251; 4527,599;    0,252;   -0,591
359,844; 4224,878;    0,343;   -1,136
360,437; 4377,798;    0,252;    0,045
361,030; 4524,112;    0,525;   -0,682
361,623; 4216,647;    0,434;    0,318
362,215; 4259,729;    0,979;    2,045
362,808; 4113,576;   -2,293;   -1,682
363,401; 4218,121;    0,798;    0,136
363,994; 4113,863;    3,252;   -1,500
364,586; 3995,206;    0,888;   -1,500
365,179; 4064,058;   -0,203;   -1,136
365,772; 3639,908;   -0,930;    2,045
366,364; 3809,594;    1,524;   -3,227
366,957; 4023,367;    1,342;   -0,045
367,549; 3906,521;   -0,203;   -0,864
368,142; 3691,762;    0,978;   -1,500
368,734; 3801,183;    2,523;   -2,136
369,327; 3750,634;    2,341;   -0,500
369,919; 3684,439;   -1,659;    0,409
370,512; 3584,871;   -1,023;   -0,500
371,104; 3454,868;    2,704;    1,591
371,696; 3560,851;    1,703;   -0,955
372,289; 3534,417;    0,157;    1,136
372,881; 3575,463;    1,156;    1,318
373,473; 3425,640;    4,064;    1,136
374,066; 3365,143;    1,336;    0,500
374,658; 3281,472;    0,879;    1,136
375,250; 3432,308;   -1,668;   -1,409
375,842; 3329,457;   -0,124;   -0,045
376,434; 3198,012;   -2,762;   -0,409
377,026; 3571,152;   -1,855;   -2,500
377,618; 3467,833;    0,779;   -0,682
378,210; 3330,476;    3,141;   -1,955
378,802; 3168,567;    3,412;   -0,591
379,394; 3346,770;    3,411;    0,682
379,986; 3562,981;    1,138;   -0,955
380,578; 3557,993;    1,410;    0,773
381,170; 3278,413;    0,320;    0,045
381,762; 3170,050;   -0,224;    1,409
382,354; 3243,586;   -0,223;   -1,318
382,945; 3271,441;    0,870;    0,318
383,537; 3370,363;    1,144;   -1,955
384,129; 3420,073;    0,963;   -1,136
384,721; 3506,959;    0,418;    0,955
385,312; 3380,456;   -1,399;   -0,955
385,904; 3511,003;   -0,945;    1,591
386,496; 3067,835;    0,691;    1,045
387,087; 3214,988;    0,418;    2,500
387,679; 3162,845;   -0,401;    0,045
388,270; 3289,459;   -2,401;    2,045
388,862; 3331,751;   -0,401;   -0,318
389,453; 3141,429;    1,054;    1,045
390,045; 3344,125;    3,236;   -2,682
390,636; 3333,686;    0,144;   -0,591
391,227; 3235,309;    2,054;   -0,045
391,819; 3300,666;    0,781;    0,773
392,410; 3413,661;    0,600;    0,045
393,001; 3353,771;    1,600;   -1,591
393,593; 3499,150;    0,600;   -0,045
394,184; 3393,690;    0,873;   -0,409
394,775; 3224,727;    1,146;    2,136
395,366; 3447,063;    1,782;    0,773
395,957; 3416,521;   -2,400;    0,136
396,548; 3541,832;    1,054;    2,682
397,139; 3782,270;    2,236;    0,591
397,730; 3548,294;    0,873;    0,955
398,321; 3590,594;    0,509;    0,955
398,912; 3539,757;   -0,764;    0,136
399,503; 3675,870;   -1,945;   -1,409
400,094; 3343,890;   -1,582;    1,682
400,685; 3266,879;    3,600;    0,045
401,276; 3233,294;   -0,400;   -0,955
401,867; 3383,479;   -1,127;    0,773
402,458; 3424,343;    1,509;   -2,318
403,048; 3460,150;    0,146;    0,591
403,639; 3158,088;    1,509;    0,864
404,230; 3413,828;    0,691;    0,318
404,821; 3387,051;   -0,127;    0,045
405,411; 3360,536;   -0,763;   -2,591
406,002; 3063,101;    3,237;   -1,136
406,592; 3125,315;    2,691;    0,045
407,183; 3141,965;    0,328;   -1,500
407,774; 2984,869;    1,419;   -0,136
408,364; 3120,247;    2,600;    0,409
408,954; 2973,542;   -0,036;    1,227
409,545; 2922,254;    1,873;    1,045
410,135; 2572,211;   -1,581;    0,500
410,726; 2604,308;    0,783;    0,318
411,316; 2829,825;    2,237;    0,773
411,906; 2537,875;    0,146;   -0,409
412,497; 2286,088;   -0,490;   -0,045
413,087; 2454,980;    0,783;   -0,227
413,677; 2557,067;   -2,490;    3,864
414,267; 2391,197;   -1,035;    1,409
414,857; 2281,136;    0,419;    4,227
415,448; 2346,491;   -0,763;    0,500
416,038; 2161,275;   -2,945;   -0,591
416,628; 2048,598;    0,965;    0,409
417,218; 1973,453;   -1,762;    3,318
417,808; 2109,847;    0,965;   -0,409
418,398; 2004,520;   -1,035;    2,682
418,988; 1808,240;   -2,217;    0,591
419,578; 1824,429;    3,601;    1,409
420,168; 1888,612;    0,692;   -0,955
420,757; 1835,523;    0,964;   -1,500
421,347; 1541,621;    1,601;   -0,227
421,937; 1487,548;    3,329;    1,409
422,527; 1564,521;    2,602;   -0,773
423,116; 1601,456;    2,692;   -0,045
423,706; 1354,852;    2,965;    0,318
424,296; 1172,024;    1,601;    0,682
424,885; 1389,115;    1,510;   -3,045
425,475; 1310,371;    1,147;   -2,864
426,065; 1106,484;   -1,489;   -0,318
426,654; 1016,932;    0,329;   -0,318
427,244; 1339,877;    1,147;    1,409
427,833; 1181,570;    1,056;   -0,500
428,423;  989,482;    0,147;    1,136
429,012; 1053,706;    2,420;   -1,136
429,601; 1111,535;    2,057;    0,136
430,191;  923,075;    2,511;    4,318
430,780;  685,914;   -1,671;   -0,409
431,369;  967,449;    1,329;   -0,045
431,959;  854,414;    1,693;    0,500
432,548;  676,007;   -1,398;   -0,045
433,137;  566,520;    0,329;   -1,318
433,726;  688,203;    0,148;    0,500
434,315;  621,307;    0,148;    2,409
434,905;  743,354;    0,693;    1,409
435,494;  748,015;    3,148;    0,955
436,083;  528,560;    1,420;   -0,955
436,672;  575,437;    1,148;    0,500
437,261;  484,423;    0,512;   -1,955
437,850;  802,342;   -1,125;    0,682
438,439;  822,947;    2,239;    1,955
439,027;  913,623;    3,421;    1,773
439,616;  806,390;    2,239;    1,227
440,205;  495,264;    0,057;   -2,136
440,794;  382,688;   -0,306;   -0,045
441,383;  268,870;    1,603;   -0,591
441,971;  198,396;   -0,306;    0,591
442,560;  195,910;    0,603;   -1,773
443,149;   61,971;    3,060;   -1,318
443,737;  129,226;    0,968;   -2,318
444,326;  125,379;    0,331;    0,318
444,915;  171,932;   -1,851;    0,864
445,503;  170,423;    0,058;   -0,318
446,092;  447,372;    7,876;    2,136
446,680;  362,628;    1,876;    0,318
447,269;  244,186;   -1,487;   -0,318
447,857;  215,103;    2,240;   -1,773
448,445;  150,624;    2,149;    1,318
449,034;   75,717;    0,876;   -1,136
449,622;   71,540;    1,240;    3,500
450,210;  353,661;    3,149;    2,227
450,799;  261,514;    2,604;   -0,591
451,387;  200,131;    1,786;   -0,591
451,975;  176,895;   -1,305;    0,864
452,563;  247,774;    0,422;    2,318
453,151;   68,008;   -1,032;   -1,227
453,739;  106,270;   -1,577;    0,136
454,328;  202,628;    0,604;   -2,136
454,916;  134,648;    1,150;   -0,136
455,504;  148,243;    3,513;    1,227
456,092;   32,210;    2,150;   -1,591
456,679;    0,375;    0,604;    0,682
457,267;  403,928;    3,604;    1,045
457,855;   94,319;    3,241;    1,409
458,443;  -40,744;   -0,304;    1,682
459,031;   92,364;    1,332;    2,409
459,619;   60,358;   -3,577;    2,864
460,206;  -32,929;   -0,759;    2,045
460,794;  -27,555;   -0,668;   -0,227
461,382;   13,080;    0,878;   -0,864
461,970;    1,016;    0,605;    1,864
462,557;  -51,053;    0,878;   -0,682
463,145;   56,406;   -0,304;   -1,682
463,732;  269,383;    2,514;   -1,045
464,320;   67,533;    1,514;   -3,045
464,907;  190,093;    0,423;   -0,773
465,495;  100,207;    2,696;   -1,227
466,082;   39,550;    2,060;   -0,045
466,670;   59,661;    2,605;    1,227
467,257;  -31,653;    0,060;    2,045
467,844;   55,332;    1,514;    0,045
468,432;   31,475;   -0,031;    3,500
469,019;   -1,964;    1,606;   -1,773
469,606;   73,470;    0,969;    3,682
470,193;  108,616;    2,151;    0,227
470,780;   57,895;    0,333;    0,864
471,368;   -3,802;   -1,212;   -0,773
471,955;   86,426;    1,060;   -0,682
472,542;   48,132;   -0,303;   -1,136
473,129;  -48,030;   -0,485;    0,136
473,716;  -33,370;    0,060;    0,591
474,303;  -16,724;    1,333;   -0,864
474,890;   -5,823;    2,333;   -0,500
475,477;   86,846;   -0,576;    0,409
476,064;    3,534;    0,697;   -1,591
476,650;  115,315;    2,152;    0,318
477,237;   22,679;    1,879;    0,955
477,824;   12,286;    3,879;    0,864
478,411;  -63,098;    0,606;   -0,318
478,997;  -66,802;    0,606;   -0,773
479,584; -106,959;   -0,666;   -0,409
480,171;   43,437;    1,243;   -0,773
480,757;   93,420;   -0,848;    0,773
481,344;    1,869;    0,334;    0,409
481,931;  -78,308;   -0,393;    1,045
482,517;   35,797;    0,425;    0,318
483,104;  109,555;    1,334;    2,864
483,690;   -7,976;    0,243;    0,045
484,276;  -24,472;    0,698;    0,227
484,863;  162,101;    2,152;    1,136
485,449;   22,345;    0,152;    0,318
486,035;  -15,694;   -0,666;   -0,136
486,622;   58,384;   -2,393;    0,045
487,208;   -8,852;    1,334;    1,500
487,794;  -72,817;    0,971;    0,318
488,380;  -66,868;    0,698;   -1,409
488,967;  -67,130;   -1,120;   -0,409
489,553;  -52,905;   -1,029;   -1,409
490,139;   10,801;    0,971;    0,773
490,725;  -45,993;    0,789;   -0,227
491,311;   -6,413;    1,516;    3,045
491,897;  -35,035;   -0,665;    1,500
492,483;  -24,781;    0,426;    1,227
493,069;  394,862;    5,426;    0,864
493,655;  119,806;    1,789;    0,682
494,241;    0,295;    1,517;   -0,955
494,826;   11,181;    0,335;   -1,045
495,412;   61,304;    0,335;   -0,682
495,998;   -7,262;    0,971;   -0,318
496,584;   31,342;    2,244;    1,045
497,169;   55,546;    2,335;   -0,682
497,755;    0,419;    1,244;    1,227
498,341;  123,450;    2,153;    0,318
498,926;  246,498;    2,881;    1,955
499,512;   -4,171;   -0,028;    2,955
500,097;   -8,794;   -0,574;   -0,318
500,683;   19,965;   -0,028;    2,136
501,268;  -20,993;    1,881;   -0,955
501,854;    1,307;   -0,119;    1,227
502,439;  -10,554;   -0,573;   -1,773
503,024;   12,678;    1,608;    0,500
503,610;   42,605;    1,335;   -0,682
504,195;    4,327;    1,245;    1,955
504,780;   87,936;    2,335;    1,227
505,366;  182,179;    4,063;    2,864
505,951;  131,537;   -1,119;    1,045
506,536;   64,903;    1,427;   -3,682
507,121;  142,785;    1,699;   -0,318
507,706;  116,436;   -0,392;    1,045
508,291;   86,633;   -2,937;    1,136
508,876;  117,391;   -0,482;    2,591
509,461;  239,560;    1,427;   -0,773
510,046;  355,209;   -0,391;    0,318
510,631;  430,670;   -0,119;   -0,773
511,216;  404,616;   -0,664;   -0,500
511,801;  616,704;   -0,755;    2,591
512,386;  783,223;    0,972;    0,500
512,971;  940,543;    0,427;    0,955
513,555; 1156,236;    1,154;   -1,500
514,140; 1398,848;    1,336;   -3,136
514,725; 1696,701;    1,791;   -1,136
515,309; 1901,126;    1,064;    0,318
515,894; 2041,362;   -0,300;   -2,227
516,479; 2495,957;    1,973;   -0,955
517,063; 2766,549;    0,882;    1,227
517,648; 3295,750;    0,155;   -1,136
518,232; 3392,661;   -1,300;   -1,409
518,817; 4085,548;    1,337;    1,682
519,401; 4764,759;    0,700;    0,591
519,985; 4835,174;    2,700;    1,136
520,570; 5269,658;   -0,118;   -1,955
521,154; 6011,968;    0,064;    0,591
521,738; 6631,652;    1,064;    2,409
522,323; 7559,120;   -0,390;    1,682
522,907; 7816,878;    2,428;   -0,136
523,491; 8051,347;    1,155;    0,955
524,075; 8478,689;    0,428;    0,591
524,659; 9006,637;    0,973;    0,591
525,243; 8971,507;    0,883;    0,409
525,827; 9531,753;    0,883;   -0,045
526,411;10610,910;    1,155;   -0,136
526,995;11208,291;    0,337;    1,409
527,579;11151,837;    1,974;   -1,045
528,163;11722,857;    0,428;   -1,500
528,747;11957,287;    1,065;   -0,773
529,331;12496,203;    0,883;   -1,409
529,915;12921,172;    2,338;    0,955
530,499;13120,958;    0,247;    1,227
531,082;13000,282;    1,065;    1,591
531,666;12656,563;    0,520;    0,773
532,250;13526,447;    0,428;    2,682
532,833;14028,416;    0,610;    2,773
533,417;14070,639;    1,247;    0,864
534,001;14128,492;    0,429;   -0,318
534,584;14971,901;    1,974;    0,500
535,168;14905,618;    3,247;    1,409
535,751;15035,145;    4,520;    0,045
536,334;14577,826;    4,520;   -0,409
536,918;15298,843;    1,974;    1,591
537,501;15503,640;    1,520;    1,318
538,085;15569,765;    1,702;    1,045
538,668;15759,562;    0,883;    2,409
539,251;16141,539;    3,156;    3,773
539,834;16257,247;    0,156;    0,773
540,418;16242,054;    3,247;    4,318
541,001;16477,164;    2,702;    1,773
541,584;16520,001;    1,429;    2,227
542,167;16176,378;    0,702;    2,955
542,750;16365,545;    0,793;   -0,773
543,333;15997,222;    1,429;    2,136
543,916;16821,963;   -0,298;    2,500
544,499;17472,526;    2,520;    0,227
545,082;17499,600;    0,248;    3,591
545,665;17739,683;   -0,207;    1,500
546,248;18046,858;    0,520;   -0,318
546,830;17738,711;   -1,752;    1,955
547,413;18193,338;    0,157;   -0,773
547,996;18766,188;    0,157;    0,500
548,579;18534,786;   -0,843;    0,955
549,161;18390,132;    0,884;    2,682
549,744;18166,366;    0,612;    0,409
550,326;18703,649;    0,885;   -1,136
550,909;18486,231;    2,339;    0,591
551,492;18863,892;    0,521;    0,227
552,074;18666,212;   -0,024;   -1,318
552,657;19243,367;    2,430;    0,045
553,239;19016,846;   -3,024;   -0,773
553,821;18983,384;   -1,570;    1,045
554,404;18491,512;   -0,024;    1,136
554,986;18893,026;    2,248;    1,045
555,568;19475,869;    0,430;   -0,955
556,151;18656,846;    4,067;   -0,227
556,733;18895,001;   -1,388;   -0,864
557,315;19391,159;    4,703;    0,500
557,897;19172,380;    0,521;   -0,500
558,479;19308,967;    1,703;    1,318
559,061;19488,297;    1,067;   -0,864
559,643;19843,196;   -0,297;    0,045
560,225;20234,942;   -0,388;    2,864
560,807;20244,105;    0,340;    0,318
561,389;19718,558;   -1,206;    2,318
561,971;20468,654;   -0,660;    2,136
562,553;20330,789;    0,613;    1,591
563,135;20460,806;    1,249;    1,136
563,717;20047,860;    3,158;    1,136
564,298;20824,578;    3,976;   -0,045
564,880;20527,485;    0,340;   -1,409
565,462;20668,395;    1,977;    1,318
566,043;21891,173;   -0,933;    2,318
566,625;21404,622;    4,067;    1,227
567,207;21242,620;    0,704;    1,682
567,788;22437,190;   -0,114;    1,500
568,370;23294,918;   -1,841;   -0,500
568,951;23139,557;   -0,569;    0,227
569,533;24034,169;    0,977;   -0,500
570,114;24584,431;   -0,296;    0,682
570,695;25104,533;   -0,478;   -1,318
571,277;25607,046;   -0,205;   -1,682
571,858;26382,938;    2,704;   -1,136
572,439;27324,296;    0,795;   -1,045
573,021;27487,590;    0,432;   -2,773
573,602;27998,526;    1,795;    0,318
574,183;28988,558;   -0,114;    2,227
574,764;29170,693;    2,068;    0,409
575,345;29756,293;    0,250;   -0,136
575,926;30402,260;    2,704;    0,136
576,507;30458,521;    2,704;   -0,227
577,088;31590,398;    1,704;    1,682
577,669;31594,187;    1,704;    1,955
578,250;32343,013;   -0,750;   -1,045
578,831;33001,058;   -0,841;   -2,227
579,412;33353,438;   -1,205;    0,955
579,993;34346,330;    1,432;    0,227
580,573;34685,821;   -0,023;   -0,955
581,154;33589,406;    1,613;   -0,591
581,735;34466,696;    0,341;    0,773
582,315;33957,878;    0,523;    2,136
582,896;34311,966;   -1,750;    1,227
583,477;33752,630;    0,614;    1,227
584,057;33914,662;    1,159;    0,955
584,638;34149,148;   -2,750;    2,318
585,218;34198,743;    2,886;    2,682
585,799;34380,462;    1,977;   -0,227
586,379;34359,762;    1,250;    1,591
586,959;33126,259;    2,613;    0,318
587,540;32432,947;    0,432;    2,227
588,120;31872,663;   -1,113;   -0,045
588,700;30761,218;    2,977;    2,136
589,281;31139,212;    1,250;   -0,955
589,861;31043,183;   -0,296;   -1,682
590,441;30870,222;   -1,477;   -2,682
591,021;29783,961;    1,432;   -2,591
591,601;29999,577;    0,431;    0,500
592,181;30042,135;   -1,296;   -0,773
592,761;29312,252;    2,250;    1,409
593,341;29154,222;    1,522;    0,045
593,921;29140,003;   -0,569;    1,591
594,501;29013,563;    1,250;    1,318
595,081;28852,934;    0,522;   -0,318
595,661;29240,047;    1,068;    0,955
596,240;29798,246;   -1,023;    0,136
596,820;29344,002;    2,613;    1,955
597,400;29549,882;    1,977;    0,773
597,980;29850,238;   -0,750;    1,045
598,559;29812,413;    0,341;   -0,227
599,139;29503,079;   -0,750;   -1,227
599,718;29421,079;    0,795;   -0,409
600,298;29674,172;   -2,387;    0,682
600,877;29905,344;    4,795;    1,409
601,457;30147,736;    0,340;    1,136
602,036;30076,482;    1,795;    2,045
602,616;30320,688;    2,250;    1,682
603,195;30606,641;    0,431;    3,500
603,774;30139,729;   -0,296;    2,045
604,354;30053,707;    2,522;   -0,500
604,933;29553,381;    0,250;    1,864
605,512;29654,054;    2,340;    0,591
606,091;29649,119;    1,886;    3,773
606,671;30507,255;    0,249;    0,773
607,250;29591,810;    1,431;    3,136
607,829;29769,878;    1,158;    3,227
608,408;29630,350;    4,613;    2,591
608,987;28656,561;    2,704;    3,409
609,566;28991,234;    0,341;   -2,500
610,145;29048,458;    2,885;    0,682
610,723;29473,691;    1,613;    6,864
611,302;28733,516;    1,067;    1,682
611,881;28188,283;    5,158;   11,227
612,460;28961,084;    0,795;    3,955
613,039;29437,654;    1,703;    2,045
613,617;28182,839;    0,886;    4,773
614,196;28359,298;    1,613;    1,227
614,775;28752,976;    1,249;    2,409
615,353;28655,980;   -1,660;    0,864
615,932;28340,872;    0,249;    2,409
616,510;28941,152;    0,158;    0,591
617,089;28440,855;    8,794;   17,591
617,667;28247,513;    4,885;    6,136
618,246;27980,577;   -1,115;    1,318
618,824;28160,383;    1,612;   -0,955
619,402;27741,115;    0,431;   -1,773
619,981;28189,778;    1,067;   -1,045
620,559;28050,520;    0,794;    1,682
621,137;27618,336;    3,067;    1,864
621,715;27543,569;    3,703;   -0,682
622,293;27429,754;    1,885;   -0,773
622,871;27961,977;    0,340;    0,500
623,450;27592,954;    0,430;   -0,864
624,028;27530,092;   -0,388;   -0,955
624,606;27088,434;    2,339;    1,682
625,183;27458,787;   -0,661;   -1,136
625,761;27094,509;    1,885;    1,136
626,339;27358,063;    2,339;    2,591
626,917;27723,133;    0,339;   -0,045
627,495;27766,543;    2,794;    1,318
628,073;27210,865;    5,248;    2,864
628,650;26893,042;    3,067;    2,136
629,228;27360,148;    1,248;    4,409
629,806;26691,234;   -0,024;    1,136
630,383;26957,845;    0,066;   -0,318
630,961;26700,902;   -2,206;   -0,955
631,539;26455,622;   -2,479;    0,227
632,116;25689,993;   12,703;   15,409
632,694;26354,310;    4,885;    6,500
633,271;26649,729;    1,975;    2,682
633,848;26555,798;    1,430;    2,045
634,426;26635,466;    1,521;    1,773
635,003;25738,529;   -0,207;   -0,409
635,580;26036,236;    1,884;    3,682
636,158;26572,616;    3,793;    1,227
636,735;26538,579;    3,339;   -0,500
637,312;26681,337;    0,521;   -0,682
637,889;26793,682;    2,248;   -0,682
638,466;26241,025;    0,066;   -0,409
639,043;26285,186;    1,702;   -1,136
639,620;26575,695;    0,611;   -0,955
640,197;26889,779;    1,612;    1,682
640,774;27041,654;    1,430;    1,136
641,351;27468,439;    0,612;    1,136
641,928;26904,406;    2,794;    1,409
642,505;26553,282;    0,794;   -0,500
643,082;26657,703;    1,885;    1,227
643,658;25682,124;    1,157;    1,500
644,235;26429,818;   -2,479;    2,500
644,812;26655,785;    1,794;    0,773
645,388;26400,479;    1,612;    1,409
645,965;26498,627;    1,521;    1,682
646,542;26556,412;    3,430;   -0,227
647,118;26577,924;    3,703;   -0,955
647,695;26902,436;    0,339;    1,136
648,271;26800,766;   -2,115;    0,500
648,848;27098,460;    0,248;    2,227
649,424;26905,427;    0,976;    1,318
650,000;26648,303;   -0,388;   -1,045
650,577;26500,451;    0,158;   -0,955
651,153;26981,509;   -1,115;    0,955
651,729;27939,021;    0,521;    0,864
652,305;28124,897;    1,339;    2,773
652,881;32776,227;   -1,297;    1,136
653,458;39904,466;    0,249;    0,227
654,034;43986,978;    0,703;    1,591
654,610;45564,945;    0,339;    0,773
655,186;46922,457;    1,612;    3,045
655,762;46709,788;   -1,842;    0,409
656,338;46706,391;    0,703;    0,136
656,913;47819,175;   -0,297;    0,409
657,489;47150,506;    0,249;   -0,318
658,065;47071,745;    0,794;   -1,591
658,641;47625,803;    2,158;   -0,864
659,217;46841,860;    2,067;    0,409
659,792;46259,827;   -1,751;   -0,409
660,368;46507,703;   -0,388;   -0,682
660,944;46261,669;    1,794;    1,227
661,519;41572,363;    0,522;    0,409
662,095;35102,057;   -0,206;    0,591
662,670;30162,842;   -0,206;   -0,136
663,246;28953,263;   -0,660;   -0,409
663,821;28155,775;    0,431;    1,682
664,396;27676,560;    0,613;    1,864
664,972;27955,163;   -0,660;   -0,500
665,547;28250,403;    3,794;    0,136
666,122;28237,824;    1,340;    0,318
666,698;28558,609;    2,431;    0,318
667,273;27888,666;    0,885;    0,136
667,848;28715,269;    0,340;    1,500
668,423;28462,509;    1,795;    2,318
668,998;29084,021;    0,976;   -0,682
669,573;29643,987;    2,067;   -1,500
670,148;29449,863;    1,885;   -0,682
670,723;29218,921;   -0,024;    0,318
671,298;29708,796;   -1,296;    1,045
671,873;29756,672;   -0,296;   -0,136
672,448;29705,911;    1,704;    0,136
673,023;30037,060;    0,249;   -0,227
673,597;30402,390;    2,704;    2,318
674,172;30127,448;    2,431;    0,318
674,747;29643,414;   -0,205;   -1,045
675,321;29518,927;   -0,933;    3,318
675,896;29061,530;    2,158;    1,045
676,471;30036,314;    2,522;    1,591
677,045;29790,554;   -0,296;    0,682
677,620;29856,520;    2,158;    1,136
678,194;30193,396;    0,249;    1,136
678,769;29751,636;    0,886;   -0,318
679,343;29977,148;   -0,023;    1,773
679,917;29830,023;    0,340;    1,955
680,492;29912,445;    0,249;    3,227
681,066;30043,684;    0,613;    0,409
681,640;30107,469;    1,795;   -0,318
682,214;30901,799;    2,340;    0,500
682,788;30440,766;    0,613;   -0,773
683,363;30425,278;    1,977;    1,682
683,937;30084,336;    0,886;   -0,318
684,511;30872,757;   -1,023;   -0,591
685,085;30555,632;   -1,478;    0,318
685,659;30306,781;    1,431;    0,864
686,232;30529,202;    1,159;   -0,318
686,806;30267,442;    2,159;    0,409
687,380;30953,317;   -1,932;    0,591
687,954;31208,920;    2,432;    1,136
688,528;30858,978;    2,613;    1,955
689,101;31619,126;    0,432;    1,045
689,675;31160,729;    0,886;   -0,136
690,249;30557,151;    3,432;    0,409
690,822;30915,117;    1,159;    0,318
691,396;30984,538;    2,068;    1,227
691,969;30443,414;    2,523;    0,136
692,543;30937,835;   -0,568;   -1,955
693,116;30562,802;   -0,659;   -1,409
693,690;30340,769;   -0,296;    0,500
694,263;30931,372;    2,341;    2,955
694,836;30992,247;    2,795;    3,591
695,410;29616,487;    1,159;    1,773
695,983;30146,726;    1,614;    0,591
696,556;30072,420;   -0,750;   -1,045
697,129;30463,660;   -1,114;    1,409
697,703;30064,172;    1,341;    1,955
698,276;30053,138;    1,705;   -0,773
698,849;29829,378;   -1,023;    1,409
699,422;30170,890;    1,250;    0,591
699,995;29886,856;   -0,659;    0,136
700,568;30382,459;   -0,204;    3,045
701,140;30404,426;   -1,841;    1,682
701,713;30139,938;    0,341;    2,409
702,286;29911,268;    0,796;    0,864
702,859;29759,872;    0,614;   -0,591
703,432;28919,565;   -0,841;    0,682
704,004;29437,623;    1,978;    0,318
704,577;29301,590;    1,068;    0,136
705,150;29859,284;    0,887;    2,500
705,722;29656,068;    1,523;   -3,227
706,295;29469,490;    1,432;   -0,591
706,867;29213,002;    0,250;    1,955
707,440;29446,878;   -0,113;   -0,409
708,012;29677,844;   -0,022;    0,591
708,584;29582,084;    2,705;    0,227
709,157;29943,050;    1,160;   -0,591
709,729;29639,653;    1,069;    2,045
710,301;30455,802;   -1,204;    0,045
710,874;30495,768;    0,341;   -0,227
711,446;29417,826;   -0,295;    0,864
712,018;29238,520;   -3,022;    0,500
712,590;28946,305;   -0,204;    1,682
713,162;29467,453;   -0,477;    1,318
713,734;29714,874;    1,796;   -2,045
714,306;29615,932;    0,342;   -0,409
714,878;28297,717;   -0,295;    0,864
715,450;29140,774;   -0,113;    0,864
716,022;29435,741;    2,433;    1,318
716,593;29564,435;    0,978;    0,591
717,165;29482,402;    1,796;   -1,227
717,737;29184,823;    0,796;    0,409
718,309;28856,971;    1,160;   -0,045
718,880;28833,847;   -1,295;   -1,409
719,452;29018,814;    0,887;   -1,591
720,024;28555,598;    1,705;   -0,591
720,595;29093,929;    2,978;    0,955
721,167;28593,895;    1,160;   -2,045
721,738;28103,226;    2,069;   -1,045
722,309;28051,920;    1,251;   -1,227
722,881;27851,523;    2,705;    0,773
723,452;28558,126;    1,251;    2,864
724,023;28729,911;    1,524;    2,682
724,595;28530,786;    2,342;    0,682
725,166;28313,662;    1,524;   -0,409
725,737;27902,810;    1,887;    0,227
726,308;27987,050;    0,797;    0,318
726,879;28376,562;    1,069;    1,227
727,450;28276,529;   -2,022;   -0,045
728,021;28219,768;    1,069;    0,682
728,592;28002,462;    1,160;    0,500
729,163;28393,156;    1,433;   -0,136
729,734;28356,304;    2,160;   -0,227
730,305;28682,635;    0,615;    0,136
730,876;29024,238;    0,888;    2,955
731,447;28736,841;    0,797;    2,682
732,017;28849,444;   -0,840;    1,864
732,588;28330,774;   -0,021;    1,227
733,159;28549,650;    3,615;   -1,045
733,729;28354,253;    1,251;    0,409
734,300;27636,401;    0,160;    0,864
734,870;28064,732;   -1,385;    0,591
735,441;28595,425;    0,888;   -0,591
736,011;28316,119;    1,070;   -1,591
736,582;28304,177;    1,251;    0,045
737,152;27780,235;    0,979;   -2,045
737,722;28202,292;    1,070;   -0,682
738,293;27925,441;   -2,021;    1,318
738,863;27809,862;    1,797;    2,318
739,433;27614,010;    4,524;    0,318
740,003;28250,522;    1,524;   -0,682
740,573;27632,398;    2,252;   -1,591
741,143;27613,274;    3,615;    0,318
741,713;28388,695;    0,252;   -0,500
742,283;28060,844;    1,706;    1,591
742,853;27810,992;    0,524;    1,591
743,423;27295,504;    0,161;    0,045
743,993;27334,380;    1,070;    1,500
744,563;26740,347;    2,524;   -0,864
745,133;26692,040;   -0,112;   -0,864
745,702;27472,371;    2,797;    1,773
746,272;26591,792;    0,434;    0,591
746,842;26370,304;   -0,748;   -0,591
747,411;26853,907;   -0,839;   -0,318
747,981;26979,601;   -0,930;    0,500
748,551;27045,659;   -0,021;   -1,045
749,120;26881,716;   -0,112;   -0,227
749,690;27257,865;    2,161;    2,409
750,259;27579,468;    0,979;    2,955
750,828;27465,071;    4,070;   -1,955
751,398;27764,674;   -0,112;   -0,045
751,967;27239,004;    2,888;    0,409
752,536;27415,698;    1,161;   -0,227
753,105;27903,574;   -1,384;    0,227
753,675;27713,904;   -0,112;    1,773
754,244;27675,143;    0,888;    3,591
754,813;27683,110;    0,979;    1,227
755,382;27316,986;    0,798;    0,955
755,951;27791,680;   -0,112;    3,682
756,520;27299,374;    2,525;    1,864
757,089;27897,795;    1,888;    0,500
757,658;28066,398;    2,434;    1,227
758,227;28037,183;   -1,111;    0,318
758,795;28393,149;   -1,021;    1,136
759,364;28615,570;    0,525;   -0,591
759,933;27567,992;    1,343;   -0,045
760,501;27148,777;    0,252;   -1,318
761,070;27577,652;   -0,293;   -1,409
761,639;28353,255;    1,434;    1,318
762,207;27629,222;    0,889;   -0,955
762,776;27516,734;    2,889;    0,864
763,344;27506,519;    0,071;    0,591
763,913;26596,667;    1,616;    1,409
764,481;27346,998;    1,980;   -0,136
765,049;27122,237;    0,616;    1,409
765,618;27037,386;    1,434;    0,318
766,186;27097,898;    2,434;    0,136
766,754;27287,592;    1,798;    1,864
767,322;26243,104;    1,162;    0,409
767,890;26255,889;    0,525;   -1,773
768,459;26692,582;    2,616;   -0,318
769,027;26815,185;    2,525;    3,409
769,595;25880,425;    2,616;    2,591
770,163;26267,573;    3,344;    2,955
770,730;25968,904;    2,525;   -0,136
771,298;25857,961;    1,162;   -1,409
771,866;26005,746;    0,253;    4,955
772,434;26216,440;    1,162;   -1,864
773,002;26424,498;    2,616;    0,682
773,569;26099,282;    1,071;    1,682
774,137;25869,885;    0,889;   -0,045
774,705;26674,761;   -0,747;   -0,136
775,272;26118,364;    0,253;    0,682
775,840;25920,604;   -0,111;    2,682
776,407;25402,752;   -0,293;    1,955
776,975;24999,082;    1,162;    0,318
777,542;26070,413;    2,162;   -0,045
778,110;25913,652;    0,707;   -0,045
778,677;25543,528;    1,071;   -0,864
779,244;25247,949;   -1,020;    1,045
779,812;25383,643;    0,980;    0,864
780,379;25232,882;    2,435;    1,136
780,946;25491,576;    2,617;   -0,773
781,513;25810,361;   -0,565;    0,318
782,080;25115,964;    1,253;    2,864
782,647;25853,294;    1,708;    3,045
783,214;25490,625;   -0,201;    3,864
783,781;25115,046;    1,708;   -0,682
784,348;25037,558;    0,253;    1,500
784,915;25458,252;   -1,474;    0,318
785,482;25176,855;    2,708;    2,591
786,049;25603,185;    1,071;   -0,591
786,615;25721,606;    1,708;   -0,955
787,182;25460,028;   -3,201;   -0,682
787,749;25170,085;   -2,201;    1,409
788,315;24471,415;    0,253;   -0,409
788,882;24787,564;    0,981;   -1,227
789,448;25470,258;    1,435;   -0,955
790,015;25479,497;    1,799;    3,227
790,581;25062,827;    0,708;    0,227
791,148;24942,067;    1,344;    1,045
791,714;25140,579;   -1,019;    3,136
792,280;24821,182;    3,708;    1,591
792,847;24399,330;   -0,928;    2,500
793,413;25023,388;   -0,110;   -0,318
793,979;24514,627;    1,526;   -1,318
794,545;24546,867;    2,981;    2,682
795,111;23971,743;    2,435;    1,318
795,678;24133,346;    3,526;   -1,682
796,244;23769,221;    2,799;    0,136
796,810;24332,006;    0,799;    0,773
797,375;24065,700;   -0,292;   -2,136
797,941;24104,849;   -1,110;    0,591
798,507;24238,542;    0,254;   -0,955
799,073;23793,146;    2,708;    0,591
799,639;23893,476;    1,435;    3,136
800,205;23885,533;   -1,565;    2,682
800,770;23385,682;    1,345;    1,773
801,336;23435,194;    2,981;   -0,955
801,901;23103,979;    6,072;    3,136
802,467;23709,127;    0,526;    2,045
803,033;23034,730;   -0,019;    0,864
803,598;23243,242;    1,072;   -1,045
804,163;23310,936;    0,708;   -0,318
804,729;23270,630;   -0,110;    1,136
805,294;23627,779;    1,072;    2,227
805,859;23434,745;    0,890;   -0,409
806,425;22892,530;    3,890;    2,682
806,990;22558,770;    1,890;    4,318
807,555;23079,464;   -0,110;    2,591
808,120;22939,248;   -1,292;   -0,409
808,685;22989,306;    1,072;   -2,500
809,250;22488,454;    2,072;   -0,500
809,815;22847,330;   -0,201;    0,682
810,380;23339,024;    0,981;    1,591
810,945;23832,082;    2,890;    2,045
811,510;23075,866;   -0,200;    1,591
812,075;22698,742;    2,800;   -1,409
812,640;22760,436;    3,709;    1,409
813,204;22822,766;    2,163;   -0,227
813,769;23309,369;    0,254;   -0,045
814,334;22724,336;    0,527;    0,864
814,898;22765,939;    1,981;    0,591
815,463;22642,451;    0,981;   -0,773
816,027;22596,509;    1,345;   -2,318
816,592;22730,839;    2,163;   -2,045
817,156;22229,897;   -2,200;    1,136
817,721;22011,045;    0,982;    2,318
818,285;21982,830;    0,618;    1,500
818,849;22648,433;   -0,018;    1,682
819,414;22527,945;    0,073;    2,955
819,978;22084,548;   -0,291;    1,773
820,542;22718,515;    2,891;    0,500
821,106;22429,754;    2,800;    0,682
821,670;22502,721;    2,709;    2,591
822,234;22219,324;    1,073;    1,409
822,798;21566,472;   -0,836;    0,500
823,362;21554,803;    1,527;    4,227
823,926;20865,587;   -0,018;    1,136
824,490;21065,645;    3,527;   -0,682
825,054;21540,066;    2,527;   -1,136
825,618;21128,215;   -1,200;   -1,500
826,181;21055,454;    0,982;   -1,318
826,745;20950,875;   -0,745;   -1,045
827,309;21331,569;    2,255;    1,318
827,872;20735,445;    0,527;    0,955
828,436;21726,048;    1,982;   -0,773
828,999;21810,651;    2,436;    1,227
829,563;20635,163;   -0,654;    1,136
830,126;20428,584;   -0,018;   -0,591
830,690;20434,642;    0,709;    2,864
831,253;19987,154;   -0,473;    2,227
831,816;20087,030;   -0,018;    0,500
832,380;19980,269;    1,164;    0,864
832,943;20194,872;    3,073;   -0,500
833,506;19743,748;    0,255;   -1,227
834,069;20522,715;    2,164;   -0,955
834,632;20574,863;   -2,200;    1,318
835,195;20446,466;    1,346;    0,955
835,758;19657,978;    0,709;    1,955
836,321;19502,218;    1,073;   -1,045
836,884;19607,639;   -1,291;   -0,955
837,447;19667,878;    0,528;    1,773
838,010;19891,754;    1,800;    3,227
838,573;20220,448;    0,528;    0,773
839,135;20101,778;   -0,109;   -0,955
839,698;19501,108;    2,528;    0,409
840,261;19062,439;    0,255;   -0,227
840,823;18925,951;   -0,927;    0,864
841,386;19243,190;   -0,018;   -2,409
841,948;19071,884;    0,255;    1,773
842,511;18813,033;    0,255;    1,682
843,073;18992,636;    2,982;    0,227
843,636;18825,602;    0,619;   -0,227
844,198;18704,660;    1,255;    0,591
844,760;18815,081;    0,619;    1,955
845,322;18484,320;    0,164;    1,136
845,885;18911,378;   -0,290;    0,591
846,447;19311,436;    0,710;    0,227
847,009;18868,493;    3,983;   -0,682
847,571;19197,551;    1,346;   -2,045
848,133;19288,336;   -0,199;   -1,864
848,695;19137,211;    2,346;    1,409
849,257;18691,360;    1,346;   -1,682
849,819;18843,417;    2,983;   -0,409
850,381;18903,566;    1,801;   -0,864
850,942;19292,351;    1,892;   -0,591
851,504;19160,408;    0,983;    0,227
852,066;19190,011;    1,619;   -1,591
852,628;18769,614;    0,165;    1,955
853,189;18352,399;    0,256;    2,682
853,751;18491,184;   -0,654;    1,409
854,312;18304,696;    1,256;   -1,682
854,874;18812,935;   -0,108;   -0,773
855,435;19292,538;    0,528;   -1,682
855,997;19421,505;    3,983;   -0,136
856,558;18692,199;    0,801;    1,773
857,119;18860,893;   -0,744;    2,864
857,681;18486,769;   -0,108;    0,318
858,242;18548,099;    1,347;   -2,136
858,803;19008,884;    1,074;   -0,773
859,364;19557,850;    0,892;   -4,773
859,925;18875,999;   -0,290;   -0,955
860,486;18823,784;    0,529;   -0,955
861,047;18519,569;    0,165;   -1,227
861,608;18326,263;    0,165;   -0,773
862,169;18485,956;   -0,562;   -0,045
862,730;18248,196;   -0,290;    1,409
863,291;18480,435;    0,438;   -0,500
863,852;18760,402;   -0,926;    1,955
864,412;18250,732;   -1,835;   -0,864
864,973;16839,244;    1,892;    0,500
865,534;16678,847;    2,074;    0,227
866,094;18207,087;    2,620;    0,227
866,655;17861,417;    4,711;    3,318
867,215;18132,293;    0,074;    0,136
867,776;17982,259;   -1,199;   -0,136
868,336;18082,044;    1,529;    0,136
868,897;17533,102;    3,438;    1,682
869,457;17281,887;    3,256;    0,318
870,017;17554,490;    2,438;   -1,227
870,578;18075,456;    1,893;    0,773
871,138;17721,423;    2,620;   -0,955
871,698;17220,117;   -0,562;   -1,318
872,258;17076,356;    0,711;   -2,864
872,818;17436,414;    2,347;    0,045
873,378;17427,471;   -2,198;    1,045
873,938;16997,074;    4,984;    0,500
874,498;17331,587;    1,256;   -1,955
875,058;17180,462;    4,347;    1,773
875,618;16993,611;    1,438;   -2,682
876,177;17012,305;   -0,471;    0,136
876,737;16551,817;   -0,289;    1,955
877,297;16547,783;    2,711;    1,955
877,856;16633,386;    2,529;    0,318
878,416;16533,535;    2,438;   -0,136
878,976;16797,865;    3,438;    0,409
879,535;16988,650;    4,529;    3,136
880,095;16729,071;    1,347;    0,045
880,654;16831,765;    0,347;    1,318
881,213;16917,005;    2,347;    1,500
881,773;16560,062;    1,984;    2,682
882,332;16907,756;    6,075;    5,136
882,891;16738,632;    0,711;    2,136
883,451;17220,689;   -2,016;    1,682
884,010;16675,202;   -1,107;   -0,409
884,569;16758,805;   -2,289;   -0,045
885,128;16881,953;   -0,743;   -1,864
885,687;16980,465;   -0,743;    0,682
886,246;16652,250;    2,620;    2,136
886,805;16409,580;    1,620;    2,045
887,364;16698,911;    1,166;   -0,500
887,922;17037,241;   -0,016;    0,045
888,481;16503,662;    1,530;    0,591
889,040;16861,356;    3,711;    2,136
889,599;17526,414;    2,166;    1,409
890,157;17585,926;    2,166;    2,409
890,716;17288,074;    2,166;    0,227
891,274;17056,041;    0,075;   -1,136
891,833;17465,280;    1,166;    0,864
892,391;17356,792;    1,802;    0,500
892,950;17513,123;    0,166;   -0,773
893,508;17837,998;    0,984;   -0,409
894,067;17159,056;   -0,379;    0,136
894,625;17032,568;   -1,016;   -1,500
895,183;17223,716;   -0,198;   -0,682
895,741;17207,229;    2,257;   -1,773
896,299;17050,832;    1,621;   -2,409
896,858;17239,162;    1,530;   -1,591
897,416;17309,401;    0,166;   -1,318
897,974;17046,641;   -2,197;    0,318
898,532;17223,607;    6,530;    2,682
899,089;17145,483;    0,621;   -0,682
899,647;17198,086;    0,530;    1,318
900,205;16902,871;    0,257;    1,045
900,763;17117,110;    2,166;    0,227
901,321;17121,622;    3,530;   -1,409
901,878;16535,407;    3,257;   -0,773
902,436;16408,101;    0,257;    1,318
902,994;16822,068;    6,712;    3,682
903,551;16245,307;    1,439;    0,409
904,109;16658,365;    1,530;   -1,409
904,666;16238,695;    1,439;    1,045
905,224;15993,025;    3,894;   -0,409
905,781;15758,719;   -0,470;   -0,318
906,338;15850,777;    0,167;    1,045
906,895;15797,380;    1,894;    2,045
907,453;15686,619;    2,348;    1,136
908,010;15686,131;    3,348;    0,409
908,567;15384,371;   -0,561;    0,591
909,124;14921,519;    2,439;   -1,500
909,681;14933,395;   -1,288;    0,682
910,238;15128,998;   -0,106;   -1,318
910,795;15434,146;   -1,561;   -1,136
911,352;15068,419;   -0,379;   -2,682
911,909;14491,965;    2,803;   -0,864
912,466;14961,692;    1,985;    1,500
913,022;14479,419;   -0,924;    0,500
913,579;14849,510;   -0,470;    2,045
914,136;14550,874;   -2,561;    0,955
914,692;14900,237;    1,530;   -1,227
915,249;14491,056;    0,530;    0,409
915,806;14711,874;    1,803;    1,955
916,362;14420,510;    0,894;    1,864
916,918;13976,692;    2,439;    1,045
917,475;13981,419;    1,621;    0,955
918,031;14098,692;    0,076;   -0,045
918,587;13549,510;    0,621;   -0,318
919,144;13758,965;   -0,379;    0,227
919,700;14072,783;    0,167;    0,773
920,256;13659,146;    0,439;    0,045
920,812;13250,783;    1,439;   -1,045
921,368;13263,692;    1,348;   -1,045
921,924;12905,146;    0,439;   -0,136
922,480;12451,419;    0,076;    1,227
923,036;13069,419;   -0,652;    1,955
923,592;13044,965;    0,621;    0,318
924,148;12958,874;    1,894;   -0,955
924,704;12255,783;    0,258;   -0,409
925,259;12523,419;   -0,561;    0,591
925,815;12303,601;    3,803;    0,500
926,371;11840,692;    3,530;    1,409
926,926;11692,692;    1,621;    0,591
927,482;11313,237;    1,621;    0,773
928,037;11177,692;   -0,833;    2,045
928,593;11502,510;    0,258;    1,045
929,148;11327,783;    1,167;   -1,500
929,704;10849,056;    2,439;   -0,500
930,259;11023,965;    0,894;   -0,136
930,814;10130,237;    1,803;    1,955
931,369; 9815,601;    0,258;   -0,773
931,925; 9715,419;   -1,924;    0,136
932,480; 9571,328;    3,076;   -2,591
933,035; 9471,692;    3,985;   -0,318
933,590; 9232,783;   -1,742;   -1,773
934,145; 8896,783;   -1,288;   -0,318
934,700; 9269,419;    0,348;   -0,591
935,255; 9068,146;    4,803;    0,045
935,809; 8325,146;    6,258;    0,864
936,364; 7462,237;    2,167;   -0,136
936,919; 7444,237;    2,348;   -1,773
937,474; 7337,965;    1,348;    0,136
938,028; 7122,056;    3,076;    1,136
938,583; 6565,692;    6,348;    4,682
939,138; 6823,419;    0,167;    2,136
939,692; 6314,965;   -1,015;   -1,136
940,247; 5978,874;    1,167;   -1,045
940,801; 5541,328;    0,621;    0,227
941,355; 5455,783;    0,439;    2,591
941,910; 5115,965;    0,712;   -2,136
942,464; 5203,419;    2,712;   -0,318
943,018; 4980,056;    3,258;   -0,227
943,572; 4908,601;    2,803;   -0,682
944,126; 4328,146;   -0,924;   -0,409
944,681; 4226,601;    0,712;    0,227
945,235; 4218,510;    2,167;   -0,591
945,789; 4132,419;    1,258;   -1,864
946,342; 4236,692;   -0,561;   -0,591
946,896; 4069,146;    0,348;    0,955
947,450; 3821,874;   -0,561;   -0,227
948,004; 4009,692;    1,076;   -0,045
948,558; 4034,783;    1,258;   -0,864
949,111; 3973,692;   -1,197;   -0,318
949,665; 3971,510;   -0,106;   -0,682
950,219; 3841,056;    0,621;   -1,045
950,772; 3927,510;    0,258;    1,864
951,326; 3841,056;   -1,106;   -0,955
951,879; 3930,056;    1,076;   -2,318
952,433; 3969,510;    1,348;    2,227
952,986; 3812,510;    0,348;    0,682
953,539; 3746,237;    1,530;    0,591
954,093; 3684,965;    0,985;   -1,318
954,646; 3805,056;   -0,288;    1,318
955,199; 3624,237;    1,258;   -0,500
955,752; 3523,328;    1,985;    1,773
956,305; 3461,056;    0,894;    2,955
956,858; 3623,056;    0,621;   -0,318
957,411; 3816,965;    3,621;    2,136
957,964; 3630,419;    2,076;    2,136
958,517; 3629,056;    0,985;    3,136
959,070; 3457,237;   -1,197;    1,955
959,623; 3534,510;    1,076;    1,500
960,176; 3289,056;    0,712;    2,045
960,728; 3266,965;    1,712;    0,773
961,281; 3341,874;    2,258;    0,500
961,834; 3359,146;   -0,833;    0,864
962,386; 3290,419;    1,258;    1,045
962,939; 3206,783;    3,439;   -0,318
963,491; 3352,146;    2,621;    1,136
964,043; 3217,419;    0,076;    2,409
964,596; 3349,419;    1,712;    2,227
965,148; 3183,328;   -0,379;    1,773
965,700; 3113,237;   -0,015;   -0,227
966,253; 3291,692;   -0,833;    0,318
966,805; 3086,419;    1,894;    0,773
967,357; 3149,965;    0,439;   -1,500
967,909; 3095,783;    1,167;   -1,227
968,461; 3225,510;    0,894;    3,136
969,013; 3138,783;   -1,561;   -0,864
969,565; 3230,783;    1,803;   -1,136
970,117; 3294,328;    3,803;    1,045
970,669; 3134,328;    3,258;   -0,136
971,220; 3005,510;    2,167;   -1,500
971,772; 2922,237;    1,348;   -0,318
972,324; 3020,510;   -1,197;   -0,500
972,876; 2974,237;    0,167;   -0,045
973,427; 3124,692;   -1,197;   -1,045
973,979; 3086,510;    0,076;   -2,500
974,530; 3113,783;    0,803;    1,318
975,082; 3137,874;    2,167;    1,682
975,633; 3013,965;    2,894;    1,682
976,184; 3175,601;    2,076;    0,773
976,736; 2955,419;    0,348;    0,227
977,287; 2745,056;    0,258;   -0,500
977,838; 2925,328;   -0,924;   -0,318
978,389; 2991,601;    0,803;   -0,500
978,940; 2868,146;    1,258;   -0,409
979,491; 2890,874;    2,258;   -0,500
980,042; 2849,510;   -0,652;    3,045
980,593; 2910,146;    1,894;    0,227
981,144; 2976,510;    3,530;   -0,500
981,695; 2952,965;   -0,470;    1,500
982,246; 2896,419;   -1,833;    1,045
982,797; 3043,783;   -0,561;    0,682
983,347; 3164,874;    2,167;    0,591
983,898; 3312,783;    4,167;    0,409
984,449; 3138,056;    2,530;    0,773
984,999; 3057,510;    1,894;   -1,136
985,550; 2803,783;    3,167;   -0,318
986,100; 2854,874;    0,712;   -0,318
986,651; 2885,146;    0,258;    0,045
987,201; 2869,692;    0,894;   -0,591
987,751; 2952,692;   -0,288;    2,864
988,302; 2943,692;   -0,379;    1,500
988,852; 2958,328;    1,985;   -1,136
989,402; 3003,237;    0,985;    0,682
989,952; 2912,601;    1,621;    0,864
990,502; 3010,874;    1,076;    0,682
991,052; 2980,601;   -0,106;    0,045
991,602; 2842,692;    1,167;    1,318
992,152; 2851,783;    2,803;    0,682
992,702; 2817,601;    1,167;   -0,045
993,252; 2742,510;    0,076;   -0,500
993,802; 2838,146;    1,167;    1,318
994,352; 3069,601;   -0,742;    1,136
994,901; 3168,237;    1,076;    3,227
995,451; 3077,965;   -1,197;    0,318
996,000; 3171,692;    1,076;    0,318
996,550; 2864,783;    2,894;    0,227
997,100; 2869,237;   -0,561;   -0,045
997,649; 3145,056;   -0,197;    0,955
998,198; 2792,328;   -0,288;   -1,500
998,748; 2974,146;    0,348;   -2,318
999,297; 2900,419;    0,985;   -0,409
999,846; 2972,601;    1,894;   -0,773
1000,395; 3029,510;    1,530;    0,500
1000,945; 2963,965;    1,076;   -0,773
1001,494; 3040,510;    0,167;    0,682
1002,043; 3026,510;    0,712;    0,864
1002,592; 2878,419;    3,439;    1,955
1003,141; 3040,237;    2,439;   -0,682
1003,690; 2872,601;    1,258;    0,500
1004,238; 2916,510;   -0,106;   -0,045
1004,787; 2564,874;   -1,288;    1,227
1005,336; 2805,965;    1,621;    0,682
1005,885; 2953,237;   -0,197;   -2,773
1006,433; 3092,510;   -0,470;    0,955
1006,982; 3166,056;    2,167;    1,682
1007,531; 3080,874;    2,712;   -0,227
1008,079; 3035,692;    0,258;    0,500
1008,627; 3168,965;    1,621;    0,409
1009,176; 2894,056;    0,076;   -1,955
1009,724; 2940,692;   -2,742;    0,864
1010,273; 2981,056;    1,076;    0,500
1010,821; 3118,419;    1,076;    1,409
1011,369; 2853,874;    0,076;    1,318
1011,917; 2821,419;   -0,833;   -0,591
1012,465; 3122,237;    2,530;   -1,591
1013,013; 3228,965;    0,439;   -1,682
1013,561; 3104,146;   -1,288;   -0,773
1014,109; 3155,510;   -0,833;    1,682
1014,657; 3030,056;    1,348;    0,591
1015,205; 3134,783;    0,894;   -0,955
1015,753; 3170,874;    0,258;   -1,409
1016,301; 3207,328;    2,621;    3,045
1016,848; 3240,146;    2,167;    0,409
1017,396; 3248,056;    1,621;    0,045
1017,944; 3375,419;    2,621;    1,864
1018,491; 3140,965;   -0,197;    1,409
1019,039; 3305,601;   -0,652;    0,591
1019,586; 3209,146;    0,076;    1,682
1020,134; 3298,146;    0,712;    1,500
1020,681; 3317,965;    2,894;   -1,136
1021,228; 3330,965;   -0,561;   -2,227
1021,776; 3171,874;   -0,833;   -1,136
1022,323; 3379,692;    0,803;    0,773
1022,870; 3330,874;   -0,470;   -0,045
1023,417; 3228,056;    2,076;    1,864
1023,964; 3369,783;    0,621;    1,227
1024,511; 3205,965;   -0,652;    0,773
1025,058; 2999,965;    0,439;   -0,045
1025,605; 3035,783;   -1,742;    3,136
1026,152; 3243,783;   -0,106;   -0,591
1026,699; 2996,965;    0,167;    1,318
1027,245; 3155,328;    2,439;    0,318
1027,792; 3378,237;    0,712;    1,409
1028,339; 3257,601;    4,076;   -0,045
1028,885; 3111,419;    3,621;   -0,227
1029,432; 3039,237;   -0,106;    0,227
1029,978; 3091,965;    1,348;   -1,591
1030,525; 2999,692;    1,621;    0,409
1031,071; 3264,692;    0,348;    1,136
1031,618; 3358,874;    1,258;    1,682
1032,164; 3145,056;    2,076;    3,045
1032,710; 3203,237;    0,076;   -1,500
1033,256; 3103,328;    0,712;   -0,136
1033,803; 3083,965;   -0,288;    1,500
1034,349; 2838,692;    1,803;    0,136
1034,895; 2985,783;    2,621;   -0,318
1035,441; 2951,692;    0,439;    0,318
1035,987; 2970,237;   -2,288;   -0,682
1036,533; 2959,965;   -0,197;   -0,955
1037,078; 3168,965;    4,712;    1,682
1037,624; 2988,601;    2,439;   -0,955
1038,170; 3013,601;    1,712;   -0,318
1038,716; 2897,056;    2,167;   -0,409
1039,261; 2818,146;    2,167;   -0,773
1039,807; 2760,328;   -0,015;    3,409
1040,352; 2811,146;   -1,288;   -0,318
1040,898; 2861,328;    0,167;   -0,682
1041,443; 2782,237;    0,803;   -2,591
1041,989; 2810,146;    3,621;    1,591
1042,534; 2681,692;    0,985;    2,591
1043,079; 2826,783;    1,985;    0,955
1043,625; 2591,328;    0,258;    0,500
1044,170; 2645,692;    2,439;    1,045
1044,715; 2892,965;    0,167;    0,955
1045,260; 2707,601;   -0,833;   -0,955
1045,805; 2770,237;    0,258;   -0,591
1046,350; 2709,874;    0,530;   -0,409
1046,895; 2675,056;    0,803;    1,591
1047,440; 2604,146;    1,530;    0,409
1047,985; 2517,328;   -1,197;   -0,955
1048,530; 2424,965;    1,348;    1,227
1049,074; 2486,783;    2,803;    0,318
1049,619; 2470,056;   -0,924;    1,955
1050,164; 2292,510;    1,076;    0,227
1050,708; 2331,783;    2,621;    0,045
1051,253; 2690,328;    3,258;   -2,227
1051,797; 2414,783;   -0,197;   -1,318
1052,342; 2427,965;    1,348;    1,045
1052,886; 2410,146;    1,803;   -1,409
1053,430; 2284,783;    2,167;    0,136
1053,975; 2313,237;    0,894;   -0,318
1054,519; 2281,510;    1,803;    3,227
1055,063; 2300,328;    3,621;    1,318
1055,607; 2183,510;    1,348;    0,227
1056,151; 2212,692;    0,530;    1,682
1056,695; 2133,328;   -1,833;   -1,136
1057,239; 2194,965;   -1,197;   -0,682
1057,783; 2207,146;    2,258;   -1,500
1058,327; 2149,965;    3,076;    1,409
1058,871; 2378,056;    3,985;    1,318
1059,415; 2080,510;   -0,561;   -0,045
1059,958; 2338,419;    2,985;    2,591
1060,502; 2071,328;    1,348;   -0,773
1061,046; 1968,783;    1,712;   -0,955
1061,589; 1931,692;    2,803;   -1,136
1062,133; 1828,328;    0,985;    1,864
1062,676; 1765,419;    1,439;    0,864
1063,220; 1778,692;    0,985;    0,500
1063,763; 1794,874;    2,985;    1,136
1064,306; 1868,965;    0,985;    1,864
1064,849; 1754,965;    2,076;    0,591
1065,393; 1757,419;    2,894;   -1,500
1065,936; 1882,783;    2,530;   -0,409
1066,479; 1774,692;    2,621;    1,318
1067,022; 1786,056;    1,894;   -0,227
1067,565; 1691,692;   -1,197;   -1,318
1068,108; 1726,237;    1,258;   -0,591
1068,651; 1708,783;   -2,470;    1,409
1069,194; 1617,146;   -1,106;   -1,682
1069,736; 1602,692;    3,803;    0,955
1070,279; 1593,965;   -1,652;   -0,500
1070,822; 1651,510;    1,530;   -0,318
1071,364; 1719,056;    0,530;    1,318
1071,907; 1547,510;    0,348;    3,227
1072,450; 1471,146;    0,258;   -0,045
1072,992; 1453,056;   -0,561;    3,136
1073,535; 1588,965;    0,167;    2,136
1074,077; 1397,692;    2,985;    2,045
1074,619; 1362,601;    0,985;    0,591
1075,161; 1392,419;   -0,561;    1,500
1075,704; 1570,601;    0,258;    1,227
1076,246; 1373,056;    1,530;    0,682
1076,788; 1291,510;   -1,015;    1,773
1077,330; 1397,056;   -2,106;    2,136
1077,872; 1348,419;   -1,924;    0,955
1078,414; 1561,419;    3,712;    0,773
1078,956; 1292,510;    0,167;   -0,227
1079,498; 1538,510;    0,439;    0,318
1080,040; 1243,056;    0,985;   -1,318
1080,581; 1204,328;    0,621;   -0,318
1081,123; 1140,510;   -0,106;   -0,773
1081,665; 1177,783;    3,803;   -0,955
1082,206; 1458,056;    3,258;   -0,500
1082,748; 1342,237;    3,258;    2,045
1083,289; 1224,328;    0,167;    1,318
1083,831; 1124,601;    0,258;    0,227
1084,372; 1142,419;    0,894;    0,591
1084,913; 1160,510;    3,348;    0,864
1085,455; 1131,328;    1,530;   -2,045
1085,996; 1085,692;    0,530;    0,136
1086,537; 1107,237;    0,985;    0,864
1087,078; 1155,328;    0,439;   -2,136
1087,619; 1178,056;   -1,652;    0,227
1088,160; 1103,146;    1,439;    1,318
1088,701; 1101,146;   -0,742;    0,682
1089,242; 1037,146;   -0,561;   -2,227
1089,783; 1122,328;   -0,561;    1,409
1090,324; 1090,328;   -0,833;    0,682
1090,865;  967,328;   -1,924;   -0,409
1091,405;  952,237;   -0,561;    2,227
1091,946;  978,965;   -0,197;   -0,955
1092,487;  906,692;   -1,288;   -1,409
1093,027; 1074,419;    1,803;   -1,500
1093,568;  929,874;    2,258;    1,227
1094,108; 1000,237;    0,621;    1,773
1094,649;  949,783;   -0,470;    0,136
1095,189;  892,965;    1,167;   -0,682
1095,729;  835,965;    0,712;    0,955
1096,269;  851,328;    1,258;   -0,955
1096,810; 1158,237;   -0,197;    0,500
1097,350;  982,146;   -0,561;   -0,773
1097,890;  885,146;    2,985;    1,227
1098,430; 1132,146;    4,985;    2,864
1098,970; 1011,874;    1,894;    1,682
1099,510;  889,419;   -0,833;   -2,318
1100,050;  810,328;    0,258;   -1,591
1100,589;  771,874;    0,076;   -0,318
1101,129;  892,783;    0,894;   -0,955
1101,669; 1034,692;    2,803;    2,136
1102,209;  871,056;    1,530;    2,227
1102,748;  817,601;    3,439;    0,955
1103,288;  804,146;    0,712;   -1,227
1103,827;  831,965;    3,530;   -2,227
1104,367;  720,783;    1,712;   -2,409
1104,906;  682,601;   -1,015;   -1,136
1105,445;  752,419;    0,985;   -1,136
1105,985;  694,874;   -0,652;    1,500
1106,524;  748,419;    1,530;   -0,682
1107,063;  714,419;    1,167;    1,409
1107,602;  683,237;    1,894;   -1,500
1108,141;  605,965;    1,621;    1,500
1108,680;  699,237;    3,985;   -0,591
1109,219;  654,783;    0,167;   -0,500
1109,758;  661,328;    4,167;    0,682
1110,297;  639,056;   -1,106;   -0,682
1110,836;  586,510;    1,439;    0,955
1111,375;  717,783;    0,348;    0,409
1111,913;  733,510;    0,985;    0,773
1112,452;  683,601;    0,894;    0,136
1112,991;  573,692;    1,076;    1,955
1113,529;  536,328;    0,167;   -0,045
1114,068;  597,783;    0,439;    2,955
1114,606;  506,692;   -0,561;   -0,955
1115,144;  651,692;    1,530;    1,045
1115,683;  591,056;    1,985;    0,318
1116,221;  641,237;    2,076;   -0,864
1116,759;  563,965;    1,621;   -0,864
1117,297;  741,601;    1,621;    1,864
1117,836;  553,874;    1,985;   -1,227
1118,374;  564,692;    0,258;   -0,682
1118,912;  517,146;    0,439;    2,682
1119,450;  496,601;    0,985;    0,864
1119,988;  542,965;    3,348;    2,136
1120,525;  990,510;    7,258;    3,318
1121,063;  688,056;    0,530;    1,864
1121,601;  495,419;    1,076;   -1,227
1122,139;  459,328;    1,076;   -2,045
1122,676;  652,510;   -1,652;    2,773
1123,214;  586,601;    0,712;    4,409
1123,751;  415,601;    0,621;    2,227
1124,289;  534,783;    0,894;   -0,409
1124,826;  412,510;   -0,379;    0,227
1125,364;  345,692;    0,712;   -0,955
1125,901;  515,692;    6,258;    1,227
1126,438;  615,783;    3,530;    0,955
1126,975;  359,601;    2,985;   -0,773
1127,513;  415,965;    2,621;    2,136
1128,050;  343,237;   -0,561;   -0,682
1128,587;  428,146;    1,348;   -0,227
1129,124;  461,146;   -0,015;    1,318
1129,661;  340,419;   -1,924;    0,227
1130,198;  502,783;    2,439;    0,773
1130,734;  451,056;   -0,379;    1,409
1131,271;  316,965;   -1,197;    0,864
1131,808;  481,237;    1,621;    3,045
1132,345;  356,692;    4,530;    0,318
1132,881;  243,510;   -0,561;   -1,864
1133,418;  370,510;    0,348;   -1,136
1133,954;  322,237;    0,712;   -2,682
1134,491;  383,146;    1,712;   -0,773
1135,027;  297,601;    2,167;    0,864
1135,564;  362,056;    1,439;    2,955
1136,100;  346,783;   -0,742;    2,136
1136,636;  255,328;   -1,015;   -1,045
1137,172;  332,783;    0,894;   -1,045
1137,708;  261,419;   -1,561;   -1,045
1138,245;  267,601;    0,803;   -1,227
1138,781;  232,783;    1,803;   -3,318
1139,317;  287,783;    1,894;   -1,409
1139,852;  280,146;    3,076;    0,136
1140,388;  382,510;    2,076;   -0,409
1140,924;  269,965;    1,076;   -2,227
1141,460;  213,783;   -0,288;    0,136
1141,996;  153,965;   -0,652;    2,682
1142,531;  196,965;    1,076;    3,318
1143,067;  397,783;    1,167;    1,045
1143,602;  452,692;    3,439;   -0,318
1144,138;  297,056;    0,803;    1,045
1144,673;  182,874;    1,621;    1,409
1145,209;  248,237;    2,894;   -0,318
1145,744;  170,419;    0,803;    0,864
1146,279;  285,419;    1,530;   -0,136
1146,815;  224,874;    1,530;   -2,682
1147,350;  256,601;   -0,924;    0,045
1147,885;  170,510;   -1,924;   -1,318
1148,420;  170,692;    2,439;    0,773
1148,955;  156,692;   -1,470;    1,864
1149,490;  181,237;   -1,106;   -1,591
1150,025;  155,874;   -1,106;   -1,773
1150,560;  257,419;   -0,288;   -0,955
1151,094;  233,419;    0,258;   -0,591
1151,629;  237,056;   -3,742;    0,864
1152,164;  173,965;   -1,288;    1,318
1152,698;  137,056;    1,258;   -0,136
1153,233;  101,056;   -1,379;   -0,682
1153,767;  139,056;   -0,288;   -2,318
1154,302;  190,056;   -0,379;    1,773
1154,836;  187,328;    0,803;   -2,136
1155,371;  225,146;    2,258;    3,682
1155,905;  193,328;    1,985;    1,682
1156,439;  162,601;    0,530;   -0,500
1156,973;  182,874;    0,439;    0,318
1157,507;  131,874;   -1,742;    0,682
1158,042;  150,146;   -0,652;    1,045
1158,576;  193,328;   -0,561;    1,773
1159,110;  191,692;    0,076;    2,409
1159,643;  165,328;   -2,470;   -0,045
1160,177;  110,237;   -2,015;    1,500

