
Integration time [ms]:   0,050
Averaging Nr. [scans]: 11
Smoothing Nr. [pixels]: 0
Data measured with spectrometer [name]: 7318044SP
Wave   ;Sample   ;Dark     ;Reference
[nm]   ;[counts] ;[counts] ;[counts] 

186,757;   -9,579;   38,161;    1,318
187,357;   28,213;   26,706;    0,955
187,958;    7,113;   17,252;   -1,591
188,558;   55,229;   12,979;   -1,227
189,159;   34,230;   10,070;   -4,500
189,759;    2,556;    5,797;   -3,591
190,360;    1,195;    6,797;   -2,136
190,960;   37,856;    5,706;   -4,136
191,560;   53,165;    2,614;   -6,591
192,161;  275,525;    5,885;   -3,500
192,761;  120,737;    5,520;   -3,227
193,361;   78,028;    3,065;   -3,773
193,962;  132,850;    1,612;   -2,682
194,562;   67,568;   -0,114;   -3,955
195,162;  105,088;   -0,567;   -2,227
195,762;  265,355;    2,433;   -0,045
196,362;  212,512;    1,706;   -2,500
196,963;   80,548;    1,706;   -0,864
197,563;  156,234;    1,252;   -0,955
198,163;  106,096;   -0,111;   -0,682
198,763;  125,943;   -0,020;   -0,500
199,363;  222,655;    3,616;   -0,500
199,963;  185,013;    2,162;    0,409
200,563;  159,208;    6,344;   -1,409
201,163;  142,238;    5,435;   -0,227
201,763;  231,574;    1,435;    0,318
202,363;  176,410;    0,980;    1,500
202,963;  273,199;    1,526;    1,045
203,563;  389,443;    0,344;    0,500
204,162;  246,374;    1,889;   -1,864
204,762;  226,430;    2,071;    0,591
205,362;  200,395;    0,708;    1,955
205,962;  305,596;    3,435;    1,955
206,562;  311,650;    1,889;    2,318
207,161;  282,367;    1,708;    0,318
207,761;  423,227;    4,435;    2,409
208,361;  307,840;    1,889;    1,409
208,960;  406,686;    2,889;    1,500
209,560;  482,628;    0,435;    1,591
210,160;  463,278;    5,071;    1,864
210,759;  433,982;    0,708;    1,227
211,359;  436,711;   -0,474;    1,045
211,958;  701,204;    3,526;    2,045
212,558;  792,625;    0,799;    1,864
213,157;  625,424;   -0,929;    1,500
213,757; 1070,380;    5,617;   -0,227
214,356;  771,779;    1,708;   -0,409
214,956; 1112,859;    3,526;    0,409
215,555;  758,408;    0,617;    2,136
216,154;  685,258;   -0,292;   -0,591
216,754;  700,884;    1,253;    0,773
217,353;  844,190;   -0,383;   -1,045
217,952;  707,583;    2,072;    0,318
218,552;  939,043;    0,254;   -0,773
219,151;  849,050;   -1,110;    0,955
219,750;  849,856;    0,890;   -0,227
220,349; 1015,038;   -2,292;    1,045
220,948; 1061,116;    1,163;    1,136
221,548; 1108,919;    0,617;    1,227
222,147; 1227,014;   -1,292;   -0,409
222,746; 1523,281;    1,254;   -0,955
223,345; 1399,036;   -1,019;    0,500
223,944; 1433,081;    1,163;    0,773
224,543; 1629,827;    4,072;   -1,409
225,142; 1728,478;    1,345;    0,136
225,741; 1645,814;    1,163;    1,045
226,340; 1672,238;    1,254;   -0,955
226,939; 2145,549;    2,708;   -0,136
227,538; 2173,830;    1,163;   -0,773
228,137; 2311,381;    0,435;    0,864
228,735; 2505,558;    0,435;    1,227
229,334; 2222,456;   -0,474;   -0,227
229,933; 2601,349;    0,799;    0,591
230,532; 2734,556;   -1,201;   -0,409
231,131; 2792,271;    1,253;    0,318
231,729; 2961,685;    1,163;   -2,318
232,328; 3124,455;    0,435;   -1,500
232,927; 3238,478;    4,526;   -0,500
233,525; 3371,743;    0,981;    0,045
234,124; 3603,251;    1,890;   -1,591
234,723; 3665,113;    1,617;   -1,045
235,321; 3840,988;    1,163;    0,136
235,920; 4116,782;    2,526;   -1,227
236,518; 4410,929;    1,072;    0,318
237,117; 4660,892;    2,890;   -0,227
237,715; 4840,338;    1,163;   -0,500
238,314; 4886,845;    1,708;   -2,318
238,912; 4966,695;    0,526;   -1,409
239,510; 5042,037;    1,162;   -1,227
240,109; 5242,830;   -0,474;    3,773
240,707; 5318,916;   -0,474;    1,227
241,305; 5771,714;   -0,383;    0,136
241,904; 5984,533;   -0,292;   -2,045
242,502; 5978,640;    3,253;   -0,227
243,100; 5974,600;    3,344;   -0,955
243,698; 6214,864;    2,799;    1,682
244,297; 6437,370;   -0,656;    0,682
244,895; 6251,886;   -0,474;   -2,318
245,493; 6621,454;    2,981;   -0,591
246,091; 6709,218;    5,163;   -1,318
246,689; 6714,849;    2,163;    0,591
247,287; 6887,266;   -0,019;   -1,136
247,885; 7252,649;   -1,019;    1,227
248,483; 7411,956;   -0,201;   -0,500
249,081; 7549,176;    0,981;    1,591
249,679; 7726,459;   -1,019;    1,682
250,277; 8044,156;   -2,292;    0,864
250,875; 8000,696;    0,617;   -1,045
251,473; 8067,384;   -0,019;    0,500
252,071; 8260,228;   -0,383;    1,045
252,669; 8452,808;   -1,565;    0,318
253,267; 8772,996;    1,618;    0,773
253,864; 8732,448;    0,617;    0,682
254,462; 8555,542;    1,526;    1,591
255,060; 8551,878;    0,072;    1,318
255,658; 8941,717;   -3,292;   -0,136
256,255; 9410,169;   -0,201;   -2,045
256,853; 9271,922;    2,345;    1,409
257,451; 9282,261;    1,981;    1,864
258,048; 9551,416;    2,072;    1,864
258,646; 9316,445;    0,436;   -1,045
259,243; 9516,922;    2,981;    2,227
259,841; 9577,781;    1,799;    0,318
260,438; 9430,713;    0,254;    0,864
261,036;10241,863;    0,617;    1,409
261,633;10180,364;    1,526;    2,227
262,231; 9934,278;   -0,110;   -0,045
262,828; 9998,460;   -0,383;    1,136
263,425;10067,132;   -1,928;   -0,591
264,023;10359,787;    1,436;    0,045
264,620; 9869,616;    1,526;   -0,318
265,217;10249,632;    2,890;    3,136
265,815;10399,075;    2,527;    2,136
266,412;10139,734;    0,072;    0,136
267,009;10226,256;    0,526;    0,773
267,606;10080,354;    0,345;   -0,955
268,203;10075,371;   -0,383;   -0,591
268,801;10408,471;   -0,474;    0,591
269,398;10738,243;   -0,564;    2,500
269,995;10734,824;    0,890;    1,591
270,592;10483,306;    0,799;   -0,500
271,189;10722,003;    1,981;    0,409
271,786;10866,533;    2,072;    1,227
272,383;10640,055;   -0,383;    0,227
272,980;10844,780;    1,617;    0,318
273,577;11411,876;    2,162;    1,227
274,174;10945,203;    1,435;    2,591
274,771;10925,081;    1,890;   -0,773
275,367;11073,325;    3,253;    1,409
275,964;11067,456;   -0,565;   -0,500
276,561;11196,097;   -2,474;   -1,045
277,158;11448,368;    1,799;   -1,773
277,755;11547,449;   -0,110;    0,409
278,351;10873,531;    0,436;   -1,500
278,948;11237,230;   -0,201;    0,045
279,545;11321,286;    0,527;    2,318
280,141;11981,967;    1,254;   -2,045
280,738;11852,888;    2,435;   -0,136
281,334;12134,152;   -0,383;    0,591
281,931;11457,757;    2,890;   -1,318
282,528;11602,034;    4,072;   -0,500
283,124;12398,633;    3,345;   -0,500
283,721;12324,462;    0,709;    1,409
284,317;12139,100;    0,163;    2,500
284,913;12718,259;   -0,110;    0,591
285,510;12963,168;    2,890;   -0,318
286,106;12983,246;    2,345;   -0,955
286,703;12547,545;    0,072;    1,955
287,299;12783,054;    1,254;   -0,591
287,895;13047,194;    0,890;   -1,045
288,491;13730,516;    0,163;    2,136
289,088;13389,897;    0,163;    2,409
289,684;13479,262;    2,890;    1,500
290,280;13496,314;    1,890;    0,682
290,876;13586,033;    0,163;    5,500
291,472;13467,673;    2,163;    2,227
292,068;13569,439;    1,254;    0,227
292,665;13272,327;   -0,564;    0,773
293,261;12861,105;   -1,292;    2,136
293,857;13321,393;    4,072;    2,136
294,453;13272,798;   -0,928;    0,955
295,049;13096,195;    0,253;    1,955
295,644;13134,409;   -1,292;    0,136
296,240;13045,646;    0,162;   -0,136
296,836;13134,797;   -0,747;    0,318
297,432;13385,094;    2,980;   -0,500
298,028;13422,885;    0,435;    0,773
298,624;13889,269;    0,889;    1,864
299,220;14206,550;    0,435;    0,591
299,815;13795,045;    0,526;   -0,409
300,411;13536,286;    0,435;    1,773
301,007;13585,323;    1,889;    0,227
301,602;13651,049;    2,071;   -2,318
302,198;13825,177;    1,435;   -0,773
302,794;14185,865;    1,526;   -0,500
303,389;14329,155;    1,071;    1,045
303,985;14379,775;    1,253;    1,409
304,580;14324,769;    0,889;    1,591
305,176;14337,618;    0,344;    0,136
305,771;14314,336;   -0,929;   -1,227
306,367;14077,888;    3,071;    0,136
306,962;14497,867;    2,889;    1,500
307,558;14205,712;    2,435;    0,136
308,153;14185,805;   -0,383;   -1,136
308,748;14444,285;    0,162;    1,682
309,344;14363,556;    0,253;   -1,318
309,939;14445,539;    2,071;   -1,318
310,534;14785,320;   -2,020;   -1,682
311,130;14743,537;   -0,656;   -2,500
311,725;14438,945;    0,526;   -0,500
312,320;14800,755;    1,253;    0,045
312,915;14649,053;    2,890;   -1,045
313,510;14676,164;    0,526;   -0,500
314,105;15241,436;   -3,565;    1,409
314,700;14599,935;   -1,656;   -1,045
315,295;14188,223;   -0,020;    0,045
315,890;13683,220;   -0,292;    0,864
316,485;14075,319;    0,253;   -0,318
317,080;14205,969;   -0,929;    1,591
317,675;14810,852;    3,071;   -0,682
318,270;14075,296;    6,889;    3,318
318,865;14156,108;    2,435;    3,045
319,460;13968,835;   -1,565;    0,591
320,055;14214,663;   -2,565;   -1,227
320,650;13829,239;   -1,838;   -0,591
321,244;13882,145;    0,889;   -1,409
321,839;14906,679;    0,980;   -0,227
322,434;14859,937;   -0,111;   -1,591
323,029;14413,174;   -0,474;    1,591
323,623;14254,467;    0,798;    0,773
324,218;13979,135;    2,707;    1,409
324,812;13917,143;    0,889;    1,591
325,407;13698,471;   -0,929;    2,045
326,002;13620,723;    0,526;   -0,409
326,596;13968,918;   -0,656;    1,318
327,191;14195,605;   -0,383;   -1,045
327,785;13693,282;   -0,747;   -0,227
328,379;13969,909;   -0,383;    0,136
328,974;13786,760;    1,798;   -3,955
329,568;13991,454;    2,889;   -2,409
330,163;13823,308;    2,435;    1,045
330,757;14154,758;    0,253;    1,591
331,351;13454,002;   -0,292;    0,682
331,945;13748,587;   -0,383;    1,409
332,540;13320,281;    1,617;   -0,591
333,134;13458,373;    3,344;    0,773
333,728;13727,430;    2,799;    0,318
334,322;14104,112;    0,889;   -0,864
334,916;13339,675;    0,344;    0,955
335,510;13673,114;   -0,111;   -0,136
336,105;13935,605;   -0,929;    1,591
336,699;13630,843;   -1,292;    0,591
337,293;13531,359;    1,071;    0,318
337,887;13690,333;    0,071;    1,955
338,481;13774,762;    2,980;    0,591
339,074;13950,487;    2,071;    2,682
339,668;13727,882;   -0,110;    1,227
340,262;14002,411;    7,708;    3,227
340,856;13478,880;    1,708;   -0,682
341,450;12787,352;    0,708;    1,864
342,044;13747,450;    1,799;    0,136
342,637;13501,012;    1,162;   -2,136
343,231;13338,780;   -1,474;    0,682
343,825;13271,110;   -0,747;   -0,591
344,419;13189,166;   -0,474;    0,500
345,012;12905,148;    2,889;    4,045
345,606;12925,083;   -0,656;    1,591
346,199;12771,225;   -0,111;   -0,227
346,793;12214,620;    2,525;    2,045
347,386;12440,924;    0,889;   -1,136
347,980;12415,949;   -0,838;   -0,045
348,573;12235,010;   -1,748;    0,409
349,167;11818,243;    6,161;    4,773
349,760;12222,104;    2,252;    2,682
350,354;12180,695;    1,616;    1,136
350,947;11903,206;    2,798;    1,682
351,540;11517,318;    0,616;   -1,409
352,134;11455,409;   -1,111;    1,136
352,727;11536,831;   -0,657;    1,136
353,320;11327,832;    2,343;    0,591
353,913;11183,897;   -1,929;    1,864
354,507;11335,561;    0,434;   -1,227
355,100;11331,619;    0,071;    0,864
355,693;10420,778;    4,798;    2,409
356,286;10497,585;    0,980;    2,773
356,879;10929,842;   -0,475;    1,227
357,472;10459,073;    0,980;    1,500
358,065;10670,043;    3,161;    2,500
358,658;10615,109;    0,798;    2,318
359,251;10210,302;    0,252;   -0,591
359,844; 9596,663;    0,343;   -1,136
360,437; 9730,689;    0,252;    0,045
361,030;10040,997;    0,525;   -0,682
361,623; 9617,244;    0,434;    0,318
362,215; 9613,695;    0,979;    2,045
362,808; 9482,456;   -2,293;   -1,682
363,401; 9686,531;    0,798;    0,136
363,994; 9364,813;    3,252;   -1,500
364,586; 9278,322;    0,888;   -1,500
365,179; 9533,891;   -0,203;   -1,136
365,772; 8976,598;   -0,930;    2,045
366,364; 9292,978;    1,524;   -3,227
366,957; 9475,088;    1,342;   -0,045
367,549; 9511,508;   -0,203;   -0,864
368,142; 9111,643;    0,978;   -1,500
368,734; 9314,035;    2,523;   -2,136
369,327; 9283,112;    2,341;   -0,500
369,919; 9203,897;   -1,659;    0,409
370,512; 8953,483;   -1,023;   -0,500
371,104; 8647,430;    2,704;    1,591
371,696; 8801,081;    1,703;   -0,955
372,289; 8934,700;    0,157;    1,136
372,881; 9100,590;    1,156;    1,318
373,473; 9019,894;    4,064;    1,136
374,066; 8787,660;    1,336;    0,500
374,658; 8638,128;    0,879;    1,136
375,250; 9022,111;   -1,668;   -1,409
375,842; 8831,389;   -0,124;   -0,045
376,434; 8691,285;   -2,762;   -0,409
377,026; 9378,543;   -1,855;   -2,500
377,618; 9235,167;    0,779;   -0,682
378,210; 9074,587;    3,141;   -1,955
378,802; 8916,677;    3,412;   -0,591
379,394; 8819,167;    3,411;    0,682
379,986; 9502,230;    1,138;   -0,955
380,578; 9621,498;    1,410;    0,773
381,170; 8853,157;    0,320;    0,045
381,762; 8815,051;   -0,224;    1,409
382,354; 9074,147;   -0,223;   -1,318
382,945; 9185,110;    0,870;    0,318
383,537; 9345,061;    1,144;   -1,955
384,129; 9328,319;    0,963;   -1,136
384,721; 9533,420;    0,418;    0,955
385,312; 9453,486;   -1,399;   -0,955
385,904; 9533,924;   -0,945;    1,591
386,496; 8890,464;    0,691;    1,045
387,087; 9027,127;    0,418;    2,500
387,679; 9067,967;   -0,401;    0,045
388,270; 9185,476;   -2,401;    2,045
388,862; 9330,415;   -0,401;   -0,318
389,453; 9192,178;    1,054;    1,045
390,045; 9503,055;    3,236;   -2,682
390,636; 9469,964;    0,144;   -0,591
391,227; 9310,970;    2,054;   -0,045
391,819; 9382,155;    0,781;    0,773
392,410; 9461,074;    0,600;    0,045
393,001; 9399,589;    1,600;   -1,591
393,593; 9690,249;    0,600;   -0,045
394,184; 9530,145;    0,873;   -0,409
394,775; 9467,456;    1,146;    2,136
395,366; 9690,043;    1,782;    0,773
395,957; 9662,208;   -2,400;    0,136
396,548;10039,351;    1,054;    2,682
397,139;10338,767;    2,236;    0,591
397,730;10049,454;    0,873;    0,955
398,321;10116,132;    0,509;    0,955
398,912;10133,663;   -0,764;    0,136
399,503;10237,866;   -1,945;   -1,409
400,094; 9609,169;   -1,582;    1,682
400,685; 9476,142;    3,600;    0,045
401,276; 9569,098;   -0,400;   -0,955
401,867; 9921,567;   -1,127;    0,773
402,458;10007,055;    1,509;   -2,318
403,048;10000,696;    0,146;    0,591
403,639; 9565,434;    1,509;    0,864
404,230; 9800,103;    0,691;    0,318
404,821; 9755,048;   -0,127;    0,045
405,411; 9838,634;   -0,763;   -2,591
406,002; 9402,831;    3,237;   -1,136
406,592; 9203,787;    2,691;    0,045
407,183; 9546,910;    0,328;   -1,500
407,774; 9425,625;    1,419;   -0,136
408,364; 9810,815;    2,600;    0,409
408,954; 9386,662;   -0,036;    1,227
409,545; 9429,009;    1,873;    1,045
410,135; 8898,528;   -1,581;    0,500
410,726; 9098,018;    0,783;    0,318
411,316; 9480,696;    2,237;    0,773
411,906; 9134,940;    0,146;   -0,409
412,497; 8577,677;   -0,490;   -0,045
413,087; 9235,662;    0,783;   -0,227
413,677; 9663,323;   -2,490;    3,864
414,267; 9479,814;   -1,035;    1,409
414,857; 9478,029;    0,419;    4,227
415,448; 9768,903;   -0,763;    0,500
416,038; 9427,872;   -2,945;   -0,591
416,628; 9378,942;    0,965;    0,409
417,218; 8792,169;   -1,762;    3,318
417,808; 9117,293;    0,965;   -0,409
418,398; 9660,604;   -1,035;    2,682
418,988; 9622,599;   -2,217;    0,591
419,578; 9887,869;    3,601;    1,409
420,168;10243,679;    0,692;   -0,955
420,757; 9793,208;    0,964;   -1,500
421,347; 9415,448;    1,601;   -0,227
421,937; 9595,191;    3,329;    1,409
422,527; 9525,808;    2,602;   -0,773
423,116; 9346,721;    2,692;   -0,045
423,706; 9749,306;    2,965;    0,318
424,296; 9716,932;    1,601;    0,682
424,885;10136,477;    1,510;   -3,045
425,475;10449,196;    1,147;   -2,864
426,065;10380,672;   -1,489;   -0,318
426,654; 9942,599;    0,329;   -0,318
427,244;10044,887;    1,147;    1,409
427,833; 9440,939;    1,056;   -0,500
428,423; 9982,961;    0,147;    1,136
429,012;10804,110;    2,420;   -1,136
429,601;10211,674;    2,057;    0,136
430,191;10458,108;    2,511;    4,318
430,780;10066,303;   -1,671;   -0,409
431,369; 9948,680;    1,329;   -0,045
431,959;10685,103;    1,693;    0,500
432,548;10441,152;   -1,398;   -0,045
433,137;10589,854;    0,329;   -1,318
433,726;11149,441;    0,148;    0,500
434,315;10435,004;    0,148;    2,409
434,905;10554,893;    0,693;    1,409
435,494;10421,270;    3,148;    0,955
436,083;10896,618;    1,420;   -0,955
436,672;10752,503;    1,148;    0,500
437,261;10272,865;    0,512;   -1,955
437,850;10348,959;   -1,125;    0,682
438,439;10333,950;    2,239;    1,955
439,027;10135,448;    3,421;    1,773
439,616;10562,046;    2,239;    1,227
440,205;10450,908;    0,057;   -2,136
440,794;10494,710;   -0,306;   -0,045
441,383;10751,179;    1,603;   -0,591
441,971;10558,339;   -0,306;    0,591
442,560;10400,958;    0,603;   -1,773
443,149;10216,275;    3,060;   -1,318
443,737;10335,774;    0,968;   -2,318
444,326;10589,793;    0,331;    0,318
444,915;10601,343;   -1,851;    0,864
445,503;10994,737;    0,058;   -0,318
446,092;10246,963;    7,876;    2,136
446,680;10823,227;    1,876;    0,318
447,269;10993,699;   -1,487;   -0,318
447,857;10740,719;    2,240;   -1,773
448,445;10871,699;    2,149;    1,318
449,034;11080,425;    0,876;   -1,136
449,622;11177,431;    1,240;    3,500
450,210;10338,395;    3,149;    2,227
450,799;10892,798;    2,604;   -0,591
451,387;10825,783;    1,786;   -0,591
451,975;10472,904;   -1,305;    0,864
452,563;10542,136;    0,422;    2,318
453,151;10595,933;   -1,032;   -1,227
453,739;10506,036;   -1,577;    0,136
454,328;10363,296;    0,604;   -2,136
454,916;10013,871;    1,150;   -0,136
455,504;10205,366;    3,513;    1,227
456,092;10405,508;    2,150;   -1,591
456,679;10383,947;    0,604;    0,682
457,267;10248,785;    3,604;    1,045
457,855;10468,910;    3,241;    1,409
458,443;10208,133;   -0,304;    1,682
459,031;10327,687;    1,332;    2,409
459,619;10833,401;   -3,577;    2,864
460,206;10952,574;   -0,759;    2,045
460,794;11006,047;   -0,668;   -0,227
461,382;11289,335;    0,878;   -0,864
461,970;10817,635;    0,605;    1,864
462,557;10854,110;    0,878;   -0,682
463,145;11055,927;   -0,304;   -1,682
463,732;11202,285;    2,514;   -1,045
464,320;11103,086;    1,514;   -3,045
464,907;10787,914;    0,423;   -0,773
465,495;10642,692;    2,696;   -1,227
466,082;10816,102;    2,060;   -0,045
466,670;10700,851;    2,605;    1,227
467,257;11135,270;    0,060;    2,045
467,844;11270,261;    1,514;    0,045
468,432;11315,043;   -0,031;    3,500
469,019;10798,347;    1,606;   -1,773
469,606;11289,681;    0,969;    3,682
470,193;11084,029;    2,151;    0,227
470,780;10599,473;    0,333;    0,864
471,368;10966,150;   -1,212;   -0,773
471,955;10695,010;    1,060;   -0,682
472,542;10315,004;   -0,303;   -1,136
473,129;10574,829;   -0,485;    0,136
473,716;10313,758;    0,060;    0,591
474,303;10528,951;    1,333;   -0,864
474,890;10815,788;    2,333;   -0,500
475,477;10778,010;   -0,576;    0,409
476,064;10695,443;    0,697;   -1,591
476,650;10612,299;    2,152;    0,318
477,237;10488,481;    1,879;    0,955
477,824;10625,273;    3,879;    0,864
478,411;10661,433;    0,606;   -0,318
478,997;10859,742;    0,606;   -0,773
479,584;10935,603;   -0,666;   -0,409
480,171;11634,809;    1,243;   -0,773
480,757;11256,081;   -0,848;    0,773
481,344;11548,697;    0,334;    0,409
481,931;11040,294;   -0,393;    1,045
482,517;12018,197;    0,425;    0,318
483,104;12646,662;    1,334;    2,864
483,690;12950,042;    0,243;    0,045
484,276;13360,377;    0,698;    0,227
484,863;13095,033;    2,152;    1,136
485,449;13711,204;    0,152;    0,318
486,035;13688,258;   -0,666;   -0,136
486,622;14159,870;   -2,393;    0,045
487,208;14073,460;    1,334;    1,500
487,794;13958,688;    0,971;    0,318
488,380;14045,005;    0,698;   -1,409
488,967;14110,857;   -1,120;   -0,409
489,553;14166,710;   -1,029;   -1,409
490,139;14316,143;    0,971;    0,773
490,725;13801,080;    0,789;   -0,227
491,311;13383,111;    1,516;    3,045
491,897;12593,673;   -0,665;    1,500
492,483;12455,568;    0,426;    1,227
493,069;12230,936;    5,426;    0,864
493,655;12228,073;    1,789;    0,682
494,241;12188,831;    1,517;   -0,955
494,826;12619,341;    0,335;   -1,045
495,412;12042,645;    0,335;   -0,682
495,998;12227,200;    0,971;   -0,318
496,584;12432,706;    2,244;    1,045
497,169;12411,007;    2,335;   -0,682
497,755;12392,265;    1,244;    1,227
498,341;12972,092;    2,153;    0,318
498,926;12584,058;    2,881;    1,955
499,512;12826,435;   -0,028;    2,955
500,097;12967,520;   -0,574;   -0,318
500,683;12928,454;   -0,028;    2,136
501,268;13332,406;    1,881;   -0,955
501,854;13116,713;   -0,119;    1,227
502,439;13077,959;   -0,573;   -1,773
503,024;13309,998;    1,608;    0,500
503,610;13379,013;    1,335;   -0,682
504,195;13430,197;    1,245;    1,955
504,780;13551,974;    2,335;    1,227
505,366;13399,759;    4,063;    2,864
505,951;13133,610;   -1,119;    1,045
506,536;13220,700;    1,427;   -3,682
507,121;13191,939;    1,699;   -0,318
507,706;13764,864;   -0,392;    1,045
508,291;14199,616;   -2,937;    1,136
508,876;13663,042;   -0,482;    2,591
509,461;13110,472;    1,427;   -0,773
510,046;13555,755;   -0,391;    0,318
510,631;13825,479;   -0,119;   -0,773
511,216;13524,797;   -0,664;   -0,500
511,801;13944,412;   -0,755;    2,591
512,386;14246,946;    0,972;    0,500
512,971;14185,646;    0,427;    0,955
513,555;13691,327;    1,154;   -1,500
514,140;14558,943;    1,336;   -3,136
514,725;14632,633;    1,791;   -1,136
515,309;14783,145;    1,064;    0,318
515,894;14168,199;   -0,300;   -2,227
516,479;14627,345;    1,973;   -0,955
517,063;14503,295;    0,882;    1,227
517,648;14681,317;    0,155;   -1,136
518,232;14266,620;   -1,300;   -1,409
518,817;14569,781;    1,337;    1,682
519,401;14859,443;    0,700;    0,591
519,985;14376,671;    2,700;    1,136
520,570;14245,075;   -0,118;   -1,955
521,154;14525,848;    0,064;    0,591
521,738;14711,548;    1,064;    2,409
522,323;15317,178;   -0,390;    1,682
522,907;15078,045;    2,428;   -0,136
523,491;14772,789;    1,155;    0,955
524,075;14752,131;    0,428;    0,591
524,659;14812,888;    0,973;    0,591
525,243;14255,124;    0,883;    0,409
525,827;14540,650;    0,883;   -0,045
526,411;15418,978;    1,155;   -0,136
526,995;15686,002;    0,337;    1,409
527,579;15211,751;    1,974;   -1,045
528,163;15522,781;    0,428;   -1,500
528,747;15481,481;    1,065;   -0,773
529,331;15759,485;    0,883;   -1,409
529,915;15952,097;    2,338;    0,955
530,499;15950,792;    0,247;    1,227
531,082;15627,377;    1,065;    1,591
531,666;15060,957;    0,520;    0,773
532,250;15779,823;    0,428;    2,682
532,833;16120,806;    0,610;    2,773
533,417;16030,940;    1,247;    0,864
534,001;15979,623;    0,429;   -0,318
534,584;16658,862;    1,974;    0,500
535,168;16513,669;    3,247;    1,409
535,751;16589,994;    4,520;    0,045
536,334;16004,680;    4,520;   -0,409
536,918;16636,514;    1,974;    1,591
537,501;16744,501;    1,520;    1,318
538,085;16723,539;    1,702;    1,045
538,668;16899,609;    0,883;    2,409
539,251;17257,315;    3,156;    3,773
539,834;17257,839;    0,156;    0,773
540,418;17178,389;    3,247;    4,318
541,001;17361,949;    2,702;    1,773
541,584;17370,449;    1,429;    2,227
542,167;17016,716;    0,702;    2,955
542,750;17192,434;    0,793;   -0,773
543,333;16732,403;    1,429;    2,136
543,916;17541,859;   -0,298;    2,500
544,499;18212,518;    2,520;    0,227
545,082;18184,230;    0,248;    3,591
545,665;18315,854;   -0,207;    1,500
546,248;18721,948;    0,520;   -0,318
546,830;18386,797;   -1,752;    1,955
547,413;18781,710;    0,157;   -0,773
547,996;19381,659;    0,157;    0,500
548,579;19135,812;   -0,843;    0,955
549,161;18923,433;    0,884;    2,682
549,744;18726,313;    0,612;    0,409
550,326;19267,324;    0,885;   -1,136
550,909;18980,732;    2,339;    0,591
551,492;19382,836;    0,521;    0,227
552,074;19161,263;   -0,024;   -1,318
552,657;19761,237;    2,430;    0,045
553,239;19494,992;   -3,024;   -0,773
553,821;19392,608;   -1,570;    1,045
554,404;18904,290;   -0,024;    1,136
554,986;19275,447;    2,248;    1,045
555,568;19919,293;    0,430;   -0,955
556,151;19104,272;    4,067;   -0,227
556,733;19279,601;   -1,388;   -0,864
557,315;19827,687;    4,703;    0,500
557,897;19595,451;    0,521;   -0,500
558,479;19727,494;    1,703;    1,318
559,061;19834,206;    1,067;   -0,864
559,643;20192,641;   -0,297;    0,045
560,225;20554,277;   -0,388;    2,864
560,807;20630,460;    0,340;    0,318
561,389;20136,642;   -1,206;    2,318
561,971;20858,125;   -0,660;    2,136
562,553;20636,516;    0,613;    1,591
563,135;20790,168;    1,249;    1,136
563,717;20382,948;    3,158;    1,136
564,298;21122,581;    3,976;   -0,045
564,880;20877,787;    0,340;   -1,409
565,462;21066,787;    1,977;    1,318
566,043;22248,455;   -0,933;    2,318
566,625;21794,176;    4,067;    1,227
567,207;21663,094;    0,704;    1,682
567,788;22862,212;   -0,114;    1,500
568,370;23715,955;   -1,841;   -0,500
568,951;23470,128;   -0,569;    0,227
569,533;24386,123;    0,977;   -0,500
570,114;24919,536;   -0,296;    0,682
570,695;25409,479;   -0,478;   -1,318
571,277;25986,364;   -0,205;   -1,682
571,858;26771,522;    2,704;   -1,136
572,439;27805,782;    0,795;   -1,045
573,021;27955,198;    0,432;   -2,773
573,602;28438,944;    1,795;    0,318
574,183;29421,620;   -0,114;    2,227
574,764;29645,662;    2,068;    0,409
575,345;30214,723;    0,250;   -0,136
575,926;30887,767;    2,704;    0,136
576,507;30819,575;    2,704;   -0,227
577,088;31961,997;    1,704;    1,682
577,669;32001,707;    1,704;    1,955
578,250;32769,438;   -0,750;   -1,045
578,831;33449,867;   -0,841;   -2,227
579,412;33813,231;   -1,205;    0,955
579,993;34775,670;    1,432;    0,227
580,573;35091,253;   -0,023;   -0,955
581,154;34004,472;    1,613;   -0,591
581,735;34896,578;    0,341;    0,773
582,315;34358,033;    0,523;    2,136
582,896;34745,390;   -1,750;    1,227
583,477;34197,431;    0,614;    1,227
584,057;34387,820;    1,159;    0,955
584,638;34627,943;   -2,750;    2,318
585,218;34601,172;    2,886;    2,682
585,799;34731,796;    1,977;   -0,227
586,379;34743,179;    1,250;    1,591
586,959;33467,503;    2,613;    0,318
587,540;32783,936;    0,432;    2,227
588,120;32217,213;   -1,113;   -0,045
588,700;31162,391;    2,977;    2,136
589,281;31476,825;    1,250;   -0,955
589,861;31354,799;   -0,296;   -1,682
590,441;31170,382;   -1,477;   -2,682
591,021;30115,483;    1,432;   -2,591
591,601;30340,900;    0,431;    0,500
592,181;30352,365;   -1,296;   -0,773
592,761;29563,793;    2,250;    1,409
593,341;29512,920;    1,522;    0,045
593,921;29443,420;   -0,569;    1,591
594,501;29247,171;    1,250;    1,318
595,081;29158,805;    0,522;   -0,318
595,661;29538,560;    1,068;    0,955
596,240;30038,841;   -1,023;    0,136
596,820;29615,678;    2,613;    1,955
597,400;29865,667;    1,977;    0,773
597,980;30105,102;   -0,750;    1,045
598,559;30105,196;    0,341;   -0,227
599,139;29815,320;   -0,750;   -1,227
599,718;29689,956;    0,795;   -0,409
600,298;29965,046;   -2,387;    0,682
600,877;30206,482;    4,795;    1,409
601,457;30542,227;    0,340;    1,136
602,036;30427,985;    1,795;    2,045
602,616;30615,187;    2,250;    1,682
603,195;30926,495;    0,431;    3,500
603,774;30469,768;   -0,296;    2,045
604,354;30326,656;    2,522;   -0,500
604,933;29802,793;    0,250;    1,864
605,512;29905,368;    2,340;    0,591
606,091;30010,242;    1,886;    3,773
606,671;30814,019;    0,249;    0,773
607,250;29861,576;    1,431;    3,136
607,829;30125,358;    1,158;    3,227
608,408;29951,563;    4,613;    2,591
608,987;28998,664;    2,704;    3,409
609,566;29277,566;    0,341;   -2,500
610,145;29359,745;    2,885;    0,682
610,723;29819,890;    1,613;    6,864
611,302;28956,978;    1,067;    1,682
611,881;28439,659;    5,158;   11,227
612,460;29300,188;    0,795;    3,955
613,039;29743,292;    1,703;    2,045
613,617;28411,957;    0,886;    4,773
614,196;28590,766;    1,613;    1,227
614,775;28956,612;    1,249;    2,409
615,353;28933,792;   -1,660;    0,864
615,932;28599,958;    0,249;    2,409
616,510;29221,425;    0,158;    0,591
617,089;28708,761;    8,794;   17,591
617,667;28418,237;    4,885;    6,136
618,246;28219,293;   -1,115;    1,318
618,824;28390,465;    1,612;   -0,955
619,402;27982,198;    0,431;   -1,773
619,981;28509,581;    1,067;   -1,045
620,559;28354,317;    0,794;    1,682
621,137;27915,318;    3,067;    1,864
621,715;27834,463;    3,703;   -0,682
622,293;27711,462;    1,885;   -0,773
622,871;28232,596;    0,340;    0,500
623,450;27806,378;    0,430;   -0,864
624,028;27712,889;   -0,388;   -0,955
624,606;27281,679;    2,339;    1,682
625,183;27682,751;   -0,661;   -1,136
625,761;27294,473;    1,885;    1,136
626,339;27614,311;    2,339;    2,591
626,917;27949,720;    0,339;   -0,045
627,495;28033,769;    2,794;    1,318
628,073;27501,355;    5,248;    2,864
628,650;27124,001;    3,067;    2,136
629,228;27583,025;    1,248;    4,409
629,806;26926,284;   -0,024;    1,136
630,383;27214,977;    0,066;   -0,318
630,961;27021,226;   -2,206;   -0,955
631,539;26656,933;   -2,479;    0,227
632,116;25912,044;   12,703;   15,409
632,694;26560,351;    4,885;    6,500
633,271;26873,661;    1,975;    2,682
633,848;26749,466;    1,430;    2,045
634,426;26788,847;    1,521;    1,773
635,003;25931,343;   -0,207;   -0,409
635,580;26242,321;    1,884;    3,682
636,158;26759,352;    3,793;    1,227
636,735;26759,512;    3,339;   -0,500
637,312;26892,825;    0,521;   -0,682
637,889;26969,060;    2,248;   -0,682
638,466;26489,015;    0,066;   -0,409
639,043;26526,432;    1,702;   -1,136
639,620;26815,304;    0,611;   -0,955
640,197;27127,352;    1,612;    1,682
640,774;27298,048;    1,430;    1,136
641,351;27701,470;    0,612;    1,136
641,928;27119,984;    2,794;    1,409
642,505;26730,679;    0,794;   -0,500
643,082;26849,920;    1,885;    1,227
643,658;25858,070;    1,157;    1,500
644,235;26601,220;   -2,479;    2,500
644,812;26876,188;    1,794;    0,773
645,388;26650,974;    1,612;    1,409
645,965;26722,943;    1,521;    1,682
646,542;26780,911;    3,430;   -0,227
647,118;26853,606;    3,703;   -0,955
647,695;27114,483;    0,339;    1,136
648,271;26949,451;   -2,115;    0,500
648,848;27282,147;    0,248;    2,227
649,424;27099,206;    0,976;    1,318
650,000;26857,810;   -0,388;   -1,045
650,577;26711,415;    0,158;   -0,955
651,153;27163,292;   -1,115;    0,955
651,729;28190,169;    0,521;    0,864
652,305;28414,683;    1,339;    2,773
652,881;33055,196;   -1,297;    1,136
653,458;40284,074;    0,249;    0,227
654,034;44396,496;    0,703;    1,591
654,610;45933,101;    0,339;    0,773
655,186;47289,341;    1,612;    3,045
655,762;47024,764;   -1,842;    0,409
656,338;47071,732;    0,703;    0,136
656,913;48130,609;   -0,297;    0,409
657,489;47404,941;    0,249;   -0,318
658,065;47403,182;    0,794;   -1,591
658,641;47966,423;    2,158;   -0,864
659,217;47171,300;    2,067;    0,409
659,792;46543,359;   -1,751;   -0,409
660,368;46806,054;   -0,388;   -0,682
660,944;46451,113;    1,794;    1,227
661,519;41749,627;    0,522;    0,409
662,095;35278,141;   -0,206;    0,591
662,670;30394,927;   -0,206;   -0,136
663,246;29148,986;   -0,660;   -0,409
663,821;28444,772;    0,431;    1,682
664,396;27950,559;    0,613;    1,864
664,972;28153,072;   -0,660;   -0,500
665,547;28479,040;    3,794;    0,136
666,122;28484,736;    1,340;    0,318
666,698;28804,340;    2,431;    0,318
667,273;28141,854;    0,885;    0,136
667,848;28988,913;    0,340;    1,500
668,423;28698,335;    1,795;    2,318
668,998;29310,485;    0,976;   -0,682
669,573;29828,635;    2,067;   -1,500
670,148;29623,512;    1,885;   -0,682
670,723;29436,299;   -0,024;    0,318
671,298;29927,085;   -1,296;    1,045
671,873;29996,599;   -0,296;   -0,136
672,448;30003,021;    1,704;    0,136
673,023;30364,717;    0,249;   -0,227
673,597;30615,685;    2,704;    2,318
674,172;30410,926;    2,431;    0,318
674,747;29880,530;   -0,205;   -1,045
675,321;29746,953;   -0,933;    3,318
675,896;29233,103;    2,158;    1,045
676,471;30227,616;    2,522;    1,591
677,045;30030,221;   -0,296;    0,682
677,620;30051,371;    2,158;    1,136
678,194;30376,157;    0,249;    1,136
678,769;29934,852;    0,886;   -0,318
679,343;30126,275;   -0,023;    1,773
679,917;30013,970;    0,340;    1,955
680,492;30102,029;    0,249;    3,227
681,066;30269,816;    0,613;    0,409
681,640;30339,238;    1,795;   -0,318
682,214;31116,115;    2,340;    0,500
682,788;30589,538;    0,613;   -0,773
683,363;30548,506;    1,977;    1,682
683,937;30290,020;    0,886;   -0,318
684,511;31082,352;   -1,023;   -0,591
685,085;30846,774;   -1,478;    0,318
685,659;30548,470;    1,431;    0,864
686,232;30770,710;    1,159;   -0,318
686,806;30471,315;    2,159;    0,409
687,380;31111,192;   -1,932;    0,591
687,954;31416,160;    2,432;    1,136
688,528;31078,219;    2,613;    1,955
689,101;31878,824;    0,432;    1,045
689,675;31441,155;    0,886;   -0,136
690,249;30778,305;    3,432;    0,409
690,822;31112,092;    1,159;    0,318
691,396;31204,242;    2,068;    1,227
691,969;30662,846;    2,523;    0,136
692,543;31158,905;   -0,568;   -1,955
693,116;30768,691;   -0,659;   -1,409
693,690;30569,023;   -0,296;    0,500
694,263;31098,264;    2,341;    2,955
694,836;31168,778;    2,795;    3,591
695,410;29875,473;    1,159;    1,773
695,983;30293,077;    1,614;    0,591
696,556;30285,591;   -0,750;   -1,045
697,129;30677,195;   -1,114;    1,409
697,703;30258,254;    1,341;    1,955
698,276;30255,586;    1,705;   -0,773
698,849;30048,554;   -1,023;    1,409
699,422;30515,522;    1,250;    0,591
699,995;30135,763;   -0,659;    0,136
700,568;30631,004;   -0,204;    3,045
701,140;30612,972;   -1,841;    1,682
701,713;30320,395;    0,341;    2,409
702,286;30053,454;    0,796;    0,864
702,859;29945,058;    0,614;   -0,591
703,432;29084,117;   -0,841;    0,682
704,004;29651,631;    1,978;    0,318
704,577;29481,599;    1,068;    0,136
705,150;30066,385;    0,887;    2,500
705,722;29837,535;    1,523;   -3,227
706,295;29577,594;    1,432;   -0,591
706,867;29415,381;    0,250;    1,955
707,440;29679,894;   -0,113;   -0,409
708,012;29886,862;   -0,022;    0,591
708,584;29809,921;    2,705;    0,227
709,157;30163,980;    1,160;   -0,591
709,729;29806,857;    1,069;    2,045
710,301;30666,007;   -1,204;    0,045
710,874;30657,612;    0,341;   -0,227
711,446;29527,853;   -0,295;    0,864
712,018;29406,094;   -3,022;    0,500
712,590;29121,880;   -0,204;    1,682
713,162;29697,575;   -0,477;    1,318
713,734;29920,725;    1,796;   -2,045
714,306;29804,784;    0,342;   -0,409
714,878;28503,025;   -0,295;    0,864
715,450;29344,902;   -0,113;    0,864
716,022;29579,779;    2,433;    1,318
716,593;29744,293;    0,978;    0,591
717,165;29689,807;    1,796;   -1,227
717,737;29377,229;    0,796;    0,409
718,309;29050,470;    1,160;   -0,045
718,880;28951,893;   -1,295;   -1,409
719,452;29296,406;    0,887;   -1,591
720,024;28776,193;    1,705;   -0,591
720,595;29346,524;    2,978;    0,955
721,167;28866,311;    1,160;   -2,045
721,738;28342,461;    2,069;   -1,045
722,309;28232,610;    1,251;   -1,227
722,881;28038,124;    2,705;    0,773
723,452;28720,183;    1,251;    2,864
724,023;28929,788;    1,524;    2,682
724,595;28739,210;    2,342;    0,682
725,166;28454,906;    1,524;   -0,409
725,737;28063,056;    1,887;    0,227
726,308;28167,478;    0,797;    0,318
726,879;28585,537;    1,069;    1,227
727,450;28487,869;   -2,022;   -0,045
728,021;28424,473;    1,069;    0,682
728,592;28260,896;    1,160;    0,500
729,163;28543,228;    1,433;   -0,136
729,734;28522,741;    2,160;   -0,227
730,305;28894,255;    0,615;    0,136
730,876;29203,405;    0,888;    2,955
731,447;28947,464;    0,797;    2,682
732,017;29069,977;   -0,840;    1,864
732,588;28578,491;   -0,021;    1,227
733,159;28734,005;    3,615;   -1,045
733,729;28548,064;    1,251;    0,409
734,300;27847,032;    0,160;    0,864
734,870;28256,818;   -1,385;    0,591
735,441;28820,604;    0,888;   -0,591
736,011;28557,027;    1,070;   -1,591
736,582;28493,722;    1,251;    0,045
737,152;27929,054;    0,979;   -2,045
737,722;28371,568;    1,070;   -0,682
738,293;28091,808;   -2,021;    1,318
738,863;27994,777;    1,797;    2,318
739,433;27794,381;    4,524;    0,318
740,003;28499,258;    1,524;   -0,682
740,573;27835,954;    2,252;   -1,591
741,143;27828,740;    3,615;    0,318
741,713;28561,708;    0,252;   -0,500
742,283;28235,858;    1,706;    1,591
742,853;27967,190;    0,524;    1,591
743,423;27439,340;    0,161;    0,045
743,993;27574,126;    1,070;    1,500
744,563;26936,640;    2,524;   -0,864
745,133;26909,244;   -0,112;   -0,864
745,702;27598,303;    2,797;    1,773
746,272;26800,362;    0,434;    0,591
746,842;26487,239;   -0,748;   -0,591
747,411;26975,298;   -0,839;   -0,318
747,981;27175,903;   -0,930;    0,500
748,551;27250,235;   -0,021;   -1,045
749,120;27085,748;   -0,112;   -0,227
749,690;27416,807;    2,161;    2,409
750,259;27712,502;    0,979;    2,955
750,828;27635,380;    4,070;   -1,955
751,398;27910,166;   -0,112;   -0,045
751,967;27367,498;    2,888;    0,409
752,536;27634,466;    1,161;   -0,227
753,105;28061,434;   -1,384;    0,227
753,675;27870,857;   -0,112;    1,773
754,244;27795,097;    0,888;    3,591
754,813;27842,338;    0,979;    1,227
755,382;27410,488;    0,798;    0,955
755,951;27919,820;   -0,112;    3,682
756,520;27497,334;    2,525;    1,864
757,089;28100,665;    1,888;    0,500
757,658;28221,270;    2,434;    1,227
758,227;28235,783;   -1,111;    0,318
758,795;28537,933;   -1,021;    1,136
759,364;28802,174;    0,525;   -0,591
759,933;27739,233;    1,343;   -0,045
760,501;27321,110;    0,252;   -1,318
761,070;27772,442;   -0,293;   -1,409
761,639;28480,592;    1,434;    1,318
762,207;27705,833;    0,889;   -0,955
762,776;27679,346;    2,889;    0,864
763,344;27674,587;    0,071;    0,591
763,913;26809,373;    1,616;    1,409
764,481;27588,978;    1,980;   -0,136
765,049;27279,219;    0,616;    1,409
765,618;27210,551;    1,434;    0,318
766,186;27258,973;    2,434;    0,136
766,754;27445,578;    1,798;    1,864
767,322;26374,273;    1,162;    0,409
767,890;26405,968;    0,525;   -1,773
768,459;26805,391;    2,616;   -0,318
769,027;27003,541;    2,525;    3,409
769,595;26006,782;    2,616;    2,591
770,163;26393,568;    3,344;    2,955
770,730;26153,082;    2,525;   -0,136
771,298;26038,323;    1,162;   -1,409
771,866;26139,473;    0,253;    4,955
772,434;26413,259;    1,162;   -1,864
773,002;26549,591;    2,616;    0,682
773,569;26227,377;    1,071;    1,682
774,137;26026,981;    0,889;   -0,045
774,705;26789,586;   -0,747;   -0,136
775,272;26267,645;    0,253;    0,682
775,840;26074,249;   -0,111;    2,682
776,407;25569,036;   -0,293;    1,955
776,975;25127,640;    1,162;    0,318
777,542;26202,335;    2,162;   -0,045
778,110;26092,304;    0,707;   -0,045
778,677;25737,817;    1,071;   -0,864
779,244;25436,876;   -1,020;    1,045
779,812;25540,481;    0,980;    0,864
780,379;25378,631;    2,435;    1,136
780,946;25648,508;    2,617;   -0,773
781,513;25975,839;   -0,565;    0,318
782,080;25280,171;    1,253;    2,864
782,647;26082,048;    1,708;    3,045
783,214;25672,289;   -0,201;    3,864
783,781;25267,439;    1,708;   -0,682
784,348;25179,316;    0,253;    1,500
784,915;25617,557;   -1,474;    0,318
785,482;25334,071;    2,708;    2,591
786,049;25759,584;    1,071;   -0,591
786,615;25865,916;    1,708;   -0,955
787,182;25670,884;   -3,201;   -0,682
787,749;25292,489;   -2,201;    1,409
788,315;24667,184;    0,253;   -0,409
788,882;24944,607;    0,981;   -1,227
789,448;25626,666;    1,435;   -0,955
790,015;25633,179;    1,799;    3,227
790,581;25197,511;    0,708;    0,227
791,148;25035,479;    1,344;    1,045
791,714;25329,175;   -1,019;    3,136
792,280;24994,506;    3,708;    1,591
792,847;24543,293;   -0,928;    2,500
793,413;25106,352;   -0,110;   -0,318
793,979;24670,774;    1,526;   -1,318
794,545;24734,379;    2,981;    2,682
795,111;24102,801;    2,435;    1,318
795,678;24277,679;    3,526;   -1,682
796,244;23946,192;    2,799;    0,136
796,810;24482,251;    0,799;    0,773
797,375;24212,583;   -0,292;   -2,136
797,941;24248,824;   -1,110;    0,591
798,507;24395,883;    0,254;   -0,955
799,073;23940,396;    2,708;    0,591
799,639;23998,546;    1,435;    3,136
800,205;24010,787;   -1,565;    2,682
800,770;23550,119;    1,345;    1,773
801,336;23580,723;    2,981;   -0,955
801,901;23298,055;    6,072;    3,136
802,467;23858,660;    0,526;    2,045
803,033;23150,264;   -0,019;    0,864
803,598;23366,141;    1,072;   -1,045
804,163;23443,109;    0,708;   -0,318
804,729;23343,441;   -0,110;    1,136
805,294;23743,500;    1,072;    2,227
805,859;23534,014;    0,890;   -0,409
806,425;23018,527;    3,890;    2,682
806,990;22705,677;    1,890;    4,318
807,555;23182,918;   -0,110;    2,591
808,120;23099,250;   -1,292;   -0,409
808,685;23149,218;    1,072;   -2,500
809,250;22644,731;    2,072;   -0,500
809,815;22938,154;   -0,201;    0,682
810,380;23459,940;    0,981;    1,591
810,945;23972,909;    2,890;    2,045
811,510;23192,331;   -0,200;    1,591
812,075;22884,572;    2,800;   -1,409
812,640;22910,722;    3,709;    1,409
813,204;22964,236;    2,163;   -0,227
813,769;23422,749;    0,254;   -0,045
814,334;22842,626;    0,527;    0,864
814,898;22881,049;    1,981;    0,591
815,463;22759,381;    0,981;   -0,773
816,027;22753,440;    1,345;   -2,318
816,592;22869,044;    2,163;   -2,045
817,156;22362,740;   -2,200;    1,136
817,721;22123,980;    0,982;    2,318
818,285;22119,858;    0,618;    1,500
818,849;22790,008;   -0,018;    1,682
819,414;22654,248;    0,073;    2,955
819,978;22230,489;   -0,291;    1,773
820,542;22812,548;    2,891;    0,500
821,106;22536,516;    2,800;    0,682
821,670;22603,484;    2,709;    2,591
822,234;22318,725;    1,073;    1,409
822,798;21719,148;   -0,836;    0,500
823,362;21673,752;    1,527;    4,227
823,926;20950,357;   -0,018;    1,136
824,490;21203,234;    3,527;   -0,682
825,054;21666,020;    2,527;   -1,136
825,618;21291,079;   -1,200;   -1,500
826,181;21207,229;    0,982;   -1,318
826,745;21093,743;   -0,745;   -1,045
827,309;21453,438;    2,255;    1,318
827,872;20887,952;    0,527;    0,955
828,436;21848,011;    1,982;   -0,773
828,999;21945,615;    2,436;    1,227
829,563;20774,129;   -0,654;    1,136
830,126;20575,097;   -0,018;   -0,591
830,690;20589,520;    0,709;    2,864
831,253;20074,761;   -0,473;    2,227
831,816;20215,456;   -0,018;    0,500
832,380;20120,151;    1,164;    0,864
832,943;20342,301;    3,073;   -0,500
833,506;19901,542;    0,255;   -1,227
834,069;20730,874;    2,164;   -0,955
834,632;20711,660;   -2,200;    1,318
835,195;20620,083;    1,346;    0,955
835,758;19840,142;    0,709;    1,955
836,321;19655,383;    1,073;   -1,045
836,884;19753,714;   -1,291;   -0,955
837,447;19757,501;    0,528;    1,773
838,010;19987,923;    1,800;    3,227
838,573;20300,164;    0,528;    0,773
839,135;20226,041;   -0,109;   -0,955
839,698;19672,737;    2,528;    0,409
840,261;19202,796;    0,255;   -0,227
840,823;19058,309;   -0,927;    0,864
841,386;19342,459;   -0,018;   -2,409
841,948;19222,882;    0,255;    1,773
842,511;18917,032;    0,255;    1,682
843,073;19077,727;    2,982;    0,227
843,636;18890,423;    0,619;   -0,227
844,198;18796,300;    1,255;    0,591
844,760;18937,722;    0,619;    1,955
845,322;18574,236;    0,164;    1,136
845,885;19012,204;   -0,290;    0,591
846,447;19458,990;    0,710;    0,227
847,009;18998,595;    3,983;   -0,682
847,571;19343,472;    1,346;   -2,045
848,133;19430,440;   -0,199;   -1,864
848,695;19266,317;    2,346;    1,409
849,257;18784,558;    1,346;   -1,682
849,819;18959,708;    2,983;   -0,409
850,381;18998,495;    1,801;   -0,864
850,942;19383,917;    1,892;   -0,591
851,504;19257,703;    0,983;    0,227
852,066;19310,672;    1,619;   -1,591
852,628;18880,094;    0,165;    1,955
853,189;18387,335;    0,256;    2,682
853,751;18558,394;   -0,654;    1,409
854,312;18381,271;    1,256;   -1,682
854,874;18897,876;   -0,108;   -0,773
855,435;19396,753;    0,528;   -1,682
855,997;19528,630;    3,983;   -0,136
856,558;18768,962;    0,801;    1,773
857,119;18939,475;   -0,744;    2,864
857,681;18588,716;   -0,108;    0,318
858,242;18640,594;    1,347;   -2,136
858,803;19096,562;    1,074;   -0,773
859,364;19644,893;    0,892;   -4,773
859,925;18991,316;   -0,290;   -0,955
860,486;18870,284;    0,529;   -0,955
861,047;18569,798;    0,165;   -1,227
861,608;18389,675;    0,165;   -0,773
862,169;18596,643;   -0,562;   -0,045
862,730;18355,611;   -0,290;    1,409
863,291;18559,579;    0,438;   -0,500
863,852;18948,820;   -0,926;    1,955
864,412;18440,334;   -1,835;   -0,864
864,973;16985,756;    1,892;    0,500
865,534;16769,088;    2,074;    0,227
866,094;18291,056;    2,620;    0,227
866,655;17955,752;    4,711;    3,318
867,215;18237,629;    0,074;    0,136
867,776;18080,779;   -1,199;   -0,136
868,336;18167,201;    1,529;    0,136
868,897;17618,715;    3,438;    1,682
869,457;17432,683;    3,256;    0,318
870,017;17653,742;    2,438;   -1,227
870,578;18153,619;    1,893;    0,773
871,138;17798,224;    2,620;   -0,955
871,698;17297,737;   -0,562;   -1,318
872,258;17134,705;    0,711;   -2,864
872,818;17553,219;    2,347;    0,045
873,378;17536,278;   -2,198;    1,045
873,938;17087,519;    4,984;    0,500
874,498;17421,214;    1,256;   -1,955
875,058;17320,637;    4,347;    1,773
875,618;17156,605;    1,438;   -2,682
876,177;17063,028;   -0,471;    0,136
876,737;16639,723;   -0,289;    1,955
877,297;16674,327;    2,711;    1,955
877,856;16706,023;    2,529;    0,318
878,416;16612,173;    2,438;   -0,136
878,976;16879,868;    3,438;    0,409
879,535;17085,564;    4,529;    3,136
880,095;16780,077;    1,347;    0,045
880,654;16923,591;    0,347;    1,318
881,213;16988,922;    2,347;    1,500
881,773;16666,618;    1,984;    2,682
882,332;16983,859;    6,075;    5,136
882,891;16880,281;    0,711;    2,136
883,451;17340,159;   -2,016;    1,682
884,010;16771,399;   -1,107;   -0,409
884,569;16865,004;   -2,289;   -0,045
885,128;16959,517;   -0,743;   -1,864
885,687;17016,031;   -0,743;    0,682
886,246;16728,181;    2,620;    2,136
886,805;16461,785;    1,620;    2,045
887,364;16782,572;    1,166;   -0,500
887,922;17158,903;   -0,016;    0,045
888,481;16659,690;    1,530;    0,591
889,040;16972,294;    3,711;    2,136
889,599;17643,717;    2,166;    1,409
890,157;17754,685;    2,166;    2,409
890,716;17418,926;    2,166;    0,227
891,274;17189,894;    0,075;   -1,136
891,833;17570,498;    1,166;    0,864
892,391;17457,103;    1,802;    0,500
892,950;17541,435;    0,166;   -0,773
893,508;17879,766;    0,984;   -0,409
894,067;17271,280;   -0,379;    0,136
894,625;17194,248;   -1,016;   -1,500
895,183;17380,216;   -0,198;   -0,682
895,741;17279,639;    2,257;   -1,773
896,299;17157,061;    1,621;   -2,409
896,858;17313,757;    1,530;   -1,591
897,416;17438,634;    0,166;   -1,318
897,974;17181,057;   -2,197;    0,318
898,532;17327,388;    6,530;    2,682
899,089;17226,538;    0,621;   -0,682
899,647;17265,870;    0,530;    1,318
900,205;17036,384;    0,257;    1,045
900,763;17218,988;    2,166;    0,227
901,321;17239,774;    3,530;   -1,409
901,878;16630,561;    3,257;   -0,773
902,436;16449,802;    0,257;    1,318
902,994;16897,406;    6,712;    3,682
903,551;16318,556;    1,439;    0,409
904,109;16678,433;    1,530;   -1,409
904,666;16308,947;    1,439;    1,045
905,224;16100,460;    3,894;   -0,409
905,781;15856,883;   -0,470;   -0,318
906,338;15945,487;    0,167;    1,045
906,895;15849,365;    1,894;    2,045
907,453;15792,878;    2,348;    1,136
908,010;15788,664;    3,348;    0,409
908,567;15453,178;   -0,561;    0,591
909,124;15014,328;    2,439;   -1,500
909,681;15043,660;   -1,288;    0,682
910,238;15177,901;   -0,106;   -1,318
910,795;15481,323;   -1,561;   -1,136
911,352;15156,232;   -0,379;   -2,682
911,909;14532,596;    2,803;   -0,864
912,466;15018,869;    1,985;    1,500
913,022;14562,323;   -0,924;    0,500
913,579;14943,778;   -0,470;    2,045
914,136;14647,960;   -2,561;    0,955
914,692;14979,323;    1,530;   -1,227
915,249;14535,778;    0,530;    0,409
915,806;14777,778;    1,803;    1,955
916,362;14483,323;    0,894;    1,864
916,918;14009,414;    2,439;    1,045
917,475;14014,687;    1,621;    0,955
918,031;14123,323;    0,076;   -0,045
918,587;13591,232;    0,621;   -0,318
919,144;13826,414;   -0,379;    0,227
919,700;14162,596;    0,167;    0,773
920,256;13727,323;    0,439;    0,045
920,812;13318,869;    1,439;   -1,045
921,368;13309,323;    1,348;   -1,045
921,924;12984,051;    0,439;   -0,136
922,480;12521,505;    0,076;    1,227
923,036;13136,687;   -0,652;    1,955
923,592;13099,141;    0,621;    0,318
924,148;13013,960;    1,894;   -0,955
924,704;12352,232;    0,258;   -0,409
925,259;12655,141;   -0,561;    0,591
925,815;12381,960;    3,803;    0,500
926,371;11969,414;    3,530;    1,409
926,926;11809,232;    1,621;    0,591
927,482;11395,323;    1,621;    0,773
928,037;11257,869;   -0,833;    2,045
928,593;11584,869;    0,258;    1,045
929,148;11404,141;    1,167;   -1,500
929,704;10919,869;    2,439;   -0,500
930,259;11104,141;    0,894;   -0,136
930,814;10194,323;    1,803;    1,955
931,369; 9889,141;    0,258;   -0,773
931,925; 9769,960;   -1,924;    0,136
932,480; 9653,414;    3,076;   -2,591
933,035; 9542,505;    3,985;   -0,318
933,590; 9295,778;   -1,742;   -1,773
934,145; 8956,051;   -1,288;   -0,318
934,700; 9308,869;    0,348;   -0,591
935,255; 9086,778;    4,803;    0,045
935,809; 8360,323;    6,258;    0,864
936,364; 7505,687;    2,167;   -0,136
936,919; 7473,141;    2,348;   -1,773
937,474; 7375,596;    1,348;    0,136
938,028; 7145,505;    3,076;    1,136
938,583; 6575,687;    6,348;    4,682
939,138; 6870,778;    0,167;    2,136
939,692; 6357,596;   -1,015;   -1,136
940,247; 6013,414;    1,167;   -1,045
940,801; 5533,051;    0,621;    0,227
941,355; 5468,323;    0,439;    2,591
941,910; 5136,778;    0,712;   -2,136
942,464; 5216,232;    2,712;   -0,318
943,018; 4992,141;    3,258;   -0,227
943,572; 4944,596;    2,803;   -0,682
944,126; 4342,687;   -0,924;   -0,409
944,681; 4257,051;    0,712;    0,227
945,235; 4257,323;    2,167;   -0,591
945,789; 4178,323;    1,258;   -1,864
946,342; 4279,141;   -0,561;   -0,591
946,896; 4093,778;    0,348;    0,955
947,450; 3862,051;   -0,561;   -0,227
948,004; 4039,596;    1,076;   -0,045
948,558; 4071,414;    1,258;   -0,864
949,111; 3986,778;   -1,197;   -0,318
949,665; 4000,869;   -0,106;   -0,682
950,219; 3858,323;    0,621;   -1,045
950,772; 3948,596;    0,258;    1,864
951,326; 3854,051;   -1,106;   -0,955
951,879; 3962,141;    1,076;   -2,318
952,433; 3992,596;    1,348;    2,227
952,986; 3828,596;    0,348;    0,682
953,539; 3745,141;    1,530;    0,591
954,093; 3699,505;    0,985;   -1,318
954,646; 3836,869;   -0,288;    1,318
955,199; 3652,687;    1,258;   -0,500
955,752; 3527,414;    1,985;    1,773
956,305; 3479,141;    0,894;    2,955
956,858; 3656,687;    0,621;   -0,318
957,411; 3830,141;    3,621;    2,136
957,964; 3649,596;    2,076;    2,136
958,517; 3648,687;    0,985;    3,136
959,070; 3479,141;   -1,197;    1,955
959,623; 3553,869;    1,076;    1,500
960,176; 3326,051;    0,712;    2,045
960,728; 3291,141;    1,712;    0,773
961,281; 3346,687;    2,258;    0,500
961,834; 3398,323;   -0,833;    0,864
962,386; 3322,141;    1,258;    1,045
962,939; 3226,778;    3,439;   -0,318
963,491; 3380,960;    2,621;    1,136
964,043; 3250,051;    0,076;    2,409
964,596; 3366,505;    1,712;    2,227
965,148; 3189,505;   -0,379;    1,773
965,700; 3128,232;   -0,015;   -0,227
966,253; 3291,323;   -0,833;    0,318
966,805; 3126,869;    1,894;    0,773
967,357; 3171,051;    0,439;   -1,500
967,909; 3122,778;    1,167;   -1,227
968,461; 3249,687;    0,894;    3,136
969,013; 3160,869;   -1,561;   -0,864
969,565; 3247,051;    1,803;   -1,136
970,117; 3324,687;    3,803;    1,045
970,669; 3161,323;    3,258;   -0,136
971,220; 3021,141;    2,167;   -1,500
971,772; 2933,141;    1,348;   -0,318
972,324; 3029,596;   -1,197;   -0,500
972,876; 3012,869;    0,167;   -0,045
973,427; 3139,414;   -1,197;   -1,045
973,979; 3108,414;    0,076;   -2,500
974,530; 3127,232;    0,803;    1,318
975,082; 3139,323;    2,167;    1,682
975,633; 3025,960;    2,894;    1,682
976,184; 3195,505;    2,076;    0,773
976,736; 2989,869;    0,348;    0,227
977,287; 2746,505;    0,258;   -0,500
977,838; 2945,232;   -0,924;   -0,318
978,389; 3011,687;    0,803;   -0,500
978,940; 2864,869;    1,258;   -0,409
979,491; 2898,051;    2,258;   -0,500
980,042; 2859,232;   -0,652;    3,045
980,593; 2940,687;    1,894;    0,227
981,144; 2978,232;    3,530;   -0,500
981,695; 2927,505;   -0,470;    1,500
982,246; 2903,596;   -1,833;    1,045
982,797; 3058,323;   -0,561;    0,682
983,347; 3170,505;    2,167;    0,591
983,898; 3314,869;    4,167;    0,409
984,449; 3154,505;    2,530;    0,773
984,999; 3063,505;    1,894;   -1,136
985,550; 2833,505;    3,167;   -0,318
986,100; 2894,960;    0,712;   -0,318
986,651; 2915,960;    0,258;    0,045
987,201; 2879,414;    0,894;   -0,591
987,751; 2963,960;   -0,288;    2,864
988,302; 2949,687;   -0,379;    1,500
988,852; 2983,232;    1,985;   -1,136
989,402; 3014,414;    0,985;    0,682
989,952; 2917,869;    1,621;    0,864
990,502; 3034,687;    1,076;    0,682
991,052; 3010,141;   -0,106;    0,045
991,602; 2854,960;    1,167;    1,318
992,152; 2854,414;    2,803;    0,682
992,702; 2840,414;    1,167;   -0,045
993,252; 2754,596;    0,076;   -0,500
993,802; 2838,869;    1,167;    1,318
994,352; 3093,141;   -0,742;    1,136
994,901; 3201,869;    1,076;    3,227
995,451; 3088,596;   -1,197;    0,318
996,000; 3189,323;    1,076;    0,318
996,550; 2882,869;    2,894;    0,227
997,100; 2887,596;   -0,561;   -0,045
997,649; 3185,869;   -0,197;    0,955
998,198; 2806,323;   -0,288;   -1,500
998,748; 2986,505;    0,348;   -2,318
999,297; 2911,323;    0,985;   -0,409
999,846; 3004,505;    1,894;   -0,773
1000,395; 3030,960;    1,530;    0,500
1000,945; 2964,505;    1,076;   -0,773
1001,494; 3044,414;    0,167;    0,682
1002,043; 3034,869;    0,712;    0,864
1002,592; 2885,687;    3,439;    1,955
1003,141; 3048,141;    2,439;   -0,682
1003,690; 2870,778;    1,258;    0,500
1004,238; 2945,778;   -0,106;   -0,045
1004,787; 2588,505;   -1,288;    1,227
1005,336; 2821,323;    1,621;    0,682
1005,885; 2962,778;   -0,197;   -2,773
1006,433; 3126,323;   -0,470;    0,955
1006,982; 3185,869;    2,167;    1,682
1007,531; 3080,232;    2,712;   -0,227
1008,079; 3040,505;    0,258;    0,500
1008,627; 3191,232;    1,621;    0,409
1009,176; 2913,505;    0,076;   -1,955
1009,724; 2948,869;   -2,742;    0,864
1010,273; 3004,232;    1,076;    0,500
1010,821; 3138,960;    1,076;    1,409
1011,369; 2856,778;    0,076;    1,318
1011,917; 2841,596;   -0,833;   -0,591
1012,465; 3127,141;    2,530;   -1,591
1013,013; 3251,414;    0,439;   -1,682
1013,561; 3107,141;   -1,288;   -0,773
1014,109; 3158,869;   -0,833;    1,682
1014,657; 3027,505;    1,348;    0,591
1015,205; 3152,414;    0,894;   -0,955
1015,753; 3192,869;    0,258;   -1,409
1016,301; 3233,323;    2,621;    3,045
1016,848; 3247,414;    2,167;    0,409
1017,396; 3284,141;    1,621;    0,045
1017,944; 3381,232;    2,621;    1,864
1018,491; 3147,414;   -0,197;    1,409
1019,039; 3297,778;   -0,652;    0,591
1019,586; 3229,596;    0,076;    1,682
1020,134; 3333,869;    0,712;    1,500
1020,681; 3321,960;    2,894;   -1,136
1021,228; 3353,596;   -0,561;   -2,227
1021,776; 3190,869;   -0,833;   -1,136
1022,323; 3402,960;    0,803;    0,773
1022,870; 3334,232;   -0,470;   -0,045
1023,417; 3256,778;    2,076;    1,864
1023,964; 3368,232;    0,621;    1,227
1024,511; 3203,960;   -0,652;    0,773
1025,058; 3007,141;    0,439;   -0,045
1025,605; 3067,778;   -1,742;    3,136
1026,152; 3259,869;   -0,106;   -0,591
1026,699; 2997,051;    0,167;    1,318
1027,245; 3176,232;    2,439;    0,318
1027,792; 3411,323;    0,712;    1,409
1028,339; 3270,960;    4,076;   -0,045
1028,885; 3117,505;    3,621;   -0,227
1029,432; 3072,323;   -0,106;    0,227
1029,978; 3127,960;    1,348;   -1,591
1030,525; 3016,414;    1,621;    0,409
1031,071; 3276,596;    0,348;    1,136
1031,618; 3384,505;    1,258;    1,682
1032,164; 3169,051;    2,076;    3,045
1032,710; 3204,232;    0,076;   -1,500
1033,256; 3133,778;    0,712;   -0,136
1033,803; 3115,414;   -0,288;    1,500
1034,349; 2848,869;    1,803;    0,136
1034,895; 2999,505;    2,621;   -0,318
1035,441; 2981,051;    0,439;    0,318
1035,987; 2978,960;   -2,288;   -0,682
1036,533; 2975,414;   -0,197;   -0,955
1037,078; 3188,778;    4,712;    1,682
1037,624; 3002,869;    2,439;   -0,955
1038,170; 3033,778;    1,712;   -0,318
1038,716; 2916,051;    2,167;   -0,409
1039,261; 2827,232;    2,167;   -0,773
1039,807; 2760,778;   -0,015;    3,409
1040,352; 2850,869;   -1,288;   -0,318
1040,898; 2887,141;    0,167;   -0,682
1041,443; 2815,051;    0,803;   -2,591
1041,989; 2842,960;    3,621;    1,591
1042,534; 2706,505;    0,985;    2,591
1043,079; 2852,051;    1,985;    0,955
1043,625; 2611,505;    0,258;    0,500
1044,170; 2641,778;    2,439;    1,045
1044,715; 2919,232;    0,167;    0,955
1045,260; 2727,869;   -0,833;   -0,955
1045,805; 2765,596;    0,258;   -0,591
1046,350; 2728,596;    0,530;   -0,409
1046,895; 2678,596;    0,803;    1,591
1047,440; 2628,960;    1,530;    0,409
1047,985; 2526,232;   -1,197;   -0,955
1048,530; 2447,778;    1,348;    1,227
1049,074; 2505,778;    2,803;    0,318
1049,619; 2496,232;   -0,924;    1,955
1050,164; 2279,960;    1,076;    0,227
1050,708; 2337,960;    2,621;    0,045
1051,253; 2697,596;    3,258;   -2,227
1051,797; 2420,141;   -0,197;   -1,318
1052,342; 2434,141;    1,348;    1,045
1052,886; 2422,414;    1,803;   -1,409
1053,430; 2304,051;    2,167;    0,136
1053,975; 2330,232;    0,894;   -0,318
1054,519; 2311,596;    1,803;    3,227
1055,063; 2317,414;    3,621;    1,318
1055,607; 2201,414;    1,348;    0,227
1056,151; 2222,596;    0,530;    1,682
1056,695; 2140,232;   -1,833;   -1,136
1057,239; 2211,960;   -1,197;   -0,682
1057,783; 2218,323;    2,258;   -1,500
1058,327; 2159,141;    3,076;    1,409
1058,871; 2384,596;    3,985;    1,318
1059,415; 2087,323;   -0,561;   -0,045
1059,958; 2331,051;    2,985;    2,591
1060,502; 2080,414;    1,348;   -0,773
1061,046; 1982,051;    1,712;   -0,955
1061,589; 1950,232;    2,803;   -1,136
1062,133; 1843,051;    0,985;    1,864
1062,676; 1775,051;    1,439;    0,864
1063,220; 1781,141;    0,985;    0,500
1063,763; 1801,505;    2,985;    1,136
1064,306; 1871,778;    0,985;    1,864
1064,849; 1782,596;    2,076;    0,591
1065,393; 1775,869;    2,894;   -1,500
1065,936; 1896,778;    2,530;   -0,409
1066,479; 1781,687;    2,621;    1,318
1067,022; 1790,960;    1,894;   -0,227
1067,565; 1706,960;   -1,197;   -1,318
1068,108; 1725,051;    1,258;   -0,591
1068,651; 1701,687;   -2,470;    1,409
1069,194; 1627,323;   -1,106;   -1,682
1069,736; 1622,869;    3,803;    0,955
1070,279; 1617,687;   -1,652;   -0,500
1070,822; 1664,323;    1,530;   -0,318
1071,364; 1729,051;    0,530;    1,318
1071,907; 1560,141;    0,348;    3,227
1072,450; 1482,687;    0,258;   -0,045
1072,992; 1462,051;   -0,561;    3,136
1073,535; 1586,414;    0,167;    2,136
1074,077; 1403,687;    2,985;    2,045
1074,619; 1370,960;    0,985;    0,591
1075,161; 1380,505;   -0,561;    1,500
1075,704; 1577,141;    0,258;    1,227
1076,246; 1383,687;    1,530;    0,682
1076,788; 1311,869;   -1,015;    1,773
1077,330; 1399,141;   -2,106;    2,136
1077,872; 1342,960;   -1,924;    0,955
1078,414; 1565,141;    3,712;    0,773
1078,956; 1294,687;    0,167;   -0,227
1079,498; 1532,323;    0,439;    0,318
1080,040; 1246,596;    0,985;   -1,318
1080,581; 1213,323;    0,621;   -0,318
1081,123; 1134,960;   -0,106;   -0,773
1081,665; 1191,778;    3,803;   -0,955
1082,206; 1467,778;    3,258;   -0,500
1082,748; 1332,687;    3,258;    2,045
1083,289; 1219,323;    0,167;    1,318
1083,831; 1126,596;    0,258;    0,227
1084,372; 1159,960;    0,894;    0,591
1084,913; 1158,596;    3,348;    0,864
1085,455; 1139,960;    1,530;   -2,045
1085,996; 1090,051;    0,530;    0,136
1086,537; 1118,323;    0,985;    0,864
1087,078; 1154,141;    0,439;   -2,136
1087,619; 1186,778;   -1,652;    0,227
1088,160; 1108,414;    1,439;    1,318
1088,701; 1087,869;   -0,742;    0,682
1089,242; 1026,323;   -0,561;   -2,227
1089,783; 1124,414;   -0,561;    1,409
1090,324; 1095,051;   -0,833;    0,682
1090,865;  976,051;   -1,924;   -0,409
1091,405;  970,505;   -0,561;    2,227
1091,946;  995,596;   -0,197;   -0,955
1092,487;  921,596;   -1,288;   -1,409
1093,027; 1071,778;    1,803;   -1,500
1093,568;  932,414;    2,258;    1,227
1094,108; 1006,687;    0,621;    1,773
1094,649;  951,414;   -0,470;    0,136
1095,189;  907,869;    1,167;   -0,682
1095,729;  855,141;    0,712;    0,955
1096,269;  864,778;    1,258;   -0,955
1096,810; 1155,778;   -0,197;    0,500
1097,350;  985,960;   -0,561;   -0,773
1097,890;  902,869;    2,985;    1,227
1098,430; 1137,505;    4,985;    2,864
1098,970; 1015,323;    1,894;    1,682
1099,510;  886,323;   -0,833;   -2,318
1100,050;  814,051;    0,258;   -1,591
1100,589;  779,596;    0,076;   -0,318
1101,129;  901,323;    0,894;   -0,955
1101,669; 1032,960;    2,803;    2,136
1102,209;  870,687;    1,530;    2,227
1102,748;  825,232;    3,439;    0,955
1103,288;  812,960;    0,712;   -1,227
1103,827;  846,505;    3,530;   -2,227
1104,367;  732,141;    1,712;   -2,409
1104,906;  687,414;   -1,015;   -1,136
1105,445;  754,960;    0,985;   -1,136
1105,985;  695,687;   -0,652;    1,500
1106,524;  739,869;    1,530;   -0,682
1107,063;  715,505;    1,167;    1,409
1107,602;  700,323;    1,894;   -1,500
1108,141;  626,051;    1,621;    1,500
1108,680;  716,778;    3,985;   -0,591
1109,219;  655,323;    0,167;   -0,500
1109,758;  662,141;    4,167;    0,682
1110,297;  633,141;   -1,106;   -0,682
1110,836;  582,414;    1,439;    0,955
1111,375;  725,505;    0,348;    0,409
1111,913;  740,414;    0,985;    0,773
1112,452;  692,051;    0,894;    0,136
1112,991;  580,596;    1,076;    1,955
1113,529;  532,141;    0,167;   -0,045
1114,068;  601,051;    0,439;    2,955
1114,606;  509,323;   -0,561;   -0,955
1115,144;  657,232;    1,530;    1,045
1115,683;  605,051;    1,985;    0,318
1116,221;  652,596;    2,076;   -0,864
1116,759;  561,778;    1,621;   -0,864
1117,297;  736,596;    1,621;    1,864
1117,836;  550,869;    1,985;   -1,227
1118,374;  554,414;    0,258;   -0,682
1118,912;  516,505;    0,439;    2,682
1119,450;  505,778;    0,985;    0,864
1119,988;  549,869;    3,348;    2,136
1120,525;  995,596;    7,258;    3,318
1121,063;  691,960;    0,530;    1,864
1121,601;  503,232;    1,076;   -1,227
1122,139;  473,778;    1,076;   -2,045
1122,676;  649,778;   -1,652;    2,773
1123,214;  598,051;    0,712;    4,409
1123,751;  416,051;    0,621;    2,227
1124,289;  534,232;    0,894;   -0,409
1124,826;  415,414;   -0,379;    0,227
1125,364;  338,960;    0,712;   -0,955
1125,901;  516,323;    6,258;    1,227
1126,438;  623,051;    3,530;    0,955
1126,975;  367,323;    2,985;   -0,773
1127,513;  424,232;    2,621;    2,136
1128,050;  342,596;   -0,561;   -0,682
1128,587;  429,960;    1,348;   -0,227
1129,124;  473,596;   -0,015;    1,318
1129,661;  348,596;   -1,924;    0,227
1130,198;  499,778;    2,439;    0,773
1130,734;  449,960;   -0,379;    1,409
1131,271;  321,505;   -1,197;    0,864
1131,808;  477,414;    1,621;    3,045
1132,345;  356,596;    4,530;    0,318
1132,881;  237,687;   -0,561;   -1,864
1133,418;  359,596;    0,348;   -1,136
1133,954;  303,323;    0,712;   -2,682
1134,491;  376,414;    1,712;   -0,773
1135,027;  287,505;    2,167;    0,864
1135,564;  358,869;    1,439;    2,955
1136,100;  350,323;   -0,742;    2,136
1136,636;  257,687;   -1,015;   -1,045
1137,172;  342,232;    0,894;   -1,045
1137,708;  264,505;   -1,561;   -1,045
1138,245;  270,323;    0,803;   -1,227
1138,781;  233,414;    1,803;   -3,318
1139,317;  291,778;    1,894;   -1,409
1139,852;  280,051;    3,076;    0,136
1140,388;  390,414;    2,076;   -0,409
1140,924;  279,505;    1,076;   -2,227
1141,460;  214,414;   -0,288;    0,136
1141,996;  161,687;   -0,652;    2,682
1142,531;  201,232;    1,076;    3,318
1143,067;  400,778;    1,167;    1,045
1143,602;  459,232;    3,439;   -0,318
1144,138;  303,778;    0,803;    1,045
1144,673;  180,414;    1,621;    1,409
1145,209;  242,141;    2,894;   -0,318
1145,744;  173,141;    0,803;    0,864
1146,279;  294,323;    1,530;   -0,136
1146,815;  216,869;    1,530;   -2,682
1147,350;  255,687;   -0,924;    0,045
1147,885;  176,687;   -1,924;   -1,318
1148,420;  171,687;    2,439;    0,773
1148,955;  157,869;   -1,470;    1,864
1149,490;  189,778;   -1,106;   -1,591
1150,025;  169,505;   -1,106;   -1,773
1150,560;  271,141;   -0,288;   -0,955
1151,094;  238,141;    0,258;   -0,591
1151,629;  237,505;   -3,742;    0,864
1152,164;  173,869;   -1,288;    1,318
1152,698;  144,869;    1,258;   -0,136
1153,233;   97,505;   -1,379;   -0,682
1153,767;  139,505;   -0,288;   -2,318
1154,302;  185,505;   -0,379;    1,773
1154,836;  179,505;    0,803;   -2,136
1155,371;  229,323;    2,258;    3,682
1155,905;  190,869;    1,985;    1,682
1156,439;  167,414;    0,530;   -0,500
1156,973;  192,869;    0,439;    0,318
1157,507;  134,960;   -1,742;    0,682
1158,042;  156,141;   -0,652;    1,045
1158,576;  196,869;   -0,561;    1,773
1159,110;  190,960;    0,076;    2,409
1159,643;  168,232;   -2,470;   -0,045
1160,177;  107,778;   -2,015;    1,500

