
Integration time [ms]:   0,050
Averaging Nr. [scans]: 11
Smoothing Nr. [pixels]: 0
Data measured with spectrometer [name]: 7318044SP
Wave   ;Sample   ;Dark     ;Reference
[nm]   ;[counts] ;[counts] ;[counts] 

186,757;   -6,601;   38,161;    1,318
187,357;   27,034;   26,706;    0,955
187,958;    5,967;   17,252;   -1,591
188,558;   59,278;   12,979;   -1,227
189,159;   31,623;   10,070;   -4,500
189,759;    1,846;    5,797;   -3,591
190,360;    4,537;    6,797;   -2,136
190,960;   43,233;    5,706;   -4,136
191,560;   60,723;    2,614;   -6,591
192,161;  298,913;    5,885;   -3,500
192,761;  132,610;    5,520;   -3,227
193,361;   85,455;    3,065;   -3,773
193,962;  141,576;    1,612;   -2,682
194,562;   67,955;   -0,114;   -3,955
195,162;  105,385;   -0,567;   -2,227
195,762;  277,932;    2,433;   -0,045
196,362;  230,928;    1,706;   -2,500
196,963;   89,215;    1,706;   -0,864
197,563;  165,293;    1,252;   -0,955
198,163;  104,848;   -0,111;   -0,682
198,763;  130,449;   -0,020;   -0,500
199,363;  237,549;    3,616;   -0,500
199,963;  210,933;    2,162;    0,409
200,563;  176,161;    6,344;   -1,409
201,163;  153,615;    5,435;   -0,227
201,763;  253,087;    1,435;    0,318
202,363;  194,094;    0,980;    1,500
202,963;  302,402;    1,526;    1,045
203,563;  415,183;    0,344;    0,500
204,162;  267,515;    1,889;   -1,864
204,762;  252,517;    2,071;    0,591
205,362;  237,229;    0,708;    1,955
205,962;  335,146;    3,435;    1,955
206,562;  333,040;    1,889;    2,318
207,161;  304,099;    1,708;    0,318
207,761;  460,257;    4,435;    2,409
208,361;  344,454;    1,889;    1,409
208,960;  432,400;    2,889;    1,500
209,560;  515,652;    0,435;    1,591
210,160;  494,626;    5,071;    1,864
210,759;  480,877;    0,708;    1,227
211,359;  484,238;   -0,474;    1,045
211,958;  764,125;    3,526;    2,045
212,558;  859,764;    0,799;    1,864
213,157;  686,229;   -0,929;    1,500
213,757; 1149,691;    5,617;   -0,227
214,356;  847,943;    1,708;   -0,409
214,956; 1190,296;    3,526;    0,409
215,555;  816,583;    0,617;    2,136
216,154;  746,528;   -0,292;   -0,591
216,754;  772,680;    1,253;    0,773
217,353;  943,515;   -0,383;   -1,045
217,952;  804,678;    2,072;    0,318
218,552; 1034,965;    0,254;   -0,773
219,151;  944,451;   -1,110;    0,955
219,750;  955,440;    0,890;   -0,227
220,349; 1146,186;   -2,292;    1,045
220,948; 1165,030;    1,163;    1,136
221,548; 1251,785;    0,617;    1,227
222,147; 1371,474;   -1,292;   -0,409
222,746; 1675,531;    1,254;   -0,955
223,345; 1570,424;   -1,019;    0,500
223,944; 1610,106;    1,163;    0,773
224,543; 1826,459;    4,072;   -1,409
225,142; 1939,867;    1,345;    0,136
225,741; 1865,630;    1,163;    1,045
226,340; 1912,830;    1,254;   -0,955
226,939; 2417,626;    2,708;   -0,136
227,538; 2477,075;    1,163;   -0,773
228,137; 2611,381;    0,435;    0,864
228,735; 2876,912;    0,435;    1,227
229,334; 2565,428;   -0,474;   -0,227
229,933; 2964,982;    0,799;    0,591
230,532; 3105,077;   -1,201;   -0,409
231,131; 3165,721;    1,253;    0,318
231,729; 3374,544;    1,163;   -2,318
232,328; 3632,737;    0,435;   -1,500
232,927; 3766,324;    4,526;   -0,500
233,525; 3955,891;    0,981;    0,045
234,124; 4205,860;    1,890;   -1,591
234,723; 4277,615;    1,617;   -1,045
235,321; 4458,817;    1,163;    0,136
235,920; 4785,559;    2,526;   -1,227
236,518; 5100,761;    1,072;    0,318
237,117; 5379,947;    2,890;   -0,227
237,715; 5578,316;    1,163;   -0,500
238,314; 5621,394;    1,708;   -2,318
238,912; 5733,793;    0,526;   -1,409
239,510; 5849,825;    1,162;   -1,227
240,109; 6054,695;   -0,474;    3,773
240,707; 6138,188;   -0,474;    1,227
241,305; 6602,237;   -0,383;    0,136
241,904; 6850,055;   -0,292;   -2,045
242,502; 6805,463;    3,253;   -0,227
243,100; 6833,559;    3,344;   -0,955
243,698; 7111,474;    2,799;    1,682
244,297; 7301,715;   -0,656;    0,682
244,895; 7125,242;   -0,474;   -2,318
245,493; 7553,355;    2,981;   -0,591
246,091; 7615,260;    5,163;   -1,318
246,689; 7650,337;    2,163;    0,591
247,287; 7837,286;   -0,019;   -1,136
247,885; 8243,765;   -1,019;    1,227
248,483; 8390,600;   -0,201;   -0,500
249,081; 8526,375;    0,981;    1,591
249,679; 8729,169;   -1,019;    1,682
250,277; 9035,843;   -2,292;    0,864
250,875; 9018,574;    0,617;   -1,045
251,473; 9113,542;   -0,019;    0,500
252,071; 9298,782;   -0,383;    1,045
252,669; 9519,379;   -1,565;    0,318
253,267; 9881,974;    1,618;    0,773
253,864; 9837,196;    0,617;    0,682
254,462; 9592,539;    1,526;    1,591
255,060; 9652,555;    0,072;    1,318
255,658;10056,379;   -3,292;   -0,136
256,255;10529,635;   -0,201;   -2,045
256,853;10434,583;    2,345;    1,409
257,451;10480,689;    1,981;    1,864
258,048;10680,160;    2,072;    1,864
258,646;10444,706;    0,436;   -1,045
259,243;10656,038;    2,981;    2,227
259,841;10744,813;    1,799;    0,318
260,438;10601,108;    0,254;    0,864
261,036;11489,129;    0,617;    1,409
261,633;11399,318;    1,526;    2,227
262,231;11111,279;   -0,110;   -0,045
262,828;11206,025;   -0,383;    1,136
263,425;11281,949;   -1,928;   -0,591
264,023;11585,555;    1,436;    0,045
264,620;11117,949;    1,526;   -0,318
265,217;11519,030;    2,890;    3,136
265,815;11649,164;    2,527;    2,136
266,412;11363,878;    0,072;    0,136
267,009;11434,856;    0,526;    0,773
267,606;11299,706;    0,345;   -0,955
268,203;11319,769;   -0,383;   -0,591
268,801;11707,581;   -0,474;    0,591
269,398;12048,390;   -0,564;    2,500
269,995;12022,661;    0,890;    1,591
270,592;11734,190;    0,799;   -0,500
271,189;12003,971;    1,981;    0,409
271,786;12162,726;    2,072;    1,227
272,383;11938,704;   -0,383;    0,227
272,980;12207,305;    1,617;    0,318
273,577;12777,194;    2,162;    1,227
274,174;12264,379;    1,435;    2,591
274,771;12249,652;    1,890;   -0,773
275,367;12459,270;    3,253;    1,409
275,964;12451,973;   -0,565;   -0,500
276,561;12518,515;   -2,474;   -1,045
277,158;12825,715;    1,799;   -1,773
277,755;12971,012;   -0,110;    0,409
278,351;12271,145;    0,436;   -1,500
278,948;12617,871;   -0,201;    0,045
279,545;12669,182;    0,527;    2,318
280,141;13357,266;    1,254;   -2,045
280,738;13224,259;    2,435;   -0,136
281,334;13530,754;   -0,383;    0,591
281,931;12874,481;    2,890;   -1,318
282,528;12989,987;    4,072;   -0,500
283,124;13842,630;    3,345;   -0,500
283,721;13765,331;    0,709;    1,409
284,317;13573,839;    0,163;    2,500
284,913;14147,416;   -0,110;    0,591
285,510;14397,598;    2,890;   -0,318
286,106;14428,279;    2,345;   -0,955
286,703;13993,518;    0,072;    1,955
287,299;14246,268;    1,254;   -0,591
287,895;14503,257;    0,890;   -1,045
288,491;15205,754;    0,163;    2,136
289,088;14838,398;    0,163;    2,409
289,684;14912,470;    2,890;    1,500
290,280;14961,949;    1,890;    0,682
290,876;15021,535;    0,163;    5,500
291,472;14926,205;    2,163;    2,227
292,068;15023,490;    1,254;    0,227
292,665;14754,904;   -0,564;    0,773
293,261;14265,182;   -1,292;    2,136
293,857;14695,737;    4,072;    2,136
294,453;14644,877;   -0,928;    0,955
295,049;14466,313;    0,253;    1,955
295,644;14498,966;   -1,292;    0,136
296,240;14430,224;    0,162;   -0,136
296,836;14477,170;   -0,747;    0,318
297,432;14814,938;    2,980;   -0,500
298,028;14853,645;    0,435;    0,773
298,624;15336,124;    0,889;    1,864
299,220;15674,955;    0,435;    0,591
299,815;15252,203;    0,526;   -0,409
300,411;15027,131;    0,435;    1,773
301,007;15089,601;    1,889;    0,227
301,602;15167,437;    2,071;   -2,318
302,198;15356,907;    1,435;   -0,773
302,794;15719,966;    1,526;   -0,500
303,389;15910,101;    1,071;    1,045
303,985;15998,111;    1,253;    1,409
304,580;15901,769;    0,889;    1,591
305,176;15900,641;    0,344;    0,136
305,771;15882,083;   -0,929;   -1,227
306,367;15603,151;    3,071;    0,136
306,962;16066,346;    2,889;    1,500
307,558;15804,639;    2,435;    0,136
308,153;15761,202;   -0,383;   -1,136
308,748;16023,441;    0,162;    1,682
309,344;16028,005;    0,253;   -1,318
309,939;16079,725;    2,071;   -1,318
310,534;16437,547;   -2,020;   -1,682
311,130;16393,617;   -0,656;   -2,500
311,725;16092,554;    0,526;   -0,500
312,320;16421,432;    1,253;    0,045
312,915;16273,198;    2,890;   -1,045
313,510;16327,604;    0,526;   -0,500
314,105;16902,933;   -3,565;    1,409
314,700;16254,506;   -1,656;   -1,045
315,295;15781,042;   -0,020;    0,045
315,890;15330,317;   -0,292;    0,864
316,485;15694,584;    0,253;   -0,318
317,080;15825,376;   -0,929;    1,591
317,675;16463,356;    3,071;   -0,682
318,270;15678,254;    6,889;    3,318
318,865;15744,784;    2,435;    3,045
319,460;15559,311;   -1,565;    0,591
320,055;15834,525;   -2,565;   -1,227
320,650;15508,052;   -1,838;   -0,591
321,244;15527,144;    0,889;   -1,409
321,839;16573,550;    0,980;   -0,227
322,434;16478,523;   -0,111;   -1,591
323,029;16021,363;   -0,474;    1,591
323,623;15865,259;    0,798;    0,773
324,218;15606,350;    2,707;    1,409
324,812;15530,890;    0,889;    1,591
325,407;15333,856;   -0,929;    2,045
326,002;15180,124;    0,526;   -0,409
326,596;15547,098;   -0,656;    1,318
327,191;15825,595;   -0,383;   -1,045
327,785;15274,461;   -0,747;   -0,227
328,379;15541,085;   -0,383;    0,136
328,974;15373,211;    1,798;   -3,955
329,568;15580,304;    2,889;   -2,409
330,163;15359,064;    2,435;    1,045
330,757;15770,138;    0,253;    1,591
331,351;15034,283;   -0,292;    0,682
331,945;15319,497;   -0,383;    1,409
332,540;14843,116;    1,617;   -0,591
333,134;14993,769;    3,344;    0,773
333,728;15274,626;    2,799;    0,318
334,322;15657,363;    0,889;   -0,864
334,916;14878,079;    0,344;    0,955
335,510;15222,834;   -0,111;   -0,136
336,105;15481,777;   -0,929;    1,591
336,699;15138,888;   -1,292;    0,591
337,293;15058,105;    1,071;    0,318
337,887;15221,376;    0,071;    1,955
338,481;15306,500;    2,980;    0,591
339,074;15508,155;    2,071;    2,682
339,668;15262,046;   -0,110;    1,227
340,262;15536,001;    7,708;    3,227
340,856;15042,738;    1,708;   -0,682
341,450;14277,381;    0,708;    1,864
342,044;15299,559;    1,799;    0,136
342,637;15023,149;    1,162;   -2,136
343,231;14875,760;   -1,474;    0,682
343,825;14799,509;   -0,747;   -0,591
344,419;14721,677;   -0,474;    0,500
345,012;14407,124;    2,889;    4,045
345,606;14406,363;   -0,656;    1,591
346,199;14239,205;   -0,111;   -0,227
346,793;13659,551;    2,525;    2,045
347,386;13903,022;    0,889;   -1,136
347,980;13914,135;   -0,838;   -0,045
348,573;13632,681;   -1,748;    0,409
349,167;13198,560;    6,161;    4,773
349,760;13581,261;    2,252;    2,682
350,354;13586,327;    1,616;    1,136
350,947;13263,401;    2,798;    1,682
351,540;12877,679;    0,616;   -1,409
352,134;12848,660;   -1,111;    1,136
352,727;12894,243;   -0,657;    1,136
353,320;12661,497;    2,343;    0,591
353,913;12518,439;   -1,929;    1,864
354,507;12690,877;    0,434;   -1,227
355,100;12652,243;    0,071;    0,864
355,693;11699,876;    4,798;    2,409
356,286;11760,009;    0,980;    2,773
356,879;12219,473;   -0,475;    1,227
357,472;11776,735;    0,980;    1,500
358,065;11948,189;    3,161;    2,500
358,658;11876,094;    0,798;    2,318
359,251;11432,761;    0,252;   -0,591
359,844;10792,145;    0,343;   -1,136
360,437;10951,510;    0,252;    0,045
361,030;11251,816;    0,525;   -0,682
361,623;10798,633;    0,434;    0,318
362,215;10839,271;    0,979;    2,045
362,808;10682,633;   -2,293;   -1,682
363,401;10846,115;    0,798;    0,136
363,994;10545,946;    3,252;   -1,500
364,586;10440,915;    0,888;   -1,500
365,179;10690,319;   -0,203;   -1,136
365,772;10140,657;   -0,930;    2,045
366,364;10475,230;    1,524;   -3,227
366,957;10674,275;    1,342;   -0,045
367,549;10691,678;   -0,203;   -0,864
368,142;10256,943;    0,978;   -1,500
368,734;10457,600;    2,523;   -2,136
369,327;10474,046;    2,341;   -0,500
369,919;10391,066;   -1,659;    0,409
370,512;10084,662;   -1,023;   -0,500
371,104; 9765,260;    2,704;    1,591
371,696; 9949,055;    1,703;   -0,955
372,289;10082,176;    0,157;    1,136
372,881;10258,464;    1,156;    1,318
373,473;10158,993;    4,064;    1,136
374,066; 9902,048;    1,336;    0,500
374,658; 9716,029;    0,879;    1,136
375,250;10150,628;   -1,668;   -1,409
375,842; 9988,524;   -0,124;   -0,045
376,434; 9834,156;   -2,762;   -0,409
377,026;10535,027;   -1,855;   -2,500
377,618;10416,734;    0,779;   -0,682
378,210;10242,052;    3,141;   -1,955
378,802;10082,931;    3,412;   -0,591
379,394; 9963,750;    3,411;    0,682
379,986;10690,715;    1,138;   -0,955
380,578;10813,446;    1,410;    0,773
381,170;10011,284;    0,320;    0,045
381,762; 9971,653;   -0,224;    1,409
382,354;10235,989;   -0,223;   -1,318
382,945;10386,406;    0,870;    0,318
383,537;10520,993;    1,144;   -1,955
384,129;10509,760;    0,963;   -1,136
384,721;10744,297;    0,418;    0,955
385,312;10668,548;   -1,399;   -0,955
385,904;10744,522;   -0,945;    1,591
386,496;10054,290;    0,691;    1,045
387,087;10191,658;    0,418;    2,500
387,679;10263,591;   -0,401;    0,045
388,270;10429,614;   -2,401;    2,045
388,862;10538,432;   -0,401;   -0,318
389,453;10432,556;    1,054;    1,045
390,045;10723,430;    3,236;   -2,682
390,636;10692,267;    0,144;   -0,591
391,227;10525,135;    2,054;   -0,045
391,819;10594,569;    0,781;    0,773
392,410;10680,435;    0,600;    0,045
393,001;10609,524;    1,600;   -1,591
393,593;10947,963;    0,600;   -0,045
394,184;10759,099;    0,873;   -0,409
394,775;10724,422;    1,146;    2,136
395,366;10919,489;    1,782;    0,773
395,957;10956,227;   -2,400;    0,136
396,548;11319,068;    1,054;    2,682
397,139;11692,111;    2,236;    0,591
397,730;11354,515;    0,873;    0,955
398,321;11424,689;    0,509;    0,955
398,912;11451,388;   -0,764;    0,136
399,503;11544,030;   -1,945;   -1,409
400,094;10918,394;   -1,582;    1,682
400,685;10739,210;    3,600;    0,045
401,276;10843,183;   -0,400;   -0,955
401,867;11193,010;   -1,127;    0,773
402,458;11342,845;    1,509;   -2,318
403,048;11287,659;    0,146;    0,591
403,639;10853,563;    1,509;    0,864
404,230;11077,179;    0,691;    0,318
404,821;10999,394;   -0,127;    0,045
405,411;11130,242;   -0,763;   -2,591
406,002;10654,997;    3,237;   -1,136
406,592;10453,913;    2,691;    0,045
407,183;10806,256;    0,328;   -1,500
407,774;10725,483;    1,419;   -0,136
408,364;11115,587;    2,600;    0,409
408,954;10643,896;   -0,036;    1,227
409,545;10697,761;    1,873;    1,045
410,135;10155,086;   -1,581;    0,500
410,726;10341,135;    0,783;    0,318
411,316;10780,839;    2,237;    0,773
411,906;10416,837;    0,146;   -0,409
412,497; 9787,687;   -0,490;   -0,045
413,087;10501,969;    0,783;   -0,227
413,677;10959,080;   -2,490;    3,864
414,267;10781,894;   -1,035;    1,409
414,857;10779,438;    0,419;    4,227
415,448;11089,078;   -0,763;    0,500
416,038;10755,915;   -2,945;   -0,591
416,628;10732,853;    0,965;    0,409
417,218;10071,389;   -1,762;    3,318
417,808;10384,024;    0,965;   -0,409
418,398;10991,892;   -1,035;    2,682
418,988;11030,931;   -2,217;    0,591
419,578;11298,497;    3,601;    1,409
420,168;11669,503;    0,692;   -0,955
420,757;11183,204;    0,964;   -1,500
421,347;10842,348;    1,601;   -0,227
421,937;11053,157;    3,329;    1,409
422,527;10927,259;    2,602;   -0,773
423,116;10738,913;    2,692;   -0,045
423,706;11211,888;    2,965;    0,318
424,296;11162,404;    1,601;    0,682
424,885;11640,586;    1,510;   -3,045
425,475;11977,809;    1,147;   -2,864
426,065;11896,269;   -1,489;   -0,318
426,654;11454,129;    0,329;   -0,318
427,244;11525,540;    1,147;    1,409
427,833;10909,981;    1,056;   -0,500
428,423;11470,749;    0,147;    1,136
429,012;12348,695;    2,420;   -1,136
429,601;11784,665;    2,057;    0,136
430,191;12062,860;    2,511;    4,318
430,780;11623,016;   -1,671;   -0,409
431,369;11539,316;    1,329;   -0,045
431,959;12292,335;    1,693;    0,500
432,548;12076,778;   -1,398;   -0,045
433,137;12249,411;    0,329;   -1,318
433,726;12774,914;    0,148;    0,500
434,315;12063,194;    0,148;    2,409
434,905;12161,186;    0,693;    1,409
435,494;12043,834;    3,148;    0,955
436,083;12580,135;    1,420;   -0,955
436,672;12436,494;    1,148;    0,500
437,261;11913,786;    0,512;   -1,955
437,850;12020,329;   -1,125;    0,682
438,439;11979,207;    2,239;    1,955
439,027;11794,780;    3,421;    1,773
439,616;12239,112;    2,239;    1,227
440,205;12143,795;    0,057;   -2,136
440,794;12227,186;   -0,306;   -0,045
441,383;12502,340;    1,603;   -0,591
441,971;12397,280;   -0,306;    0,591
442,560;12221,490;    0,603;   -1,773
443,149;12005,345;    3,060;   -1,318
443,737;12200,562;    0,968;   -2,318
444,326;12417,716;    0,331;    0,318
444,915;12507,041;   -1,851;    0,864
445,503;12926,605;    0,058;   -0,318
446,092;12121,633;    7,876;    2,136
446,680;12729,764;    1,876;    0,318
447,269;12961,954;   -1,487;   -0,318
447,857;12668,523;    2,240;   -1,773
448,445;12803,753;    2,149;    1,318
449,034;13066,972;    0,876;   -1,136
449,622;13237,169;    1,240;    3,500
450,210;12244,716;    3,149;    2,227
450,799;12830,456;    2,604;   -0,591
451,387;12830,064;    1,786;   -0,591
451,975;12400,538;   -1,305;    0,864
452,563;12467,690;    0,422;    2,318
453,151;12554,120;   -1,032;   -1,227
453,739;12453,602;   -1,577;    0,136
454,328;12288,374;    0,604;   -2,136
454,916;11925,647;    1,150;   -0,136
455,504;12148,187;    3,513;    1,227
456,092;12363,302;    2,150;   -1,591
456,679;12351,220;    0,604;    0,682
457,267;12148,426;    3,604;    1,045
457,855;12434,751;    3,241;    1,409
458,443;12212,561;   -0,304;    1,682
459,031;12284,157;    1,332;    2,409
459,619;12807,111;   -3,577;    2,864
460,206;13025,188;   -0,759;    2,045
460,794;13113,977;   -0,668;   -0,227
461,382;13374,003;    0,878;   -0,864
461,970;12853,932;    0,605;    1,864
462,557;12897,756;    0,878;   -0,682
463,145;13135,648;   -0,304;   -1,682
463,732;13331,214;    2,514;   -1,045
464,320;13262,514;    1,514;   -3,045
464,907;12830,527;    0,423;   -0,773
465,495;12714,113;    2,696;   -1,227
466,082;12912,142;    2,060;   -0,045
466,670;12823,110;    2,605;    1,227
467,257;13252,258;    0,060;    2,045
467,844;13436,518;    1,514;    0,045
468,432;13421,340;   -0,031;    3,500
469,019;12840,993;    1,606;   -1,773
469,606;13354,538;    0,969;    3,682
470,193;13163,583;    2,151;    0,227
470,780;12636,754;    0,333;    0,864
471,368;13028,692;   -1,212;   -0,773
471,955;12790,195;    1,060;   -0,682
472,542;12399,616;   -0,303;   -1,136
473,129;12626,249;   -0,485;    0,136
473,716;12388,746;    0,060;    0,591
474,303;12626,230;    1,333;   -0,864
474,890;12986,326;    2,333;   -0,500
475,477;12940,211;   -0,576;    0,409
476,064;12842,369;    0,697;   -1,591
476,650;12783,256;    2,152;    0,318
477,237;12624,801;    1,879;    0,955
477,824;12811,653;    3,879;    0,864
478,411;12853,412;    0,606;   -0,318
478,997;13093,480;    0,606;   -0,773
479,584;13177,617;   -0,666;   -0,409
480,171;13947,985;    1,243;   -0,773
480,757;13573,421;   -0,848;    0,773
481,344;13916,706;    0,334;    0,409
481,931;13430,782;   -0,393;    1,045
482,517;14528,096;    0,425;    0,318
483,104;15280,491;    1,334;    2,864
483,690;15720,990;    0,243;    0,045
484,276;16217,352;    0,698;    0,227
484,863;15966,523;    2,152;    1,136
485,449;16626,346;    0,152;    0,318
486,035;16630,259;   -0,666;   -0,136
486,622;17086,675;   -2,393;    0,045
487,208;17035,393;    1,334;    1,500
487,794;16895,437;    0,971;    0,318
488,380;16946,010;    0,698;   -1,409
488,967;17046,680;   -1,120;   -0,409
489,553;17101,387;   -1,029;   -1,409
490,139;17292,927;    0,971;    0,773
490,725;16659,819;    0,789;   -0,227
491,311;16133,800;    1,516;    3,045
491,897;15232,936;   -0,665;    1,500
492,483;14940,635;    0,426;    1,227
493,069;14554,324;    5,426;    0,864
493,655;14582,732;    1,789;    0,682
494,241;14492,349;    1,517;   -0,955
494,826;14973,736;    0,335;   -1,045
495,412;14361,589;    0,335;   -0,682
495,998;14501,618;    0,971;   -0,318
496,584;14680,915;    2,244;    1,045
497,169;14693,225;    2,335;   -0,682
497,755;14611,088;    1,244;    1,227
498,341;15198,665;    2,153;    0,318
498,926;14714,230;    2,881;    1,955
499,512;14975,711;   -0,028;    2,955
500,097;15170,388;   -0,574;   -0,318
500,683;15092,846;   -0,028;    2,136
501,268;15483,820;    1,881;   -0,955
501,854;15161,781;   -0,119;    1,227
502,439;15080,833;   -0,573;   -1,773
503,024;15303,501;    1,608;    0,500
503,610;15364,492;    1,335;   -0,682
504,195;15431,690;    1,245;    1,955
504,780;15509,698;    2,335;    1,227
505,366;15256,881;    4,063;    2,864
505,951;14944,169;   -1,119;    1,045
506,536;15011,569;    1,427;   -3,682
507,121;14985,518;    1,699;   -0,318
507,706;15554,108;   -0,392;    1,045
508,291;15979,638;   -2,937;    1,136
508,876;15433,944;   -0,482;    2,591
509,461;14832,269;    1,427;   -0,773
510,046;15267,790;   -0,391;    0,318
510,631;15548,356;   -0,119;   -0,773
511,216;15182,528;   -0,664;   -0,500
511,801;15558,215;   -0,755;    2,591
512,386;15912,349;    0,972;    0,500
512,971;15842,128;    0,427;    0,955
513,555;15319,720;    1,154;   -1,500
514,140;16181,768;    1,336;   -3,136
514,725;16234,753;    1,791;   -1,136
515,309;16384,118;    1,064;    0,318
515,894;15742,614;   -0,300;   -2,227
516,479;16185,307;    1,973;   -0,955
517,063;16025,265;    0,882;    1,227
517,648;16209,415;    0,155;   -1,136
518,232;15844,814;   -1,300;   -1,409
518,817;16191,717;    1,337;    1,682
519,401;16437,502;    0,700;    0,591
519,985;15882,747;    2,700;    1,136
520,570;15774,595;   -0,118;   -1,955
521,154;16130,767;    0,064;    0,591
521,738;16296,455;    1,064;    2,409
522,323;16900,587;   -0,390;    1,682
522,907;16635,739;    2,428;   -0,136
523,491;16304,875;    1,155;    0,955
524,075;16309,324;    0,428;    0,591
524,659;16378,834;    0,973;    0,591
525,243;15726,928;    0,883;    0,409
525,827;16039,121;    0,883;   -0,045
526,411;17008,470;    1,155;   -0,136
526,995;17265,038;    0,337;    1,409
527,579;16796,314;    1,974;   -1,045
528,163;17129,405;    0,428;   -1,500
528,747;17051,785;    1,065;   -0,773
529,331;17376,746;    0,883;   -1,409
529,915;17580,015;    2,338;    0,955
530,499;17554,071;    0,247;    1,227
531,082;17202,284;    1,065;    1,591
531,666;16594,826;    0,520;    0,773
532,250;17366,507;    0,428;    2,682
532,833;17755,898;    0,610;    2,773
533,417;17587,509;    1,247;    0,864
534,001;17545,735;    0,429;   -0,318
534,584;18361,173;    1,974;    0,500
535,168;18160,325;    3,247;    1,409
535,751;18215,149;    4,520;    0,045
536,334;17637,191;    4,520;   -0,409
536,918;18326,091;    1,974;    1,591
537,501;18467,390;    1,520;    1,318
538,085;18411,948;    1,702;    1,045
538,668;18617,488;    0,883;    2,409
539,251;18992,573;    3,156;    3,773
539,834;18943,241;    0,156;    0,773
540,418;18903,692;    3,247;    4,318
541,001;19059,993;    2,702;    1,773
541,584;19063,382;    1,429;    2,227
542,167;18716,877;    0,702;    2,955
542,750;18911,955;    0,793;   -0,773
543,333;18489,228;    1,429;    2,136
543,916;19327,028;   -0,298;    2,500
544,499;19997,868;    2,520;    0,227
545,082;20002,968;    0,248;    3,591
545,665;20199,430;   -0,207;    1,500
546,248;20534,501;    0,520;   -0,318
546,830;20226,118;   -1,752;    1,955
547,413;20637,606;    0,157;   -0,773
547,996;21211,127;    0,157;    0,500
548,579;20983,344;   -0,843;    0,955
549,161;20800,445;    0,884;    2,682
549,744;20621,207;    0,612;    0,409
550,326;21146,600;    0,885;   -1,136
550,909;20845,773;    2,339;    0,591
551,492;21295,784;    0,521;    0,227
552,074;21046,290;   -0,024;   -1,318
552,657;21680,634;    2,430;    0,045
553,239;21423,799;   -3,024;   -0,773
553,821;21368,411;   -1,570;    1,045
554,404;20842,674;   -0,024;    1,136
554,986;21180,580;    2,248;    1,045
555,568;21842,018;    0,430;   -0,955
556,151;20959,285;    4,067;   -0,227
556,733;21193,778;   -1,388;   -0,864
557,315;21772,889;    4,703;    0,500
557,897;21556,613;    0,521;   -0,500
558,479;21681,587;    1,703;    1,318
559,061;21821,214;    1,067;   -0,864
559,643;22224,607;   -0,297;    0,045
560,225;22594,754;   -0,388;    2,864
560,807;22653,153;    0,340;    0,318
561,389;22106,297;   -1,206;    2,318
561,971;22910,134;   -0,660;    2,136
562,553;22690,446;    0,613;    1,591
563,135;22819,255;    1,249;    1,136
563,717;22432,932;    3,158;    1,136
564,298;23248,297;    3,976;   -0,045
564,880;22914,718;    0,340;   -1,409
565,462;23147,809;    1,977;    1,318
566,043;24470,264;   -0,933;    2,318
566,625;23956,340;    4,067;    1,227
567,207;23825,334;    0,704;    1,682
567,788;25091,045;   -0,114;    1,500
568,370;26056,199;   -1,841;   -0,500
568,951;25903,204;   -0,569;    0,227
569,533;26941,315;    0,977;   -0,500
570,114;27482,433;   -0,296;    0,682
570,695;28098,102;   -0,478;   -1,318
571,277;28755,008;   -0,205;   -1,682
571,858;29602,622;    2,704;   -1,136
572,439;30667,212;    0,795;   -1,045
573,021;30918,488;    0,432;   -2,773
573,602;31508,295;    1,795;    0,318
574,183;32583,089;   -0,114;    2,227
574,764;32832,373;    2,068;    0,409
575,345;33484,354;    0,250;   -0,136
575,926;34177,347;    2,704;    0,136
576,507;34217,371;    2,704;   -0,227
577,088;35384,609;    1,704;    1,682
577,669;35449,855;    1,704;    1,955
578,250;36314,453;   -0,750;   -1,045
578,831;37117,922;   -0,841;   -2,227
579,412;37491,940;   -1,205;    0,955
579,993;38476,677;    1,432;    0,227
580,573;38898,363;   -0,023;   -0,955
581,154;37811,451;    1,613;   -0,591
581,735;38716,532;    0,341;    0,773
582,315;38233,532;    0,523;    2,136
582,896;38570,100;   -1,750;    1,227
583,477;37963,456;    0,614;    1,227
584,057;38110,187;    1,159;    0,955
584,638;38392,132;   -2,750;    2,318
585,218;38414,976;    2,886;    2,682
585,799;38534,983;    1,977;   -0,227
586,379;38456,518;    1,250;    1,591
586,959;37110,432;    2,613;    0,318
587,540;36332,953;    0,432;    2,227
588,120;35750,040;   -1,113;   -0,045
588,700;34504,643;    2,977;    2,136
589,281;34828,566;    1,250;   -0,955
589,861;34756,145;   -0,296;   -1,682
590,441;34560,414;   -1,477;   -2,682
591,021;33390,299;    1,432;   -2,591
591,601;33625,994;    0,431;    0,500
592,181;33614,879;   -1,296;   -0,773
592,761;32825,202;    2,250;    1,409
593,341;32665,837;    1,522;    0,045
593,921;32535,391;   -0,569;    1,591
594,501;32384,013;    1,250;    1,318
595,081;32311,033;    0,522;   -0,318
595,661;32645,434;    1,068;    0,955
596,240;33216,484;   -1,023;    0,136
596,820;32813,147;    2,613;    1,955
597,400;33030,061;    1,977;    0,773
597,980;33292,401;   -0,750;    1,045
598,559;33325,289;    0,341;   -0,227
599,139;32954,197;   -0,750;   -1,227
599,718;32862,833;    0,795;   -0,409
600,298;33116,870;   -2,387;    0,682
600,877;33310,718;    4,795;    1,409
601,457;33555,926;    0,340;    1,136
602,036;33512,980;    1,795;    2,045
602,616;33766,750;    2,250;    1,682
603,195;34090,275;    0,431;    3,500
603,774;33583,419;   -0,296;    2,045
604,354;33466,777;    2,522;   -0,500
604,933;32920,405;    0,250;    1,864
605,512;33048,423;    2,340;    0,591
606,091;33073,045;    1,886;    3,773
606,671;33858,724;    0,249;    0,773
607,250;32887,481;    1,431;    3,136
607,829;33187,049;    1,158;    3,227
608,408;33057,071;    4,613;    2,591
608,987;32045,702;    2,704;    3,409
609,566;32297,631;    0,341;   -2,500
610,145;32323,999;    2,885;    0,682
610,723;32773,457;    1,613;    6,864
611,302;31973,659;    1,067;    1,682
611,881;31374,051;    5,158;   11,227
612,460;32257,514;    0,795;    3,955
613,039;32742,526;    1,703;    2,045
613,617;31340,870;    0,886;    4,773
614,196;31562,459;    1,613;    1,227
614,775;31892,642;    1,249;    2,409
615,353;31843,171;   -1,660;    0,864
615,932;31479,635;    0,249;    2,409
616,510;32036,719;    0,158;    0,591
617,089;31502,281;    8,794;   17,591
617,667;31284,104;    4,885;    6,136
618,246;31121,234;   -1,115;    1,318
618,824;31268,349;    1,612;   -0,955
619,402;30812,637;    0,431;   -1,773
619,981;31368,171;    1,067;   -1,045
620,559;31271,730;    0,794;    1,682
621,137;30685,147;    3,067;    1,864
621,715;30608,242;    3,703;   -0,682
622,293;30528,461;    1,885;   -0,773
622,871;31013,253;    0,340;    0,500
623,450;30462,003;    0,430;   -0,864
624,028;30361,387;   -0,388;   -0,955
624,606;29959,350;    2,339;    1,682
625,183;30409,379;   -0,661;   -1,136
625,761;30003,092;    1,885;    1,136
626,339;30339,389;    2,339;    2,591
626,917;30722,598;    0,339;   -0,045
627,495;30735,315;    2,794;    1,318
628,073;30135,945;    5,248;    2,864
628,650;29812,994;    3,067;    2,136
629,228;30232,524;    1,248;    4,409
629,806;29552,932;   -0,024;    1,136
630,383;29841,463;    0,066;   -0,318
630,961;29602,513;   -2,206;   -0,955
631,539;29235,853;   -2,479;    0,227
632,116;28404,149;   12,703;   15,409
632,694;29126,038;    4,885;    6,500
633,271;29474,144;    1,975;    2,682
633,848;29316,352;    1,430;    2,045
634,426;29438,960;    1,521;    1,773
635,003;28492,028;   -0,207;   -0,409
635,580;28833,332;    1,884;    3,682
636,158;29354,530;    3,793;    1,227
636,735;29331,270;    3,339;   -0,500
637,312;29490,391;    0,521;   -0,682
637,889;29612,487;    2,248;   -0,682
638,466;29061,879;    0,066;   -0,409
639,043;29060,120;    1,702;   -1,136
639,620;29382,252;    0,611;   -0,955
640,197;29714,283;    1,612;    1,682
640,774;29860,911;    1,430;    1,136
641,351;30281,721;    0,612;    1,136
641,928;29629,439;    2,794;    1,409
642,505;29244,431;    0,794;   -0,500
643,082;29413,604;    1,885;    1,227
643,658;28398,141;    1,157;    1,500
644,235;29175,405;   -2,479;    2,500
644,812;29430,396;    1,794;    0,773
645,388;29189,115;    1,612;    1,409
645,965;29267,833;    1,521;    1,682
646,542;29341,734;    3,430;   -0,227
647,118;29344,816;    3,703;   -0,955
647,695;29641,080;    0,339;    1,136
648,271;29564,617;   -2,115;    0,500
648,848;29873,699;    0,248;    2,227
649,424;29687,509;    0,976;    1,318
650,000;29419,318;   -0,388;   -1,045
650,577;29271,128;    0,158;   -0,955
651,153;29787,756;   -1,115;    0,955
651,729;30812,838;    0,521;    0,864
652,305;31129,738;    1,339;    2,773
652,881;36440,275;   -1,297;    1,136
653,458;44678,448;    0,249;    0,227
654,034;49382,985;    0,703;    1,591
654,610;51285,249;    0,339;    0,773
655,186;52752,513;    1,612;    3,045
655,762;52393,596;   -1,842;    0,409
656,338;52502,769;    0,703;    0,136
656,913;53587,851;   -0,297;    0,409
657,489;52878,115;    0,249;   -0,318
658,065;52822,470;    0,794;   -1,591
658,641;53336,734;    2,158;   -0,864
659,217;52540,635;    2,067;    0,409
659,792;51865,626;   -1,751;   -0,409
660,368;52209,072;   -0,388;   -0,682
660,944;51689,518;    1,794;    1,227
661,519;46268,782;    0,522;    0,409
662,095;38999,501;   -0,206;    0,591
662,670;33391,401;   -0,206;   -0,136
663,246;31875,665;   -0,660;   -0,409
663,821;31015,111;    0,431;    1,682
664,396;30546,921;    0,613;    1,864
664,972;30827,276;   -0,660;   -0,500
665,547;31133,904;    3,794;    0,136
666,122;31142,986;    1,340;    0,318
666,698;31447,977;    2,431;    0,318
667,273;30777,423;    0,885;    0,136
667,848;31653,687;    0,340;    1,500
668,423;31346,042;    1,795;    2,318
668,998;31973,579;    0,976;   -0,682
669,573;32563,661;    2,067;   -1,500
670,148;32381,744;    1,885;   -0,682
670,723;32244,099;   -0,024;    0,318
671,298;32696,999;   -1,296;    1,045
671,873;32831,445;   -0,296;   -0,136
672,448;32802,618;    1,704;    0,136
673,023;33202,700;    0,249;   -0,227
673,597;33458,965;    2,704;    2,318
674,172;33172,865;    2,431;    0,318
674,747;32684,584;   -0,205;   -1,045
675,321;32521,302;   -0,933;    3,318
675,896;32098,294;    2,158;    1,045
676,471;33144,830;    2,522;    1,591
677,045;32919,549;   -0,296;    0,682
677,620;32941,813;    2,158;    1,136
678,194;33262,441;    0,249;    1,136
678,769;32786,887;    0,886;   -0,318
679,343;32988,878;   -0,023;    1,773
679,917;32856,142;    0,340;    1,955
680,492;33018,406;    0,249;    3,227
681,066;33212,489;    0,613;    0,409
681,640;33200,571;    1,795;   -0,318
682,214;34030,562;    2,340;    0,500
682,788;33522,008;    0,613;   -0,773
683,363;33522,000;    1,977;    1,682
683,937;33197,536;    0,886;   -0,318
684,511;34025,346;   -1,023;   -0,591
685,085;33686,883;   -1,478;    0,318
685,659;33462,056;    1,431;    0,864
686,232;33731,502;    1,159;   -0,318
686,806;33429,039;    2,159;    0,409
687,380;34109,666;   -1,932;    0,591
687,954;34363,385;    2,432;    1,136
688,528;33992,104;    2,613;    1,955
689,101;34849,095;    0,432;    1,045
689,675;34344,359;    0,886;   -0,136
690,249;33725,169;    3,432;    0,409
690,822;34034,160;    1,159;    0,318
691,396;34093,970;    2,068;    1,227
691,969;33519,325;    2,523;    0,136
692,543;33991,589;   -0,568;   -1,955
693,116;33658,580;   -0,659;   -1,409
693,690;33531,299;   -0,296;    0,500
694,263;34058,563;    2,341;    2,955
694,836;34106,645;    2,795;    3,591
695,410;32695,727;    1,159;    1,773
695,983;33205,810;    1,614;    0,591
696,556;33129,619;   -0,750;   -1,045
697,129;33549,429;   -1,114;    1,409
697,703;33116,420;    1,341;    1,955
698,276;33128,957;    1,705;   -0,773
698,849;32948,676;   -1,023;    1,409
699,422;33272,394;    1,250;    0,591
699,995;32951,749;   -0,659;    0,136
700,568;33480,104;   -0,204;    3,045
701,140;33522,005;   -1,841;    1,682
701,713;33230,269;    0,341;    2,409
702,286;32974,260;    0,796;    0,864
702,859;32794,524;    0,614;   -0,591
703,432;31926,334;   -0,841;    0,682
704,004;32450,871;    1,978;    0,318
704,577;32356,408;    1,068;    0,136
705,150;32954,490;    0,887;    2,500
705,722;32657,572;    1,523;   -3,227
706,295;32472,109;    1,432;   -0,591
706,867;32243,009;    0,250;    1,955
707,440;32531,364;   -0,113;   -0,409
708,012;32802,265;   -0,022;    0,591
708,584;32668,984;    2,705;    0,227
709,157;33010,702;    1,160;   -0,591
709,729;32628,966;    1,069;    2,045
710,301;33525,230;   -1,204;    0,045
710,874;33528,949;    0,341;   -0,227
711,446;32347,668;   -0,295;    0,864
712,018;32258,023;   -3,022;    0,500
712,590;31972,650;   -0,204;    1,682
713,162;32544,005;   -0,477;    1,318
713,734;32818,360;    1,796;   -2,045
714,306;32626,988;    0,342;   -0,409
714,878;31249,889;   -0,295;    0,864
715,450;32080,153;   -0,113;    0,864
716,022;32418,326;    2,433;    1,318
716,593;32526,499;    0,978;    0,591
717,165;32462,400;    1,796;   -1,227
717,737;32163,391;    0,796;    0,409
718,309;31866,019;    1,160;   -0,045
718,880;31797,646;   -1,295;   -1,409
719,452;31959,820;    0,887;   -1,591
720,024;31498,084;    1,705;   -0,591
720,595;32071,711;    2,978;    0,955
721,167;31586,521;    1,160;   -2,045
721,738;31094,149;    2,069;   -1,045
722,309;31003,231;    1,251;   -1,227
722,881;30797,222;    2,705;    0,773
723,452;31480,850;    1,251;    2,864
724,023;31639,023;    1,524;    2,682
724,595;31409,651;    2,342;    0,682
725,166;31136,642;    1,524;   -0,409
725,737;30751,997;    1,887;    0,227
726,308;30871,625;    0,797;    0,318
726,879;31293,798;    1,069;    1,227
727,450;31182,153;   -2,022;   -0,045
728,021;31118,054;    1,069;    0,682
728,592;30959,045;    1,160;    0,500
729,163;31314,218;    1,433;   -0,136
729,734;31291,482;    2,160;   -0,227
730,305;31620,383;    0,615;    0,136
730,876;32010,101;    0,888;    2,955
731,447;31666,093;    0,797;    2,682
732,017;31770,175;   -0,840;    1,864
732,588;31354,530;   -0,021;    1,227
733,159;31550,158;    3,615;   -1,045
733,729;31383,604;    1,251;    0,409
734,300;30582,595;    0,160;    0,864
734,870;31037,677;   -1,385;    0,591
735,441;31611,760;    0,888;   -0,591
736,011;31272,569;    1,070;   -1,591
736,582;31283,470;    1,251;    0,045
737,152;30724,370;    0,979;   -2,045
737,722;31144,089;    1,070;   -0,682
738,293;30898,807;   -2,021;    1,318
738,863;30740,981;    1,797;    2,318
739,433;30500,518;    4,524;    0,318
740,003;31232,600;    1,524;   -0,682
740,573;30536,773;    2,252;   -1,591
741,143;30500,128;    3,615;    0,318
741,713;31289,119;    0,252;   -0,500
742,283;30916,020;    1,706;    1,591
742,853;30652,829;    0,524;    1,591
743,423;30114,730;    0,161;    0,045
743,993;30198,721;    1,070;    1,500
744,563;29528,894;    2,524;   -0,864
745,133;29447,795;   -0,112;   -0,864
745,702;30204,604;    2,797;    1,773
746,272;29328,232;    0,434;    0,591
746,842;29101,314;   -0,748;   -0,591
747,411;29591,942;   -0,839;   -0,318
747,981;29794,479;   -0,930;    0,500
748,551;29832,834;   -0,021;   -1,045
749,120;29688,371;   -0,112;   -0,227
749,690;30055,908;    2,161;    2,409
750,259;30382,444;    0,979;    2,955
750,828;30264,072;    4,070;   -1,955
751,398;30564,427;   -0,112;   -0,045
751,967;30032,873;    2,888;    0,409
752,536;30230,410;    1,161;   -0,227
753,105;30724,038;   -1,384;    0,227
753,675;30551,847;   -0,112;    1,773
754,244;30482,111;    0,888;    3,591
754,813;30524,284;    0,979;    1,227
755,382;30155,639;    0,798;    0,955
755,951;30703,631;   -0,112;    3,682
756,520;30252,259;    2,525;    1,864
757,089;30812,795;    1,888;    0,500
757,658;30986,878;    2,434;    1,227
758,227;30990,142;   -1,111;    0,318
758,795;31320,588;   -1,021;    1,136
759,364;31594,488;    0,525;   -0,591
759,933;30494,298;    1,343;   -0,045
760,501;29981,016;    0,252;   -1,318
761,070;30497,644;   -0,293;   -1,409
761,639;31280,181;    1,434;    1,318
762,207;30567,081;    0,889;   -0,955
762,776;30489,709;    2,889;    0,864
763,344;30376,700;    0,071;    0,591
763,913;29454,692;    1,616;    1,409
764,481;30213,683;    1,980;   -0,136
765,049;29992,129;    0,616;    1,409
765,618;29848,211;    1,434;    0,318
766,186;29911,294;    2,434;    0,136
766,754;30121,194;    1,798;    1,864
767,322;29074,367;    1,162;    0,409
767,890;29108,631;    0,525;   -1,773
768,459;29466,077;    2,616;   -0,318
769,027;29647,160;    2,525;    3,409
769,595;28576,424;    2,616;    2,591
770,163;29050,506;    3,344;    2,955
770,730;28728,497;    2,525;   -0,136
771,298;28591,852;    1,162;   -1,409
771,866;28739,207;    0,253;    4,955
772,434;29047,471;    1,162;   -1,864
773,002;29169,190;    2,616;    0,682
773,569;28784,636;    1,071;    1,682
774,137;28555,264;    0,889;   -0,045
774,705;29423,528;   -0,747;   -0,136
775,272;28859,247;    0,253;    0,682
775,840;28606,147;   -0,111;    2,682
776,407;28089,502;   -0,293;    1,955
776,975;27637,948;    1,162;    0,318
777,542;28702,121;    2,162;   -0,045
778,110;28565,476;    0,707;   -0,045
778,677;28213,377;    1,071;   -0,864
779,244;27913,277;   -1,020;    1,045
779,812;28093,450;    0,980;    0,864
780,379;27931,805;    2,435;    1,136
780,946;28115,160;    2,617;   -0,773
781,513;28462,788;   -0,565;    0,318
782,080;27768,870;    1,253;    2,864
782,647;28525,407;    1,708;    3,045
783,214;28095,853;   -0,201;    3,864
783,781;27680,026;    1,708;   -0,682
784,348;27566,018;    0,253;    1,500
784,915;28106,100;   -1,474;    0,318
785,482;27852,818;    2,708;    2,591
786,049;28315,537;    1,071;   -0,591
786,615;28374,801;    1,708;   -0,955
787,182;28126,793;   -3,201;   -0,682
787,749;27773,966;   -2,201;    1,409
788,315;27063,684;    0,253;   -0,409
788,882;27388,767;    0,981;   -1,227
789,448;28076,849;    1,435;   -0,955
790,015;28081,659;    1,799;    3,227
790,581;27646,468;    0,708;    0,227
791,148;27562,641;    1,344;    1,045
791,714;27780,087;   -1,019;    3,136
792,280;27428,988;    3,708;    1,591
792,847;26964,888;   -0,928;    2,500
793,413;27567,334;   -0,110;   -0,318
793,979;27051,598;    1,526;   -1,318
794,545;27151,317;    2,981;    2,682
795,111;26510,581;    2,435;    1,318
795,678;26702,027;    3,526;   -1,682
796,244;26312,836;    2,799;    0,136
796,810;26875,828;    0,799;    0,773
797,375;26600,001;   -0,292;   -2,136
797,941;26591,174;   -1,110;    0,591
798,507;26718,620;    0,254;   -0,955
799,073;26294,884;    2,708;    0,591
799,639;26318,512;    1,435;    3,136
800,205;26323,049;   -1,565;    2,682
800,770;25808,040;    1,345;    1,773
801,336;25911,122;    2,981;   -0,955
801,901;25579,023;    6,072;    3,136
802,467;26195,378;    0,526;    2,045
803,033;25469,824;   -0,019;    0,864
803,598;25612,997;    1,072;   -1,045
804,163;25721,079;    0,708;   -0,318
804,729;25651,525;   -0,110;    1,136
805,294;26047,971;    1,072;    2,227
805,859;25862,690;    0,890;   -0,409
806,425;25317,772;    3,890;    2,682
806,990;24941,945;    1,890;    4,318
807,555;25515,573;   -0,110;    2,591
808,120;25348,746;   -1,292;   -0,409
808,685;25389,919;    1,072;   -2,500
809,250;24871,820;    2,072;   -0,500
809,815;25225,538;   -0,201;    0,682
810,380;25789,166;    0,981;    1,591
810,945;26266,885;    2,890;    2,045
811,510;25447,058;   -0,200;    1,591
812,075;25163,595;    2,800;   -1,409
812,640;25219,768;    3,709;    1,409
813,204;25224,123;    2,163;   -0,227
813,769;25773,296;    0,254;   -0,045
814,334;25114,469;    0,527;    0,864
814,898;25141,461;    1,981;    0,591
815,463;24996,725;    0,981;   -0,773
816,027;24944,262;    1,345;   -2,318
816,592;25036,617;    2,163;   -2,045
817,156;24458,881;   -2,200;    1,136
817,721;24277,145;    0,982;    2,318
818,285;24245,136;    0,618;    1,500
818,849;24977,127;   -0,018;    1,682
819,414;24856,846;    0,073;    2,955
819,978;24382,019;   -0,291;    1,773
820,542;24998,374;    2,891;    0,500
821,106;24708,457;    2,800;    0,682
821,670;24756,721;    2,709;    2,591
822,234;24463,167;    1,073;    1,409
822,798;23804,794;   -0,836;    0,500
823,362;23770,240;    1,527;    4,227
823,926;23016,686;   -0,018;    1,136
824,490;23276,496;    3,527;   -0,682
825,054;23773,214;    2,527;   -1,136
825,618;23293,751;   -1,200;   -1,500
826,181;23204,197;    0,982;   -1,318
826,745;23138,370;   -0,745;   -1,045
827,309;23520,543;    2,255;    1,318
827,872;22879,808;    0,527;    0,955
828,436;23936,344;    1,982;   -0,773
828,999;24001,427;    2,436;    1,227
829,563;22739,509;   -0,654;    1,136
830,126;22503,137;   -0,018;   -0,591
830,690;22514,764;    0,709;    2,864
831,253;22072,847;   -0,473;    2,227
831,816;22175,474;   -0,018;    0,500
832,380;22086,739;    1,164;    0,864
832,943;22301,184;    3,073;   -0,500
833,506;21777,085;    0,255;   -1,227
834,069;22600,076;    2,164;   -0,955
834,632;22634,977;   -2,200;    1,318
835,195;22509,877;    1,346;    0,955
835,758;21687,050;    0,709;    1,955
836,321;21518,133;    1,073;   -1,045
836,884;21577,124;   -1,291;   -0,955
837,447;21628,115;    0,528;    1,773
838,010;21874,561;    1,800;    3,227
838,573;22180,371;    0,528;    0,773
839,135;22124,817;   -0,109;   -0,955
839,698;21558,990;    2,528;    0,409
840,261;21067,981;    0,255;   -0,227
840,823;20915,609;   -0,927;    0,864
841,386;21221,600;   -0,018;   -2,409
841,948;21047,774;    0,255;    1,773
842,511;20773,401;    0,255;    1,682
843,073;20939,484;    2,982;    0,227
843,636;20756,930;    0,619;   -0,227
844,198;20650,921;    1,255;    0,591
844,760;20784,549;    0,619;    1,955
845,322;20391,085;    0,164;    1,136
845,885;20835,804;   -0,290;    0,591
846,447;21277,614;    0,710;    0,227
847,009;20811,969;    3,983;   -0,682
847,571;21169,869;    1,346;   -2,045
848,133;21256,042;   -0,199;   -1,864
848,695;21102,125;    2,346;    1,409
849,257;20564,389;    1,346;   -1,682
849,819;20775,289;    2,983;   -0,409
850,381;20862,917;    1,801;   -0,864
850,942;21273,272;    1,892;   -0,591
851,504;21159,718;    0,983;    0,227
852,066;21192,073;    1,619;   -1,591
852,628;20691,519;    0,165;    1,955
853,189;20259,783;    0,256;    2,682
853,751;20440,592;   -0,654;    1,409
854,312;20246,584;    1,256;   -1,682
854,874;20795,393;   -0,108;   -0,773
855,435;21303,385;    0,528;   -1,682
855,997;21439,012;    3,983;   -0,136
856,558;20707,095;    0,801;    1,773
857,119;20815,541;   -0,744;    2,864
857,681;20440,805;   -0,108;    0,318
858,242;20447,614;    1,347;   -2,136
858,803;20928,515;    1,074;   -0,773
859,364;21499,597;    0,892;   -4,773
859,925;20798,861;   -0,290;   -0,955
860,486;20733,216;    0,529;   -0,955
861,047;20412,935;    0,165;   -1,227
861,608;20156,562;    0,165;   -0,773
862,169;20323,372;   -0,562;   -0,045
862,730;20106,636;   -0,290;    1,409
863,291;20350,264;    0,438;   -0,500
863,852;20667,164;   -0,926;    1,955
864,412;20119,428;   -1,835;   -0,864
864,973;18582,511;    1,892;    0,500
865,534;18473,320;    2,074;    0,227
866,094;20040,857;    2,620;    0,227
866,655;19719,667;    4,711;    3,318
867,215;19983,294;    0,074;    0,136
867,776;19811,377;   -1,199;   -0,136
868,336;19943,095;    1,529;    0,136
868,897;19315,268;    3,438;    1,682
869,457;19031,805;    3,256;    0,318
870,017;19309,069;    2,438;   -1,227
870,578;19873,879;    1,893;    0,773
871,138;19510,688;    2,620;   -0,955
871,698;19034,771;   -0,562;   -1,318
872,258;18877,035;    0,711;   -2,864
872,818;19271,754;    2,347;    0,045
873,378;19216,109;   -2,198;    1,045
873,938;18784,100;    4,984;    0,500
874,498;19161,819;    1,256;   -1,955
875,058;18982,992;    4,347;    1,773
875,618;18813,529;    1,438;   -2,682
876,177;18809,974;   -0,471;    0,136
876,737;18335,875;   -0,289;    1,955
877,297;18330,412;    2,711;    1,955
877,856;18369,130;    2,529;    0,318
878,416;18297,849;    2,438;   -0,136
878,976;18560,477;    3,438;    0,409
879,535;18728,832;    4,529;    3,136
880,095;18462,005;    1,347;    0,045
880,654;18609,178;    0,347;    1,318
881,213;18658,351;    2,347;    1,500
881,773;18295,252;    1,984;    2,682
882,332;18626,061;    6,075;    5,136
882,891;18522,598;    0,711;    2,136
883,451;18993,953;   -2,016;    1,682
884,010;18458,399;   -1,107;   -0,409
884,569;18532,481;   -2,289;   -0,045
885,128;18609,018;   -0,743;   -1,864
885,687;18707,191;   -0,743;    0,682
886,246;18367,728;    2,620;    2,136
886,805;18136,810;    1,620;    2,045
887,364;18456,984;    1,166;   -0,500
887,922;18862,521;   -0,016;    0,045
888,481;18298,785;    1,530;    0,591
889,040;18685,321;    3,711;    2,136
889,599;19391,586;    2,166;    1,409
890,157;19488,941;    2,166;    2,409
890,716;19124,023;    2,166;    0,227
891,274;18873,105;    0,075;   -1,136
891,833;19316,187;    1,166;    0,864
892,391;19234,179;    1,802;    0,500
892,950;19343,261;    0,166;   -0,773
893,508;19675,616;    0,984;   -0,409
894,067;18989,880;   -0,379;    0,136
894,625;18909,235;   -1,016;   -1,500
895,183;19149,136;   -0,198;   -0,682
895,741;19017,581;    2,257;   -1,773
896,299;18859,573;    1,621;   -2,409
896,858;19040,110;    1,530;   -1,591
897,416;19157,374;    0,166;   -1,318
897,974;18900,183;   -2,197;    0,318
898,532;18995,447;    6,530;    2,682
899,089;18878,802;    0,621;   -0,682
899,647;18961,248;    0,530;    1,318
900,205;18658,240;    0,257;    1,045
900,763;18925,049;    2,166;    0,227
901,321;18891,132;    3,530;   -1,409
901,878;18270,032;    3,257;   -0,773
902,436;18120,205;    0,257;    1,318
902,994;18501,833;    6,712;    3,682
903,551;17915,188;    1,439;    0,409
904,109;18394,088;    1,530;   -1,409
904,666;17906,898;    1,439;    1,045
905,224;17684,344;    3,894;   -0,409
905,781;17381,790;   -0,470;   -0,318
906,338;17512,236;    0,167;    1,045
906,895;17452,863;    1,894;    2,045
907,453;17311,491;    2,348;    1,136
908,010;17374,119;    3,348;    0,409
908,567;16962,474;   -0,561;    0,591
909,124;16520,102;    2,439;   -1,500
909,681;16558,093;   -1,288;    0,682
910,238;16684,084;   -0,106;   -1,318
910,795;17009,803;   -1,561;   -1,136
911,352;16634,803;   -0,379;   -2,682
911,909;15993,985;    2,803;   -0,864
912,466;16502,348;    1,985;    1,500
913,022;16055,348;   -0,924;    0,500
913,579;16401,167;   -0,470;    2,045
914,136;16072,076;   -2,561;    0,955
914,692;16439,894;    1,530;   -1,227
915,249;15968,348;    0,530;    0,409
915,806;16222,258;    1,803;    1,955
916,362;15921,258;    0,894;    1,864
916,918;15490,258;    2,439;    1,045
917,475;15453,621;    1,621;    0,955
918,031;15536,076;    0,076;   -0,045
918,587;14947,712;    0,621;   -0,318
919,144;15145,803;   -0,379;    0,227
919,700;15529,167;    0,167;    0,773
920,256;15119,530;    0,439;    0,045
920,812;14629,348;    1,439;   -1,045
921,368;14596,258;    1,348;   -1,045
921,924;14288,803;    0,439;   -0,136
922,480;13798,803;    0,076;    1,227
923,036;14448,894;   -0,652;    1,955
923,592;14387,894;    0,621;    0,318
924,148;14257,348;    1,894;   -0,955
924,704;13536,985;    0,258;   -0,409
925,259;13825,894;   -0,561;    0,591
925,815;13550,985;    3,803;    0,500
926,371;13111,439;    3,530;    1,409
926,926;12941,439;    1,621;    0,591
927,482;12541,803;    1,621;    0,773
928,037;12399,348;   -0,833;    2,045
928,593;12710,985;    0,258;    1,045
929,148;12498,985;    1,167;   -1,500
929,704;11999,803;    2,439;   -0,500
930,259;12194,167;    0,894;   -0,136
930,814;11234,076;    1,803;    1,955
931,369;10916,258;    0,258;   -0,773
931,925;10773,803;   -1,924;    0,136
932,480;10634,712;    3,076;   -2,591
933,035;10505,985;    3,985;   -0,318
933,590;10267,803;   -1,742;   -1,773
934,145; 9864,712;   -1,288;   -0,318
934,700;10236,712;    0,348;   -0,591
935,255;10030,530;    4,803;    0,045
935,809; 9212,985;    6,258;    0,864
936,364; 8271,439;    2,167;   -0,136
936,919; 8235,076;    2,348;   -1,773
937,474; 8126,258;    1,348;    0,136
938,028; 7840,803;    3,076;    1,136
938,583; 7219,348;    6,348;    4,682
939,138; 7559,621;    0,167;    2,136
939,692; 6981,803;   -1,015;   -1,136
940,247; 6629,439;    1,167;   -1,045
940,801; 6103,621;    0,621;    0,227
941,355; 5986,076;    0,439;    2,591
941,910; 5662,894;    0,712;   -2,136
942,464; 5735,530;    2,712;   -0,318
943,018; 5499,348;    3,258;   -0,227
943,572; 5435,076;    2,803;   -0,682
944,126; 4803,439;   -0,924;   -0,409
944,681; 4669,439;    0,712;    0,227
945,235; 4660,167;    2,167;   -0,591
945,789; 4581,712;    1,258;   -1,864
946,342; 4655,348;   -0,561;   -0,591
946,896; 4503,348;    0,348;    0,955
947,450; 4242,621;   -0,561;   -0,227
948,004; 4397,258;    1,076;   -0,045
948,558; 4431,258;    1,258;   -0,864
949,111; 4357,439;   -1,197;   -0,318
949,665; 4376,530;   -0,106;   -0,682
950,219; 4224,348;    0,621;   -1,045
950,772; 4323,258;    0,258;    1,864
951,326; 4222,076;   -1,106;   -0,955
951,879; 4336,348;    1,076;   -2,318
952,433; 4374,985;    1,348;    2,227
952,986; 4208,621;    0,348;    0,682
953,539; 4135,894;    1,530;    0,591
954,093; 4082,439;    0,985;   -1,318
954,646; 4204,803;   -0,288;    1,318
955,199; 4010,803;    1,258;   -0,500
955,752; 3874,803;    1,985;    1,773
956,305; 3828,076;    0,894;    2,955
956,858; 3997,258;    0,621;   -0,318
957,411; 4190,621;    3,621;    2,136
957,964; 4020,803;    2,076;    2,136
958,517; 4018,894;    0,985;    3,136
959,070; 3827,348;   -1,197;    1,955
959,623; 3858,076;    1,076;    1,500
960,176; 3630,803;    0,712;    2,045
960,728; 3580,076;    1,712;    0,773
961,281; 3663,985;    2,258;    0,500
961,834; 3724,803;   -0,833;    0,864
962,386; 3625,258;    1,258;    1,045
962,939; 3534,076;    3,439;   -0,318
963,491; 3711,076;    2,621;    1,136
964,043; 3571,803;    0,076;    2,409
964,596; 3697,803;    1,712;    2,227
965,148; 3506,258;   -0,379;    1,773
965,700; 3421,803;   -0,015;   -0,227
966,253; 3628,076;   -0,833;    0,318
966,805; 3418,530;    1,894;    0,773
967,357; 3478,348;    0,439;   -1,500
967,909; 3410,621;    1,167;   -1,227
968,461; 3581,985;    0,894;    3,136
969,013; 3483,621;   -1,561;   -0,864
969,565; 3546,258;    1,803;   -1,136
970,117; 3578,348;    3,803;    1,045
970,669; 3448,167;    3,258;   -0,136
971,220; 3322,621;    2,167;   -1,500
971,772; 3212,803;    1,348;   -0,318
972,324; 3337,712;   -1,197;   -0,500
972,876; 3303,621;    0,167;   -0,045
973,427; 3407,439;   -1,197;   -1,045
973,979; 3377,530;    0,076;   -2,500
974,530; 3441,258;    0,803;    1,318
975,082; 3454,985;    2,167;    1,682
975,633; 3340,985;    2,894;    1,682
976,184; 3487,439;    2,076;    0,773
976,736; 3244,621;    0,348;    0,227
977,287; 3026,258;    0,258;   -0,500
977,838; 3227,621;   -0,924;   -0,318
978,389; 3285,076;    0,803;   -0,500
978,940; 3168,258;    1,258;   -0,409
979,491; 3212,712;    2,258;   -0,500
980,042; 3137,348;   -0,652;    3,045
980,593; 3219,621;    1,894;    0,227
981,144; 3247,894;    3,530;   -0,500
981,695; 3198,076;   -0,470;    1,500
982,246; 3170,530;   -1,833;    1,045
982,797; 3367,439;   -0,561;    0,682
983,347; 3469,530;    2,167;    0,591
983,898; 3615,894;    4,167;    0,409
984,449; 3414,258;    2,530;    0,773
984,999; 3352,894;    1,894;   -1,136
985,550; 3082,348;    3,167;   -0,318
986,100; 3154,258;    0,712;   -0,318
986,651; 3195,712;    0,258;    0,045
987,201; 3171,258;    0,894;   -0,591
987,751; 3253,621;   -0,288;    2,864
988,302; 3231,985;   -0,379;    1,500
988,852; 3255,167;    1,985;   -1,136
989,402; 3259,985;    0,985;    0,682
989,952; 3180,167;    1,621;    0,864
990,502; 3321,076;    1,076;    0,682
991,052; 3292,439;   -0,106;    0,045
991,602; 3151,076;    1,167;    1,318
992,152; 3120,076;    2,803;    0,682
992,702; 3099,167;    1,167;   -0,045
993,252; 3018,894;    0,076;   -0,500
993,802; 3093,530;    1,167;    1,318
994,352; 3379,985;   -0,742;    1,136
994,901; 3500,439;    1,076;    3,227
995,451; 3389,712;   -1,197;    0,318
996,000; 3463,167;    1,076;    0,318
996,550; 3166,894;    2,894;    0,227
997,100; 3175,530;   -0,561;   -0,045
997,649; 3474,258;   -0,197;    0,955
998,198; 3083,076;   -0,288;   -1,500
998,748; 3275,167;    0,348;   -2,318
999,297; 3185,803;    0,985;   -0,409
999,846; 3251,894;    1,894;   -0,773
1000,395; 3297,985;    1,530;    0,500
1000,945; 3209,258;    1,076;   -0,773
1001,494; 3318,621;    0,167;    0,682
1002,043; 3321,530;    0,712;    0,864
1002,592; 3173,258;    3,439;    1,955
1003,141; 3324,348;    2,439;   -0,682
1003,690; 3144,894;    1,258;    0,500
1004,238; 3241,439;   -0,106;   -0,045
1004,787; 2854,803;   -1,288;    1,227
1005,336; 3071,985;    1,621;    0,682
1005,885; 3256,712;   -0,197;   -2,773
1006,433; 3411,076;   -0,470;    0,955
1006,982; 3429,894;    2,167;    1,682
1007,531; 3358,894;    2,712;   -0,227
1008,079; 3353,985;    0,258;    0,500
1008,627; 3502,894;    1,621;    0,409
1009,176; 3216,258;    0,076;   -1,955
1009,724; 3260,803;   -2,742;    0,864
1010,273; 3295,621;    1,076;    0,500
1010,821; 3439,076;    1,076;    1,409
1011,369; 3158,258;    0,076;    1,318
1011,917; 3129,621;   -0,833;   -0,591
1012,465; 3431,439;    2,530;   -1,591
1013,013; 3555,076;    0,439;   -1,682
1013,561; 3405,167;   -1,288;   -0,773
1014,109; 3443,076;   -0,833;    1,682
1014,657; 3300,803;    1,348;    0,591
1015,205; 3458,894;    0,894;   -0,955
1015,753; 3511,985;    0,258;   -1,409
1016,301; 3548,985;    2,621;    3,045
1016,848; 3564,258;    2,167;    0,409
1017,396; 3588,712;    1,621;    0,045
1017,944; 3718,167;    2,621;    1,864
1018,491; 3454,803;   -0,197;    1,409
1019,039; 3591,712;   -0,652;    0,591
1019,586; 3540,167;    0,076;    1,682
1020,134; 3633,348;    0,712;    1,500
1020,681; 3646,530;    2,894;   -1,136
1021,228; 3683,076;   -0,561;   -2,227
1021,776; 3502,530;   -0,833;   -1,136
1022,323; 3720,803;    0,803;    0,773
1022,870; 3655,621;   -0,470;   -0,045
1023,417; 3515,985;    2,076;    1,864
1023,964; 3704,894;    0,621;    1,227
1024,511; 3519,621;   -0,652;    0,773
1025,058; 3304,803;    0,439;   -0,045
1025,605; 3362,348;   -1,742;    3,136
1026,152; 3566,530;   -0,106;   -0,591
1026,699; 3294,348;    0,167;    1,318
1027,245; 3488,803;    2,439;    0,318
1027,792; 3739,439;    0,712;    1,409
1028,339; 3564,712;    4,076;   -0,045
1028,885; 3410,530;    3,621;   -0,227
1029,432; 3345,803;   -0,106;    0,227
1029,978; 3402,530;    1,348;   -1,591
1030,525; 3303,712;    1,621;    0,409
1031,071; 3579,894;    0,348;    1,136
1031,618; 3664,439;    1,258;    1,682
1032,164; 3443,167;    2,076;    3,045
1032,710; 3483,985;    0,076;   -1,500
1033,256; 3428,530;    0,712;   -0,136
1033,803; 3419,621;   -0,288;    1,500
1034,349; 3140,076;    1,803;    0,136
1034,895; 3292,167;    2,621;   -0,318
1035,441; 3273,621;    0,439;    0,318
1035,987; 3265,439;   -2,288;   -0,682
1036,533; 3260,076;   -0,197;   -0,955
1037,078; 3450,530;    4,712;    1,682
1037,624; 3275,348;    2,439;   -0,955
1038,170; 3306,803;    1,712;   -0,318
1038,716; 3178,894;    2,167;   -0,409
1039,261; 3104,348;    2,167;   -0,773
1039,807; 3057,167;   -0,015;    3,409
1040,352; 3109,894;   -1,288;   -0,318
1040,898; 3158,258;    0,167;   -0,682
1041,443; 3077,985;    0,803;   -2,591
1041,989; 3060,258;    3,621;    1,591
1042,534; 2967,803;    0,985;    2,591
1043,079; 3113,803;    1,985;    0,955
1043,625; 2857,530;    0,258;    0,500
1044,170; 2882,985;    2,439;    1,045
1044,715; 3140,712;    0,167;    0,955
1045,260; 2961,439;   -0,833;   -0,955
1045,805; 3021,621;    0,258;   -0,591
1046,350; 2990,894;    0,530;   -0,409
1046,895; 2911,894;    0,803;    1,591
1047,440; 2841,439;    1,530;    0,409
1047,985; 2752,530;   -1,197;   -0,955
1048,530; 2678,985;    1,348;    1,227
1049,074; 2744,621;    2,803;    0,318
1049,619; 2727,076;   -0,924;    1,955
1050,164; 2495,348;    1,076;    0,227
1050,708; 2546,167;    2,621;    0,045
1051,253; 2896,530;    3,258;   -2,227
1051,797; 2624,258;   -0,197;   -1,318
1052,342; 2676,167;    1,348;    1,045
1052,886; 2656,712;    1,803;   -1,409
1053,430; 2530,439;    2,167;    0,136
1053,975; 2535,348;    0,894;   -0,318
1054,519; 2518,167;    1,803;    3,227
1055,063; 2499,530;    3,621;    1,318
1055,607; 2377,621;    1,348;    0,227
1056,151; 2407,985;    0,530;    1,682
1056,695; 2331,712;   -1,833;   -1,136
1057,239; 2400,894;   -1,197;   -0,682
1057,783; 2392,258;    2,258;   -1,500
1058,327; 2332,712;    3,076;    1,409
1058,871; 2555,167;    3,985;    1,318
1059,415; 2260,530;   -0,561;   -0,045
1059,958; 2502,803;    2,985;    2,591
1060,502; 2245,803;    1,348;   -0,773
1061,046; 2156,803;    1,712;   -0,955
1061,589; 2137,985;    2,803;   -1,136
1062,133; 2015,076;    0,985;    1,864
1062,676; 1940,076;    1,439;    0,864
1063,220; 1937,258;    0,985;    0,500
1063,763; 1933,439;    2,985;    1,136
1064,306; 2020,712;    0,985;    1,864
1064,849; 1899,985;    2,076;    0,591
1065,393; 1907,167;    2,894;   -1,500
1065,936; 2042,258;    2,530;   -0,409
1066,479; 1926,439;    2,621;    1,318
1067,022; 1950,076;    1,894;   -0,227
1067,565; 1838,076;   -1,197;   -1,318
1068,108; 1881,530;    1,258;   -0,591
1068,651; 1862,258;   -2,470;    1,409
1069,194; 1776,076;   -1,106;   -1,682
1069,736; 1778,985;    3,803;    0,955
1070,279; 1771,803;   -1,652;   -0,500
1070,822; 1792,985;    1,530;   -0,318
1071,364; 1861,894;    0,530;    1,318
1071,907; 1682,348;    0,348;    3,227
1072,450; 1619,258;    0,258;   -0,045
1072,992; 1594,894;   -0,561;    3,136
1073,535; 1718,803;    0,167;    2,136
1074,077; 1527,985;    2,985;    2,045
1074,619; 1482,803;    0,985;    0,591
1075,161; 1495,258;   -0,561;    1,500
1075,704; 1678,530;    0,258;    1,227
1076,246; 1500,076;    1,530;    0,682
1076,788; 1433,258;   -1,015;    1,773
1077,330; 1511,621;   -2,106;    2,136
1077,872; 1459,985;   -1,924;    0,955
1078,414; 1678,985;    3,712;    0,773
1078,956; 1412,439;    0,167;   -0,227
1079,498; 1659,621;    0,439;    0,318
1080,040; 1356,803;    0,985;   -1,318
1080,581; 1298,258;    0,621;   -0,318
1081,123; 1246,621;   -0,106;   -0,773
1081,665; 1295,530;    3,803;   -0,955
1082,206; 1559,621;    3,258;   -0,500
1082,748; 1436,985;    3,258;    2,045
1083,289; 1324,258;    0,167;    1,318
1083,831; 1215,894;    0,258;    0,227
1084,372; 1244,803;    0,894;    0,591
1084,913; 1241,167;    3,348;    0,864
1085,455; 1237,439;    1,530;   -2,045
1085,996; 1184,530;    0,530;    0,136
1086,537; 1195,258;    0,985;    0,864
1087,078; 1242,530;    0,439;   -2,136
1087,619; 1263,621;   -1,652;    0,227
1088,160; 1186,167;    1,439;    1,318
1088,701; 1184,894;   -0,742;    0,682
1089,242; 1126,348;   -0,561;   -2,227
1089,783; 1214,167;   -0,561;    1,409
1090,324; 1187,076;   -0,833;    0,682
1090,865; 1071,985;   -1,924;   -0,409
1091,405; 1046,348;   -0,561;    2,227
1091,946; 1075,621;   -0,197;   -0,955
1092,487;  987,439;   -1,288;   -1,409
1093,027; 1147,258;    1,803;   -1,500
1093,568;  998,803;    2,258;    1,227
1094,108; 1071,894;    0,621;    1,773
1094,649; 1032,985;   -0,470;    0,136
1095,189;  976,258;    1,167;   -0,682
1095,729;  912,348;    0,712;    0,955
1096,269;  926,894;    1,258;   -0,955
1096,810; 1235,076;   -0,197;    0,500
1097,350; 1059,439;   -0,561;   -0,773
1097,890;  953,712;    2,985;    1,227
1098,430; 1199,348;    4,985;    2,864
1098,970; 1082,530;    1,894;    1,682
1099,510;  958,894;   -0,833;   -2,318
1100,050;  874,167;    0,258;   -1,591
1100,589;  838,621;    0,076;   -0,318
1101,129;  953,803;    0,894;   -0,955
1101,669; 1085,712;    2,803;    2,136
1102,209;  922,167;    1,530;    2,227
1102,748;  883,530;    3,439;    0,955
1103,288;  863,712;    0,712;   -1,227
1103,827;  885,348;    3,530;   -2,227
1104,367;  772,076;    1,712;   -2,409
1104,906;  750,076;   -1,015;   -1,136
1105,445;  811,712;    0,985;   -1,136
1105,985;  746,076;   -0,652;    1,500
1106,524;  792,712;    1,530;   -0,682
1107,063;  759,985;    1,167;    1,409
1107,602;  749,076;    1,894;   -1,500
1108,141;  665,258;    1,621;    1,500
1108,680;  767,167;    3,985;   -0,591
1109,219;  710,712;    0,167;   -0,500
1109,758;  712,712;    4,167;    0,682
1110,297;  693,439;   -1,106;   -0,682
1110,836;  626,985;    1,439;    0,955
1111,375;  774,894;    0,348;    0,409
1111,913;  788,076;    0,985;    0,773
1112,452;  729,803;    0,894;    0,136
1112,991;  628,530;    1,076;    1,955
1113,529;  590,076;    0,167;   -0,045
1114,068;  639,894;    0,439;    2,955
1114,606;  537,076;   -0,561;   -0,955
1115,144;  695,985;    1,530;    1,045
1115,683;  640,258;    1,985;    0,318
1116,221;  689,076;    2,076;   -0,864
1116,759;  605,621;    1,621;   -0,864
1117,297;  779,530;    1,621;    1,864
1117,836;  596,894;    1,985;   -1,227
1118,374;  603,348;    0,258;   -0,682
1118,912;  547,894;    0,439;    2,682
1119,450;  527,530;    0,985;    0,864
1119,988;  587,803;    3,348;    2,136
1120,525; 1030,621;    7,258;    3,318
1121,063;  725,076;    0,530;    1,864
1121,601;  538,167;    1,076;   -1,227
1122,139;  505,712;    1,076;   -2,045
1122,676;  692,167;   -1,652;    2,773
1123,214;  631,803;    0,712;    4,409
1123,751;  440,985;    0,621;    2,227
1124,289;  578,530;    0,894;   -0,409
1124,826;  445,439;   -0,379;    0,227
1125,364;  382,076;    0,712;   -0,955
1125,901;  563,076;    6,258;    1,227
1126,438;  654,167;    3,530;    0,955
1126,975;  388,167;    2,985;   -0,773
1127,513;  451,167;    2,621;    2,136
1128,050;  361,621;   -0,561;   -0,682
1128,587;  463,258;    1,348;   -0,227
1129,124;  502,076;   -0,015;    1,318
1129,661;  374,621;   -1,924;    0,227
1130,198;  536,803;    2,439;    0,773
1130,734;  476,621;   -0,379;    1,409
1131,271;  344,439;   -1,197;    0,864
1131,808;  510,530;    1,621;    3,045
1132,345;  379,167;    4,530;    0,318
1132,881;  264,348;   -0,561;   -1,864
1133,418;  395,076;    0,348;   -1,136
1133,954;  341,985;    0,712;   -2,682
1134,491;  397,530;    1,712;   -0,773
1135,027;  305,803;    2,167;    0,864
1135,564;  388,258;    1,439;    2,955
1136,100;  368,348;   -0,742;    2,136
1136,636;  277,803;   -1,015;   -1,045
1137,172;  358,439;    0,894;   -1,045
1137,708;  288,076;   -1,561;   -1,045
1138,245;  293,712;    0,803;   -1,227
1138,781;  247,439;    1,803;   -3,318
1139,317;  301,530;    1,894;   -1,409
1139,852;  295,985;    3,076;    0,136
1140,388;  401,167;    2,076;   -0,409
1140,924;  296,985;    1,076;   -2,227
1141,460;  236,712;   -0,288;    0,136
1141,996;  172,258;   -0,652;    2,682
1142,531;  211,621;    1,076;    3,318
1143,067;  425,258;    1,167;    1,045
1143,602;  464,712;    3,439;   -0,318
1144,138;  312,621;    0,803;    1,045
1144,673;  194,712;    1,621;    1,409
1145,209;  259,258;    2,894;   -0,318
1145,744;  191,167;    0,803;    0,864
1146,279;  312,712;    1,530;   -0,136
1146,815;  244,985;    1,530;   -2,682
1147,350;  275,894;   -0,924;    0,045
1147,885;  186,894;   -1,924;   -1,318
1148,420;  197,258;    2,439;    0,773
1148,955;  166,258;   -1,470;    1,864
1149,490;  201,348;   -1,106;   -1,591
1150,025;  179,258;   -1,106;   -1,773
1150,560;  280,803;   -0,288;   -0,955
1151,094;  245,712;    0,258;   -0,591
1151,629;  252,894;   -3,742;    0,864
1152,164;  186,167;   -1,288;    1,318
1152,698;  147,894;    1,258;   -0,136
1153,233;  113,076;   -1,379;   -0,682
1153,767;  163,258;   -0,288;   -2,318
1154,302;  202,076;   -0,379;    1,773
1154,836;  200,258;    0,803;   -2,136
1155,371;  252,712;    2,258;    3,682
1155,905;  208,076;    1,985;    1,682
1156,439;  173,712;    0,530;   -0,500
1156,973;  199,258;    0,439;    0,318
1157,507;  136,621;   -1,742;    0,682
1158,042;  163,258;   -0,652;    1,045
1158,576;  211,258;   -0,561;    1,773
1159,110;  203,439;    0,076;    2,409
1159,643;  173,530;   -2,470;   -0,045
1160,177;  119,894;   -2,015;    1,500

