
Integration time [ms]:   0,050
Averaging Nr. [scans]: 11
Smoothing Nr. [pixels]: 0
Data measured with spectrometer [name]: 7318044SP
Wave   ;Sample   ;Dark     ;Reference
[nm]   ;[counts] ;[counts] ;[counts] 

186,757;    0,825;   38,161;    1,318
187,357;   38,009;   26,706;    0,955
187,958;   15,760;   17,252;   -1,591
188,558;   58,250;   12,979;   -1,227
189,159;   33,144;   10,070;   -4,500
189,759;    4,912;    5,797;   -3,591
190,360;    6,973;    6,797;   -2,136
190,960;   40,312;    5,706;   -4,136
191,560;   53,454;    2,614;   -6,591
192,161;  299,312;    5,885;   -3,500
192,761;  137,947;    5,520;   -3,227
193,361;   92,430;    3,065;   -3,773
193,962;  150,990;    1,612;   -2,682
194,562;   70,966;   -0,114;   -3,955
195,162;  111,376;   -0,567;   -2,227
195,762;  277,187;    2,433;   -0,045
196,362;  217,363;    1,706;   -2,500
196,963;   83,830;    1,706;   -0,864
197,563;  160,719;    1,252;   -0,955
198,163;  100,905;   -0,111;   -0,682
198,763;  130,690;   -0,020;   -0,500
199,363;  241,518;    3,616;   -0,500
199,963;  196,806;    2,162;    0,409
200,563;  173,850;    6,344;   -1,409
201,163;  156,938;    5,435;   -0,227
201,763;  247,865;    1,435;    0,318
202,363;  192,507;    0,980;    1,500
202,963;  299,813;    1,526;    1,045
203,563;  418,141;    0,344;    0,500
204,162;  265,381;    1,889;   -1,864
204,762;  255,740;    2,071;    0,591
205,362;  230,637;    0,708;    1,955
205,962;  328,378;    3,435;    1,955
206,562;  344,995;    1,889;    2,318
207,161;  305,594;    1,708;    0,318
207,761;  457,393;    4,435;    2,409
208,361;  336,320;    1,889;    1,409
208,960;  424,901;    2,889;    1,500
209,560;  518,420;    0,435;    1,591
210,160;  507,033;    5,071;    1,864
210,759;  482,194;    0,708;    1,227
211,359;  476,277;   -0,474;    1,045
211,958;  759,804;    3,526;    2,045
212,558;  844,898;    0,799;    1,864
213,157;  674,453;   -0,929;    1,500
213,757; 1142,002;    5,617;   -0,227
214,356;  847,893;    1,708;   -0,409
214,956; 1192,250;    3,526;    0,409
215,555;  821,984;    0,617;    2,136
216,154;  752,928;   -0,292;   -0,591
216,754;  781,081;    1,253;    0,773
217,353;  936,192;   -0,383;   -1,045
217,952;  795,803;    2,072;    0,318
218,552; 1028,908;    0,254;   -0,773
219,151;  940,211;   -1,110;    0,955
219,750;  941,469;    0,890;   -0,227
220,349; 1151,401;   -2,292;    1,045
220,948; 1182,152;    1,163;    1,136
221,548; 1256,547;    0,617;    1,227
222,147; 1373,237;   -1,292;   -0,409
222,746; 1660,199;    1,254;   -0,955
223,345; 1543,363;   -1,019;    0,500
223,944; 1597,958;    1,163;    0,773
224,543; 1814,495;    4,072;   -1,409
225,142; 1927,349;    1,345;    0,136
225,741; 1859,753;    1,163;    1,045
226,340; 1903,771;    1,254;   -0,955
226,939; 2408,389;    2,708;   -0,136
227,538; 2478,017;    1,163;   -0,773
228,137; 2621,873;    0,435;    0,864
228,735; 2865,767;    0,435;    1,227
229,334; 2572,465;   -0,474;   -0,227
229,933; 2975,019;    0,799;    0,591
230,532; 3109,843;   -1,201;   -0,409
231,131; 3165,215;    1,253;    0,318
231,729; 3395,128;    1,163;   -2,318
232,328; 3636,776;    0,435;   -1,500
232,927; 3761,547;    4,526;   -0,500
233,525; 3945,289;    0,981;    0,045
234,124; 4181,172;    1,890;   -1,591
234,723; 4255,471;    1,617;   -1,045
235,321; 4478,580;    1,163;    0,136
235,920; 4780,688;    2,526;   -1,227
236,518; 5095,160;    1,072;    0,318
237,117; 5382,891;    2,890;   -0,227
237,715; 5576,444;    1,163;   -0,500
238,314; 5640,796;    1,708;   -2,318
238,912; 5706,559;    0,526;   -1,409
239,510; 5813,864;    1,162;   -1,227
240,109; 6017,010;   -0,474;    3,773
240,707; 6110,230;   -0,474;    1,227
241,305; 6593,095;   -0,383;    0,136
241,904; 6859,550;   -0,292;   -2,045
242,502; 6799,048;    3,253;   -0,227
243,100; 6801,233;    3,344;   -0,955
243,698; 7106,514;    2,799;    1,682
244,297; 7321,752;   -0,656;    0,682
244,895; 7125,005;   -0,474;   -2,318
245,493; 7518,935;    2,981;   -0,591
246,091; 7621,204;    5,163;   -1,318
246,689; 7601,190;    2,163;    0,591
247,287; 7806,503;   -0,019;   -1,136
247,885; 8190,343;   -1,019;    1,227
248,483; 8346,544;   -0,201;   -0,500
249,081; 8494,405;    0,981;    1,591
249,679; 8679,472;   -1,019;    1,682
250,277; 9005,603;   -2,292;    0,864
250,875; 9008,066;    0,617;   -1,045
251,473; 9060,122;   -0,019;    0,500
252,071; 9285,272;   -0,383;    1,045
252,669; 9515,685;   -1,565;    0,318
253,267; 9874,548;    1,618;    0,773
253,864; 9785,322;    0,617;    0,682
254,462; 9554,208;    1,526;    1,591
255,060; 9627,316;    0,072;    1,318
255,658;10041,958;   -3,292;   -0,136
256,255;10537,489;   -0,201;   -2,045
256,853;10366,343;    2,345;    1,409
257,451;10402,542;    1,981;    1,864
258,048;10663,105;    2,072;    1,864
258,646;10428,102;    0,436;   -1,045
259,243;10668,433;    2,981;    2,227
259,841;10737,847;    1,799;    0,318
260,438;10578,686;    0,254;    0,864
261,036;11459,711;    0,617;    1,409
261,633;11390,533;    1,526;    2,227
262,231;11112,040;   -0,110;   -0,045
262,828;11224,063;   -0,383;    1,136
263,425;11282,166;   -1,928;   -0,591
264,023;11599,589;    1,436;    0,045
264,620;11080,527;    1,526;   -0,318
265,217;11491,064;    2,890;    3,136
265,815;11626,102;    2,527;    2,136
266,412;11362,548;    0,072;    0,136
267,009;11434,618;    0,526;    0,773
267,606;11284,466;    0,345;   -0,955
268,203;11286,078;   -0,383;   -0,591
268,801;11664,433;   -0,474;    0,591
269,398;11987,876;   -0,564;    2,500
269,995;12000,790;    0,890;    1,591
270,592;11733,591;    0,799;   -0,500
271,189;11988,002;    1,981;    0,409
271,786;12150,034;    2,072;    1,227
272,383;11952,377;   -0,383;    0,227
272,980;12216,067;    1,617;    0,318
273,577;12748,688;    2,162;    1,227
274,174;12293,054;    1,435;    2,591
274,771;12243,867;    1,890;   -0,773
275,367;12393,582;    3,253;    1,409
275,964;12382,374;   -0,565;   -0,500
276,561;12523,275;   -2,474;   -1,045
277,158;12861,199;    1,799;   -1,773
277,755;12975,768;   -0,110;    0,409
278,351;12258,269;    0,436;   -1,500
278,948;12613,082;   -0,201;    0,045
279,545;12662,395;    0,527;    2,318
280,141;13347,574;    1,254;   -2,045
280,738;13213,747;    2,435;   -0,136
281,334;13528,058;   -0,383;    0,591
281,931;12846,962;    2,890;   -1,318
282,528;12974,924;    4,072;   -0,500
283,124;13819,389;    3,345;   -0,500
283,721;13725,176;    0,709;    1,409
284,317;13506,684;    0,163;    2,500
284,913;14156,443;   -0,110;    0,591
285,510;14405,716;    2,890;   -0,318
286,106;14407,853;    2,345;   -0,955
286,703;13984,003;    0,072;    1,955
287,299;14252,029;    1,254;   -0,591
287,895;14515,744;    0,890;   -1,045
288,491;15207,513;    0,163;    2,136
289,088;14857,792;    0,163;    2,409
289,684;14930,595;    2,890;    1,500
290,280;14959,984;    1,890;    0,682
290,876;15014,114;    0,163;    5,500
291,472;14906,053;    2,163;    2,227
292,068;15011,610;    1,254;    0,227
292,665;14740,483;   -0,564;    0,773
293,261;14253,759;   -1,292;    2,136
293,857;14683,591;    4,072;    2,136
294,453;14633,277;   -0,928;    0,955
295,049;14494,995;    0,253;    1,955
295,644;14470,552;   -1,292;    0,136
296,240;14407,813;    0,162;   -0,136
296,836;14478,490;   -0,747;    0,318
297,432;14803,624;    2,980;   -0,500
298,028;14825,149;    0,435;    0,773
298,624;15307,716;    0,889;    1,864
299,220;15629,185;    0,435;    0,591
299,815;15254,522;    0,526;   -0,409
300,411;15003,995;    0,435;    1,773
301,007;15072,924;    1,889;    0,227
301,602;15176,666;    2,071;   -2,318
302,198;15304,686;    1,435;   -0,773
302,794;15693,924;    1,526;   -0,500
303,389;15878,786;    1,071;    1,045
303,985;15919,431;    1,253;    1,409
304,580;15914,000;    0,889;    1,591
305,176;15917,323;    0,344;    0,136
305,771;15861,763;   -0,929;   -1,227
306,367;15579,013;    3,071;    0,136
306,962;16065,120;    2,889;    1,500
307,558;15791,050;    2,435;    0,136
308,153;15727,520;   -0,383;   -1,136
308,748;15992,305;    0,162;    1,682
309,344;15971,866;    0,253;   -1,318
309,939;16012,678;    2,071;   -1,318
310,534;16401,499;   -2,020;   -1,682
311,130;16385,390;   -0,656;   -2,500
311,725;16056,872;    0,526;   -0,500
312,320;16409,206;    1,253;    0,045
312,915;16255,241;    2,890;   -1,045
313,510;16337,467;    0,526;   -0,500
314,105;16939,437;   -3,565;    1,409
314,700;16284,463;   -1,656;   -1,045
315,295;15814,545;   -0,020;    0,045
315,890;15327,364;   -0,292;    0,864
316,485;15733,992;    0,253;   -0,318
317,080;15813,695;   -0,929;    1,591
317,675;16471,402;    3,071;   -0,682
318,270;15709,759;    6,889;    3,318
318,865;15745,926;    2,435;    3,045
319,460;15605,085;   -1,565;    0,591
320,055;15877,577;   -2,565;   -1,227
320,650;15490,559;   -1,838;   -0,591
321,244;15494,287;    0,889;   -1,409
321,839;16575,235;    0,980;   -0,227
322,434;16504,478;   -0,111;   -1,591
323,029;16037,777;   -0,474;    1,591
323,623;15864,033;    0,798;    0,773
324,218;15580,310;    2,707;    1,409
324,812;15510,211;    0,889;    1,591
325,407;15264,994;   -0,929;    2,045
326,002;15142,261;    0,526;   -0,409
326,596;15466,238;   -0,656;    1,318
327,191;15819,824;   -0,383;   -1,045
327,785;15319,874;   -0,747;   -0,227
328,379;15546,587;   -0,383;    0,136
328,974;15354,895;    1,798;   -3,955
329,568;15568,352;    2,889;   -2,409
330,163;15346,023;    2,435;    1,045
330,757;15760,455;    0,253;    1,591
331,351;15039,783;   -0,292;    0,682
331,945;15307,273;   -0,383;    1,409
332,540;14825,616;    1,617;   -0,591
333,134;14985,722;    3,344;    0,773
333,728;15261,217;    2,799;    0,318
334,322;15660,774;    0,889;   -0,864
334,916;14849,121;    0,344;    0,955
335,510;15174,335;   -0,111;   -0,136
336,105;15495,642;   -0,929;    1,591
336,699;15151,115;   -1,292;    0,591
337,293;15058,966;    1,071;    0,318
337,887;15217,786;    0,071;    1,955
338,481;15296,637;    2,980;    0,591
339,074;15475,743;    2,071;    2,682
339,668;15253,634;   -0,110;    1,227
340,262;15491,045;    7,708;    3,227
340,856;15048,869;    1,708;   -0,682
341,450;14262,057;    0,708;    1,864
342,044;15262,329;    1,799;    0,136
342,637;15011,101;    1,162;   -2,136
343,231;14832,339;   -1,474;    0,682
343,825;14791,827;   -0,747;   -0,591
344,419;14720,724;   -0,474;    0,500
345,012;14391,173;    2,889;    4,045
345,606;14406,504;   -0,656;    1,591
346,199;14241,894;   -0,111;   -0,227
346,793;13649,058;    2,525;    2,045
347,386;13887,434;    0,889;   -1,136
347,980;13904,008;   -0,838;   -0,045
348,573;13646,374;   -1,748;    0,409
349,167;13198,075;    6,161;    4,773
349,760;13599,048;    2,252;    2,682
350,354;13587,666;    1,616;    1,136
350,947;13259,555;    2,798;    1,682
351,540;12880,288;    0,616;   -1,409
352,134;12808,629;   -1,111;    1,136
352,727;12850,571;   -0,657;    1,136
353,320;12654,374;    2,343;    0,591
353,913;12510,770;   -1,929;    1,864
354,507;12675,480;    0,434;   -1,227
355,100;12682,755;    0,071;    0,864
355,693;11729,394;    4,798;    2,409
356,286;11783,069;    0,980;    2,773
356,879;12177,259;   -0,475;    1,227
357,472;11721,430;    0,980;    1,500
358,065;11934,069;    3,161;    2,500
358,658;11865,427;    0,798;    2,318
359,251;11437,820;    0,252;   -0,591
359,844;10807,843;    0,343;   -1,136
360,437;10959,295;    0,252;    0,045
361,030;11303,421;    0,525;   -0,682
361,623;10812,969;    0,434;    0,318
362,215;10835,423;    0,979;    2,045
362,808;10667,875;   -2,293;   -1,682
363,401;10846,634;    0,798;    0,136
363,994;10558,830;    3,252;   -1,500
364,586;10473,531;    0,888;   -1,500
365,179;10737,756;   -0,203;   -1,136
365,772;10129,174;   -0,930;    2,045
366,364;10437,938;    1,524;   -3,227
366,957;10657,263;    1,342;   -0,045
367,549;10664,212;   -0,203;   -0,864
368,142;10236,845;    0,978;   -1,500
368,734;10483,510;    2,523;   -2,136
369,327;10411,049;    2,341;   -0,500
369,919;10354,893;   -1,659;    0,409
370,512;10072,951;   -1,023;   -0,500
371,104; 9757,380;    2,704;    1,591
371,696; 9940,008;    1,703;   -0,955
372,289;10057,048;    0,157;    1,136
372,881;10230,171;    1,156;    1,318
373,473;10167,351;    4,064;    1,136
374,066; 9925,160;    1,336;    0,500
374,658; 9744,266;    0,879;    1,136
375,250;10163,898;   -1,668;   -1,409
375,842; 9972,649;   -0,124;   -0,045
376,434; 9810,401;   -2,762;   -0,409
377,026;10505,131;   -1,855;   -2,500
377,618;10414,331;    0,779;   -0,682
378,210;10241,593;    3,141;   -1,955
378,802;10053,859;    3,412;   -0,591
379,394; 9971,244;    3,411;    0,682
379,986;10700,588;    1,138;   -0,955
380,578;10826,687;    1,410;    0,773
381,170; 9988,601;    0,320;    0,045
381,762; 9952,768;   -0,224;    1,409
382,354;10236,531;   -0,223;   -1,318
382,945;10354,283;    0,870;    0,318
383,537;10541,294;    1,144;   -1,955
384,129;10503,854;    0,963;   -1,136
384,721;10743,474;    0,418;    0,955
385,312;10688,355;   -1,399;   -0,955
385,904;10760,697;   -0,945;    1,591
386,496;10035,562;    0,691;    1,045
387,087;10199,757;    0,418;    2,500
387,679;10266,240;   -0,401;    0,045
388,270;10427,175;   -2,401;    2,045
388,862;10538,900;   -0,401;   -0,318
389,453;10409,571;    1,054;    1,045
390,045;10699,990;    3,236;   -2,682
390,636;10684,468;    0,144;   -0,591
391,227;10528,876;    2,054;   -0,045
391,819;10580,399;    0,781;    0,773
392,410;10660,261;    0,600;    0,045
393,001;10594,521;    1,600;   -1,591
393,593;10942,776;    0,600;   -0,045
394,184;10757,823;    0,873;   -0,409
394,775;10704,418;    1,146;    2,136
395,366;10914,673;    1,782;    0,773
395,957;10981,053;   -2,400;    0,136
396,548;11362,344;    1,054;    2,682
397,139;11657,302;    2,236;    0,591
397,730;11324,699;    0,873;    0,955
398,321;11384,142;    0,509;    0,955
398,912;11454,113;   -0,764;    0,136
399,503;11562,937;   -1,945;   -1,409
400,094;10915,935;   -1,582;    1,682
400,685;10761,301;    3,600;    0,045
401,276;10863,729;   -0,400;   -0,955
401,867;11212,644;   -1,127;    0,773
402,458;11305,755;    1,509;   -2,318
403,048;11298,020;    0,146;    0,591
403,639;10836,382;    1,509;    0,864
404,230;11088,902;    0,691;    0,318
404,821;11023,937;   -0,127;    0,045
405,411;11158,873;   -0,763;   -2,591
406,002;10672,084;    3,237;   -1,136
406,592;10395,088;    2,691;    0,045
407,183;10793,244;    0,328;   -1,500
407,774;10713,654;    1,419;   -0,136
408,364;11092,850;    2,600;    0,409
408,954;10637,067;   -0,036;    1,227
409,545;10650,933;    1,873;    1,045
410,135;10154,616;   -1,581;    0,500
410,726;10384,022;    0,783;    0,318
411,316;10764,913;    2,237;    0,773
411,906;10413,908;    0,146;   -0,409
412,497; 9807,854;   -0,490;   -0,045
413,087;10498,590;    0,783;   -0,227
413,677;10964,603;   -2,490;    3,864
414,267;10786,873;   -1,035;    1,409
414,857;10782,052;    0,419;    4,227
415,448;11083,608;   -0,763;    0,500
416,038;10744,626;   -2,945;   -0,591
416,628;10730,650;    0,965;    0,409
417,218;10100,729;   -1,762;    3,318
417,808;10386,635;    0,965;   -0,409
418,398;10952,867;   -1,035;    2,682
418,988;11016,724;   -2,217;    0,591
419,578;11282,201;    3,601;    1,409
420,168;11699,573;    0,692;   -0,955
420,757;11185,643;    0,964;   -1,500
421,347;10847,683;    1,601;   -0,227
421,937;11018,674;    3,329;    1,409
422,527;10904,683;    2,602;   -0,773
423,116;10730,251;    2,692;   -0,045
423,706;11193,771;    2,965;    0,318
424,296;11175,196;    1,601;    0,682
424,885;11593,014;    1,510;   -3,045
425,475;11963,143;    1,147;   -2,864
426,065;11883,786;   -1,489;   -0,318
426,654;11463,004;    0,329;   -0,318
427,244;11552,692;    1,147;    1,409
427,833;10908,680;    1,056;   -0,500
428,423;11511,080;    0,147;    1,136
429,012;12392,203;    2,420;   -1,136
429,601;11805,717;    2,057;    0,136
430,191;12088,370;    2,511;    4,318
430,780;11658,983;   -1,671;   -0,409
431,369;11524,004;    1,329;   -0,045
431,959;12277,113;    1,693;    0,500
432,548;12076,828;   -1,398;   -0,045
433,137;12232,096;    0,329;   -1,318
433,726;12802,327;    0,148;    0,500
434,315;12084,969;    0,148;    2,409
434,905;12183,228;    0,693;    1,409
435,494;12055,970;    3,148;    0,955
436,083;12574,093;    1,420;   -0,955
436,672;12416,632;    1,148;    0,500
437,261;11899,738;    0,512;   -1,955
437,850;12007,556;   -1,125;    0,682
438,439;11972,792;    2,239;    1,955
439,027;11771,364;    3,421;    1,773
439,616;12218,238;    2,239;    1,227
440,205;12125,197;    0,057;   -2,136
440,794;12221,584;   -0,306;   -0,045
441,383;12535,007;    1,603;   -0,591
441,971;12389,130;   -0,306;    0,591
442,560;12193,972;    0,603;   -1,773
443,149;12008,694;    3,060;   -1,318
443,737;12158,215;    0,968;   -2,318
444,326;12391,471;    0,331;    0,318
444,915;12449,342;   -1,851;    0,864
445,503;12935,180;    0,058;   -0,318
446,092;12104,207;    7,876;    2,136
446,680;12739,336;    1,876;    0,318
447,269;12933,797;   -1,487;   -0,318
447,857;12657,545;    2,240;   -1,773
448,445;12794,592;    2,149;    1,318
449,034;13018,085;    0,876;   -1,136
449,622;13174,827;    1,240;    3,500
450,210;12255,913;    3,149;    2,227
450,799;12836,288;    2,604;   -0,591
451,387;12814,168;    1,786;   -0,591
451,975;12381,825;   -1,305;    0,864
452,563;12488,434;    0,422;    2,318
453,151;12548,133;   -1,032;   -1,227
453,739;12435,336;   -1,577;    0,136
454,328;12261,746;    0,604;   -2,136
454,916;11919,744;    1,150;   -0,136
455,504;12137,104;    3,513;    1,227
456,092;12350,858;    2,150;   -1,591
456,679;12353,957;    0,604;    0,682
457,267;12151,887;    3,604;    1,045
457,855;12403,301;    3,241;    1,409
458,443;12172,835;   -0,304;    1,682
459,031;12275,706;    1,332;    2,409
459,619;12787,571;   -3,577;    2,864
460,206;13027,466;   -0,759;    2,045
460,794;13073,252;   -0,668;   -0,227
461,382;13352,273;    0,878;   -0,864
461,970;12880,203;    0,605;    1,864
462,557;12894,754;    0,878;   -0,682
463,145;13152,284;   -0,304;   -1,682
463,732;13320,845;    2,514;   -1,045
464,320;13230,142;    1,514;   -3,045
464,907;12825,975;    0,423;   -0,773
465,495;12703,553;    2,696;   -1,227
466,082;12868,951;    2,060;   -0,045
466,670;12811,283;    2,605;    1,227
467,257;13251,339;    0,060;    2,045
467,844;13418,779;    1,514;    0,045
468,432;13400,509;   -0,031;    3,500
469,019;12831,430;    1,606;   -1,773
469,606;13341,160;    0,969;    3,682
470,193;13125,381;    2,151;    0,227
470,780;12655,102;    0,333;    0,864
471,368;13042,765;   -1,212;   -0,773
471,955;12759,360;    1,060;   -0,682
472,542;12345,141;   -0,303;   -1,136
473,129;12619,777;   -0,485;    0,136
473,716;12344,002;    0,060;    0,591
474,303;12581,850;    1,333;   -0,864
474,890;12959,484;    2,333;   -0,500
475,477;12899,458;   -0,576;    0,409
476,064;12823,429;    0,697;   -1,591
476,650;12777,048;    2,152;    0,318
477,237;12637,230;    1,879;    0,955
477,824;12792,898;    3,879;    0,864
478,411;12844,840;    0,606;   -0,318
478,997;13049,450;    0,606;   -0,773
479,584;13113,401;   -0,666;   -0,409
480,171;13921,316;    1,243;   -0,773
480,757;13569,020;   -0,848;    0,773
481,344;13897,037;    0,334;    0,409
481,931;13410,373;   -0,393;    1,045
482,517;14509,692;    0,425;    0,318
483,104;15270,002;    1,334;    2,864
483,690;15678,046;    0,243;    0,045
484,276;16157,132;    0,698;    0,227
484,863;15935,032;    2,152;    1,136
485,449;16575,669;    0,152;    0,318
486,035;16569,581;   -0,666;   -0,136
486,622;17080,363;   -2,393;    0,045
487,208;17000,806;    1,334;    1,500
487,794;16864,211;    0,971;    0,318
488,380;16956,056;    0,698;   -1,409
488,967;17049,811;   -1,120;   -0,409
489,553;17065,975;   -1,029;   -1,409
490,139;17248,514;    0,971;    0,773
490,725;16606,224;    0,789;   -0,227
491,311;16085,297;    1,516;    3,045
491,897;15168,432;   -0,665;    1,500
492,483;14920,403;    0,426;    1,227
493,069;14515,910;    5,426;    0,864
493,655;14513,315;    1,789;    0,682
494,241;14446,116;    1,517;   -0,955
494,826;14930,596;    0,335;   -1,045
495,412;14324,904;    0,335;   -0,682
495,998;14515,653;    0,971;   -0,318
496,584;14671,407;    2,244;    1,045
497,169;14657,260;    2,335;   -0,682
497,755;14573,117;    1,244;    1,227
498,341;15175,791;    2,153;    0,318
498,926;14702,718;    2,881;    1,955
499,512;14955,550;   -0,028;    2,955
500,097;15182,687;   -0,574;   -0,318
500,683;15084,510;   -0,028;    2,136
501,268;15458,211;    1,881;   -0,955
501,854;15140,898;   -0,119;    1,227
502,439;15078,218;   -0,573;   -1,773
503,024;15283,344;    1,608;    0,500
503,610;15355,426;    1,335;   -0,682
504,195;15387,713;    1,245;    1,955
504,780;15480,179;    2,335;    1,227
505,366;15234,091;    4,063;    2,864
505,951;14935,732;   -1,119;    1,045
506,536;14988,588;    1,427;   -3,682
507,121;14984,174;    1,699;   -0,318
507,706;15533,037;   -0,392;    1,045
508,291;15979,928;   -2,937;    1,136
508,876;15448,862;   -0,482;    2,591
509,461;14837,736;    1,427;   -0,773
510,046;15254,258;   -0,391;    0,318
510,631;15478,099;   -0,119;   -0,773
511,216;15183,996;   -0,664;   -0,500
511,801;15572,506;   -0,755;    2,591
512,386;15880,181;    0,972;    0,500
512,971;15814,319;    0,427;    0,955
513,555;15317,460;    1,154;   -1,500
514,140;16169,780;    1,336;   -3,136
514,725;16206,033;    1,791;   -1,136
515,309;16337,308;    1,064;    0,318
515,894;15720,713;   -0,300;   -2,227
516,479;16215,860;    1,973;   -0,955
517,063;16059,182;    0,882;    1,227
517,648;16212,968;    0,155;   -1,136
518,232;15817,541;   -1,300;   -1,409
518,817;16136,353;    1,337;    1,682
519,401;16377,139;    0,700;    0,591
519,985;15849,840;    2,700;    1,136
520,570;15724,594;   -0,118;   -1,955
521,154;16080,128;    0,064;    0,591
521,738;16270,903;    1,064;    2,409
522,323;16851,403;   -0,390;    1,682
522,907;16610,914;    2,428;   -0,136
523,491;16314,231;    1,155;    0,955
524,075;16263,498;    0,428;    0,591
524,659;16391,193;    0,973;    0,591
525,243;15778,196;    0,883;    0,409
525,827;15998,023;    0,883;   -0,045
526,411;16944,374;    1,155;   -0,136
526,995;17214,395;    0,337;    1,409
527,579;16755,029;    1,974;   -1,045
528,163;17074,390;    0,428;   -1,500
528,747;17010,953;    1,065;   -0,773
529,331;17359,733;    0,883;   -1,409
529,915;17583,637;    2,338;    0,955
530,499;17518,147;    0,247;    1,227
531,082;17182,182;    1,065;    1,591
531,666;16551,626;    0,520;    0,773
532,250;17360,220;    0,428;    2,682
532,833;17743,062;    0,610;    2,773
533,417;17600,218;    1,247;    0,864
534,001;17546,169;    0,429;   -0,318
534,584;18319,239;    1,974;    0,500
535,168;18172,210;    3,247;    1,409
535,751;18223,585;    4,520;    0,045
536,334;17629,626;    4,520;   -0,409
536,918;18321,617;    1,974;    1,591
537,501;18428,550;    1,520;    1,318
538,085;18427,380;    1,702;    1,045
538,668;18577,465;    0,883;    2,409
539,251;18926,823;    3,156;    3,773
539,834;18936,946;    0,156;    0,773
540,418;18859,665;    3,247;    4,318
541,001;19004,694;    2,702;    1,773
541,584;19061,895;    1,429;    2,227
542,167;18710,850;    0,702;    2,955
542,750;18961,199;    0,793;   -0,773
543,333;18495,194;    1,429;    2,136
543,916;19276,361;   -0,298;    2,500
544,499;19987,109;    2,520;    0,227
545,082;19978,208;    0,248;    3,591
545,665;20179,126;   -0,207;    1,500
546,248;20532,012;    0,520;   -0,318
546,830;20180,722;   -1,752;    1,955
547,413;20656,479;    0,157;   -0,773
547,996;21252,816;    0,157;    0,500
548,579;20956,849;   -0,843;    0,955
549,161;20783,494;    0,884;    2,682
549,744;20533,527;    0,612;    0,409
550,326;21101,465;    0,885;   -1,136
550,909;20860,545;    2,339;    0,591
551,492;21265,013;    0,521;    0,227
552,074;21014,516;   -0,024;   -1,318
552,657;21679,768;    2,430;    0,045
553,239;21386,296;   -3,024;   -0,773
553,821;21320,638;   -1,570;    1,045
554,404;20778,900;   -0,024;    1,136
554,986;21205,894;    2,248;    1,045
555,568;21841,331;    0,430;   -0,955
556,151;20976,871;    4,067;   -0,227
556,733;21197,730;   -1,388;   -0,864
557,315;21733,836;    4,703;    0,500
557,897;21522,197;    0,521;   -0,500
558,479;21672,716;    1,703;    1,318
559,061;21847,156;    1,067;   -0,864
559,643;22165,825;   -0,297;    0,045
560,225;22531,613;   -0,388;    2,864
560,807;22604,915;    0,340;    0,318
561,389;22066,787;   -1,206;    2,318
561,971;22873,254;   -0,660;    2,136
562,553;22667,752;    0,613;    1,591
563,135;22775,652;    1,249;    1,136
563,717;22426,147;    3,158;    1,136
564,298;23233,784;    3,976;   -0,045
564,880;22939,835;    0,340;   -1,409
565,462;23112,108;    1,977;    1,318
566,043;24434,476;   -0,933;    2,318
566,625;23943,553;    4,067;    1,227
567,207;23833,999;    0,704;    1,682
567,788;25122,527;   -0,114;    1,500
568,370;26038,768;   -1,841;   -0,500
568,951;25900,412;   -0,569;    0,227
569,533;26901,610;    0,977;   -0,500
570,114;27452,098;   -0,296;    0,682
570,695;28045,944;   -0,478;   -1,318
571,277;28712,574;   -0,205;   -1,682
571,858;29587,463;    2,704;   -1,136
572,439;30656,782;    0,795;   -1,045
573,021;30911,323;    0,432;   -2,773
573,602;31466,587;    1,795;    0,318
574,183;32538,197;   -0,114;    2,227
574,764;32837,754;    2,068;    0,409
575,345;33494,006;    0,250;   -0,136
575,926;34225,276;    2,704;    0,136
576,507;34234,663;    2,704;   -0,227
577,088;35384,628;    1,704;    1,682
577,669;35469,235;    1,704;    1,955
578,250;36310,197;   -0,750;   -1,045
578,831;37129,388;   -0,841;   -2,227
579,412;37529,502;   -1,205;    0,955
579,993;38529,783;    1,432;    0,227
580,573;38869,924;   -0,023;   -0,955
581,154;37716,194;    1,613;   -0,591
581,735;38701,640;    0,341;    0,773
582,315;38101,821;    0,523;    2,136
582,896;38441,572;   -1,750;    1,227
583,477;37840,652;    0,614;    1,227
584,057;38005,930;    1,159;    0,955
584,638;38369,056;   -2,750;    2,318
585,218;38354,446;    2,886;    2,682
585,799;38476,637;    1,977;   -0,227
586,379;38459,446;    1,250;    1,591
586,959;37096,904;    2,613;    0,318
587,540;36285,875;    0,432;    2,227
588,120;35670,503;   -1,113;   -0,045
588,700;34466,473;    2,977;    2,136
589,281;34753,036;    1,250;   -0,955
589,861;34662,432;   -0,296;   -1,682
590,441;34473,429;   -1,477;   -2,682
591,021;33343,405;    1,432;   -2,591
591,601;33579,014;    0,431;    0,500
592,181;33560,082;   -1,296;   -0,773
592,761;32767,303;    2,250;    1,409
593,341;32665,217;    1,522;    0,045
593,921;32552,047;   -0,569;    1,591
594,501;32363,575;    1,250;    1,318
595,081;32232,507;    0,522;   -0,318
595,661;32617,724;    1,068;    0,955
596,240;33136,413;   -1,023;    0,136
596,820;32742,897;    2,613;    1,955
597,400;33022,534;    1,977;    0,773
597,980;33259,967;   -0,750;    1,045
598,559;33292,581;    0,341;   -0,227
599,139;32941,396;   -0,750;   -1,227
599,718;32784,123;    0,795;   -0,409
600,298;33037,252;   -2,387;    0,682
600,877;33244,557;    4,795;    1,409
601,457;33557,586;    0,340;    1,136
602,036;33454,000;    1,795;    2,045
602,616;33705,862;    2,250;    1,682
603,195;34047,662;    0,431;    3,500
603,774;33571,260;   -0,296;    2,045
604,354;33479,073;    2,522;   -0,500
604,933;32847,970;    0,250;    1,864
605,512;32970,627;    2,340;    0,591
606,091;33021,433;    1,886;    3,773
606,671;33912,383;    0,249;    0,773
607,250;32870,776;    1,431;    3,136
607,829;33150,984;    1,158;    3,227
608,408;33032,823;    4,613;    2,591
608,987;32028,913;    2,704;    3,409
609,566;32295,012;    0,341;   -2,500
610,145;32379,391;    2,885;    0,682
610,723;32801,485;    1,613;    6,864
611,302;31952,599;    1,067;    1,682
611,881;31373,626;    5,158;   11,227
612,460;32240,453;    0,795;    3,955
613,039;32691,285;    1,703;    2,045
613,617;31331,714;    0,886;    4,773
614,196;31568,215;    1,613;    1,227
614,775;31847,130;    1,249;    2,409
615,353;31788,751;   -1,660;    0,864
615,932;31469,942;    0,249;    2,409
616,510;32089,843;    0,158;    0,591
617,089;31502,769;    8,794;   17,591
617,667;31224,775;    4,885;    6,136
618,246;30944,816;   -1,115;    1,318
618,824;31145,476;    1,612;   -0,955
619,402;30779,672;    0,431;   -1,773
619,981;31259,481;    1,067;   -1,045
620,559;31122,405;    0,794;    1,682
621,137;30609,003;    3,067;    1,864
621,715;30544,643;    3,703;   -0,682
622,293;30459,317;    1,885;   -0,773
622,871;30946,927;    0,340;    0,500
623,450;30496,316;    0,430;   -0,864
624,028;30391,243;   -0,388;   -0,955
624,606;29951,026;    2,339;    1,682
625,183;30311,149;   -0,661;   -1,136
625,761;29943,407;    1,885;    1,136
626,339;30276,701;    2,339;    2,591
626,917;30666,826;    0,339;   -0,045
627,495;30682,451;    2,794;    1,318
628,073;30094,811;    5,248;    2,864
628,650;29771,583;    3,067;    2,136
629,228;30198,566;    1,248;    4,409
629,806;29539,521;   -0,024;    1,136
630,383;29765,509;    0,066;   -0,318
630,961;29523,102;   -2,206;   -0,955
631,539;29253,172;   -2,479;    0,227
632,116;28433,738;   12,703;   15,409
632,694;29069,175;    4,885;    6,500
633,271;29397,195;    1,975;    2,682
633,848;29271,582;    1,430;    2,045
634,426;29326,285;    1,521;    1,773
635,003;28396,267;   -0,207;   -0,409
635,580;28747,572;    1,884;    3,682
636,158;29359,039;    3,793;    1,227
636,735;29307,503;    3,339;   -0,500
637,312;29463,893;    0,521;   -0,682
637,889;29554,995;    2,248;   -0,682
638,466;29008,666;    0,066;   -0,409
639,043;28973,639;    1,702;   -1,136
639,620;29281,316;    0,611;   -0,955
640,197;29685,878;    1,612;    1,682
640,774;29808,869;    1,430;    1,136
641,351;30226,496;    0,612;    1,136
641,928;29598,760;    2,794;    1,409
642,505;29235,751;    0,794;   -0,500
643,082;29310,651;    1,885;    1,227
643,658;28303,188;    1,157;    1,500
644,235;29087,724;   -2,479;    2,500
644,812;29361,897;    1,794;    0,773
645,388;29132,524;    1,612;    1,409
645,965;29235,606;    1,521;    1,682
646,542;29292,597;    3,430;   -0,227
647,118;29255,315;    3,703;   -0,955
647,695;29546,579;    0,339;    1,136
648,271;29481,934;   -2,115;    0,500
648,848;29833,107;    0,248;    2,227
649,424;29639,734;    0,976;    1,318
650,000;29399,543;   -0,388;   -1,045
650,577;29236,079;    0,158;   -0,955
651,153;29729,980;   -1,115;    0,955
651,729;30769,971;    0,521;    0,864
652,305;31137,507;    1,339;    2,773
652,881;36492,316;   -1,297;    1,136
653,458;44686,671;    0,249;    0,227
654,034;49395,207;    0,703;    1,591
654,610;51229,562;    0,339;    0,773
655,186;52786,280;    1,612;    3,045
655,762;52423,544;   -1,842;    0,409
656,338;52570,898;    0,703;    0,136
656,913;53667,162;   -0,297;    0,409
657,489;52902,335;    0,249;   -0,318
658,065;52768,690;    0,794;   -1,591
658,641;53301,590;    2,158;   -0,864
659,217;52489,490;    2,067;    0,409
659,792;51854,390;   -1,751;   -0,409
660,368;52161,654;   -0,388;   -0,682
660,944;51678,554;    1,794;    1,227
661,519;46284,908;    0,522;    0,409
662,095;38899,899;   -0,206;    0,591
662,670;33315,799;   -0,206;   -0,136
663,246;31855,427;   -0,660;   -0,409
663,821;31032,872;    0,431;    1,682
664,396;30484,409;    0,613;    1,864
664,972;30769,945;   -0,660;   -0,500
665,547;31140,663;    3,794;    0,136
666,122;31093,382;    1,340;    0,318
666,698;31408,827;    2,431;    0,318
667,273;30696,636;    0,885;    0,136
667,848;31562,991;    0,340;    1,500
668,423;31313,346;    1,795;    2,318
668,998;31935,428;    0,976;   -0,682
669,573;32582,782;    2,067;   -1,500
670,148;32355,228;    1,885;   -0,682
670,723;32195,582;   -0,024;    0,318
671,298;32648,664;   -1,296;    1,045
671,873;32779,564;   -0,296;   -0,136
672,448;32706,555;    1,704;    0,136
673,023;33064,274;    0,249;   -0,227
673,597;33439,356;    2,704;    2,318
674,172;33172,801;    2,431;    0,318
674,747;32662,792;   -0,205;   -1,045
675,321;32514,147;   -0,933;    3,318
675,896;31998,683;    2,158;    1,045
676,471;33059,310;    2,522;    1,591
677,045;32785,665;   -0,296;    0,682
677,620;32823,656;    2,158;    1,136
678,194;33248,556;    0,249;    1,136
678,769;32777,184;    0,886;   -0,318
679,343;32954,084;   -0,023;    1,773
679,917;32849,711;    0,340;    1,955
680,492;32963,247;    0,249;    3,227
681,066;33206,511;    0,613;    0,409
681,640;33213,593;    1,795;   -0,318
682,214;34054,039;    2,340;    0,500
682,788;33478,666;    0,613;   -0,773
683,363;33465,930;    1,977;    1,682
683,937;33149,193;    0,886;   -0,318
684,511;34019,003;   -1,023;   -0,591
685,085;33699,721;   -1,478;    0,318
685,659;33410,894;    1,431;    0,864
686,232;33695,521;    1,159;   -0,318
686,806;33432,239;    2,159;    0,409
687,380;34117,503;   -1,932;    0,591
687,954;34298,676;    2,432;    1,136
688,528;33955,939;    2,613;    1,955
689,101;34764,021;    0,432;    1,045
689,675;34345,831;    0,886;   -0,136
690,249;33677,094;    3,432;    0,409
690,822;34058,449;    1,159;    0,318
691,396;34123,440;    2,068;    1,227
691,969;33523,613;    2,523;    0,136
692,543;34004,058;   -0,568;   -1,955
693,116;33638,595;   -0,659;   -1,409
693,690;33442,313;   -0,296;    0,500
694,263;33988,213;    2,341;    2,955
694,836;34054,295;    2,795;    3,591
695,410;32660,740;    1,159;    1,773
695,983;33169,913;    1,614;    0,591
696,556;33097,632;   -0,750;   -1,045
697,129;33486,259;   -1,114;    1,409
697,703;33088,613;    1,341;    1,955
698,276;33048,150;    1,705;   -0,773
698,849;32851,141;   -1,023;    1,409
699,422;33245,041;    1,250;    0,591
699,995;32935,214;   -0,659;    0,136
700,568;33439,296;   -0,204;    3,045
701,140;33448,196;   -1,841;    1,682
701,713;33126,550;    0,341;    2,409
702,286;32945,814;    0,796;    0,864
702,859;32791,532;    0,614;   -0,591
703,432;31871,978;   -0,841;    0,682
704,004;32451,787;    1,978;    0,318
704,577;32343,233;    1,068;    0,136
705,150;32930,769;    0,887;    2,500
705,722;32686,124;    1,523;   -3,227
706,295;32420,569;    1,432;   -0,591
706,867;32246,742;    0,250;    1,955
707,440;32502,097;   -0,113;   -0,409
708,012;32772,270;   -0,022;    0,591
708,584;32698,624;    2,705;    0,227
709,157;33033,524;    1,160;   -0,591
709,729;32627,879;    1,069;    2,045
710,301;33533,506;   -1,204;    0,045
710,874;33508,043;    0,341;   -0,227
711,446;32335,579;   -0,295;    0,864
712,018;32260,206;   -3,022;    0,500
712,590;31960,652;   -0,204;    1,682
713,162;32557,825;   -0,477;    1,318
713,734;32828,907;    1,796;   -2,045
714,306;32643,807;    0,342;   -0,409
714,878;31250,525;   -0,295;    0,864
715,450;32064,061;   -0,113;    0,864
716,022;32359,780;    2,433;    1,318
716,593;32538,498;    0,978;    0,591
717,165;32400,034;    1,796;   -1,227
717,737;32105,935;    0,796;    0,409
718,309;31757,926;    1,160;   -0,045
718,880;31722,735;   -1,295;   -1,409
719,452;32000,817;    0,887;   -1,591
720,024;31468,808;    1,705;   -0,591
720,595;31993,162;    2,978;    0,955
721,167;31557,517;    1,160;   -2,045
721,738;31059,326;    2,069;   -1,045
722,309;30898,135;    1,251;   -1,227
722,881;30709,399;    2,705;    0,773
723,452;31453,026;    1,251;    2,864
724,023;31630,108;    1,524;    2,682
724,595;31369,008;    2,342;    0,682
725,166;31103,727;    1,524;   -0,409
725,737;30715,990;    1,887;    0,227
726,308;30770,163;    0,797;    0,318
726,879;31220,154;    1,069;    1,227
727,450;31136,418;   -2,022;   -0,045
728,021;31138,591;    1,069;    0,682
728,592;30963,491;    1,160;    0,500
729,163;31286,300;    1,433;   -0,136
729,734;31276,564;    2,160;   -0,227
730,305;31608,009;    0,615;    0,136
730,876;31980,455;    0,888;    2,955
731,447;31663,991;    0,797;    2,682
732,017;31786,346;   -0,840;    1,864
732,588;31257,428;   -0,021;    1,227
733,159;31469,328;    3,615;   -1,045
733,729;31347,682;    1,251;    0,409
734,300;30545,582;    0,160;    0,864
734,870;31010,301;   -1,385;    0,591
735,441;31571,383;    0,888;   -0,591
736,011;31283,646;    1,070;   -1,591
736,582;31276,728;    1,251;    0,045
737,152;30671,265;    0,979;   -2,045
737,722;31120,165;    1,070;   -0,682
738,293;30868,883;   -2,021;    1,318
738,863;30698,419;    1,797;    2,318
739,433;30445,047;    4,524;    0,318
740,003;31076,583;    1,524;   -0,682
740,573;30428,301;    2,252;   -1,591
741,143;30416,656;    3,615;    0,318
741,713;31286,738;    0,252;   -0,500
742,283;30933,274;    1,706;    1,591
742,853;30672,993;    0,524;    1,591
743,423;30054,256;    0,161;    0,045
743,993;30130,429;    1,070;    1,500
744,563;29484,875;    2,524;   -0,864
745,133;29481,684;   -0,112;   -0,864
745,702;30166,675;    2,797;    1,773
746,272;29316,030;    0,434;    0,591
746,842;29098,748;   -0,748;   -0,591
747,411;29588,012;   -0,839;   -0,318
747,981;29762,548;   -0,930;    0,500
748,551;29825,539;   -0,021;   -1,045
749,120;29684,439;   -0,112;   -0,227
749,690;30071,976;    2,161;    2,409
750,259;30406,148;    0,979;    2,955
750,828;30309,230;    4,070;   -1,955
751,398;30531,221;   -0,112;   -0,045
751,967;30002,030;    2,888;    0,409
752,536;30213,294;    1,161;   -0,227
753,105;30690,921;   -1,384;    0,227
753,675;30564,367;   -0,112;    1,773
754,244;30473,813;    0,888;    3,591
754,813;30521,804;    0,979;    1,227
755,382;30105,522;    0,798;    0,955
755,951;30647,422;   -0,112;    3,682
756,520;30176,322;    2,525;    1,864
757,089;30778,404;    1,888;    0,500
757,658;30894,213;    2,434;    1,227
758,227;30888,113;   -1,111;    0,318
758,795;31224,650;   -1,021;    1,136
759,364;31520,459;    0,525;   -0,591
759,933;30480,813;    1,343;   -0,045
760,501;29998,168;    0,252;   -1,318
761,070;30442,432;   -0,293;   -1,409
761,639;31195,514;    1,434;    1,318
762,207;30476,777;    0,889;   -0,955
762,776;30430,041;    2,889;    0,864
763,344;30329,668;    0,071;    0,591
763,913;29456,205;    1,616;    1,409
764,481;30180,287;    1,980;   -0,136
765,049;29953,005;    0,616;    1,409
765,618;29840,178;    1,434;    0,318
766,186;29948,896;    2,434;    0,136
766,754;30100,523;    1,798;    1,864
767,322;28994,878;    1,162;    0,409
767,890;29020,415;    0,525;   -1,773
768,459;29441,860;    2,616;   -0,318
769,027;29580,215;    2,525;    3,409
769,595;28612,206;    2,616;    2,591
770,163;28991,833;    3,344;    2,955
770,730;28679,460;    2,525;   -0,136
771,298;28538,906;    1,162;   -1,409
771,866;28665,079;    0,253;    4,955
772,434;28960,615;    1,162;   -1,864
773,002;29118,424;    2,616;    0,682
773,569;28702,597;    1,071;    1,682
774,137;28514,770;    0,889;   -0,045
774,705;29344,488;   -0,747;   -0,136
775,272;28772,934;    0,253;    0,682
775,840;28594,107;   -0,111;    2,682
776,407;28027,279;   -0,293;    1,955
776,975;27592,179;    1,162;    0,318
777,542;28661,898;    2,162;   -0,045
778,110;28512,889;    0,707;   -0,045
778,677;28207,152;    1,071;   -0,864
779,244;27904,871;   -1,020;    1,045
779,812;28010,316;    0,980;    0,864
780,379;27855,216;    2,435;    1,136
780,946;28141,844;    2,617;   -0,773
781,513;28416,562;   -0,565;    0,318
782,080;27736,462;    1,253;    2,864
782,647;28551,453;    1,708;    3,045
783,214;28091,353;   -0,201;    3,864
783,781;27673,708;    1,708;   -0,682
784,348;27558,244;    0,253;    1,500
784,915;28006,872;   -1,474;    0,318
785,482;27762,226;    2,708;    2,591
786,049;28280,217;    1,071;   -0,591
786,615;28345,754;    1,708;   -0,955
787,182;28117,563;   -3,201;   -0,682
787,749;27760,008;   -2,201;    1,409
788,315;27056,090;    0,253;   -0,409
788,882;27437,899;    0,981;   -1,227
789,448;28083,163;    1,435;   -0,955
790,015;28081,336;    1,799;    3,227
790,581;27604,145;    0,708;    0,227
791,148;27497,227;    1,344;    1,045
791,714;27744,491;   -1,019;    3,136
792,280;27405,209;    3,708;    1,591
792,847;26940,745;   -0,928;    2,500
793,413;27505,827;   -0,110;   -0,318
793,979;26952,455;    1,526;   -1,318
794,545;27046,173;    2,981;    2,682
795,111;26408,073;    2,435;    1,318
795,678;26643,155;    3,526;   -1,682
796,244;26267,146;    2,799;    0,136
796,810;26847,955;    0,799;    0,773
797,375;26532,946;   -0,292;   -2,136
797,941;26619,937;   -1,110;    0,591
798,507;26751,837;    0,254;   -0,955
799,073;26249,555;    2,708;    0,591
799,639;26308,274;    1,435;    3,136
800,205;26328,810;   -1,565;    2,682
800,770;25823,437;    1,345;    1,773
801,336;25876,428;    2,981;   -0,955
801,901;25559,965;    6,072;    3,136
802,467;26162,956;    0,526;    2,045
803,033;25427,129;   -0,019;    0,864
803,598;25661,029;    1,072;   -1,045
804,163;25701,565;    0,708;   -0,318
804,729;25609,556;   -0,110;    1,136
805,294;26055,911;    1,072;    2,227
805,859;25880,993;    0,890;   -0,409
806,425;25260,984;    3,890;    2,682
806,990;24933,066;    1,890;    4,318
807,555;25482,148;   -0,110;    2,591
808,120;25301,229;   -1,292;   -0,409
808,685;25371,039;    1,072;   -2,500
809,250;24800,939;    2,072;   -0,500
809,815;25242,111;   -0,201;    0,682
810,380;25757,557;    0,981;    1,591
810,945;26249,184;    2,890;    2,045
811,510;25421,175;   -0,200;    1,591
812,075;25133,803;    2,800;   -1,409
812,640;25111,612;    3,709;    1,409
813,204;25167,421;    2,163;   -0,227
813,769;25725,321;    0,254;   -0,045
814,334;25070,767;    0,527;    0,864
814,898;25092,576;    1,981;    0,591
815,463;24959,294;    0,981;   -0,773
816,027;24938,194;    1,345;   -2,318
816,592;25059,822;    2,163;   -2,045
817,156;24496,994;   -2,200;    1,136
817,721;24290,622;    0,982;    2,318
818,285;24270,885;    0,618;    1,500
818,849;24951,695;   -0,018;    1,682
819,414;24808,595;    0,073;    2,955
819,978;24324,404;   -0,291;    1,773
820,542;24956,395;    2,891;    0,500
821,106;24680,840;    2,800;    0,682
821,670;24753,013;    2,709;    2,591
822,234;24477,550;    1,073;    1,409
822,798;23837,813;   -0,836;    0,500
823,362;23734,895;    1,527;    4,227
823,926;23045,432;   -0,018;    1,136
824,490;23253,786;    3,527;   -0,682
825,054;23725,777;    2,527;   -1,136
825,618;23316,587;   -1,200;   -1,500
826,181;23272,668;    0,982;   -1,318
826,745;23144,568;   -0,745;   -1,045
827,309;23507,196;    2,255;    1,318
827,872;22800,732;    0,527;    0,955
828,436;23848,451;    1,982;   -0,773
828,999;23898,805;    2,436;    1,227
829,563;22668,887;   -0,654;    1,136
830,126;22512,060;   -0,018;   -0,591
830,690;22510,324;    0,709;    2,864
831,253;22033,133;   -0,473;    2,227
831,816;22129,487;   -0,018;    0,500
832,380;21998,115;    1,164;    0,864
832,943;22219,288;    3,073;   -0,500
833,506;21749,824;    0,255;   -1,227
834,069;22550,270;    2,164;   -0,955
834,632;22602,261;   -2,200;    1,318
835,195;22483,888;    1,346;    0,955
835,758;21682,788;    0,709;    1,955
836,321;21481,143;    1,073;   -1,045
836,884;21543,679;   -1,291;   -0,955
837,447;21626,125;    0,528;    1,773
838,010;21829,570;    1,800;    3,227
838,573;22180,925;    0,528;    0,773
839,135;22054,643;   -0,109;   -0,955
839,698;21473,089;    2,528;    0,409
840,261;20961,170;    0,255;   -0,227
840,823;20812,071;   -0,927;    0,864
841,386;21147,880;   -0,018;   -2,409
841,948;20978,780;    0,255;    1,773
842,511;20712,316;    0,255;    1,682
843,073;20893,216;    2,982;    0,227
843,636;20686,935;    0,619;   -0,227
844,198;20562,562;    1,255;    0,591
844,760;20741,007;    0,619;    1,955
845,322;20334,908;    0,164;    1,136
845,885;20768,989;   -0,290;    0,591
846,447;21247,071;    0,710;    0,227
847,009;20784,608;    3,983;   -0,682
847,571;21126,599;    1,346;   -2,045
848,133;21208,499;   -0,199;   -1,864
848,695;21067,126;    2,346;    1,409
849,257;20547,390;    1,346;   -1,682
849,819;20757,745;    2,983;   -0,409
850,381;20830,372;    1,801;   -0,864
850,942;21264,272;    1,892;   -0,591
851,504;21145,172;    0,983;    0,227
852,066;21187,072;    1,619;   -1,591
852,628;20665,972;    0,165;    1,955
853,189;20239,236;    0,256;    2,682
853,751;20378,045;   -0,654;    1,409
854,312;20167,400;    1,256;   -1,682
854,874;20705,482;   -0,108;   -0,773
855,435;21211,291;    0,528;   -1,682
855,997;21348,464;    3,983;   -0,136
856,558;20616,273;    0,801;    1,773
857,119;20752,809;   -0,744;    2,864
857,681;20386,982;   -0,108;    0,318
858,242;20410,973;    1,347;   -2,136
858,803;20876,691;    1,074;   -0,773
859,364;21489,955;    0,892;   -4,773
859,925;20740,673;   -0,290;   -0,955
860,486;20642,028;    0,529;   -0,955
861,047;20356,837;    0,165;   -1,227
861,608;20164,283;    0,165;   -0,773
862,169;20296,274;   -0,562;   -0,045
862,730;20073,992;   -0,290;    1,409
863,291;20325,801;    0,438;   -0,500
863,852;20667,428;   -0,926;    1,955
864,412;20096,692;   -1,835;   -0,864
864,973;18593,956;    1,892;    0,500
865,534;18438,765;    2,074;    0,227
866,094;19993,574;    2,620;    0,227
866,655;19632,565;    4,711;    3,318
867,215;19966,465;    0,074;    0,136
867,776;19800,184;   -1,199;   -0,136
868,336;19884,538;    1,529;    0,136
868,897;19293,529;    3,438;    1,682
869,457;19047,611;    3,256;    0,318
870,017;19315,693;    2,438;   -1,227
870,578;19834,502;    1,893;    0,773
871,138;19467,584;    2,620;   -0,955
871,698;18970,575;   -0,562;   -1,318
872,258;18844,748;    0,711;   -2,864
872,818;19231,466;    2,347;    0,045
873,378;19183,275;   -2,198;    1,045
873,938;18733,721;    4,984;    0,500
874,498;19068,439;    1,256;   -1,955
875,058;18915,794;    4,347;    1,773
875,618;18779,967;    1,438;   -2,682
876,177;18717,958;   -0,471;    0,136
876,737;18292,039;   -0,289;    1,955
877,297;18274,485;    2,711;    1,955
877,856;18311,658;    2,529;    0,318
878,416;18257,831;    2,438;   -0,136
878,976;18482,185;    3,438;    0,409
879,535;18713,903;    4,529;    3,136
880,095;18393,713;    1,347;    0,045
880,654;18503,613;    0,347;    1,318
881,213;18588,876;    2,347;    1,500
881,773;18227,413;    1,984;    2,682
882,332;18560,768;    6,075;    5,136
882,891;18442,849;    0,711;    2,136
883,451;18941,113;   -2,016;    1,682
884,010;18362,831;   -1,107;   -0,409
884,569;18473,004;   -2,289;   -0,045
885,128;18581,813;   -0,743;   -1,864
885,687;18664,713;   -0,743;    0,682
886,246;18335,432;    2,620;    2,136
886,805;18056,514;    1,620;    2,045
887,364;18415,141;    1,166;   -0,500
887,922;18823,587;   -0,016;    0,045
888,481;18285,668;    1,530;    0,591
889,040;18601,205;    3,711;    2,136
889,599;19318,196;    2,166;    1,409
890,157;19375,914;    2,166;    2,409
890,716;19067,269;    2,166;    0,227
891,274;18854,169;    0,075;   -1,136
891,833;19277,614;    1,166;    0,864
892,391;19131,333;    1,802;    0,500
892,950;19245,142;    0,166;   -0,773
893,508;19617,224;    0,984;   -0,409
894,067;18921,578;   -0,379;    0,136
894,625;18859,751;   -1,016;   -1,500
895,183;19100,106;   -0,198;   -0,682
895,741;18989,733;    2,257;   -1,773
896,299;18797,906;    1,621;   -2,409
896,858;19004,715;    1,530;   -1,591
897,416;19093,615;    0,166;   -1,318
897,974;18841,606;   -2,197;    0,318
898,532;18985,688;    6,530;    2,682
899,089;18860,861;    0,621;   -0,682
899,647;18911,488;    0,530;    1,318
900,205;18644,388;    0,257;    1,045
900,763;18849,379;    2,166;    0,227
901,321;18822,643;    3,530;   -1,409
901,878;18234,270;    3,257;   -0,773
902,436;18093,261;    0,257;    1,318
902,994;18481,889;    6,712;    3,682
903,551;17893,880;    1,439;    0,409
904,109;18295,962;    1,530;   -1,409
904,666;17864,680;    1,439;    1,045
905,224;17652,762;    3,894;   -0,409
905,781;17401,298;   -0,470;   -0,318
906,338;17488,926;    0,167;    1,045
906,895;17418,826;    1,894;    2,045
907,453;17315,908;    2,348;    1,136
908,010;17326,717;    3,348;    0,409
908,567;16942,162;   -0,561;    0,591
909,124;16463,881;    2,439;   -1,500
909,681;16521,053;   -1,288;    0,682
910,238;16724,226;   -0,106;   -1,318
910,795;17027,763;   -1,561;   -1,136
911,352;16647,035;   -0,379;   -2,682
911,909;15976,308;    2,803;   -0,864
912,466;16475,308;    1,985;    1,500
913,022;15968,217;   -0,924;    0,500
913,579;16352,672;   -0,470;    2,045
914,136;16021,308;   -2,561;    0,955
914,692;16369,217;    1,530;   -1,227
915,249;15921,944;    0,530;    0,409
915,806;16172,763;    1,803;    1,955
916,362;15879,308;    0,894;    1,864
916,918;15404,763;    2,439;    1,045
917,475;15436,854;    1,621;    0,955
918,031;15535,581;    0,076;   -0,045
918,587;14919,035;    0,621;   -0,318
919,144;15199,944;   -0,379;    0,227
919,700;15539,854;    0,167;    0,773
920,256;15057,217;    0,439;    0,045
920,812;14659,490;    1,439;   -1,045
921,368;14650,944;    1,348;   -1,045
921,924;14240,217;    0,439;   -0,136
922,480;13767,672;    0,076;    1,227
923,036;14423,944;   -0,652;    1,955
923,592;14373,399;    0,621;    0,318
924,148;14272,308;    1,894;   -0,955
924,704;13532,763;    0,258;   -0,409
925,259;13802,217;   -0,561;    0,591
925,815;13521,217;    3,803;    0,500
926,371;13097,217;    3,530;    1,409
926,926;12956,944;    1,621;    0,591
927,482;12532,581;    1,621;    0,773
928,037;12369,035;   -0,833;    2,045
928,593;12671,126;    0,258;    1,045
929,148;12480,581;    1,167;   -1,500
929,704;12019,763;    2,439;   -0,500
930,259;12216,308;    0,894;   -0,136
930,814;11205,308;    1,803;    1,955
931,369;10860,308;    0,258;   -0,773
931,925;10782,581;   -1,924;    0,136
932,480;10633,399;    3,076;   -2,591
933,035;10468,308;    3,985;   -0,318
933,590;10197,854;   -1,742;   -1,773
934,145; 9839,944;   -1,288;   -0,318
934,700;10208,217;    0,348;   -0,591
935,255; 9962,944;    4,803;    0,045
935,809; 9134,399;    6,258;    0,864
936,364; 8235,217;    2,167;   -0,136
936,919; 8213,672;    2,348;   -1,773
937,474; 8083,854;    1,348;    0,136
938,028; 7815,399;    3,076;    1,136
938,583; 7210,763;    6,348;    4,682
939,138; 7550,672;    0,167;    2,136
939,692; 6967,126;   -1,015;   -1,136
940,247; 6597,944;    1,167;   -1,045
940,801; 6120,399;    0,621;    0,227
941,355; 5988,399;    0,439;    2,591
941,910; 5648,490;    0,712;   -2,136
942,464; 5734,308;    2,712;   -0,318
943,018; 5485,490;    3,258;   -0,227
943,572; 5431,854;    2,803;   -0,682
944,126; 4810,581;   -0,924;   -0,409
944,681; 4689,217;    0,712;    0,227
945,235; 4673,126;    2,167;   -0,591
945,789; 4603,035;    1,258;   -1,864
946,342; 4665,399;   -0,561;   -0,591
946,896; 4499,217;    0,348;    0,955
947,450; 4243,581;   -0,561;   -0,227
948,004; 4419,763;    1,076;   -0,045
948,558; 4432,490;    1,258;   -0,864
949,111; 4346,944;   -1,197;   -0,318
949,665; 4361,490;   -0,106;   -0,682
950,219; 4215,490;    0,621;   -1,045
950,772; 4341,399;    0,258;    1,864
951,326; 4248,581;   -1,106;   -0,955
951,879; 4349,854;    1,076;   -2,318
952,433; 4362,126;    1,348;    2,227
952,986; 4206,672;    0,348;    0,682
953,539; 4119,217;    1,530;    0,591
954,093; 4064,672;    0,985;   -1,318
954,646; 4192,308;   -0,288;    1,318
955,199; 3997,581;    1,258;   -0,500
955,752; 3828,399;    1,985;    1,773
956,305; 3808,308;    0,894;    2,955
956,858; 3986,308;    0,621;   -0,318
957,411; 4203,126;    3,621;    2,136
957,964; 4011,217;    2,076;    2,136
958,517; 3994,399;    0,985;    3,136
959,070; 3825,217;   -1,197;    1,955
959,623; 3872,854;    1,076;    1,500
960,176; 3628,217;    0,712;    2,045
960,728; 3591,217;    1,712;    0,773
961,281; 3662,490;    2,258;    0,500
961,834; 3711,490;   -0,833;    0,864
962,386; 3626,308;    1,258;    1,045
962,939; 3534,217;    3,439;   -0,318
963,491; 3700,308;    2,621;    1,136
964,043; 3571,308;    0,076;    2,409
964,596; 3686,944;    1,712;    2,227
965,148; 3512,490;   -0,379;    1,773
965,700; 3451,035;   -0,015;   -0,227
966,253; 3618,763;   -0,833;    0,318
966,805; 3416,854;    1,894;    0,773
967,357; 3459,308;    0,439;   -1,500
967,909; 3407,399;    1,167;   -1,227
968,461; 3559,490;    0,894;    3,136
969,013; 3459,854;   -1,561;   -0,864
969,565; 3546,854;    1,803;   -1,136
970,117; 3582,399;    3,803;    1,045
970,669; 3441,854;    3,258;   -0,136
971,220; 3337,763;    2,167;   -1,500
971,772; 3222,308;    1,348;   -0,318
972,324; 3337,854;   -1,197;   -0,500
972,876; 3297,944;    0,167;   -0,045
973,427; 3422,944;   -1,197;   -1,045
973,979; 3394,854;    0,076;   -2,500
974,530; 3441,490;    0,803;    1,318
975,082; 3447,763;    2,167;    1,682
975,633; 3325,944;    2,894;    1,682
976,184; 3487,944;    2,076;    0,773
976,736; 3258,035;    0,348;    0,227
977,287; 3012,854;    0,258;   -0,500
977,838; 3208,763;   -0,924;   -0,318
978,389; 3281,217;    0,803;   -0,500
978,940; 3172,763;    1,258;   -0,409
979,491; 3192,763;    2,258;   -0,500
980,042; 3131,217;   -0,652;    3,045
980,593; 3211,035;    1,894;    0,227
981,144; 3249,854;    3,530;   -0,500
981,695; 3206,581;   -0,470;    1,500
982,246; 3161,944;   -1,833;    1,045
982,797; 3367,672;   -0,561;    0,682
983,347; 3462,944;    2,167;    0,591
983,898; 3607,763;    4,167;    0,409
984,449; 3424,763;    2,530;    0,773
984,999; 3366,944;    1,894;   -1,136
985,550; 3113,399;    3,167;   -0,318
986,100; 3162,126;    0,712;   -0,318
986,651; 3181,763;    0,258;    0,045
987,201; 3133,399;    0,894;   -0,591
987,751; 3238,126;   -0,288;    2,864
988,302; 3243,854;   -0,379;    1,500
988,852; 3269,854;    1,985;   -1,136
989,402; 3277,308;    0,985;    0,682
989,952; 3187,581;    1,621;    0,864
990,502; 3319,490;    1,076;    0,682
991,052; 3301,308;   -0,106;    0,045
991,602; 3130,944;    1,167;    1,318
992,152; 3129,854;    2,803;    0,682
992,702; 3101,763;    1,167;   -0,045
993,252; 3020,308;    0,076;   -0,500
993,802; 3104,399;    1,167;    1,318
994,352; 3386,581;   -0,742;    1,136
994,901; 3488,035;    1,076;    3,227
995,451; 3385,217;   -1,197;    0,318
996,000; 3465,217;    1,076;    0,318
996,550; 3153,126;    2,894;    0,227
997,100; 3174,581;   -0,561;   -0,045
997,649; 3457,581;   -0,197;    0,955
998,198; 3064,399;   -0,288;   -1,500
998,748; 3259,490;    0,348;   -2,318
999,297; 3172,672;    0,985;   -0,409
999,846; 3252,763;    1,894;   -0,773
1000,395; 3319,035;    1,530;    0,500
1000,945; 3228,854;    1,076;   -0,773
1001,494; 3320,763;    0,167;    0,682
1002,043; 3310,763;    0,712;    0,864
1002,592; 3160,399;    3,439;    1,955
1003,141; 3301,490;    2,439;   -0,682
1003,690; 3115,763;    1,258;    0,500
1004,238; 3211,581;   -0,106;   -0,045
1004,787; 2845,217;   -1,288;    1,227
1005,336; 3068,854;    1,621;    0,682
1005,885; 3236,035;   -0,197;   -2,773
1006,433; 3405,854;   -0,470;    0,955
1006,982; 3446,217;    2,167;    1,682
1007,531; 3377,217;    2,712;   -0,227
1008,079; 3334,035;    0,258;    0,500
1008,627; 3503,126;    1,621;    0,409
1009,176; 3194,308;    0,076;   -1,955
1009,724; 3250,035;   -2,742;    0,864
1010,273; 3276,490;    1,076;    0,500
1010,821; 3428,399;    1,076;    1,409
1011,369; 3142,944;    0,076;    1,318
1011,917; 3120,581;   -0,833;   -0,591
1012,465; 3447,672;    2,530;   -1,591
1013,013; 3570,672;    0,439;   -1,682
1013,561; 3406,854;   -1,288;   -0,773
1014,109; 3454,490;   -0,833;    1,682
1014,657; 3320,217;    1,348;    0,591
1015,205; 3456,308;    0,894;   -0,955
1015,753; 3485,944;    0,258;   -1,409
1016,301; 3527,944;    2,621;    3,045
1016,848; 3551,672;    2,167;    0,409
1017,396; 3583,490;    1,621;    0,045
1017,944; 3709,308;    2,621;    1,864
1018,491; 3445,672;   -0,197;    1,409
1019,039; 3573,126;   -0,652;    0,591
1019,586; 3492,308;    0,076;    1,682
1020,134; 3612,490;    0,712;    1,500
1020,681; 3626,854;    2,894;   -1,136
1021,228; 3689,217;   -0,561;   -2,227
1021,776; 3513,763;   -0,833;   -1,136
1022,323; 3676,763;    0,803;    0,773
1022,870; 3626,035;   -0,470;   -0,045
1023,417; 3528,581;    2,076;    1,864
1023,964; 3698,672;    0,621;    1,227
1024,511; 3506,399;   -0,652;    0,773
1025,058; 3296,672;    0,439;   -0,045
1025,605; 3370,217;   -1,742;    3,136
1026,152; 3561,490;   -0,106;   -0,591
1026,699; 3290,217;    0,167;    1,318
1027,245; 3476,854;    2,439;    0,318
1027,792; 3738,581;    0,712;    1,409
1028,339; 3565,035;    4,076;   -0,045
1028,885; 3403,399;    3,621;   -0,227
1029,432; 3329,944;   -0,106;    0,227
1029,978; 3396,763;    1,348;   -1,591
1030,525; 3314,490;    1,621;    0,409
1031,071; 3569,490;    0,348;    1,136
1031,618; 3650,944;    1,258;    1,682
1032,164; 3450,035;    2,076;    3,045
1032,710; 3505,763;    0,076;   -1,500
1033,256; 3447,490;    0,712;   -0,136
1033,803; 3402,854;   -0,288;    1,500
1034,349; 3121,581;    1,803;    0,136
1034,895; 3292,763;    2,621;   -0,318
1035,441; 3259,308;    0,439;    0,318
1035,987; 3276,944;   -2,288;   -0,682
1036,533; 3253,308;   -0,197;   -0,955
1037,078; 3450,944;    4,712;    1,682
1037,624; 3258,126;    2,439;   -0,955
1038,170; 3314,035;    1,712;   -0,318
1038,716; 3183,035;    2,167;   -0,409
1039,261; 3110,126;    2,167;   -0,773
1039,807; 3035,035;   -0,015;    3,409
1040,352; 3105,035;   -1,288;   -0,318
1040,898; 3152,763;    0,167;   -0,682
1041,443; 3082,217;    0,803;   -2,591
1041,989; 3068,854;    3,621;    1,591
1042,534; 2959,581;    0,985;    2,591
1043,079; 3105,217;    1,985;    0,955
1043,625; 2833,854;    0,258;    0,500
1044,170; 2885,672;    2,439;    1,045
1044,715; 3141,399;    0,167;    0,955
1045,260; 2968,217;   -0,833;   -0,955
1045,805; 3025,308;    0,258;   -0,591
1046,350; 2980,217;    0,530;   -0,409
1046,895; 2914,308;    0,803;    1,591
1047,440; 2834,217;    1,530;    0,409
1047,985; 2763,944;   -1,197;   -0,955
1048,530; 2681,581;    1,348;    1,227
1049,074; 2733,217;    2,803;    0,318
1049,619; 2700,308;   -0,924;    1,955
1050,164; 2492,672;    1,076;    0,227
1050,708; 2543,763;    2,621;    0,045
1051,253; 2893,581;    3,258;   -2,227
1051,797; 2609,126;   -0,197;   -1,318
1052,342; 2650,126;    1,348;    1,045
1052,886; 2633,763;    1,803;   -1,409
1053,430; 2519,217;    2,167;    0,136
1053,975; 2531,308;    0,894;   -0,318
1054,519; 2491,308;    1,803;    3,227
1055,063; 2485,581;    3,621;    1,318
1055,607; 2362,944;    1,348;    0,227
1056,151; 2390,399;    0,530;    1,682
1056,695; 2337,126;   -1,833;   -1,136
1057,239; 2397,308;   -1,197;   -0,682
1057,783; 2394,944;    2,258;   -1,500
1058,327; 2332,399;    3,076;    1,409
1058,871; 2552,672;    3,985;    1,318
1059,415; 2256,944;   -0,561;   -0,045
1059,958; 2504,763;    2,985;    2,591
1060,502; 2238,035;    1,348;   -0,773
1061,046; 2144,854;    1,712;   -0,955
1061,589; 2137,854;    2,803;   -1,136
1062,133; 2005,944;    0,985;    1,864
1062,676; 1933,672;    1,439;    0,864
1063,220; 1931,490;    0,985;    0,500
1063,763; 1960,854;    2,985;    1,136
1064,306; 2023,672;    0,985;    1,864
1064,849; 1918,217;    2,076;    0,591
1065,393; 1908,308;    2,894;   -1,500
1065,936; 2037,399;    2,530;   -0,409
1066,479; 1928,308;    2,621;    1,318
1067,022; 1952,399;    1,894;   -0,227
1067,565; 1849,854;   -1,197;   -1,318
1068,108; 1881,217;    1,258;   -0,591
1068,651; 1864,035;   -2,470;    1,409
1069,194; 1772,126;   -1,106;   -1,682
1069,736; 1763,672;    3,803;    0,955
1070,279; 1750,126;   -1,652;   -0,500
1070,822; 1779,399;    1,530;   -0,318
1071,364; 1842,854;    0,530;    1,318
1071,907; 1685,854;    0,348;    3,227
1072,450; 1606,581;    0,258;   -0,045
1072,992; 1594,308;   -0,561;    3,136
1073,535; 1710,308;    0,167;    2,136
1074,077; 1516,490;    2,985;    2,045
1074,619; 1486,035;    0,985;    0,591
1075,161; 1503,944;   -0,561;    1,500
1075,704; 1676,854;    0,258;    1,227
1076,246; 1487,308;    1,530;    0,682
1076,788; 1415,944;   -1,015;    1,773
1077,330; 1515,035;   -2,106;    2,136
1077,872; 1456,490;   -1,924;    0,955
1078,414; 1672,490;    3,712;    0,773
1078,956; 1403,308;    0,167;   -0,227
1079,498; 1638,126;    0,439;    0,318
1080,040; 1341,308;    0,985;   -1,318
1080,581; 1303,217;    0,621;   -0,318
1081,123; 1238,763;   -0,106;   -0,773
1081,665; 1280,672;    3,803;   -0,955
1082,206; 1558,308;    3,258;   -0,500
1082,748; 1443,126;    3,258;    2,045
1083,289; 1324,035;    0,167;    1,318
1083,831; 1223,581;    0,258;    0,227
1084,372; 1241,035;    0,894;    0,591
1084,913; 1223,672;    3,348;    0,864
1085,455; 1209,581;    1,530;   -2,045
1085,996; 1175,581;    0,530;    0,136
1086,537; 1196,217;    0,985;    0,864
1087,078; 1249,035;    0,439;   -2,136
1087,619; 1284,854;   -1,652;    0,227
1088,160; 1196,126;    1,439;    1,318
1088,701; 1184,944;   -0,742;    0,682
1089,242; 1126,035;   -0,561;   -2,227
1089,783; 1213,126;   -0,561;    1,409
1090,324; 1185,672;   -0,833;    0,682
1090,865; 1053,217;   -1,924;   -0,409
1091,405; 1052,035;   -0,561;    2,227
1091,946; 1071,581;   -0,197;   -0,955
1092,487;  983,763;   -1,288;   -1,409
1093,027; 1133,308;    1,803;   -1,500
1093,568;  990,217;    2,258;    1,227
1094,108; 1080,035;    0,621;    1,773
1094,649; 1036,035;   -0,470;    0,136
1095,189;  978,217;    1,167;   -0,682
1095,729;  912,399;    0,712;    0,955
1096,269;  931,308;    1,258;   -0,955
1096,810; 1236,490;   -0,197;    0,500
1097,350; 1057,308;   -0,561;   -0,773
1097,890;  958,581;    2,985;    1,227
1098,430; 1199,581;    4,985;    2,864
1098,970; 1075,854;    1,894;    1,682
1099,510;  943,581;   -0,833;   -2,318
1100,050;  873,308;    0,258;   -1,591
1100,589;  838,763;    0,076;   -0,318
1101,129;  957,217;    0,894;   -0,955
1101,669; 1090,399;    2,803;    2,136
1102,209;  926,854;    1,530;    2,227
1102,748;  880,035;    3,439;    0,955
1103,288;  872,944;    0,712;   -1,227
1103,827;  899,035;    3,530;   -2,227
1104,367;  769,854;    1,712;   -2,409
1104,906;  737,308;   -1,015;   -1,136
1105,445;  817,490;    0,985;   -1,136
1105,985;  757,672;   -0,652;    1,500
1106,524;  796,399;    1,530;   -0,682
1107,063;  755,581;    1,167;    1,409
1107,602;  745,854;    1,894;   -1,500
1108,141;  670,308;    1,621;    1,500
1108,680;  754,763;    3,985;   -0,591
1109,219;  697,581;    0,167;   -0,500
1109,758;  705,672;    4,167;    0,682
1110,297;  685,217;   -1,106;   -0,682
1110,836;  630,490;    1,439;    0,955
1111,375;  775,399;    0,348;    0,409
1111,913;  776,763;    0,985;    0,773
1112,452;  720,944;    0,894;    0,136
1112,991;  607,217;    1,076;    1,955
1113,529;  569,944;    0,167;   -0,045
1114,068;  629,035;    0,439;    2,955
1114,606;  538,035;   -0,561;   -0,955
1115,144;  701,399;    1,530;    1,045
1115,683;  634,399;    1,985;    0,318
1116,221;  686,035;    2,076;   -0,864
1116,759;  601,399;    1,621;   -0,864
1117,297;  784,763;    1,621;    1,864
1117,836;  596,490;    1,985;   -1,227
1118,374;  593,672;    0,258;   -0,682
1118,912;  542,944;    0,439;    2,682
1119,450;  530,217;    0,985;    0,864
1119,988;  583,308;    3,348;    2,136
1120,525; 1034,763;    7,258;    3,318
1121,063;  729,035;    0,530;    1,864
1121,601;  535,581;    1,076;   -1,227
1122,139;  499,490;    1,076;   -2,045
1122,676;  684,035;   -1,652;    2,773
1123,214;  622,490;    0,712;    4,409
1123,751;  441,763;    0,621;    2,227
1124,289;  569,854;    0,894;   -0,409
1124,826;  439,308;   -0,379;    0,227
1125,364;  364,308;    0,712;   -0,955
1125,901;  545,944;    6,258;    1,227
1126,438;  639,763;    3,530;    0,955
1126,975;  389,672;    2,985;   -0,773
1127,513;  449,399;    2,621;    2,136
1128,050;  368,217;   -0,561;   -0,682
1128,587;  459,854;    1,348;   -0,227
1129,124;  500,581;   -0,015;    1,318
1129,661;  381,308;   -1,924;    0,227
1130,198;  540,490;    2,439;    0,773
1130,734;  462,672;   -0,379;    1,409
1131,271;  333,126;   -1,197;    0,864
1131,808;  504,126;    1,621;    3,045
1132,345;  379,126;    4,530;    0,318
1132,881;  254,581;   -0,561;   -1,864
1133,418;  383,854;    0,348;   -1,136
1133,954;  331,126;    0,712;   -2,682
1134,491;  402,581;    1,712;   -0,773
1135,027;  309,944;    2,167;    0,864
1135,564;  386,944;    1,439;    2,955
1136,100;  364,217;   -0,742;    2,136
1136,636;  272,490;   -1,015;   -1,045
1137,172;  352,399;    0,894;   -1,045
1137,708;  271,581;   -1,561;   -1,045
1138,245;  276,763;    0,803;   -1,227
1138,781;  244,217;    1,803;   -3,318
1139,317;  303,308;    1,894;   -1,409
1139,852;  288,126;    3,076;    0,136
1140,388;  406,854;    2,076;   -0,409
1140,924;  291,581;    1,076;   -2,227
1141,460;  238,217;   -0,288;    0,136
1141,996;  175,581;   -0,652;    2,682
1142,531;  219,672;    1,076;    3,318
1143,067;  420,854;    1,167;    1,045
1143,602;  469,217;    3,439;   -0,318
1144,138;  326,581;    0,803;    1,045
1144,673;  190,944;    1,621;    1,409
1145,209;  260,672;    2,894;   -0,318
1145,744;  180,672;    0,803;    0,864
1146,279;  309,581;    1,530;   -0,136
1146,815;  228,854;    1,530;   -2,682
1147,350;  274,854;   -0,924;    0,045
1147,885;  190,672;   -1,924;   -1,318
1148,420;  193,490;    2,439;    0,773
1148,955;  172,035;   -1,470;    1,864
1149,490;  193,581;   -1,106;   -1,591
1150,025;  175,399;   -1,106;   -1,773
1150,560;  278,854;   -0,288;   -0,955
1151,094;  247,763;    0,258;   -0,591
1151,629;  253,399;   -3,742;    0,864
1152,164;  181,217;   -1,288;    1,318
1152,698;  144,308;    1,258;   -0,136
1153,233;  101,581;   -1,379;   -0,682
1153,767;  144,944;   -0,288;   -2,318
1154,302;  197,672;   -0,379;    1,773
1154,836;  199,490;    0,803;   -2,136
1155,371;  248,035;    2,258;    3,682
1155,905;  207,581;    1,985;    1,682
1156,439;  173,035;    0,530;   -0,500
1156,973;  194,672;    0,439;    0,318
1157,507;  139,490;   -1,742;    0,682
1158,042;  167,399;   -0,652;    1,045
1158,576;  210,126;   -0,561;    1,773
1159,110;  203,581;    0,076;    2,409
1159,643;  176,581;   -2,470;   -0,045
1160,177;  121,763;   -2,015;    1,500

