
Integration time [ms]:   0,050
Averaging Nr. [scans]: 11
Smoothing Nr. [pixels]: 0
Data measured with spectrometer [name]: 7318044SP
Wave   ;Sample   ;Dark     ;Reference
[nm]   ;[counts] ;[counts] ;[counts] 

186,757;  -26,148;   38,161;    1,318
187,357;   -9,334;   26,706;    0,955
187,958;  -17,335;   17,252;   -1,591
188,558;   18,563;   12,979;   -1,227
189,159;  -10,673;   10,070;   -4,500
189,759;  -30,533;    5,797;   -3,591
190,360;  -29,097;    6,797;   -2,136
190,960;   -0,372;    5,706;   -4,136
191,560;    1,591;    2,614;   -6,591
192,161;  176,965;    5,885;   -3,500
192,761;   48,040;    5,520;   -3,227
193,361;   12,009;    3,065;   -3,773
193,962;   36,573;    1,612;   -2,682
194,562;  -12,130;   -0,114;   -3,955
195,162;   -5,370;   -0,567;   -2,227
195,762;  100,779;    2,433;   -0,045
196,362;   64,877;    1,706;   -2,500
196,963;  -10,225;    1,706;   -0,864
197,563;   29,481;    1,252;   -0,955
198,163;  -11,020;   -0,111;   -0,682
198,763;   -9,580;   -0,020;   -0,500
199,363;   39,321;    3,616;   -0,500
199,963;   19,399;    2,162;    0,409
200,563;    3,992;    6,344;   -1,409
201,163;   -7,299;    5,435;   -0,227
201,763;   20,660;    1,435;    0,318
202,363;   -1,754;    0,980;    1,500
202,963;   25,169;    1,526;    1,045
203,563;   67,113;    0,344;    0,500
204,162;    3,055;    1,889;   -1,864
204,762;    5,313;    2,071;    0,591
205,362;   -6,858;    0,708;    1,955
205,962;   14,238;    3,435;    1,955
206,562;    6,647;    1,889;    2,318
207,161;   -7,630;    1,708;    0,318
207,761;   54,680;    4,435;    2,409
208,361;    6,435;    1,889;    1,409
208,960;   17,673;    2,889;    1,500
209,560;   16,974;    0,435;    1,591
210,160;   25,042;    5,071;    1,864
210,759;    6,448;    0,708;    1,227
211,359;   -4,904;   -0,474;    1,045
211,958;   75,794;    3,526;    2,045
212,558;   90,381;    0,799;    1,864
213,157;   31,305;   -0,929;    1,500
213,757;  157,054;    5,617;   -0,227
214,356;   52,412;    1,708;   -0,409
214,956;  130,052;    3,526;    0,409
215,555;   35,367;    0,617;    2,136
216,154;    3,310;   -0,292;   -0,591
216,754;    0,748;    1,253;    0,773
217,353;   13,453;   -0,383;   -1,045
217,952;  -29,404;    2,072;    0,318
218,552;   28,059;    0,254;   -0,773
219,151;    5,917;   -1,110;    0,955
219,750;   -7,954;    0,890;   -0,227
220,349;   -8,661;   -2,292;    1,045
220,948;   45,271;    1,163;    1,136
221,548;    4,737;    0,617;    1,227
222,147;    9,730;   -1,292;   -0,409
222,746;   62,792;    1,254;   -0,955
223,345;   14,651;   -1,019;    0,500
223,944;   20,464;    1,163;    0,773
224,543;   29,722;    4,072;   -1,409
225,142;    9,872;    1,345;    0,136
225,741;   20,942;    1,163;    1,045
226,340;   16,834;    1,254;   -0,955
226,939;   57,986;    2,708;   -0,136
227,538;    8,496;    1,163;   -0,773
228,137;   61,161;    0,435;    0,864
228,735;   32,425;    0,435;    1,227
229,334;  -16,409;   -0,474;   -0,227
229,933;   71,128;    0,799;    0,591
230,532;   56,576;   -1,201;   -0,409
231,131;   91,180;    1,253;    0,318
231,729;   28,360;    1,163;   -2,318
232,328;    7,757;    0,435;   -1,500
232,927;   16,735;    4,526;   -0,500
233,525;    6,291;    0,981;    0,045
234,124;   22,543;    1,890;   -1,591
234,723;   -0,847;    1,617;   -1,045
235,321;  -11,932;    1,163;    0,136
235,920;   -0,996;    2,526;   -1,227
236,518;   59,465;    1,072;    0,318
237,117;    1,167;    2,890;   -0,227
237,715;   13,930;    1,163;   -0,500
238,314;   20,145;    1,708;   -2,318
238,912;   62,451;    0,526;   -1,409
239,510;   28,328;    1,162;   -1,227
240,109;   79,157;   -0,474;    3,773
240,707;   53,165;   -0,474;    1,227
241,305;   -1,564;   -0,383;    0,136
241,904;   22,800;   -0,292;   -2,045
242,502;   80,006;    3,253;   -0,227
243,100;   29,913;    3,344;   -0,955
243,698;   -6,051;    2,799;    1,682
244,297;   15,690;   -0,656;    0,682
244,895;   12,143;   -0,474;   -2,318
245,493;   73,373;    2,981;   -0,591
246,091;   79,671;    5,163;   -1,318
246,689;   36,300;    2,163;    0,591
247,287;   31,622;   -0,019;   -1,136
247,885;   18,876;   -1,019;    1,227
248,483;    1,399;   -0,201;   -0,500
249,081;   38,179;    0,981;    1,591
249,679;   40,088;   -1,019;    1,682
250,277;    1,819;   -2,292;    0,864
250,875;   36,649;    0,617;   -1,045
251,473;    6,481;   -0,019;    0,500
252,071;   45,035;   -0,383;    1,045
252,669;   15,464;   -1,565;    0,318
253,267;   -4,351;    1,618;    0,773
253,864;   12,077;    0,617;    0,682
254,462;   47,760;    1,526;    1,591
255,060;   -4,008;    0,072;    1,318
255,658;   -5,445;   -3,292;   -0,136
256,255;    2,068;   -0,201;   -2,045
256,853;   29,148;    2,345;    1,409
257,451;    7,175;    1,981;    1,864
258,048;  159,316;    2,072;    1,864
258,646;   62,752;    0,436;   -1,045
259,243;   87,239;    2,981;    2,227
259,841;   37,166;    1,799;    0,318
260,438;   -0,240;    0,254;    0,864
261,036;   37,004;    0,617;    1,409
261,633;    9,389;    1,526;    2,227
262,231;   -6,619;   -0,110;   -0,045
262,828;  -13,144;   -0,383;    1,136
263,425;    0,573;   -1,928;   -0,591
264,023;   -4,644;    1,436;    0,045
264,620;   42,009;    1,526;   -0,318
265,217;   81,926;    2,890;    3,136
265,815;   10,435;    2,527;    2,136
266,412;   25,397;    0,072;    0,136
267,009;   22,712;    0,526;    0,773
267,606;   51,298;    0,345;   -0,955
268,203;   10,797;   -0,383;   -0,591
268,801;    7,579;   -0,474;    0,591
269,398;   -7,158;   -0,564;    2,500
269,995;   20,220;    0,890;    1,591
270,592;    7,897;    0,799;   -0,500
271,189;   -9,761;    1,981;    0,409
271,786;  -16,841;    2,072;    1,227
272,383;   37,747;   -0,383;    0,227
272,980;    9,968;    1,617;    0,318
273,577;   -9,292;    2,162;    1,227
274,174;  -12,226;    1,435;    2,591
274,771;   36,736;    1,890;   -0,773
275,367;  165,064;    3,253;    1,409
275,964;   67,864;   -0,565;   -0,500
276,561;   11,488;   -2,474;   -1,045
277,158;  -11,002;    1,799;   -1,773
277,755;   61,361;   -0,110;    0,409
278,351;   27,926;    0,436;   -1,500
278,948;   44,774;   -0,201;    0,045
279,545;   23,710;    0,527;    2,318
280,141;   57,052;    1,254;   -2,045
280,738;   63,811;    2,435;   -0,136
281,334;    9,388;   -0,383;    0,591
281,931;   -0,468;    2,890;   -1,318
282,528;   38,252;    4,072;   -0,500
283,124;   56,669;    3,345;   -0,500
283,721;   52,409;    0,709;    1,409
284,317;   11,606;    0,163;    2,500
284,913;   63,846;   -0,110;    0,591
285,510;  123,119;    2,890;   -0,318
286,106;   71,071;    2,345;   -0,955
286,703;   24,353;    0,072;    1,955
287,299;    5,530;    1,254;   -0,591
287,895;    1,769;    0,890;   -1,045
288,491;    0,388;    0,163;    2,136
289,088;   29,155;    0,163;    2,409
289,684;   27,827;    2,890;    1,500
290,280;   83,118;    1,890;    0,682
290,876;   55,240;    0,163;    5,500
291,472;   37,849;    2,163;    2,227
292,068;   46,088;    1,254;    0,227
292,665;   21,530;   -0,564;    0,773
293,261;   -1,927;   -1,292;    2,136
293,857;   37,738;    4,072;    2,136
294,453;   17,392;   -0,928;    0,955
295,049;   79,557;    0,253;    1,955
295,644;   35,660;   -1,292;    0,136
296,240;   -3,784;    0,162;   -0,136
296,836;   25,128;   -0,747;    0,318
297,432;   56,288;    2,980;   -0,500
298,028;   51,717;    0,435;    0,773
298,624;   23,244;    0,889;    1,864
299,220;   22,774;    0,435;    0,591
299,815;   18,392;    0,526;   -0,409
300,411;   39,284;    0,435;    1,773
301,007;   61,511;    1,889;    0,227
301,602;   10,384;    2,071;   -2,318
302,198;   59,703;    1,435;   -0,773
302,794;   14,535;    1,526;   -0,500
303,389;   -2,350;    1,071;    1,045
303,985;    0,914;    1,253;    1,409
304,580;   59,708;    0,889;    1,591
305,176;   22,705;    0,344;    0,136
305,771;  -25,007;   -0,929;   -1,227
306,367;  128,472;    3,071;    0,136
306,962;   43,930;    2,889;    1,500
307,558;   57,409;    2,435;    0,136
308,153;   42,986;   -0,383;   -1,136
308,748;   -3,187;    0,162;    1,682
309,344;  108,868;    0,253;   -1,318
309,939;   99,465;    2,071;   -1,318
310,534;   19,167;   -2,020;   -1,682
311,130;   11,979;   -0,656;   -2,500
311,725;   -1,502;    0,526;   -0,500
312,320;   12,095;    1,253;    0,045
312,915;   35,357;    2,890;   -1,045
313,510;  110,448;    0,526;   -0,500
314,105;   24,180;   -3,565;    1,409
314,700;  -14,391;   -1,656;   -1,045
315,295;   11,072;   -0,020;    0,045
315,890;   -2,177;   -0,292;    0,864
316,485;   30,514;    0,253;   -0,318
317,080;   -7,599;   -0,929;    1,591
317,675;  106,558;    3,071;   -0,682
318,270;  216,834;    6,889;    3,318
318,865;  133,462;    2,435;    3,045
319,460;   69,624;   -1,565;    0,591
320,055;    9,174;   -2,565;   -1,227
320,650;    3,282;   -1,838;   -0,591
321,244;    2,397;    0,889;   -1,409
321,839;    4,269;    0,980;   -0,227
322,434;   25,822;   -0,111;   -1,591
323,029;    5,635;   -0,474;    1,591
323,623;    3,086;    0,798;    0,773
324,218;   80,669;    2,707;    1,409
324,812;   44,179;    0,889;    1,591
325,407;   31,897;   -0,929;    2,045
326,002;   92,244;    0,526;   -0,409
326,596;   61,584;   -0,656;    1,318
327,191;   11,294;   -0,383;   -1,045
327,785;   14,039;   -0,747;   -0,227
328,379;    3,236;   -0,383;    0,136
328,974;   18,633;    1,798;   -3,955
329,568;   33,129;    2,889;   -2,409
330,163;   64,321;    2,435;    1,045
330,757;    7,142;    0,253;    1,591
331,351;   -7,369;   -0,292;    0,682
331,945;  -11,837;   -0,383;    1,409
332,540;   26,639;    1,617;   -0,591
333,134;   24,216;    3,344;    0,773
333,728;   31,606;    2,799;    0,318
334,322;   -5,020;    0,889;   -0,864
334,916;    3,273;    0,344;    0,955
335,510;   52,648;   -0,111;   -0,136
336,105;   36,112;   -0,929;    1,591
336,699;   -5,791;   -1,292;    0,591
337,293;   24,587;    1,071;    0,318
337,887;    0,491;    0,071;    1,955
338,481;   40,301;    2,980;    0,591
339,074;   87,901;    2,071;    2,682
339,668;   72,282;   -0,110;    1,227
340,262;  322,167;    7,708;    3,227
340,856;  139,594;    1,708;   -0,682
341,450;   22,816;    0,708;    1,864
342,044;   44,860;    1,799;    0,136
342,637;   76,339;    1,162;   -2,136
343,231;   42,878;   -1,474;    0,682
343,825;   39,746;   -0,747;   -0,591
344,419;   42,666;   -0,474;    0,500
345,012;  317,535;    2,889;    4,045
345,606;  198,544;   -0,656;    1,591
346,199;   57,381;   -0,111;   -0,227
346,793;  122,943;    2,525;    2,045
347,386;   50,956;    0,889;   -1,136
347,980;   15,788;   -0,838;   -0,045
348,573;   59,625;   -1,748;    0,409
349,167;  254,718;    6,161;    4,773
349,760;  156,404;    2,252;    2,682
350,354;  141,145;    1,616;    1,136
350,947;  175,258;    2,798;    1,682
351,540;  117,457;    0,616;   -1,409
352,134;   39,982;   -1,111;    1,136
352,727;   61,565;   -0,657;    1,136
353,320;   68,510;    2,343;    0,591
353,913;   31,592;   -1,929;    1,864
354,507;  158,724;    0,434;   -1,227
355,100;   81,675;    0,071;    0,864
355,693;  365,374;    4,798;    2,409
356,286;  196,338;    0,980;    2,773
356,879;  106,329;   -0,475;    1,227
357,472;  122,204;    0,980;    1,500
358,065;  139,314;    3,161;    2,500
358,658;   53,684;    0,798;    2,318
359,251;   36,428;    0,252;   -0,591
359,844;  138,926;    0,343;   -1,136
360,437;  180,113;    0,252;    0,045
361,030;   86,122;    0,525;   -0,682
361,623;   88,299;    0,434;    0,318
362,215;  237,777;    0,979;    2,045
362,808;  118,553;   -2,293;   -1,682
363,401;   72,747;    0,798;    0,136
363,994;  209,731;    3,252;   -1,500
364,586;   83,892;    0,888;   -1,500
365,179;   54,051;   -0,203;   -1,136
365,772;  -13,519;   -0,930;    2,045
366,364;   53,620;    1,524;   -3,227
366,957;   85,246;    1,342;   -0,045
367,549;   59,363;   -0,203;   -0,864
368,142;   67,978;    0,978;   -1,500
368,734;   44,787;    2,523;   -2,136
369,327;   15,359;    2,341;   -0,500
369,919;   30,603;   -1,659;    0,409
370,512;   38,064;   -1,023;   -0,500
371,104;  220,968;    2,704;    1,591
371,696;  234,081;    1,703;   -0,955
372,289;  122,081;    0,157;    1,136
372,881;   86,038;    1,156;    1,318
373,473;   12,372;    4,064;    1,136
374,066;   85,866;    1,336;    0,500
374,658;   62,830;    0,879;    1,136
375,250;    8,883;   -1,668;   -1,409
375,842;   31,065;   -0,124;   -0,045
376,434;   -3,728;   -2,762;   -0,409
377,026;  -17,710;   -1,855;   -2,500
377,618;   12,159;    0,779;   -0,682
378,210;  -49,374;    3,141;   -1,955
378,802;  -58,154;    3,412;   -0,591
379,394;  289,086;    3,411;    0,682
379,986;   61,983;    1,138;   -0,955
380,578;  -27,732;    1,410;    0,773
381,170;  210,908;    0,320;    0,045
381,762;  128,048;   -0,224;    1,409
382,354;   97,892;   -0,223;   -1,318
382,945;   26,702;    0,870;    0,318
383,537;   -7,631;    1,144;   -1,955
384,129;   -0,768;    0,963;   -1,136
384,721;  108,572;    0,418;    0,955
385,312;   40,740;   -1,399;   -0,955
385,904;  100,918;   -0,945;    1,591
386,496;   33,732;    0,691;    1,045
387,087;  153,509;    0,418;    2,500
387,679;   91,182;   -0,401;    0,045
388,270;   70,086;   -2,401;    2,045
388,862;   37,977;   -0,401;   -0,318
389,453;   26,350;    1,054;    1,045
390,045;   27,135;    3,236;   -2,682
390,636;  -55,209;    0,144;   -0,591
391,227;    4,613;    2,054;   -0,045
391,819;  -27,794;    0,781;    0,773
392,410;  198,368;    0,600;    0,045
393,001;   28,797;    1,600;   -1,591
393,593;   73,861;    0,600;   -0,045
394,184;  113,995;    0,873;   -0,409
394,775;   13,673;    1,146;    2,136
395,366;  -45,835;    1,782;    0,773
395,957;   89,236;   -2,400;    0,136
396,548;    1,902;    1,054;    2,682
397,139;   97,667;    2,236;    0,591
397,730;   21,752;    0,873;    0,955
398,321;   43,402;    0,509;    0,955
398,912;   -8,955;   -0,764;    0,136
399,503;  -14,211;   -1,945;   -1,409
400,094;   23,680;   -1,582;    1,682
400,685;   13,311;    3,600;    0,045
401,276;  -33,390;   -0,400;   -0,955
401,867;  -41,236;   -1,127;    0,773
402,458;  -70,985;    1,509;   -2,318
403,048;   42,730;    0,146;    0,591
403,639;   -1,522;    1,509;    0,864
404,230;   91,871;    0,691;    0,318
404,821;  129,426;   -0,127;    0,045
405,411;   54,696;   -0,763;   -2,591
406,002;  -16,220;    3,237;   -1,136
406,592;  177,438;    2,691;    0,045
407,183;   59,921;    0,328;   -1,500
407,774;   37,146;    1,419;   -0,136
408,364;    1,403;    2,600;    0,409
408,954;   92,096;   -0,036;    1,227
409,545;   87,981;    1,873;    1,045
410,135;   49,845;   -1,581;    0,500
410,726;    7,103;    0,783;    0,318
411,316;  162,777;    2,237;    0,773
411,906;   27,807;    0,146;   -0,409
412,497;   38,175;   -0,490;   -0,045
413,087;   -4,197;    0,783;   -0,227
413,677;  -59,683;   -2,490;    3,864
414,267;  -59,475;   -1,035;    1,409
414,857;  -79,245;    0,419;    4,227
415,448;  -75,214;   -0,763;    0,500
416,038;  -51,050;   -2,945;   -0,591
416,628;  -21,343;    0,965;    0,409
417,218;   27,738;   -1,762;    3,318
417,808;  158,423;    0,965;   -0,409
418,398;   59,191;   -1,035;    2,682
418,988;  -43,256;   -2,217;    0,591
419,578;   34,879;    3,601;    1,409
420,168;  -22,722;    0,692;   -0,955
420,757;   90,273;    0,964;   -1,500
421,347;   -0,986;    1,601;   -0,227
421,937;  -23,159;    3,329;    1,409
422,527;   96,128;    2,602;   -0,773
423,116;  207,398;    2,692;   -0,045
423,706;  -21,802;    2,965;    0,318
424,296;  -57,273;    1,601;    0,682
424,885;   49,363;    1,510;   -3,045
425,475;   21,758;    1,147;   -2,864
426,065;  -52,043;   -1,489;   -0,318
426,654;  -69,280;    0,329;   -0,318
427,244;  150,460;    1,147;    1,409
427,833;  101,494;    1,056;   -0,500
428,423;   -2,130;    0,147;    1,136
429,012;    3,453;    2,420;   -1,136
429,601;  112,600;    2,057;    0,136
430,191;   24,785;    2,511;    4,318
430,780;  -58,238;   -1,671;   -0,409
431,369;   90,699;    1,329;   -0,045
431,959;    2,955;    1,693;    0,500
432,548;  -52,079;   -1,398;   -0,045
433,137;  -91,618;    0,329;   -1,318
433,726;  -36,509;    0,148;    0,500
434,315;  -16,742;    0,148;    2,409
434,905;   72,980;    0,693;    1,409
435,494;   66,305;    3,148;    0,955
436,083;  -36,138;    1,420;   -0,955
436,672;   41,960;    1,148;    0,500
437,261;   -6,258;    0,512;   -1,955
437,850;  184,719;   -1,125;    0,682
438,439;  233,805;    2,239;    1,955
439,027;  334,506;    3,421;    1,773
439,616;  260,338;    2,239;    1,227
440,205;   67,423;    0,057;   -2,136
440,794;   23,652;   -0,306;   -0,045
441,383;  -31,633;    1,603;   -0,591
441,971;  -54,029;   -0,306;    0,591
442,560;  -39,073;    0,603;   -1,773
443,149; -119,383;    3,060;   -1,318
443,737;  -81,149;    0,968;   -2,318
444,326;  -58,685;    0,331;    0,318
444,915;  -20,329;   -1,851;    0,864
445,503;   -8,964;    0,058;   -0,318
446,092;  226,465;    7,876;    2,136
446,680;  163,950;    1,876;    0,318
447,269;   70,899;   -1,487;   -0,318
447,857;   50,789;    2,240;   -1,773
448,445;   18,879;    2,149;    1,318
449,034;  -27,500;    0,876;   -1,136
449,622;  -18,765;    1,240;    3,500
450,210;  213,585;    3,149;    2,227
450,799;  143,187;    2,604;   -0,591
451,387;  102,195;    1,786;   -0,591
451,975;   82,832;   -1,305;    0,864
452,563;  151,835;    0,422;    2,318
453,151;    7,252;   -1,032;   -1,227
453,739;   40,917;   -1,577;    0,136
454,328;  127,869;    0,604;   -2,136
454,916;   74,577;    1,150;   -0,136
455,504;   88,761;    3,513;    1,227
456,092;   -3,039;    2,150;   -1,591
456,679;  -34,593;    0,604;    0,682
457,267;  348,661;    3,604;    1,045
457,855;   50,816;    3,241;    1,409
458,443;  -73,352;   -0,304;    1,682
459,031;   56,617;    1,332;    2,409
459,619;   27,478;   -3,577;    2,864
460,206;  -51,234;   -0,759;    2,045
460,794;  -47,451;   -0,668;   -0,227
461,382;   -8,629;    0,878;   -0,864
461,970;  -14,967;    0,605;    1,864
462,557;  -64,769;    0,878;   -0,682
463,145;   28,200;   -0,304;   -1,682
463,732;  245,733;    2,514;   -1,045
464,320;   48,961;    1,514;   -3,045
464,907;  171,673;    0,423;   -0,773
465,495;   80,848;    2,696;   -1,227
466,082;   15,879;    2,060;   -0,045
466,670;   42,366;    2,605;    1,227
467,257;  -43,371;    0,060;    2,045
467,844;   44,281;    1,514;    0,045
468,432;   15,255;   -0,031;    3,500
469,019;  -13,187;    1,606;   -1,773
469,606;   63,650;    0,969;    3,682
470,193;   81,001;    2,151;    0,227
470,780;   36,005;    0,333;    0,864
471,368;  -22,998;   -1,212;   -0,773
471,955;   78,020;    1,060;   -0,682
472,542;   42,537;   -0,303;   -1,136
473,129;  -60,055;   -0,485;    0,136
473,716;  -49,236;    0,060;    0,591
474,303;  -15,947;    1,333;   -0,864
474,890;  -17,622;    2,333;   -0,500
475,477;   76,905;   -0,576;    0,409
476,064;   -5,768;    0,697;   -1,591
476,650;   99,566;    2,152;    0,318
477,237;   12,202;    1,879;    0,955
477,824;   -2,898;    3,879;    0,864
478,411;  -69,203;    0,606;   -0,318
478,997;  -68,925;    0,606;   -0,773
479,584; -116,714;   -0,666;   -0,409
480,171;   30,461;    1,243;   -0,773
480,757;   79,622;   -0,848;    0,773
481,344;  -14,556;    0,334;    0,409
481,931;  -93,839;   -0,393;    1,045
482,517;   16,884;    0,425;    0,318
483,104;  104,616;    1,334;    2,864
483,690;   -9,996;    0,243;    0,045
484,276;  -38,238;    0,698;    0,227
484,863;  154,929;    2,152;    1,136
485,449;   11,272;    0,152;    0,318
486,035;  -23,754;   -0,666;   -0,136
486,622;   48,257;   -2,393;    0,045
487,208;  -16,662;    1,334;    1,500
487,794;  -85,838;    0,971;    0,318
488,380;  -79,136;    0,698;   -1,409
488,967;  -85,092;   -1,120;   -0,409
489,553;  -66,462;   -1,029;   -1,409
490,139;    3,430;    0,971;    0,773
490,725;  -57,529;    0,789;   -0,227
491,311;  -22,875;    1,516;    3,045
491,897;  -46,487;   -0,665;    1,500
492,483;  -31,935;    0,426;    1,227
493,069;  377,240;    5,426;    0,864
493,655;  112,518;    1,789;    0,682
494,241;   -8,647;    1,517;   -0,955
494,826;    6,075;    0,335;   -1,045
495,412;   49,108;    0,335;   -0,682
495,998;  -23,386;    0,971;   -0,318
496,584;   22,269;    2,244;    1,045
497,169;   35,962;    2,335;   -0,682
497,755;  -14,870;    1,244;    1,227
498,341;   91,408;    2,153;    0,318
498,926;  213,778;    2,881;    1,955
499,512;  -18,183;   -0,028;    2,955
500,097;  -20,823;   -0,574;   -0,318
500,683;    2,625;   -0,028;    2,136
501,268;  -35,690;    1,881;   -0,955
501,854;  -17,807;   -0,119;    1,227
502,439;  -23,670;   -0,573;   -1,773
503,024;   -7,229;    1,608;    0,500
503,610;    7,506;    1,335;   -0,682
504,195;  -33,007;    1,245;    1,955
504,780;   36,161;    2,335;    1,227
505,366;  104,294;    4,063;    2,864
505,951;   51,864;   -1,119;    1,045
506,536;  -11,788;    1,427;   -3,682
507,121;   32,238;    1,699;   -0,318
507,706;   -2,283;   -0,392;    1,045
508,291;  -49,764;   -2,937;    1,136
508,876;  -48,830;   -0,482;    2,591
509,461;  -11,182;    1,427;   -0,773
510,046;   23,727;   -0,391;    0,318
510,631;   35,862;   -0,119;   -0,773
511,216;  -36,512;   -0,664;   -0,500
511,801;    1,294;   -0,755;    2,591
512,386;   22,530;    0,972;    0,500
512,971;   35,213;    0,427;    0,955
513,555;   59,480;    1,154;   -1,500
514,140;   21,660;    1,336;   -3,136
514,725;  128,888;    1,791;   -1,136
515,309;   52,112;    1,064;    0,318
515,894;  -21,111;   -0,300;   -2,227
516,479;    8,879;    1,973;   -0,955
517,063;    9,715;    0,882;    1,227
517,648;   -9,889;    0,155;   -1,136
518,232;  -34,639;   -1,300;   -1,409
518,817;   46,435;    1,337;    1,682
519,401;  158,535;    0,700;    0,591
519,985;  159,288;    2,700;    1,136
520,570;   68,195;   -0,118;   -1,955
521,154;  193,730;    0,064;    0,591
521,738;  412,322;    1,064;    2,409
522,323;  298,681;   -0,390;    1,682
522,907;  366,719;    2,428;   -0,136
523,491;  349,743;    1,155;    0,955
524,075;  396,181;    0,428;    0,591
524,659;  748,530;    0,973;    0,591
525,243;  778,323;    0,883;    0,409
525,827;  848,974;    0,883;   -0,045
526,411; 1120,530;    1,155;   -0,136
526,995; 1546,215;    0,337;    1,409
527,579; 1763,789;    1,974;   -1,045
528,163; 2041,224;    0,428;   -1,500
528,747; 2529,366;    1,065;   -0,773
529,331; 2914,903;    0,883;   -1,409
529,915; 3178,637;    2,338;    0,955
530,499; 3671,513;    0,247;    1,227
531,082; 4030,863;    1,065;    1,591
531,666; 4260,196;    0,520;    0,773
532,250; 5056,985;    0,428;    2,682
532,833; 5728,032;    0,610;    2,773
533,417; 6115,990;    1,247;    0,864
534,001; 6494,541;    0,429;   -0,318
534,584; 7495,563;    1,974;    0,500
535,168; 7881,274;    3,247;    1,409
535,751; 8411,237;    4,520;    0,045
536,334; 8379,310;    4,520;   -0,409
536,918; 9330,137;    1,974;    1,591
537,501; 9787,433;    1,520;    1,318
538,085;10191,581;    1,702;    1,045
538,668;10659,928;    0,883;    2,409
539,251;11349,638;    3,156;    3,773
539,834;11736,969;    0,156;    0,773
540,418;12042,321;    3,247;    4,318
541,001;12446,496;    2,702;    1,773
541,584;12747,208;    1,429;    2,227
542,167;12707,750;    0,702;    2,955
542,750;13039,947;    0,793;   -0,773
543,333;12859,001;    1,429;    2,136
543,916;13840,309;   -0,298;    2,500
544,499;14623,721;    2,520;    0,227
545,082;14853,895;    0,248;    3,591
545,665;15180,499;   -0,207;    1,500
546,248;15663,183;    0,520;   -0,318
546,830;15514,473;   -1,752;    1,955
547,413;16068,172;    0,157;   -0,773
547,996;16714,790;    0,157;    0,500
548,579;16642,714;   -0,843;    0,955
549,161;16572,160;    0,884;    2,682
549,744;16491,174;    0,612;    0,409
550,326;17143,008;    0,885;   -1,136
550,909;16993,362;    2,339;    0,591
551,492;17450,323;    0,521;    0,227
552,074;17352,460;   -0,024;   -1,318
552,657;18006,072;    2,430;    0,045
553,239;17846,658;   -3,024;   -0,773
553,821;17859,040;   -1,570;    1,045
554,404;17420,485;   -0,024;    1,136
554,986;17841,037;    2,248;    1,045
555,568;18510,350;    0,430;   -0,955
556,151;17753,152;    4,067;   -0,227
556,733;18005,451;   -1,388;   -0,864
557,315;18556,075;    4,703;    0,500
557,897;18419,464;    0,521;   -0,500
558,479;18587,877;    1,703;    1,318
559,061;18774,575;    1,067;   -0,864
559,643;19154,883;   -0,297;    0,045
560,225;19588,160;   -0,388;    2,864
560,807;19609,792;    0,340;    0,318
561,389;19168,171;   -1,206;    2,318
561,971;19916,208;   -0,660;    2,136
562,553;19805,980;    0,613;    1,591
563,135;19975,898;    1,249;    1,136
563,717;19552,311;    3,158;    1,136
564,298;20306,153;    3,976;   -0,045
564,880;20061,106;    0,340;   -1,409
565,462;20245,924;    1,977;    1,318
566,043;21430,416;   -0,933;    2,318
566,625;20989,771;    4,067;    1,227
567,207;20874,736;    0,704;    1,682
567,788;22108,777;   -0,114;    1,500
568,370;22949,129;   -1,841;   -0,500
568,951;22781,710;   -0,569;    0,227
569,533;23726,879;    0,977;   -0,500
570,114;24227,158;   -0,296;    0,682
570,695;24756,021;   -0,478;   -1,318
571,277;25260,391;   -0,205;   -1,682
571,858;26050,980;    2,704;   -1,136
572,439;27033,023;    0,795;   -1,045
573,021;27240,850;    0,432;   -2,773
573,602;27781,563;    1,795;    0,318
574,183;28755,545;   -0,114;    2,227
574,764;28944,578;    2,068;    0,409
575,345;29503,849;    0,250;   -0,136
575,926;30184,555;    2,704;    0,136
576,507;30216,464;    2,704;   -0,227
577,088;31338,067;    1,704;    1,682
577,669;31361,189;    1,704;    1,955
578,250;32188,363;   -0,750;   -1,045
578,831;32925,424;   -0,841;   -2,227
579,412;33186,263;   -1,205;    0,955
579,993;34136,345;    1,432;    0,227
580,573;34446,477;   -0,023;   -0,955
581,154;33423,412;    1,613;   -0,591
581,735;34351,784;    0,341;    0,773
582,315;33882,784;    0,523;    2,136
582,896;34234,214;   -1,750;    1,227
583,477;33743,137;    0,614;    1,227
584,057;33938,948;    1,159;    0,955
584,638;34169,527;   -2,750;    2,318
585,218;34247,750;    2,886;    2,682
585,799;34369,718;    1,977;   -0,227
586,379;34373,067;    1,250;    1,591
586,959;33121,338;    2,613;    0,318
587,540;32465,119;    0,432;    2,227
588,120;31960,653;   -1,113;   -0,045
588,700;30903,771;    2,977;    2,136
589,281;31231,684;    1,250;   -0,955
589,861;31184,402;   -0,296;   -1,682
590,441;31014,336;   -1,477;   -2,682
591,021;29940,701;    1,432;   -2,591
591,601;30162,225;    0,431;    0,500
592,181;30182,680;   -1,296;   -0,773
592,761;29446,828;    2,250;    1,409
593,341;29428,024;    1,522;    0,045
593,921;29330,579;   -0,569;    1,591
594,501;29205,007;    1,250;    1,318
595,081;29106,233;    0,522;   -0,318
595,661;29416,834;    1,068;    0,955
596,240;29983,803;   -1,023;    0,136
596,820;29600,864;    2,613;    1,955
597,400;29791,570;    1,977;    0,773
597,980;30075,317;   -0,750;    1,045
598,559;30134,455;    0,341;   -0,227
599,139;29820,777;   -0,750;   -1,227
599,718;29705,686;    0,795;   -0,409
600,298;29953,124;   -2,387;    0,682
600,877;30207,159;    4,795;    1,409
601,457;30510,220;    0,340;    1,136
602,036;30395,671;    1,795;    2,045
602,616;30677,036;    2,250;    1,682
603,195;30949,575;    0,431;    3,500
603,774;30507,227;   -0,296;    2,045
604,354;30433,847;    2,522;   -0,500
604,933;29899,019;    0,250;    1,864
605,512;30006,566;    2,340;    0,591
606,091;30076,940;    1,886;    3,773
606,671;30916,013;    0,249;    0,773
607,250;29986,120;    1,431;    3,136
607,829;30268,842;    1,158;    3,227
608,408;30113,345;    4,613;    2,591
608,987;29113,547;    2,704;    3,409
609,566;29408,024;    0,341;   -2,500
610,145;29488,547;    2,885;    0,682
610,723;29934,340;    1,613;    6,864
611,302;29143,111;    1,067;    1,682
611,881;28599,267;    5,158;   11,227
612,460;29514,894;    0,795;    3,955
613,039;29968,310;    1,703;    2,045
613,617;28689,544;    0,886;    4,773
614,196;28890,564;    1,613;    1,227
614,775;29217,988;    1,249;    2,409
615,353;29175,320;   -1,660;    0,864
615,932;28848,493;    0,249;    2,409
616,510;29451,889;    0,158;    0,591
617,089;28975,212;    8,794;   17,591
617,667;28685,320;    4,885;    6,136
618,246;28525,982;   -1,115;    1,318
618,824;28670,891;    1,612;   -0,955
619,402;28266,990;    0,431;   -1,773
619,981;28757,884;    1,067;   -1,045
620,559;28654,596;    0,794;    1,682
621,137;28168,703;    3,067;    1,864
621,715;28149,678;    3,703;   -0,682
622,293;28082,026;    1,885;   -0,773
622,871;28569,984;    0,340;    0,500
623,450;28131,070;    0,430;   -0,864
624,028;28043,985;   -0,388;   -0,955
624,606;27646,201;    2,339;    1,682
625,183;28024,963;   -0,661;   -1,136
625,761;27620,501;    1,885;    1,136
626,339;27929,663;    2,339;    2,591
626,917;28353,421;    0,339;   -0,045
627,495;28431,115;    2,794;    1,318
628,073;27857,935;    5,248;    2,864
628,650;27521,824;    3,067;    2,136
629,228;27970,706;    1,248;    4,409
629,806;27309,568;   -0,024;    1,136
630,383;27636,760;    0,066;   -0,318
630,961;27401,510;   -2,206;   -0,955
631,539;27089,165;   -2,479;    0,227
632,116;26343,601;   12,703;   15,409
632,694;27021,867;    4,885;    6,500
633,271;27316,731;    1,975;    2,682
633,848;27201,845;    1,430;    2,045
634,426;27247,253;    1,521;    1,773
635,003;26377,109;   -0,207;   -0,409
635,580;26721,258;    1,884;    3,682
636,158;27256,453;    3,793;    1,227
636,735;27209,582;    3,339;   -0,500
637,312;27351,216;    0,521;   -0,682
637,889;27486,907;    2,248;   -0,682
638,466;26919,300;    0,066;   -0,409
639,043;26949,825;    1,702;   -1,136
639,620;27328,784;    0,611;   -0,955
640,197;27612,991;    1,612;    1,682
640,774;27763,511;    1,430;    1,136
641,351;28199,668;    0,612;    1,136
641,928;27607,006;    2,794;    1,409
642,505;27214,708;    0,794;   -0,500
643,082;27347,955;    1,885;    1,227
643,658;26328,930;    1,157;    1,500
644,235;27126,723;   -2,479;    2,500
644,812;27397,152;    1,794;    0,773
645,388;27155,217;    1,612;    1,409
645,965;27237,647;    1,521;    1,682
646,542;27313,530;    3,430;   -0,227
647,118;27301,323;    3,703;   -0,955
647,695;27621,207;    0,339;    1,136
648,271;27555,181;   -2,115;    0,500
648,848;27851,338;    0,248;    2,227
649,424;27648,949;    0,976;    1,318
650,000;27384,469;   -0,388;   -1,045
650,577;27212,989;    0,158;   -0,955
651,153;27724,418;   -1,115;    0,955
651,729;28687,847;    0,521;    0,864
652,305;28897,913;    1,339;    2,773
652,881;33637,342;   -1,297;    1,136
653,458;40857,408;    0,249;    0,227
654,034;44960,928;    0,703;    1,591
654,610;46591,811;    0,339;    0,773
655,186;47992,877;    1,612;    3,045
655,762;47707,579;   -1,842;    0,409
656,338;47705,917;    0,703;    0,136
656,913;48750,619;   -0,297;    0,409
657,489;48019,503;    0,249;   -0,318
658,065;48044,477;    0,794;   -1,591
658,641;48598,634;    2,158;   -0,864
659,217;47848,881;    2,067;    0,409
659,792;47250,583;   -1,751;   -0,409
660,368;47472,376;   -0,388;   -0,682
660,944;47141,351;    1,794;    1,227
661,519;42450,961;    0,522;    0,409
662,095;35950,754;   -0,206;    0,591
662,670;30997,911;   -0,206;   -0,136
663,246;29748,158;   -0,660;   -0,409
663,821;29005,405;    0,431;    1,682
664,396;28511,744;    0,613;    1,864
664,972;28764,355;   -0,660;   -0,500
665,547;29130,693;    3,794;    0,136
666,122;29078,031;    1,340;    0,318
666,698;29378,006;    2,431;    0,318
667,273;28680,253;    0,885;    0,136
667,848;29533,955;    0,340;    1,500
668,423;29327,293;    1,795;    2,318
668,998;29903,813;    0,976;   -0,682
669,573;30502,152;    2,067;   -1,500
670,148;30306,217;    1,885;   -0,682
670,723;30105,556;   -0,024;    0,318
671,298;30543,076;   -1,296;    1,045
671,873;30658,778;   -0,296;   -0,136
672,448;30638,479;    1,704;    0,136
673,023;30984,000;    0,249;   -0,227
673,597;31234,247;    2,704;    2,318
674,172;30981,403;    2,431;    0,318
674,747;30500,014;   -0,205;   -1,045
675,321;30461,353;   -0,933;    3,318
675,896;29990,145;    2,158;    1,045
676,471;30923,938;    2,522;    1,591
677,045;30649,276;   -0,296;    0,682
677,620;30695,433;    2,158;    1,136
678,194;31053,408;    0,249;    1,136
678,769;30624,200;    0,886;   -0,318
679,343;30807,357;   -0,023;    1,773
679,917;30736,786;    0,340;    1,955
680,492;30836,942;    0,249;    3,227
681,066;30988,099;    0,613;    0,409
681,640;31031,983;    1,795;   -0,318
682,214;31851,866;    2,340;    0,500
682,788;31329,205;    0,613;   -0,773
683,363;31286,270;    1,977;    1,682
683,937;31007,063;    0,886;   -0,318
684,511;31847,310;   -1,023;   -0,591
685,085;31533,830;   -1,478;    0,318
685,659;31301,532;    1,431;    0,864
686,232;31475,325;    1,159;   -0,318
686,806;31231,118;    2,159;    0,409
687,380;31884,183;   -1,932;    0,591
687,954;32140,976;    2,432;    1,136
688,528;31766,496;    2,613;    1,955
689,101;32574,471;    0,432;    1,045
689,675;32132,446;    0,886;   -0,136
690,249;31528,238;    3,432;    0,409
690,822;31824,213;    1,159;    0,318
691,396;31914,188;    2,068;    1,227
691,969;31392,526;    2,523;    0,136
692,543;31897,319;   -0,568;   -1,955
693,116;31489,566;   -0,659;   -1,409
693,690;31288,268;   -0,296;    0,500
694,263;31932,697;    2,341;    2,955
694,836;31928,490;    2,795;    3,591
695,410;30512,919;    1,159;    1,773
695,983;31003,803;    1,614;    0,591
696,556;31016,414;   -0,750;   -1,045
697,129;31409,479;   -1,114;    1,409
697,703;30940,727;    1,341;    1,955
698,276;30971,792;    1,705;   -0,773
698,849;30787,494;   -1,023;    1,409
699,422;31176,378;    1,250;    0,591
699,995;30866,171;   -0,659;    0,136
700,568;31307,145;   -0,204;    3,045
701,140;31359,847;   -1,841;    1,682
701,713;31121,367;    0,341;    2,409
702,286;30819,706;    0,796;    0,864
702,859;30702,771;    0,614;   -0,591
703,432;29813,473;   -0,841;    0,682
704,004;30351,902;    1,978;    0,318
704,577;30229,695;    1,068;    0,136
705,150;30754,033;    0,887;    2,500
705,722;30561,917;    1,523;   -3,227
706,295;30438,164;    1,432;   -0,591
706,867;30165,503;    0,250;    1,955
707,440;30412,477;   -0,113;   -0,409
708,012;30640,906;   -0,022;    0,591
708,584;30555,699;    2,705;    0,227
709,157;30892,401;    1,160;   -0,591
709,729;30572,376;    1,069;    2,045
710,301;31417,532;   -1,204;    0,045
710,874;31392,780;    0,341;   -0,227
711,446;30264,391;   -0,295;    0,864
712,018;30125,183;   -3,022;    0,500
712,590;29845,613;   -0,204;    1,682
713,162;30402,951;   -0,477;    1,318
713,734;30669,289;    1,796;   -2,045
714,306;30568,082;    0,342;   -0,409
714,878;29282,238;   -0,295;    0,864
715,450;30074,213;   -0,113;    0,864
716,022;30317,006;    2,433;    1,318
716,593;30456,617;    0,978;    0,591
717,165;30411,319;    1,796;   -1,227
717,737;30068,930;    0,796;    0,409
718,309;29785,632;    1,160;   -0,045
718,880;29693,697;   -1,295;   -1,409
719,452;29954,581;    0,887;   -1,591
720,024;29461,828;    1,705;   -0,591
720,595;30007,257;    2,978;    0,955
721,167;29526,596;    1,160;   -2,045
721,738;29049,479;    2,069;   -1,045
722,309;28967,999;    1,251;   -1,227
722,881;28738,429;    2,705;    0,773
723,452;29461,767;    1,251;    2,864
724,023;29698,378;    1,524;    2,682
724,595;29425,080;    2,342;    0,682
725,166;29139,691;    1,524;   -0,409
725,737;28761,120;    1,887;    0,227
726,308;28860,640;    0,797;    0,318
726,879;29263,887;    1,069;    1,227
727,450;29150,498;   -2,022;   -0,045
728,021;29123,837;    1,069;    0,682
728,592;28960,993;    1,160;    0,500
729,163;29275,877;    1,433;   -0,136
729,734;29215,124;    2,160;   -0,227
730,305;29539,190;    0,615;    0,136
730,876;29923,619;    0,888;    2,955
731,447;29655,503;    0,797;    2,682
732,017;29753,932;   -0,840;    1,864
732,588;29305,997;   -0,021;    1,227
733,159;29476,972;    3,615;   -1,045
733,729;29319,310;    1,251;    0,409
734,300;28538,376;    0,160;    0,864
734,870;28972,441;   -1,385;    0,591
735,441;29516,870;    0,888;   -0,591
736,011;29278,754;    1,070;   -1,591
736,582;29223,092;    1,251;    0,045
737,152;28656,067;    0,979;   -2,045
737,722;29139,405;    1,070;   -0,682
738,293;28807,016;   -2,021;    1,318
738,863;28703,173;    1,797;    2,318
739,433;28449,784;    4,524;    0,318
740,003;29200,940;    1,524;   -0,682
740,573;28557,551;    2,252;   -1,591
741,143;28493,435;    3,615;    0,318
741,713;29283,955;    0,252;   -0,500
742,283;28935,566;    1,706;    1,591
742,853;28679,450;    0,524;    1,591
743,423;28156,879;    0,161;    0,045
743,993;28260,308;    1,070;    1,500
744,563;27599,646;    2,524;   -0,864
745,133;27627,439;   -0,112;   -0,864
745,702;28373,141;    2,797;    1,773
746,272;27496,116;    0,434;    0,591
746,842;27261,908;   -0,748;   -0,591
747,411;27749,519;   -0,839;   -0,318
747,981;27902,767;   -0,930;    0,500
748,551;27939,650;   -0,021;   -1,045
749,120;27786,625;   -0,112;   -0,227
749,690;28169,145;    2,161;    2,409
750,259;28475,211;    0,979;    2,955
750,828;28381,549;    4,070;   -1,955
751,398;28657,615;   -0,112;   -0,045
751,967;28121,771;    2,888;    0,409
752,536;28331,382;    1,161;   -0,227
753,105;28757,629;   -1,384;    0,227
753,675;28574,149;   -0,112;    1,773
754,244;28551,488;    0,888;    3,591
754,813;28567,008;    0,979;    1,227
755,382;28159,619;    0,798;    0,955
755,951;28683,866;   -0,112;    3,682
756,520;28204,750;    2,525;    1,864
757,089;28744,270;    1,888;    0,500
757,658;28901,426;    2,434;    1,227
758,227;28889,856;   -1,111;    0,318
758,795;29252,285;   -1,021;    1,136
759,364;29504,168;    0,525;   -0,591
759,933;28468,598;    1,343;   -0,045
760,501;28039,299;    0,252;   -1,318
761,070;28482,092;   -0,293;   -1,409
761,639;29224,703;    1,434;    1,318
762,207;28512,223;    0,889;   -0,955
762,776;28408,107;    2,889;    0,864
763,344;28298,173;    0,071;    0,591
763,913;27419,965;    1,616;    1,409
764,481;28220,940;    1,980;   -0,136
765,049;28057,824;    0,616;    1,409
765,618;27927,798;    1,434;    0,318
766,186;27999,682;    2,434;    0,136
766,754;28190,748;    1,798;    1,864
767,322;27157,450;    1,162;    0,409
767,890;27145,061;    0,525;   -1,773
768,459;27562,944;    2,616;   -0,318
769,027;27750,283;    2,525;    3,409
769,595;26694,803;    2,616;    2,591
770,163;27087,323;    3,344;    2,955
770,730;26835,479;    2,525;   -0,136
771,298;26727,090;    1,162;   -1,409
771,866;26848,974;    0,253;    4,955
772,434;27119,948;    1,162;   -1,864
773,002;27244,287;    2,616;    0,682
773,569;26830,443;    1,071;    1,682
774,137;26694,509;    0,889;   -0,045
774,705;27451,029;   -0,747;   -0,136
775,272;26984,822;    0,253;    0,682
775,840;26764,251;   -0,111;    2,682
776,407;26243,771;   -0,293;    1,955
776,975;25852,746;    1,162;    0,318
777,542;26853,993;    2,162;   -0,045
778,110;26693,331;    0,707;   -0,045
778,677;26389,306;    1,071;   -0,864
779,244;26101,189;   -1,020;    1,045
779,812;26301,437;    0,980;    0,864
780,379;26085,684;    2,435;    1,136
780,946;26341,204;    2,617;   -0,773
781,513;26661,815;   -0,565;    0,318
782,080;25984,154;    1,253;    2,864
782,647;26760,128;    1,708;    3,045
783,214;26324,285;   -0,201;    3,864
783,781;25952,805;    1,708;   -0,682
784,348;25866,507;    0,253;    1,500
784,915;26329,027;   -1,474;    0,318
785,482;26019,274;    2,708;    2,591
786,049;26498,340;    1,071;   -0,591
786,615;26588,405;    1,708;   -0,955
787,182;26322,107;   -3,201;   -0,682
787,749;25941,627;   -2,201;    1,409
788,315;25280,147;    0,253;   -0,409
788,882;25584,485;    0,981;   -1,227
789,448;26267,187;    1,435;   -0,955
790,015;26311,798;    1,799;    3,227
790,581;25867,682;    0,708;    0,227
791,148;25734,384;    1,344;    1,045
791,714;26007,631;   -1,019;    3,136
792,280;25653,606;    3,708;    1,591
792,847;25208,944;   -0,928;    2,500
793,413;25794,282;   -0,110;   -0,318
793,979;25310,348;    1,526;   -1,318
794,545;25387,959;    2,981;    2,682
795,111;24774,661;    2,435;    1,318
795,678;24949,454;    3,526;   -1,682
796,244;24621,156;    2,799;    0,136
796,810;25178,221;    0,799;    0,773
797,375;24867,559;   -0,292;   -2,136
797,941;24885,443;   -1,110;    0,591
798,507;25069,690;    0,254;   -0,955
799,073;24609,938;    2,708;    0,591
799,639;24692,276;    1,435;    3,136
800,205;24699,160;   -1,565;    2,682
800,770;24165,680;    1,345;    1,773
801,336;24200,200;    2,981;   -0,955
801,901;23886,902;    6,072;    3,136
802,467;24493,422;    0,526;    2,045
803,033;23837,033;   -0,019;    0,864
803,598;24046,644;    1,072;   -1,045
804,163;24052,073;    0,708;   -0,318
804,729;24012,775;   -0,110;    1,136
805,294;24378,750;    1,072;    2,227
805,859;24228,724;    0,890;   -0,409
806,425;23690,881;    3,890;    2,682
806,990;23317,128;    1,890;    4,318
807,555;23884,375;   -0,110;    2,591
808,120;23717,896;   -1,292;   -0,409
808,685;23733,779;    1,072;   -2,500
809,250;23263,208;    2,072;   -0,500
809,815;23612,910;   -0,201;    0,682
810,380;24127,521;    0,981;    1,591
810,945;24650,496;    2,890;    2,045
811,510;23826,016;   -0,200;    1,591
812,075;23553,354;    2,800;   -1,409
812,640;23579,329;    3,709;    1,409
813,204;23575,122;    2,163;   -0,227
813,769;24129,096;    0,254;   -0,045
814,334;23518,707;    0,527;    0,864
814,898;23568,955;    1,981;    0,591
815,463;23402,748;    0,981;   -0,773
816,027;23361,722;    1,345;   -2,318
816,592;23500,242;    2,163;   -2,045
817,156;22946,853;   -2,200;    1,136
817,721;22751,646;    0,982;    2,318
818,285;22710,893;    0,618;    1,500
818,849;23388,868;   -0,018;    1,682
819,414;23278,843;    0,073;    2,955
819,978;22812,999;   -0,291;    1,773
820,542;23428,519;    2,891;    0,500
821,106;23175,948;    2,800;    0,682
821,670;23236,923;    2,709;    2,591
822,234;22958,716;    1,073;    1,409
822,798;22333,690;   -0,836;    0,500
823,362;22268,574;    1,527;    4,227
823,926;21530,003;   -0,018;    1,136
824,490;21767,614;    3,527;   -0,682
825,054;22247,771;    2,527;   -1,136
825,618;21861,745;   -1,200;   -1,500
826,181;21823,811;    0,982;   -1,318
826,745;21703,786;   -0,745;   -1,045
827,309;22060,397;    2,255;    1,318
827,872;21433,098;    0,527;    0,955
828,436;22478,800;    1,982;   -0,773
828,999;22567,502;    2,436;    1,227
829,563;21304,841;   -0,654;    1,136
830,126;21143,088;   -0,018;   -0,591
830,690;21147,517;    0,709;    2,864
831,253;20639,037;   -0,473;    2,227
831,816;20766,284;   -0,018;    0,500
832,380;20660,259;    1,164;    0,864
832,943;20908,234;    3,073;   -0,500
833,506;20441,754;    0,255;   -1,227
834,069;21229,547;    2,164;   -0,955
834,632;21277,521;   -2,200;    1,318
835,195;21166,950;    1,346;    0,955
835,758;20325,198;    0,709;    1,955
836,321;20112,809;    1,073;   -1,045
836,884;20225,602;   -1,291;   -0,955
837,447;20280,940;    0,528;    1,773
838,010;20549,824;    1,800;    3,227
838,573;20860,162;    0,528;    0,773
839,135;20794,500;   -0,109;   -0,955
839,698;20227,475;    2,528;    0,409
840,261;19762,177;    0,255;   -0,227
840,823;19582,515;   -0,927;    0,864
841,386;19852,217;   -0,018;   -2,409
841,948;19740,646;    0,255;    1,773
842,511;19464,439;    0,255;    1,682
843,073;19623,413;    2,982;    0,227
843,636;19467,479;    0,619;   -0,227
844,198;19375,090;    1,255;    0,591
844,760;19513,155;    0,619;    1,955
845,322;19152,948;    0,164;    1,136
845,885;19539,468;   -0,290;    0,591
846,447;20013,534;    0,710;    0,227
847,009;19551,236;    3,983;   -0,682
847,571;19906,665;    1,346;   -2,045
848,133;19965,549;   -0,199;   -1,864
848,695;19788,614;    2,346;    1,409
849,257;19345,680;    1,346;   -1,682
849,819;19510,200;    2,983;   -0,409
850,381;19584,174;    1,801;   -0,864
850,942;19935,785;    1,892;   -0,591
851,504;19832,033;    0,983;    0,227
852,066;19874,644;    1,619;   -1,591
852,628;19449,982;    0,165;    1,955
853,189;18989,684;    0,256;    2,682
853,751;19089,113;   -0,654;    1,409
854,312;18919,179;    1,256;   -1,682
854,874;19489,062;   -0,108;   -0,773
855,435;19951,310;    0,528;   -1,682
855,997;20104,012;    3,983;   -0,136
856,558;19355,259;    0,801;    1,773
857,119;19483,506;   -0,744;    2,864
857,681;19151,481;   -0,108;    0,318
858,242;19176,274;    1,347;   -2,136
858,803;19621,612;    1,074;   -0,773
859,364;20194,223;    0,892;   -4,773
859,925;19501,380;   -0,290;   -0,955
860,486;19414,536;    0,529;   -0,955
861,047;19123,147;    0,165;   -1,227
861,608;18906,849;    0,165;   -0,773
862,169;19082,369;   -0,562;   -0,045
862,730;18886,980;   -0,290;    1,409
863,291;19116,045;    0,438;   -0,500
863,852;19428,838;   -0,926;    1,955
864,412;18887,177;   -1,835;   -0,864
864,973;17442,151;    1,892;    0,500
865,534;17270,399;    2,074;    0,227
866,094;18817,828;    2,620;    0,227
866,655;18421,802;    4,711;    3,318
867,215;18770,868;    0,074;    0,136
867,776;18628,843;   -1,199;   -0,136
868,336;18695,453;    1,529;    0,136
868,897;18136,155;    3,438;    1,682
869,457;17886,403;    3,256;    0,318
870,017;18171,468;    2,438;   -1,227
870,578;18659,170;    1,893;    0,773
871,138;18272,599;    2,620;   -0,955
871,698;17819,029;   -0,562;   -1,318
872,258;17705,640;    0,711;   -2,864
872,818;18054,160;    2,347;    0,045
873,378;18000,771;   -2,198;    1,045
873,938;17619,927;    4,984;    0,500
874,498;17958,629;    1,256;   -1,955
875,058;17817,876;    4,347;    1,773
875,618;17667,669;    1,438;   -2,682
876,177;17617,189;   -0,471;    0,136
876,737;17168,437;   -0,289;    1,955
877,297;17183,320;    2,711;    1,955
877,856;17223,386;    2,529;    0,318
878,416;17154,997;    2,438;   -0,136
878,976;17403,062;    3,438;    0,409
879,535;17555,946;    4,529;    3,136
880,095;17270,830;    1,347;    0,045
880,654;17382,168;    0,347;    1,318
881,213;17477,324;    2,347;    1,500
881,773;17126,481;    1,984;    2,682
882,332;17475,183;    6,075;    5,136
882,891;17353,430;    0,711;    2,136
883,451;17785,132;   -2,016;    1,682
884,010;17260,016;   -1,107;   -0,409
884,569;17357,627;   -2,289;   -0,045
885,128;17477,692;   -0,743;   -1,864
885,687;17535,394;   -0,743;    0,682
886,246;17221,551;    2,620;    2,136
886,805;17000,071;    1,620;    2,045
887,364;17334,136;    1,166;   -0,500
887,922;17672,475;   -0,016;    0,045
888,481;17129,722;    1,530;    0,591
889,040;17485,515;    3,711;    2,136
889,599;18150,580;    2,166;    1,409
890,157;18259,464;    2,166;    2,409
890,716;17900,893;    2,166;    0,227
891,274;17628,868;    0,075;   -1,136
891,833;18100,570;    1,166;    0,864
892,391;17989,090;    1,802;    0,500
892,950;18041,883;    0,166;   -0,773
893,508;18384,312;    0,984;   -0,409
894,067;17736,741;   -0,379;    0,136
894,625;17667,170;   -1,016;   -1,500
895,183;17885,690;   -0,198;   -0,682
895,741;17816,392;    2,257;   -1,773
896,299;17657,549;    1,621;   -2,409
896,858;17841,887;    1,530;   -1,591
897,416;17950,680;    0,166;   -1,318
897,974;17702,291;   -2,197;    0,318
898,532;17827,265;    6,530;    2,682
899,089;17750,240;    0,621;   -0,682
899,647;17830,124;    0,530;    1,318
900,205;17474,735;    0,257;    1,045
900,763;17655,346;    2,166;    0,227
901,321;17696,775;    3,530;   -1,409
901,878;17116,568;    3,257;   -0,773
902,436;16987,088;    0,257;    1,318
902,994;17395,153;    6,712;    3,682
903,551;16846,764;    1,439;    0,409
904,109;17260,557;    1,530;   -1,409
904,666;16806,895;    1,439;    1,045
905,224;16571,415;    3,894;   -0,409
905,781;16312,572;   -0,470;   -0,318
906,338;16415,365;    0,167;    1,045
906,895;16336,066;    1,894;    2,045
907,453;16275,768;    2,348;    1,136
908,010;16286,652;    3,348;    0,409
908,567;15857,354;   -0,561;    0,591
909,124;15416,147;    2,439;   -1,500
909,681;15494,212;   -1,288;    0,682
910,238;15654,460;   -0,106;   -1,318
910,795;15969,253;   -1,561;   -1,136
911,352;15576,889;   -0,379;   -2,682
911,909;14984,434;    2,803;   -0,864
912,466;15503,071;    1,985;    1,500
913,022;15004,525;   -0,924;    0,500
913,579;15382,162;   -0,470;    2,045
914,136;15067,343;   -2,561;    0,955
914,692;15420,707;    1,530;   -1,227
915,249;14983,707;    0,530;    0,409
915,806;15189,071;    1,803;    1,955
916,362;14896,707;    0,894;    1,864
916,918;14454,889;    2,439;    1,045
917,475;14487,162;    1,621;    0,955
918,031;14604,798;    0,076;   -0,045
918,587;14049,980;    0,621;   -0,318
919,144;14228,071;   -0,379;    0,227
919,700;14557,343;    0,167;    0,773
920,256;14089,434;    0,439;    0,045
920,812;13708,253;    1,439;   -1,045
921,368;13704,707;    1,348;   -1,045
921,924;13324,889;    0,439;   -0,136
922,480;12924,525;    0,076;    1,227
923,036;13545,889;   -0,652;    1,955
923,592;13450,253;    0,621;    0,318
924,148;13371,980;    1,894;   -0,955
924,704;12715,980;    0,258;   -0,409
925,259;12965,434;   -0,561;    0,591
925,815;12733,253;    3,803;    0,500
926,371;12271,616;    3,530;    1,409
926,926;12131,253;    1,621;    0,591
927,482;11725,525;    1,621;    0,773
928,037;11598,616;   -0,833;    2,045
928,593;11938,798;    0,258;    1,045
929,148;11714,071;    1,167;   -1,500
929,704;11221,162;    2,439;   -0,500
930,259;11418,434;    0,894;   -0,136
930,814;10481,889;    1,803;    1,955
931,369;10165,980;    0,258;   -0,773
931,925;10066,980;   -1,924;    0,136
932,480; 9933,343;    3,076;   -2,591
933,035; 9823,980;    3,985;   -0,318
933,590; 9597,525;   -1,742;   -1,773
934,145; 9236,798;   -1,288;   -0,318
934,700; 9586,162;    0,348;   -0,591
935,255; 9356,162;    4,803;    0,045
935,809; 8608,162;    6,258;    0,864
936,364; 7752,616;    2,167;   -0,136
936,919; 7710,525;    2,348;   -1,773
937,474; 7590,707;    1,348;    0,136
938,028; 7361,162;    3,076;    1,136
938,583; 6780,798;    6,348;    4,682
939,138; 7084,071;    0,167;    2,136
939,692; 6530,525;   -1,015;   -1,136
940,247; 6190,707;    1,167;   -1,045
940,801; 5724,980;    0,621;    0,227
941,355; 5624,707;    0,439;    2,591
941,910; 5286,889;    0,712;   -2,136
942,464; 5378,162;    2,712;   -0,318
943,018; 5153,707;    3,258;   -0,227
943,572; 5100,434;    2,803;   -0,682
944,126; 4484,434;   -0,924;   -0,409
944,681; 4367,434;    0,712;    0,227
945,235; 4370,525;    2,167;   -0,591
945,789; 4320,434;    1,258;   -1,864
946,342; 4392,707;   -0,561;   -0,591
946,896; 4212,707;    0,348;    0,955
947,450; 3963,343;   -0,561;   -0,227
948,004; 4144,071;    1,076;   -0,045
948,558; 4192,525;    1,258;   -0,864
949,111; 4094,980;   -1,197;   -0,318
949,665; 4126,071;   -0,106;   -0,682
950,219; 3980,616;    0,621;   -1,045
950,772; 4075,525;    0,258;    1,864
951,326; 3981,343;   -1,106;   -0,955
951,879; 4071,253;    1,076;   -2,318
952,433; 4094,889;    1,348;    2,227
952,986; 3942,707;    0,348;    0,682
953,539; 3883,162;    1,530;    0,591
954,093; 3825,525;    0,985;   -1,318
954,646; 3959,980;   -0,288;    1,318
955,199; 3766,253;    1,258;   -0,500
955,752; 3618,707;    1,985;    1,773
956,305; 3579,071;    0,894;    2,955
956,858; 3765,434;    0,621;   -0,318
957,411; 3952,980;    3,621;    2,136
957,964; 3767,980;    2,076;    2,136
958,517; 3758,253;    0,985;    3,136
959,070; 3571,071;   -1,197;    1,955
959,623; 3635,525;    1,076;    1,500
960,176; 3397,616;    0,712;    2,045
960,728; 3375,798;    1,712;    0,773
961,281; 3458,707;    2,258;    0,500
961,834; 3493,162;   -0,833;    0,864
962,386; 3412,253;    1,258;    1,045
962,939; 3320,343;    3,439;   -0,318
963,491; 3496,980;    2,621;    1,136
964,043; 3343,071;    0,076;    2,409
964,596; 3469,798;    1,712;    2,227
965,148; 3285,343;   -0,379;    1,773
965,700; 3228,798;   -0,015;   -0,227
966,253; 3390,162;   -0,833;    0,318
966,805; 3209,798;    1,894;    0,773
967,357; 3266,162;    0,439;   -1,500
967,909; 3195,071;    1,167;   -1,227
968,461; 3341,798;    0,894;    3,136
969,013; 3274,253;   -1,561;   -0,864
969,565; 3342,343;    1,803;   -1,136
970,117; 3406,434;    3,803;    1,045
970,669; 3250,253;    3,258;   -0,136
971,220; 3113,525;    2,167;   -1,500
971,772; 3032,525;    1,348;   -0,318
972,324; 3138,980;   -1,197;   -0,500
972,876; 3096,162;    0,167;   -0,045
973,427; 3208,798;   -1,197;   -1,045
973,979; 3200,434;    0,076;   -2,500
974,530; 3233,162;    0,803;    1,318
975,082; 3241,707;    2,167;    1,682
975,633; 3128,889;    2,894;    1,682
976,184; 3278,707;    2,076;    0,773
976,736; 3060,253;    0,348;    0,227
977,287; 2843,980;    0,258;   -0,500
977,838; 3035,434;   -0,924;   -0,318
978,389; 3081,343;    0,803;   -0,500
978,940; 2969,980;    1,258;   -0,409
979,491; 3006,798;    2,258;   -0,500
980,042; 2929,253;   -0,652;    3,045
980,593; 3015,253;    1,894;    0,227
981,144; 3070,616;    3,530;   -0,500
981,695; 3024,616;   -0,470;    1,500
982,246; 2984,707;   -1,833;    1,045
982,797; 3137,889;   -0,561;    0,682
983,347; 3274,798;    2,167;    0,591
983,898; 3398,162;    4,167;    0,409
984,449; 3218,525;    2,530;    0,773
984,999; 3147,707;    1,894;   -1,136
985,550; 2905,434;    3,167;   -0,318
986,100; 2959,162;    0,712;   -0,318
986,651; 2999,980;    0,258;    0,045
987,201; 2974,707;    0,894;   -0,591
987,751; 3062,798;   -0,288;    2,864
988,302; 3051,253;   -0,379;    1,500
988,852; 3069,616;    1,985;   -1,136
989,402; 3117,071;    0,985;    0,682
989,952; 3025,434;    1,621;    0,864
990,502; 3129,434;    1,076;    0,682
991,052; 3086,980;   -0,106;    0,045
991,602; 2942,162;    1,167;    1,318
992,152; 2941,707;    2,803;    0,682
992,702; 2940,071;    1,167;   -0,045
993,252; 2844,343;    0,076;   -0,500
993,802; 2918,162;    1,167;    1,318
994,352; 3192,889;   -0,742;    1,136
994,901; 3299,889;    1,076;    3,227
995,451; 3193,980;   -1,197;    0,318
996,000; 3282,434;    1,076;    0,318
996,550; 2978,343;    2,894;    0,227
997,100; 2994,707;   -0,561;   -0,045
997,649; 3276,616;   -0,197;    0,955
998,198; 2887,071;   -0,288;   -1,500
998,748; 3070,434;    0,348;   -2,318
999,297; 2986,253;    0,985;   -0,409
999,846; 3058,980;    1,894;   -0,773
1000,395; 3107,071;    1,530;    0,500
1000,945; 3057,525;    1,076;   -0,773
1001,494; 3133,980;    0,167;    0,682
1002,043; 3143,253;    0,712;    0,864
1002,592; 2987,434;    3,439;    1,955
1003,141; 3111,253;    2,439;   -0,682
1003,690; 2936,707;    1,258;    0,500
1004,238; 3026,253;   -0,106;   -0,045
1004,787; 2655,071;   -1,288;    1,227
1005,336; 2896,707;    1,621;    0,682
1005,885; 3057,889;   -0,197;   -2,773
1006,433; 3217,889;   -0,470;    0,955
1006,982; 3269,434;    2,167;    1,682
1007,531; 3167,525;    2,712;   -0,227
1008,079; 3130,343;    0,258;    0,500
1008,627; 3280,434;    1,621;    0,409
1009,176; 3008,889;    0,076;   -1,955
1009,724; 3049,071;   -2,742;    0,864
1010,273; 3092,343;    1,076;    0,500
1010,821; 3251,343;    1,076;    1,409
1011,369; 2968,525;    0,076;    1,318
1011,917; 2930,343;   -0,833;   -0,591
1012,465; 3213,253;    2,530;   -1,591
1013,013; 3338,525;    0,439;   -1,682
1013,561; 3211,980;   -1,288;   -0,773
1014,109; 3262,071;   -0,833;    1,682
1014,657; 3113,889;    1,348;    0,591
1015,205; 3248,253;    0,894;   -0,955
1015,753; 3305,071;    0,258;   -1,409
1016,301; 3328,980;    2,621;    3,045
1016,848; 3345,162;    2,167;    0,409
1017,396; 3373,616;    1,621;    0,045
1017,944; 3499,162;    2,621;    1,864
1018,491; 3247,889;   -0,197;    1,409
1019,039; 3410,071;   -0,652;    0,591
1019,586; 3324,253;    0,076;    1,682
1020,134; 3427,253;    0,712;    1,500
1020,681; 3408,707;    2,894;   -1,136
1021,228; 3435,071;   -0,561;   -2,227
1021,776; 3286,525;   -0,833;   -1,136
1022,323; 3488,343;    0,803;    0,773
1022,870; 3427,980;   -0,470;   -0,045
1023,417; 3313,980;    2,076;    1,864
1023,964; 3478,162;    0,621;    1,227
1024,511; 3316,980;   -0,652;    0,773
1025,058; 3083,071;    0,439;   -0,045
1025,605; 3152,707;   -1,742;    3,136
1026,152; 3359,889;   -0,106;   -0,591
1026,699; 3101,071;    0,167;    1,318
1027,245; 3276,253;    2,439;    0,318
1027,792; 3499,253;    0,712;    1,409
1028,339; 3361,889;    4,076;   -0,045
1028,885; 3209,253;    3,621;   -0,227
1029,432; 3148,889;   -0,106;    0,227
1029,978; 3185,707;    1,348;   -1,591
1030,525; 3101,525;    1,621;    0,409
1031,071; 3375,071;    0,348;    1,136
1031,618; 3458,162;    1,258;    1,682
1032,164; 3254,525;    2,076;    3,045
1032,710; 3295,434;    0,076;   -1,500
1033,256; 3210,707;    0,712;   -0,136
1033,803; 3207,434;   -0,288;    1,500
1034,349; 2941,616;    1,803;    0,136
1034,895; 3088,343;    2,621;   -0,318
1035,441; 3061,253;    0,439;    0,318
1035,987; 3080,071;   -2,288;   -0,682
1036,533; 3075,798;   -0,197;   -0,955
1037,078; 3275,253;    4,712;    1,682
1037,624; 3084,162;    2,439;   -0,955
1038,170; 3128,343;    1,712;   -0,318
1038,716; 3005,980;    2,167;   -0,409
1039,261; 2918,616;    2,167;   -0,773
1039,807; 2850,798;   -0,015;    3,409
1040,352; 2911,434;   -1,288;   -0,318
1040,898; 2960,798;    0,167;   -0,682
1041,443; 2885,980;    0,803;   -2,591
1041,989; 2895,980;    3,621;    1,591
1042,534; 2786,798;    0,985;    2,591
1043,079; 2904,616;    1,985;    0,955
1043,625; 2667,434;    0,258;    0,500
1044,170; 2715,071;    2,439;    1,045
1044,715; 2979,434;    0,167;    0,955
1045,260; 2815,707;   -0,833;   -0,955
1045,805; 2867,980;    0,258;   -0,591
1046,350; 2805,889;    0,530;   -0,409
1046,895; 2757,889;    0,803;    1,591
1047,440; 2690,162;    1,530;    0,409
1047,985; 2599,707;   -1,197;   -0,955
1048,530; 2501,707;    1,348;    1,227
1049,074; 2587,071;    2,803;    0,318
1049,619; 2567,707;   -0,924;    1,955
1050,164; 2365,253;    1,076;    0,227
1050,708; 2401,071;    2,621;    0,045
1051,253; 2759,980;    3,258;   -2,227
1051,797; 2481,071;   -0,197;   -1,318
1052,342; 2525,889;    1,348;    1,045
1052,886; 2477,616;    1,803;   -1,409
1053,430; 2377,980;    2,167;    0,136
1053,975; 2387,889;    0,894;   -0,318
1054,519; 2375,343;    1,803;    3,227
1055,063; 2374,798;    3,621;    1,318
1055,607; 2243,889;    1,348;    0,227
1056,151; 2273,707;    0,530;    1,682
1056,695; 2205,798;   -1,833;   -1,136
1057,239; 2256,798;   -1,197;   -0,682
1057,783; 2266,162;    2,258;   -1,500
1058,327; 2220,707;    3,076;    1,409
1058,871; 2441,798;    3,985;    1,318
1059,415; 2141,980;   -0,561;   -0,045
1059,958; 2383,343;    2,985;    2,591
1060,502; 2124,253;    1,348;   -0,773
1061,046; 2046,798;    1,712;   -0,955
1061,589; 2003,798;    2,803;   -1,136
1062,133; 1896,071;    0,985;    1,864
1062,676; 1826,980;    1,439;    0,864
1063,220; 1828,434;    0,985;    0,500
1063,763; 1829,434;    2,985;    1,136
1064,306; 1904,434;    0,985;    1,864
1064,849; 1809,616;    2,076;    0,591
1065,393; 1823,434;    2,894;   -1,500
1065,936; 1935,980;    2,530;   -0,409
1066,479; 1822,434;    2,621;    1,318
1067,022; 1850,162;    1,894;   -0,227
1067,565; 1748,889;   -1,197;   -1,318
1068,108; 1782,889;    1,258;   -0,591
1068,651; 1754,434;   -2,470;    1,409
1069,194; 1685,707;   -1,106;   -1,682
1069,736; 1668,162;    3,803;    0,955
1070,279; 1649,434;   -1,652;   -0,500
1070,822; 1693,343;    1,530;   -0,318
1071,364; 1767,162;    0,530;    1,318
1071,907; 1601,525;    0,348;    3,227
1072,450; 1519,798;    0,258;   -0,045
1072,992; 1506,343;   -0,561;    3,136
1073,535; 1625,980;    0,167;    2,136
1074,077; 1432,162;    2,985;    2,045
1074,619; 1407,525;    0,985;    0,591
1075,161; 1431,525;   -0,561;    1,500
1075,704; 1599,343;    0,258;    1,227
1076,246; 1417,980;    1,530;    0,682
1076,788; 1346,798;   -1,015;    1,773
1077,330; 1434,162;   -2,106;    2,136
1077,872; 1378,434;   -1,924;    0,955
1078,414; 1600,980;    3,712;    0,773
1078,956; 1331,162;    0,167;   -0,227
1079,498; 1587,707;    0,439;    0,318
1080,040; 1274,798;    0,985;   -1,318
1080,581; 1227,889;    0,621;   -0,318
1081,123; 1180,162;   -0,106;   -0,773
1081,665; 1212,162;    3,803;   -0,955
1082,206; 1488,071;    3,258;   -0,500
1082,748; 1367,707;    3,258;    2,045
1083,289; 1251,707;    0,167;    1,318
1083,831; 1144,343;    0,258;    0,227
1084,372; 1178,253;    0,894;    0,591
1084,913; 1186,707;    3,348;    0,864
1085,455; 1163,707;    1,530;   -2,045
1085,996; 1120,980;    0,530;    0,136
1086,537; 1149,980;    0,985;    0,864
1087,078; 1181,980;    0,439;   -2,136
1087,619; 1220,980;   -1,652;    0,227
1088,160; 1136,525;    1,439;    1,318
1088,701; 1123,707;   -0,742;    0,682
1089,242; 1061,889;   -0,561;   -2,227
1089,783; 1150,434;   -0,561;    1,409
1090,324; 1116,162;   -0,833;    0,682
1090,865; 1000,798;   -1,924;   -0,409
1091,405;  987,616;   -0,561;    2,227
1091,946; 1007,071;   -0,197;   -0,955
1092,487;  935,980;   -1,288;   -1,409
1093,027; 1101,525;    1,803;   -1,500
1093,568;  947,071;    2,258;    1,227
1094,108; 1029,434;    0,621;    1,773
1094,649;  983,889;   -0,470;    0,136
1095,189;  915,343;    1,167;   -0,682
1095,729;  865,889;    0,712;    0,955
1096,269;  880,434;    1,258;   -0,955
1096,810; 1173,980;   -0,197;    0,500
1097,350; 1007,798;   -0,561;   -0,773
1097,890;  920,434;    2,985;    1,227
1098,430; 1157,071;    4,985;    2,864
1098,970; 1025,707;    1,894;    1,682
1099,510;  907,162;   -0,833;   -2,318
1100,050;  832,434;    0,258;   -1,591
1100,589;  788,071;    0,076;   -0,318
1101,129;  910,071;    0,894;   -0,955
1101,669; 1043,707;    2,803;    2,136
1102,209;  888,616;    1,530;    2,227
1102,748;  843,434;    3,439;    0,955
1103,288;  823,525;    0,712;   -1,227
1103,827;  849,162;    3,530;   -2,227
1104,367;  734,889;    1,712;   -2,409
1104,906;  699,889;   -1,015;   -1,136
1105,445;  771,253;    0,985;   -1,136
1105,985;  713,253;   -0,652;    1,500
1106,524;  753,343;    1,530;   -0,682
1107,063;  734,525;    1,167;    1,409
1107,602;  711,707;    1,894;   -1,500
1108,141;  631,343;    1,621;    1,500
1108,680;  726,616;    3,985;   -0,591
1109,219;  673,434;    0,167;   -0,500
1109,758;  666,980;    4,167;    0,682
1110,297;  646,707;   -1,106;   -0,682
1110,836;  596,980;    1,439;    0,955
1111,375;  742,343;    0,348;    0,409
1111,913;  751,889;    0,985;    0,773
1112,452;  702,980;    0,894;    0,136
1112,991;  590,162;    1,076;    1,955
1113,529;  546,889;    0,167;   -0,045
1114,068;  604,525;    0,439;    2,955
1114,606;  513,616;   -0,561;   -0,955
1115,144;  672,253;    1,530;    1,045
1115,683;  608,525;    1,985;    0,318
1116,221;  672,525;    2,076;   -0,864
1116,759;  583,616;    1,621;   -0,864
1117,297;  757,071;    1,621;    1,864
1117,836;  564,525;    1,985;   -1,227
1118,374;  567,253;    0,258;   -0,682
1118,912;  529,162;    0,439;    2,682
1119,450;  523,071;    0,985;    0,864
1119,988;  560,434;    3,348;    2,136
1120,525; 1002,434;    7,258;    3,318
1121,063;  713,707;    0,530;    1,864
1121,601;  517,253;    1,076;   -1,227
1122,139;  478,798;    1,076;   -2,045
1122,676;  669,253;   -1,652;    2,773
1123,214;  605,798;    0,712;    4,409
1123,751;  421,071;    0,621;    2,227
1124,289;  541,434;    0,894;   -0,409
1124,826;  421,162;   -0,379;    0,227
1125,364;  344,343;    0,712;   -0,955
1125,901;  529,253;    6,258;    1,227
1126,438;  629,889;    3,530;    0,955
1126,975;  381,707;    2,985;   -0,773
1127,513;  429,253;    2,621;    2,136
1128,050;  350,343;   -0,561;   -0,682
1128,587;  443,616;    1,348;   -0,227
1129,124;  480,162;   -0,015;    1,318
1129,661;  358,434;   -1,924;    0,227
1130,198;  516,071;    2,439;    0,773
1130,734;  454,071;   -0,379;    1,409
1131,271;  328,525;   -1,197;    0,864
1131,808;  493,253;    1,621;    3,045
1132,345;  366,616;    4,530;    0,318
1132,881;  249,162;   -0,561;   -1,864
1133,418;  373,071;    0,348;   -1,136
1133,954;  318,162;    0,712;   -2,682
1134,491;  383,071;    1,712;   -0,773
1135,027;  291,253;    2,167;    0,864
1135,564;  369,071;    1,439;    2,955
1136,100;  348,980;   -0,742;    2,136
1136,636;  258,889;   -1,015;   -1,045
1137,172;  334,434;    0,894;   -1,045
1137,708;  270,525;   -1,561;   -1,045
1138,245;  266,980;    0,803;   -1,227
1138,781;  228,162;    1,803;   -3,318
1139,317;  292,253;    1,894;   -1,409
1139,852;  277,434;    3,076;    0,136
1140,388;  386,525;    2,076;   -0,409
1140,924;  285,707;    1,076;   -2,227
1141,460;  226,707;   -0,288;    0,136
1141,996;  156,253;   -0,652;    2,682
1142,531;  201,434;    1,076;    3,318
1143,067;  406,616;    1,167;    1,045
1143,602;  456,071;    3,439;   -0,318
1144,138;  311,707;    0,803;    1,045
1144,673;  185,616;    1,621;    1,409
1145,209;  247,980;    2,894;   -0,318
1145,744;  176,525;    0,803;    0,864
1146,279;  302,071;    1,530;   -0,136
1146,815;  229,798;    1,530;   -2,682
1147,350;  265,980;   -0,924;    0,045
1147,885;  182,798;   -1,924;   -1,318
1148,420;  180,253;    2,439;    0,773
1148,955;  163,616;   -1,470;    1,864
1149,490;  196,980;   -1,106;   -1,591
1150,025;  168,434;   -1,106;   -1,773
1150,560;  267,253;   -0,288;   -0,955
1151,094;  247,253;    0,258;   -0,591
1151,629;  245,071;   -3,742;    0,864
1152,164;  177,162;   -1,288;    1,318
1152,698;  141,071;    1,258;   -0,136
1153,233;   98,980;   -1,379;   -0,682
1153,767;  149,253;   -0,288;   -2,318
1154,302;  185,343;   -0,379;    1,773
1154,836;  184,616;    0,803;   -2,136
1155,371;  244,980;    2,258;    3,682
1155,905;  192,980;    1,985;    1,682
1156,439;  161,798;    0,530;   -0,500
1156,973;  193,525;    0,439;    0,318
1157,507;  126,889;   -1,742;    0,682
1158,042;  161,798;   -0,652;    1,045
1158,576;  197,980;   -0,561;    1,773
1159,110;  191,071;    0,076;    2,409
1159,643;  170,707;   -2,470;   -0,045
1160,177;  118,707;   -2,015;    1,500

