
Integration time [ms]:   0,050
Averaging Nr. [scans]: 11
Smoothing Nr. [pixels]: 0
Data measured with spectrometer [name]: 7318044SP
Wave   ;Sample   ;Dark     ;Reference
[nm]   ;[counts] ;[counts] ;[counts] 

186,757;  -19,934;   38,161;    1,318
187,357;    3,601;   26,706;    0,955
187,958;  -15,774;   17,252;   -1,591
188,558;   29,238;   12,979;   -1,227
189,159;    8,525;   10,070;   -4,500
189,759;  -20,784;    5,797;   -3,591
190,360;  -25,300;    6,797;   -2,136
190,960;    0,388;    5,706;   -4,136
191,560;   10,121;    2,614;   -6,591
192,161;  206,333;    5,885;   -3,500
192,761;   75,118;    5,520;   -3,227
193,361;   25,511;    3,065;   -3,773
193,962;   59,992;    1,612;   -2,682
194,562;    4,553;   -0,114;   -3,955
195,162;   20,722;   -0,567;   -2,227
195,762;  125,862;    2,433;   -0,045
196,362;   84,103;    1,706;   -2,500
196,963;   -6,236;    1,706;   -0,864
197,563;   35,061;    1,252;   -0,955
198,163;   -2,645;   -0,111;   -0,682
198,763;   11,122;   -0,020;   -0,500
199,363;   55,650;    3,616;   -0,500
199,963;   33,353;    2,162;    0,409
200,563;   26,358;    6,344;   -1,409
201,163;    3,832;    5,435;   -0,227
201,763;   29,898;    1,435;    0,318
202,363;    7,729;    0,980;    1,500
202,963;   36,598;    1,526;    1,045
203,563;   87,940;    0,344;    0,500
204,162;   27,778;    1,889;   -1,864
204,762;   20,898;    2,071;    0,591
205,362;   -3,581;    0,708;    1,955
205,962;   27,918;    3,435;    1,955
206,562;   23,861;    1,889;    2,318
207,161;    3,193;    1,708;    0,318
207,761;   76,439;    4,435;    2,409
208,361;   14,151;    1,889;    1,409
208,960;   41,628;    2,889;    1,500
209,560;   47,822;    0,435;    1,591
210,160;   52,753;    5,071;    1,864
210,759;   31,918;    0,708;    1,227
211,359;   23,895;   -0,474;    1,045
211,958;  142,677;    3,526;    2,045
212,558;  156,102;    0,799;    1,864
213,157;   77,620;   -0,929;    1,500
213,757;  254,652;    5,617;   -0,227
214,356;  112,605;    1,708;   -0,409
214,956;  238,795;    3,526;    0,409
215,555;   91,313;    0,617;    2,136
216,154;   48,981;   -0,292;   -0,591
216,754;   56,608;    1,253;    0,773
217,353;   83,200;   -0,383;   -1,045
217,952;   12,748;    2,072;    0,318
218,552;  112,753;    0,254;   -0,773
219,151;   67,389;   -1,110;    0,955
219,750;   53,910;    0,890;   -0,227
220,349;   44,018;   -2,292;    1,045
220,948;  134,269;    1,163;    1,136
221,548;   64,178;    0,617;    1,227
222,147;   91,822;   -1,292;   -0,409
222,746;  209,890;    1,254;   -0,955
223,345;  128,369;   -1,019;    0,500
223,944;  125,971;    1,163;    0,773
224,543;  147,362;    4,072;   -1,409
225,142;  142,163;    1,345;    0,136
225,741;  134,792;    1,163;    1,045
226,340;  115,030;    1,254;   -0,955
226,939;  209,175;    2,708;   -0,136
227,538;  100,536;    1,163;   -0,773
228,137;  212,377;    0,435;    0,864
228,735;  160,827;    0,435;    1,227
229,334;   60,362;   -0,474;   -0,227
229,933;  211,163;    0,799;    0,591
230,532;  213,831;   -1,201;   -0,409
231,131;  268,370;    1,253;    0,318
231,729;  161,866;    1,163;   -2,318
232,328;  108,183;    0,435;   -1,500
232,927;  113,308;    4,526;   -0,500
233,525;   93,728;    0,981;    0,045
234,124;  121,890;    1,890;   -1,591
234,723;   78,839;    1,617;   -1,045
235,321;   63,067;    1,163;    0,136
235,920;   82,507;    2,526;   -1,227
236,518;  198,826;    1,072;    0,318
237,117;   90,242;    2,890;   -0,227
237,715;  103,426;    1,163;   -0,500
238,314;  134,028;    1,708;   -2,318
238,912;  217,696;    0,526;   -1,409
239,510;  144,313;    1,162;   -1,227
240,109;  234,937;   -0,474;    3,773
240,707;  210,293;   -0,474;    1,227
241,305;  107,814;   -0,383;    0,136
241,904;  198,269;   -0,292;   -2,045
242,502;  298,647;    3,253;   -0,227
243,100;  221,689;    3,344;   -0,955
243,698;  171,873;    2,799;    1,682
244,297;  219,731;   -0,656;    0,682
244,895;  230,694;   -0,474;   -2,318
245,493;  421,165;    2,981;   -0,591
246,091;  434,387;    5,163;   -1,318
246,689;  394,836;    2,163;    0,591
247,287;  383,254;   -0,019;   -1,136
247,885;  379,352;   -1,019;    1,227
248,483;  368,399;   -0,201;   -0,500
249,081;  491,141;    0,981;    1,591
249,679;  571,335;   -1,019;    1,682
250,277;  467,136;   -2,292;    0,864
250,875;  632,148;    0,617;   -1,045
251,473;  548,824;   -0,019;    0,500
252,071;  679,944;   -0,383;    1,045
252,669;  630,608;   -1,565;    0,318
253,267;  612,593;    1,618;    0,773
253,864;  669,527;    0,617;    0,682
254,462;  876,701;    1,526;    1,591
255,060;  667,586;    0,072;    1,318
255,658;  680,517;   -3,292;   -0,136
256,255;  841,249;   -0,201;   -2,045
256,853;  887,261;    2,345;    1,409
257,451;  889,065;    1,981;    1,864
258,048; 1440,767;    2,072;    1,864
258,646; 1059,151;    0,436;   -1,045
259,243; 1214,716;    2,981;    2,227
259,841; 1119,944;    1,799;    0,318
260,438;  965,871;    0,254;    0,864
261,036; 1185,313;    0,617;    1,409
261,633; 1158,163;    1,526;    2,227
262,231; 1103,625;   -0,110;   -0,045
262,828; 1165,279;   -0,383;    1,136
263,425; 1220,485;   -1,928;   -0,591
264,023; 1295,040;    1,436;    0,045
264,620; 1403,595;    1,526;   -0,318
265,217; 1594,158;    2,890;    3,136
265,815; 1362,222;    2,527;    2,136
266,412; 1506,168;    0,072;    0,136
267,009; 1552,242;    0,526;    0,773
267,606; 1692,605;    0,345;   -0,955
268,203; 1469,455;   -0,383;   -0,591
268,801; 1582,635;   -0,474;    0,591
269,398; 1580,581;   -0,564;    2,500
269,995; 1720,460;    0,890;    1,591
270,592; 1599,849;    0,799;   -0,500
271,189; 1607,613;    1,981;    0,409
271,786; 1653,976;    2,072;    1,227
272,383; 1876,959;   -0,383;    0,227
272,980; 1736,129;    1,617;    0,318
273,577; 1804,517;    2,162;    1,227
274,174; 1627,478;    1,435;    2,591
274,771; 1686,244;    1,890;   -0,773
275,367; 2141,694;    3,253;    1,409
275,964; 1975,544;   -0,565;   -0,500
276,561; 1794,441;   -2,474;   -1,045
277,158; 1784,880;    1,799;   -1,773
277,755; 2011,686;   -0,110;    0,409
278,351; 1689,146;    0,436;   -1,500
278,948; 1854,377;   -0,201;    0,045
279,545; 1724,986;    0,527;    2,318
280,141; 2156,045;    1,254;   -2,045
280,738; 1958,234;    2,435;   -0,136
281,334; 1844,490;   -0,383;    0,591
281,931; 1735,438;    2,890;   -1,318
282,528; 1863,264;    4,072;   -0,500
283,124; 2166,337;    3,345;   -0,500
283,721; 2120,146;    0,709;    1,409
284,317; 1952,234;    0,163;    2,500
284,913; 2302,578;   -0,110;    0,591
285,510; 2659,578;    2,890;   -0,318
286,106; 2491,664;    2,345;   -0,955
286,703; 2089,603;    0,072;    1,955
287,299; 2172,853;    1,254;   -0,591
287,895; 2329,900;    0,890;   -1,045
288,491; 2618,035;    0,163;    2,136
289,088; 2637,502;    0,163;    2,409
289,684; 2704,335;    2,890;    1,500
290,280; 2877,212;    1,890;    0,682
290,876; 2999,468;    0,163;    5,500
291,472; 2971,821;    2,163;    2,227
292,068; 3133,128;    1,254;    0,227
292,665; 2976,944;   -0,564;    0,773
293,261; 2961,259;   -1,292;    2,136
293,857; 3228,384;    4,072;    2,136
294,453; 3282,340;   -0,928;    0,955
295,049; 3451,134;    0,253;    1,955
295,644; 3544,785;   -1,292;    0,136
296,240; 3597,306;    0,162;   -0,136
296,836; 3814,016;   -0,747;    0,318
297,432; 4117,323;    2,980;   -0,500
298,028; 4325,114;    0,435;    0,773
298,624; 4539,122;    0,889;    1,864
299,220; 4776,227;    0,435;    0,591
299,815; 4643,441;    0,526;   -0,409
300,411; 4686,498;    0,435;    1,773
301,007; 4826,100;    1,889;    0,227
301,602; 4822,903;    2,071;   -2,318
302,198; 5061,232;    1,435;   -0,773
302,794; 5318,635;    1,526;   -0,500
303,389; 5505,832;    1,071;    1,045
303,985; 5566,269;    1,253;    1,409
304,580; 5605,358;    0,889;    1,591
305,176; 5644,011;    0,344;    0,136
305,771; 5607,905;   -0,929;   -1,227
306,367; 5696,090;    3,071;    0,136
306,962; 5871,630;    2,889;    1,500
307,558; 5597,930;    2,435;    0,136
308,153; 5561,925;   -0,383;   -1,136
308,748; 5662,409;    0,162;    1,682
309,344; 5739,212;    0,253;   -1,318
309,939; 5870,109;    2,071;   -1,318
310,534; 5937,888;   -2,020;   -1,682
311,130; 5771,569;   -0,656;   -2,500
311,725; 5484,063;    0,526;   -0,500
312,320; 5685,881;    1,253;    0,045
312,915; 5658,529;    2,890;   -1,045
313,510; 5654,554;    0,526;   -0,500
314,105; 5872,483;   -3,565;    1,409
314,700; 5322,159;   -1,656;   -1,045
315,295; 5070,358;   -0,020;    0,045
315,890; 4722,257;   -0,292;    0,864
316,485; 4853,891;    0,253;   -0,318
317,080; 4861,549;   -0,929;    1,591
317,675; 5173,159;    3,071;   -0,682
318,270; 4846,984;    6,889;    3,318
318,865; 4776,707;    2,435;    3,045
319,460; 4539,144;   -1,565;    0,591
320,055; 4618,994;   -2,565;   -1,227
320,650; 4367,574;   -1,838;   -0,591
321,244; 4331,928;    0,889;   -1,409
321,839; 4889,446;    0,980;   -0,227
322,434; 4766,790;   -0,111;   -1,591
323,029; 4532,768;   -0,474;    1,591
323,623; 4437,045;    0,798;    0,773
324,218; 4368,461;    2,707;    1,409
324,812; 4290,186;    0,889;    1,591
325,407; 4198,053;   -0,929;    2,045
326,002; 4216,485;    0,526;   -0,409
326,596; 4437,326;   -0,656;    1,318
327,191; 4551,097;   -0,383;   -1,045
327,785; 4353,417;   -0,747;   -0,227
328,379; 4627,493;   -0,383;    0,136
328,974; 4478,252;    1,798;   -3,955
329,568; 4809,404;    2,889;   -2,409
330,163; 4791,992;    2,435;    1,045
330,757; 5069,873;    0,253;    1,591
331,351; 4760,670;   -0,292;    0,682
331,945; 5085,358;   -0,383;    1,409
332,540; 4975,674;    1,617;   -0,591
333,134; 5158,579;    3,344;    0,773
333,728; 5344,461;    2,799;    0,318
334,322; 5743,606;    0,889;   -0,864
334,916; 5341,510;    0,344;    0,955
335,510; 5760,419;   -0,111;   -0,136
336,105; 6076,097;   -0,929;    1,591
336,699; 5938,780;   -1,292;    0,591
337,293; 6031,923;    1,071;    0,318
337,887; 6246,913;    0,071;    1,955
338,481; 6494,883;    2,980;    0,591
339,074; 6808,414;    2,071;    2,682
339,668; 6806,357;   -0,110;    1,227
340,262; 7278,343;    7,708;    3,227
340,856; 6939,891;    1,708;   -0,682
341,450; 6533,448;    0,708;    1,864
342,044; 7355,741;    1,799;    0,136
342,637; 7328,392;    1,162;   -2,136
343,231; 7310,583;   -1,474;    0,682
343,825; 7394,412;   -0,747;   -0,591
344,419; 7528,296;   -0,474;    0,500
345,012; 7552,284;    2,889;    4,045
345,606; 7665,041;   -0,656;    1,591
346,199; 7604,918;   -0,111;   -0,227
346,793; 7361,680;    2,525;    2,045
347,386; 7631,058;    0,889;   -1,136
347,980; 7651,198;   -0,838;   -0,045
348,573; 7610,815;   -1,748;    0,409
349,167; 7457,058;    6,161;    4,773
349,760; 7858,464;    2,252;    2,682
350,354; 7861,538;    1,616;    1,136
350,947; 7675,764;    2,798;    1,682
351,540; 7455,331;    0,616;   -1,409
352,134; 7435,132;   -1,111;    1,136
352,727; 7528,174;   -0,657;    1,136
353,320; 7406,552;    2,343;    0,591
353,913; 7281,977;   -1,929;    1,864
354,507; 7459,729;    0,434;   -1,227
355,100; 7487,790;    0,071;    0,864
355,693; 6847,336;    4,798;    2,409
356,286; 6898,854;    0,980;    2,773
356,879; 7239,564;   -0,475;    1,227
357,472; 6853,611;    0,980;    1,500
358,065; 7057,410;    3,161;    2,500
358,658; 6984,469;    0,798;    2,318
359,251; 6626,478;    0,252;   -0,591
359,844; 6201,486;    0,343;   -1,136
360,437; 6374,405;    0,252;    0,045
361,030; 6589,810;    0,525;   -0,682
361,623; 6198,073;    0,434;    0,318
362,215; 6235,336;    0,979;    2,045
362,808; 6084,274;   -2,293;   -1,682
363,401; 6232,820;    0,798;    0,136
363,994; 6034,471;    3,252;   -1,500
364,586; 5932,724;    0,888;   -1,500
365,179; 6061,032;   -0,203;   -1,136
365,772; 5573,061;   -0,930;    2,045
366,364; 5788,840;    1,524;   -3,227
366,957; 6008,250;    1,342;   -0,045
367,549; 5943,224;   -0,203;   -0,864
368,142; 5649,646;    0,978;   -1,500
368,734; 5779,342;    2,523;   -2,136
369,327; 5721,612;    2,341;   -0,500
369,919; 5633,146;   -1,659;    0,409
370,512; 5472,760;   -1,023;   -0,500
371,104; 5245,306;    2,704;    1,591
371,696; 5400,928;    1,703;   -0,955
372,289; 5454,405;    0,157;    1,136
372,881; 5549,273;    1,156;    1,318
373,473; 5420,453;    4,064;    1,136
374,066; 5282,690;    1,336;    0,500
374,658; 5152,934;    0,879;    1,136
375,250; 5387,869;   -1,668;   -1,409
375,842; 5262,116;   -0,124;   -0,045
376,434; 5098,768;   -2,762;   -0,409
377,026; 5570,462;   -1,855;   -2,500
377,618; 5480,969;    0,779;   -0,682
378,210; 5322,074;    3,141;   -1,955
378,802; 5152,079;    3,412;   -0,591
379,394; 5154,650;    3,411;    0,682
379,986; 5598,864;    1,138;   -0,955
380,578; 5675,968;    1,410;    0,773
381,170; 5157,385;    0,320;    0,045
381,762; 5096,291;   -0,224;    1,409
382,354; 5263,184;   -0,223;   -1,318
382,945; 5301,761;    0,870;    0,318
383,537; 5439,313;    1,144;   -1,955
384,129; 5456,017;    0,963;   -1,136
384,721; 5576,537;    0,418;    0,955
385,312; 5469,215;   -1,399;   -0,955
385,904; 5586,582;   -0,945;    1,591
386,496; 5039,506;    0,691;    1,045
387,087; 5201,934;    0,418;    2,500
387,679; 5179,791;   -0,401;    0,045
388,270; 5333,951;   -2,401;    2,045
388,862; 5403,698;   -0,401;   -0,318
389,453; 5220,831;    1,054;    1,045
390,045; 5488,071;    3,236;   -2,682
390,636; 5456,816;    0,144;   -0,591
391,227; 5298,256;    2,054;   -0,045
391,819; 5406,794;    0,781;    0,773
392,410; 5468,698;    0,600;    0,045
393,001; 5401,805;    1,600;   -1,591
393,593; 5597,365;    0,600;   -0,045
394,184; 5491,452;    0,873;   -0,409
394,775; 5356,852;    1,146;    2,136
395,366; 5593,916;    1,782;    0,773
395,957; 5556,376;   -2,400;    0,136
396,548; 5787,503;    1,054;    2,682
397,139; 6031,762;    2,236;    0,591
397,730; 5783,420;    0,873;    0,955
398,321; 5817,447;    0,509;    0,955
398,912; 5783,518;   -0,764;    0,136
399,503; 5920,813;   -1,945;   -1,409
400,094; 5466,287;   -1,582;    1,682
400,685; 5353,095;    3,600;    0,045
401,276; 5385,238;   -0,400;   -0,955
401,867; 5619,513;   -1,127;    0,773
402,458; 5673,469;    1,509;   -2,318
403,048; 5666,729;    0,146;    0,591
403,639; 5299,759;    1,509;    0,864
404,230; 5584,226;    0,691;    0,318
404,821; 5502,813;   -0,127;    0,045
405,411; 5577,297;   -0,763;   -2,591
406,002; 5198,862;    3,237;   -1,136
406,592; 5111,075;    2,691;    0,045
407,183; 5282,724;    0,328;   -1,500
407,774; 5123,719;    1,419;   -0,136
408,364; 5376,098;    2,600;    0,409
408,954; 5036,301;   -0,036;    1,227
409,545; 5008,469;    1,873;    1,045
410,135; 4530,151;   -1,581;    0,500
410,726; 4646,702;    0,783;    0,318
411,316; 4922,857;    2,237;    0,773
411,906; 4602,815;    0,146;   -0,409
412,497; 4174,847;   -0,490;   -0,045
413,087; 4556,011;    0,783;   -0,227
413,677; 4775,461;   -2,490;    3,864
414,267; 4573,682;   -1,035;    1,409
414,857; 4434,348;    0,419;    4,227
415,448; 4581,704;   -0,763;    0,500
416,038; 4318,124;   -2,945;   -0,591
416,628; 4187,991;    0,965;    0,409
417,218; 3866,483;   -1,762;    3,318
417,808; 3971,058;    0,965;   -0,409
418,398; 4097,458;   -1,035;    2,682
418,988; 3940,996;   -2,217;    0,591
419,578; 4009,186;    3,601;    1,409
420,168; 4162,552;    0,692;   -0,955
420,757; 3830,009;    0,964;   -1,500
421,347; 3470,377;    1,601;   -0,227
421,937; 3484,849;    3,329;    1,409
422,527; 3429,458;    2,602;   -0,773
423,116; 3279,849;    2,692;   -0,045
423,706; 3313,517;    2,965;    0,318
424,296; 3107,325;    1,601;    0,682
424,885; 3390,053;    1,510;   -3,045
425,475; 3397,399;    1,147;   -2,864
426,065; 3196,330;   -1,489;   -0,318
426,654; 2961,141;    0,329;   -0,318
427,244; 3131,178;    1,147;    1,409
427,833; 2758,598;    1,056;   -0,500
428,423; 2735,691;    0,147;    1,136
429,012; 3025,551;    2,420;   -1,136
429,601; 2781,197;    2,057;    0,136
430,191; 2690,193;    2,511;    4,318
430,780; 2333,487;   -1,671;   -0,409
431,369; 2512,475;    1,329;   -0,045
431,959; 2630,531;    1,693;    0,500
432,548; 2363,851;   -1,398;   -0,045
433,137; 2263,092;    0,329;   -1,318
433,726; 2452,502;    0,148;    0,500
434,315; 2173,605;    0,148;    2,409
434,905; 2225,379;    0,693;    1,409
435,494; 2223,494;    3,148;    0,955
436,083; 2121,313;    1,420;   -0,955
436,672; 1992,372;    1,148;    0,500
437,261; 1859,357;    0,512;   -1,955
437,850; 2133,003;   -1,125;    0,682
438,439; 2076,425;    2,239;    1,955
439,027; 2089,556;    3,421;    1,773
439,616; 2049,049;    2,239;    1,227
440,205; 1659,106;    0,057;   -2,136
440,794; 1468,528;   -0,306;   -0,045
441,383; 1357,710;    1,603;   -0,591
441,971; 1170,690;   -0,306;    0,591
442,560; 1131,022;    0,603;   -1,773
443,149;  965,893;    3,060;   -1,318
443,737; 1013,700;    0,968;   -2,318
444,326;  980,491;    0,331;    0,318
444,915;  992,499;   -1,851;    0,864
445,503;  983,627;    0,058;   -0,318
446,092; 1253,393;    7,876;    2,136
446,680; 1172,739;    1,876;    0,318
447,269; 1044,479;   -1,487;   -0,318
447,857;  925,577;    2,240;   -1,773
448,445;  816,098;    2,149;    1,318
449,034;  717,555;    0,876;   -1,136
449,622;  683,105;    1,240;    3,500
450,210; 1087,589;    3,149;    2,227
450,799;  948,624;    2,604;   -0,591
451,387;  787,422;    1,786;   -0,591
451,975;  740,095;   -1,305;    0,864
452,563;  853,611;    0,422;    2,318
453,151;  526,299;   -1,032;   -1,227
453,739;  594,832;   -1,577;    0,136
454,328;  756,555;    0,604;   -2,136
454,916;  602,210;    1,150;   -0,136
455,504;  579,442;    3,513;    1,227
456,092;  418,410;    2,150;   -1,591
456,679;  320,847;    0,604;    0,682
457,267;  915,672;    3,604;    1,045
457,855;  449,336;    3,241;    1,409
458,443;  212,545;   -0,304;    1,682
459,031;  453,107;    1,332;    2,409
459,619;  399,739;   -3,577;    2,864
460,206;  239,360;   -0,759;    2,045
460,794;  231,279;   -0,668;   -0,227
461,382;  296,822;    0,878;   -0,864
461,970;  265,940;    0,605;    1,864
462,557;  161,053;    0,878;   -0,682
463,145;  331,694;   -0,304;   -1,682
463,732;  620,215;    2,514;   -1,045
464,320;  320,001;    1,514;   -3,045
464,907;  488,561;    0,423;   -0,773
465,495;  366,947;    2,696;   -1,227
466,082;  258,927;    2,060;   -0,045
466,670;  274,038;    2,605;    1,227
467,257;  145,360;    0,060;    2,045
467,844;  269,527;    1,514;    0,045
468,432;  238,033;   -0,031;    3,500
469,019;  176,957;    1,606;   -1,773
469,606;  265,210;    0,969;    3,682
470,193;  284,173;    2,151;    0,227
470,780;  226,817;    0,333;    0,864
471,368;  135,482;   -1,212;   -0,773
471,955;  251,711;    1,060;   -0,682
472,542;  193,961;   -0,303;   -1,136
473,129;   56,072;   -0,485;    0,136
473,716;   65,915;    0,060;    0,591
474,303;  100,379;    1,333;   -0,864
474,890;  103,096;    2,333;   -0,500
475,477;  207,128;   -0,576;    0,409
476,064;   80,816;    0,697;   -1,591
476,650;  208,052;    2,152;    0,318
477,237;  110,234;    1,879;    0,955
477,824;   82,659;    3,879;    0,864
478,411;  -10,906;    0,606;   -0,318
478,997;  -22,793;    0,606;   -0,773
479,584;  -80,405;   -0,666;   -0,409
480,171;  102,900;    1,243;   -0,773
480,757;  163,882;   -0,848;    0,773
481,344;   45,514;    0,334;    0,409
481,931;  -53,848;   -0,393;    1,045
482,517;   60,076;    0,425;    0,318
483,104;  149,563;    1,334;    2,864
483,690;   29,487;    0,243;    0,045
484,276;   -1,555;    0,698;    0,227
484,863;  200,654;    2,152;    1,136
485,449;   54,715;    0,152;    0,318
486,035;   10,221;   -0,666;   -0,136
486,622;   94,391;   -2,393;    0,045
487,208;    8,609;    1,334;    1,500
487,794;  -65,084;    0,971;    0,318
488,380;  -59,772;    0,698;   -1,409
488,967;  -53,580;   -1,120;   -0,409
489,553;  -40,536;   -1,029;   -1,409
490,139;   32,169;    0,971;    0,773
490,725;  -35,079;    0,789;   -0,227
491,311;    5,047;    1,516;    3,045
491,897;   -8,848;   -0,665;    1,500
492,483;    2,132;    0,426;    1,227
493,069;  432,413;    5,426;    0,864
493,655;  152,901;    1,789;    0,682
494,241;   21,118;    1,517;   -0,955
494,826;   40,550;    0,335;   -1,045
495,412;   97,219;    0,335;   -0,682
495,998;   15,742;    0,971;   -0,318
496,584;   77,437;    2,244;    1,045
497,169;   95,641;    2,335;   -0,682
497,755;   47,422;    1,244;    1,227
498,341;  188,818;    2,153;    0,318
498,926;  343,955;    2,881;    1,955
499,512;   69,739;   -0,028;    2,955
500,097;   80,208;   -0,574;   -0,318
500,683;  121,331;   -0,028;    2,136
501,268;   81,918;    1,881;   -0,955
501,854;  124,218;   -0,119;    1,227
502,439;  133,719;   -0,573;   -1,773
503,024;  224,862;    1,608;    0,500
503,610;  304,697;    1,335;   -0,682
504,195;  242,510;    1,245;    1,955
504,780;  433,938;    2,335;    1,227
505,366;  632,727;    4,063;    2,864
505,951;  575,628;   -1,119;    1,045
506,536;  551,540;    1,427;   -3,682
507,121;  711,694;    1,699;   -0,318
507,706;  783,800;   -0,392;    1,045
508,291;  841,815;   -2,937;    1,136
508,876;  972,844;   -0,482;    2,591
509,461; 1177,650;    1,427;   -0,773
510,046; 1488,117;   -0,391;    0,318
510,631; 1700,670;   -0,119;   -0,773
511,216; 1832,070;   -0,664;   -0,500
511,801; 2353,704;   -0,755;    2,591
512,386; 2685,222;    0,972;    0,500
512,971; 3041,724;    0,427;    0,955
513,555; 3305,326;    1,154;   -1,500
514,140; 4038,119;    1,336;   -3,136
514,725; 4433,699;    1,791;   -1,136
515,309; 4931,215;    1,064;    0,318
515,894; 5140,269;   -0,300;   -2,227
516,479; 5867,409;    1,973;   -0,955
517,063; 6142,638;    0,882;    1,227
517,648; 6745,930;    0,155;   -1,136
518,232; 6852,293;   -1,300;   -1,409
518,817; 7635,180;    1,337;    1,682
519,401; 8296,937;    0,700;    0,591
519,985; 8266,898;    2,700;    1,136
520,570; 8564,564;   -0,118;   -1,955
521,154; 9235,782;    0,064;    0,591
521,738; 9770,283;    1,064;    2,409
522,323;10686,934;   -0,390;    1,682
522,907;10753,146;    2,428;   -0,136
523,491;10818,979;    1,155;    0,955
524,075;11107,229;    0,428;    0,591
524,659;11465,450;    0,973;    0,591
525,243;11214,320;    0,883;    0,409
525,827;11688,929;    0,883;   -0,045
526,411;12677,269;    1,155;   -0,136
526,995;13144,377;    0,337;    1,409
527,579;12934,195;    1,974;   -1,045
528,163;13385,123;    0,428;   -1,500
528,747;13527,917;    1,065;   -0,773
529,331;13966,833;    0,883;   -1,409
529,915;14263,801;    2,338;    0,955
530,499;14363,406;    0,247;    1,227
531,082;14147,912;    1,065;    1,591
531,666;13733,010;    0,520;    0,773
532,250;14550,258;    0,428;    2,682
532,833;14966,863;    0,610;    2,773
533,417;14916,632;    1,247;    0,864
534,001;14933,030;    0,429;   -0,318
534,584;15709,165;    1,974;    0,500
535,168;15590,064;    3,247;    1,409
535,751;15717,138;    4,520;    0,045
536,334;15201,182;    4,520;   -0,409
536,918;15853,108;    1,974;    1,591
537,501;16009,632;    1,520;    1,318
538,085;16004,757;    1,702;    1,045
538,668;16198,553;    0,883;    2,409
539,251;16566,440;    3,156;    3,773
539,834;16647,057;    0,156;    0,773
540,418;16626,771;    3,247;    4,318
541,001;16751,428;    2,702;    1,773
541,584;16768,263;    1,429;    2,227
542,167;16456,005;    0,702;    2,955
542,750;16643,717;    0,793;   -0,773
543,333;16265,666;    1,429;    2,136
543,916;17071,408;   -0,298;    2,500
544,499;17703,061;    2,520;    0,227
545,082;17727,499;    0,248;    3,591
545,665;17891,855;   -0,207;    1,500
546,248;18285,302;    0,520;   -0,318
546,830;17958,336;   -1,752;    1,955
547,413;18391,236;    0,157;   -0,773
547,996;18962,904;    0,157;    0,500
548,579;18734,864;   -0,843;    0,955
549,161;18517,120;    0,884;    2,682
549,744;18334,626;    0,612;    0,409
550,326;18877,272;    0,885;   -1,136
550,909;18601,763;    2,339;    0,591
551,492;19023,061;    0,521;    0,227
552,074;18797,198;   -0,024;   -1,318
552,657;19403,262;    2,430;    0,045
553,239;19116,014;   -3,024;   -0,773
553,821;19083,370;   -1,570;    1,045
554,404;18588,316;   -0,024;    1,136
554,986;18988,648;    2,248;    1,045
555,568;19577,672;    0,430;   -0,955
556,151;18747,468;    4,067;   -0,227
556,733;18990,532;   -1,388;   -0,864
557,315;19493,599;    4,703;    0,500
557,897;19313,365;    0,521;   -0,500
558,479;19451,952;    1,703;    1,318
559,061;19551,191;    1,067;   -0,864
559,643;19935,090;   -0,297;    0,045
560,225;20329,382;   -0,388;    2,864
560,807;20337,272;    0,340;    0,318
561,389;19851,269;   -1,206;    2,318
561,971;20551,910;   -0,660;    2,136
562,553;20407,137;    0,613;    1,591
563,135;20525,881;    1,249;    1,136
563,717;20118,662;    3,158;    1,136
564,298;20839,925;    3,976;   -0,045
564,880;20582,286;    0,340;   -1,409
565,462;20758,741;    1,977;    1,318
566,043;21960,974;   -0,933;    2,318
566,625;21456,333;    4,067;    1,227
567,207;21339,240;    0,704;    1,682
567,788;22506,628;   -0,114;    1,500
568,370;23380,446;   -1,841;   -0,500
568,951;23161,539;   -0,569;    0,227
569,533;24106,878;    0,977;   -0,500
570,114;24626,141;   -0,296;    0,682
570,695;25133,333;   -0,478;   -1,318
571,277;25684,937;   -0,205;   -1,682
571,858;26431,102;    2,704;   -1,136
572,439;27398,279;    0,795;   -1,045
573,021;27574,662;    0,432;   -2,773
573,602;28113,507;    1,795;    0,318
574,183;29119,903;   -0,114;    2,227
574,764;29293,129;    2,068;    0,409
575,345;29870,001;    0,250;   -0,136
575,926;30581,605;    2,704;    0,136
576,507;30546,684;    2,704;   -0,227
577,088;31654,470;    1,704;    1,682
577,669;31652,986;    1,704;    1,955
578,250;32422,993;   -0,750;   -1,045
578,831;33121,128;   -0,841;   -2,227
579,412;33432,328;   -1,205;    0,955
579,993;34440,856;    1,432;    0,227
580,573;34721,438;   -0,023;   -0,955
581,154;33655,841;    1,613;   -0,591
581,735;34540,767;    0,341;    0,773
582,315;34104,040;    0,523;    2,136
582,896;34431,674;   -1,750;    1,227
583,477;33845,701;    0,614;    1,227
584,057;34030,369;    1,159;    0,955
584,638;34248,129;   -2,750;    2,318
585,218;34273,905;    2,886;    2,682
585,799;34439,170;    1,977;   -0,227
586,379;34394,652;    1,250;    1,591
586,959;33164,148;    2,613;    0,318
587,540;32491,654;    0,432;    2,227
588,120;31921,187;   -1,113;   -0,045
588,700;30834,561;    2,977;    2,136
589,281;31199,556;    1,250;   -0,955
589,861;31071,617;   -0,296;   -1,682
590,441;30921,384;   -1,477;   -2,682
591,021;29832,215;    1,432;   -2,591
591,601;30073,013;    0,431;    0,500
592,181;29995,389;   -1,296;   -0,773
592,761;29281,323;    2,250;    1,409
593,341;29228,021;    1,522;    0,045
593,921;29204,802;   -0,569;    1,591
594,501;29071,453;    1,250;    1,318
595,081;28940,551;    0,522;   -0,318
595,661;29287,301;    1,068;    0,955
596,240;29784,318;   -1,023;    0,136
596,820;29409,620;    2,613;    1,955
597,400;29608,045;    1,977;    0,773
597,980;29874,856;   -0,750;    1,045
598,559;29886,030;    0,341;   -0,227
599,139;29613,151;   -0,750;   -1,227
599,718;29466,151;    0,795;   -0,409
600,298;29686,608;   -2,387;    0,682
600,877;29928,780;    4,795;    1,409
601,457;30180,173;    0,340;    1,136
602,036;30096,099;    1,795;    2,045
602,616;30302,397;    2,250;    1,682
603,195;30664,805;    0,431;    3,500
603,774;30132,984;   -0,296;    2,045
604,354;30062,234;    2,522;   -0,500
604,933;29522,817;    0,250;    1,864
605,512;29680,490;    2,340;    0,591
606,091;29728,556;    1,886;    3,773
606,671;30481,146;    0,249;    0,773
607,250;29544,338;    1,431;    3,136
607,829;29820,043;    1,158;    3,227
608,408;29686,606;    4,613;    2,591
608,987;28732,453;    2,704;    3,409
609,566;28989,124;    0,341;   -2,500
610,145;29109,077;    2,885;    0,682
610,723;29517,402;    1,613;    6,864
611,302;28717,227;    1,067;    1,682
611,881;28205,448;    5,158;   11,227
612,460;29050,340;    0,795;    3,955
613,039;29491,092;    1,703;    2,045
613,617;28175,004;    0,886;    4,773
614,196;28392,736;    1,613;    1,227
614,775;28739,596;    1,249;    2,409
615,353;28729,146;   -1,660;    0,864
615,932;28408,220;    0,249;    2,409
616,510;28993,682;    0,158;    0,591
617,089;28447,476;    8,794;   17,591
617,667;28173,680;    4,885;    6,136
618,246;27971,107;   -1,115;    1,318
618,824;28183,822;    1,612;   -0,955
619,402;27722,554;    0,431;   -1,773
619,981;28243,581;    1,067;   -1,045
620,559;28123,414;    0,794;    1,682
621,137;27649,321;    3,067;    1,864
621,715;27628,463;    3,703;   -0,682
622,293;27536,284;    1,885;   -0,773
622,871;28038,053;    0,340;    0,500
623,450;27556,395;    0,430;   -0,864
624,028;27475,623;   -0,388;   -0,955
624,606;27073,147;    2,339;    1,682
625,183;27462,137;   -0,661;   -1,136
625,761;27059,950;    1,885;    1,136
626,339;27362,048;    2,339;    2,591
626,917;27766,302;    0,339;   -0,045
627,495;27832,257;    2,794;    1,318
628,073;27258,579;    5,248;    2,864
628,650;26914,120;    3,067;    2,136
629,228;27337,771;    1,248;    4,409
629,806;26718,857;   -0,024;    1,136
630,383;26980,196;    0,066;   -0,318
630,961;26756,889;   -2,206;   -0,955
631,539;26480,063;   -2,479;    0,227
632,116;25706,616;   12,703;   15,409
632,694;26360,388;    4,885;    6,500
633,271;26622,444;    1,975;    2,682
633,848;26546,422;    1,430;    2,045
634,426;26664,727;    1,521;    1,773
635,003;25758,700;   -0,207;   -0,409
635,580;26038,226;    1,884;    3,682
636,158;26570,150;    3,793;    1,227
636,735;26527,840;    3,339;   -0,500
637,312;26664,869;    0,521;   -0,682
637,889;26777,761;    2,248;   -0,682
638,466;26315,378;    0,066;   -0,409
639,043;26305,722;    1,702;   -1,136
639,620;26631,231;    0,611;   -0,955
640,197;26946,766;    1,612;    1,682
640,774;27165,824;    1,430;    1,136
641,351;27533,518;    0,612;    1,136
641,928;26928,393;    2,794;    1,409
642,505;26566,905;    0,794;   -0,500
643,082;26661,690;    1,885;    1,227
643,658;25625,748;    1,157;    1,500
644,235;26385,987;   -2,479;    2,500
644,812;26704,408;    1,794;    0,773
645,388;26461,556;    1,612;    1,409
645,965;26494,523;    1,521;    1,682
646,542;26571,126;    3,430;   -0,227
647,118;26562,729;    3,703;   -0,955
647,695;26854,877;    0,339;    1,136
648,271;26772,207;   -2,115;    0,500
648,848;27127,719;    0,248;    2,227
649,424;26904,504;    0,976;    1,318
650,000;26643,380;   -0,388;   -1,045
650,577;26496,528;    0,158;   -0,955
651,153;26979,313;   -1,115;    0,955
651,729;27951,916;    0,521;    0,864
652,305;28166,610;    1,339;    2,773
652,881;32804,485;   -1,297;    1,136
653,458;40013,270;    0,249;    0,227
654,034;44031,237;    0,703;    1,591
654,610;45609,840;    0,339;    0,773
655,186;47065,988;    1,612;    3,045
655,762;46752,500;   -1,842;    0,409
656,338;46749,103;    0,703;    0,136
656,913;47812,979;   -0,297;    0,409
657,489;47177,218;    0,249;   -0,318
658,065;47127,366;    0,794;   -1,591
658,641;47647,424;    2,158;   -0,864
659,217;46854,572;    2,067;    0,409
659,792;46200,266;   -1,751;   -0,409
660,368;46592,596;   -0,388;   -0,682
660,944;46256,381;    1,794;    1,227
661,519;41534,257;    0,522;    0,409
662,095;35138,223;   -0,206;    0,591
662,670;30181,735;   -0,206;   -0,136
663,246;28996,157;   -0,660;   -0,409
663,821;28232,578;    0,431;    1,682
664,396;27704,181;    0,613;    1,864
664,972;27954,511;   -0,660;   -0,500
665,547;28279,659;    3,794;    0,136
666,122;28254,808;    1,340;    0,318
666,698;28560,683;    2,431;    0,318
667,273;27905,923;    0,885;    0,136
667,848;28704,253;    0,340;    1,500
668,423;28486,674;    1,795;    2,318
668,998;29055,731;    0,976;   -0,682
669,573;29591,789;    2,067;   -1,500
670,148;29455,028;    1,885;   -0,682
670,723;29268,086;   -0,024;    0,318
671,298;29708,598;   -1,296;    1,045
671,873;29772,928;   -0,296;   -0,136
672,448;29675,349;    1,704;    0,136
673,023;30050,861;    0,249;   -0,227
673,597;30384,373;    2,704;    2,318
674,172;30090,794;    2,431;    0,318
674,747;29634,852;   -0,205;   -1,045
675,321;29552,727;   -0,933;    3,318
675,896;29047,876;    2,158;    1,045
676,471;30012,751;    2,522;    1,591
677,045;29797,173;   -0,296;    0,682
677,620;29825,048;    2,158;    1,136
678,194;30181,288;    0,249;    1,136
678,769;29755,709;    0,886;   -0,318
679,343;29937,675;   -0,023;    1,773
679,917;29792,187;    0,340;    1,955
680,492;29891,518;    0,249;    3,227
681,066;30058,120;    0,613;    0,409
681,640;30123,269;    1,795;   -0,318
682,214;30949,417;    2,340;    0,500
682,788;30391,020;    0,613;   -0,773
683,363;30367,350;    1,977;    1,682
683,937;30042,317;    0,886;   -0,318
684,511;30857,829;   -1,023;   -0,591
685,085;30555,250;   -1,478;    0,318
685,659;30287,035;    1,431;    0,864
686,232;30556,729;    1,159;   -0,318
686,806;30321,604;    2,159;    0,409
687,380;30953,026;   -1,932;    0,591
687,954;31147,447;    2,432;    1,136
688,528;30899,050;    2,613;    1,955
689,101;31654,289;    0,432;    1,045
689,675;31219,437;    0,886;   -0,136
690,249;30581,586;    3,432;    0,409
690,822;30896,098;    1,159;    0,318
691,396;30997,155;    2,068;    1,227
691,969;30434,940;    2,523;    0,136
692,543;30961,361;   -0,568;   -1,955
693,116;30556,509;   -0,659;   -1,409
693,690;30394,112;   -0,296;    0,500
694,263;30996,897;    2,341;    2,955
694,836;30989,227;    2,795;    3,591
695,410;29594,467;    1,159;    1,773
695,983;30104,161;    1,614;    0,591
696,556;30017,036;   -0,750;   -1,045
697,129;30451,275;   -1,114;    1,409
697,703;30068,788;    1,341;    1,955
698,276;30069,663;    1,705;   -0,773
698,849;29838,448;   -1,023;    1,409
699,422;30248,233;    1,250;    0,591
699,995;29909,836;   -0,659;    0,136
700,568;30391,348;   -0,204;    3,045
701,140;30376,223;   -1,841;    1,682
701,713;30141,917;    0,341;    2,409
702,286;29920,975;    0,796;    0,864
702,859;29798,487;    0,614;   -0,591
703,432;28915,817;   -0,841;    0,682
704,004;29446,147;    1,978;    0,318
704,577;29245,750;    1,068;    0,136
705,150;29815,535;    0,887;    2,500
705,722;29599,138;    1,523;   -3,227
706,295;29445,195;    1,432;   -0,591
706,867;29219,798;    0,250;    1,955
707,440;29449,219;   -0,113;   -0,409
708,012;29717,095;   -0,022;    0,591
708,584;29653,425;    2,705;    0,227
709,157;29980,937;    1,160;   -0,591
709,729;29621,540;    1,069;    2,045
710,301;30511,052;   -1,204;    0,045
710,874;30478,292;    0,341;   -0,227
711,446;29347,349;   -0,295;    0,864
712,018;29237,588;   -3,022;    0,500
712,590;28923,464;   -0,204;    1,682
713,162;29481,249;   -0,477;    1,318
713,734;29754,124;    1,796;   -2,045
714,306;29615,727;    0,342;   -0,409
714,878;28276,058;   -0,295;    0,864
715,450;29137,206;   -0,113;    0,864
716,022;29436,354;    2,433;    1,318
716,593;29588,412;    0,978;    0,591
717,165;29520,742;    1,796;   -1,227
717,737;29124,709;    0,796;    0,409
718,309;28849,766;    1,160;   -0,045
718,880;28814,005;   -1,295;   -1,409
719,452;28984,336;    0,887;   -1,591
720,024;28551,302;    1,705;   -0,591
720,595;29096,996;    2,978;    0,955
721,167;28651,235;    1,160;   -2,045
721,738;28146,384;    2,069;   -1,045
722,309;28088,623;    1,251;   -1,227
722,881;27865,135;    2,705;    0,773
723,452;28524,011;    1,251;    2,864
724,023;28707,068;    1,524;    2,682
724,595;28549,308;    2,342;    0,682
725,166;28270,001;    1,524;   -0,409
725,737;27859,059;    1,887;    0,227
726,308;27978,571;    0,797;    0,318
726,879;28349,901;    1,069;    1,227
727,450;28198,504;   -2,022;   -0,045
728,021;28224,562;    1,069;    0,682
728,592;28077,528;    1,160;    0,500
729,163;28412,586;    1,433;   -0,136
729,734;28391,007;    2,160;   -0,227
730,305;28695,064;    0,615;    0,136
730,876;29043,122;    0,888;    2,955
731,447;28742,816;    0,797;    2,682
732,017;28852,055;   -0,840;    1,864
732,588;28388,931;   -0,021;    1,227
733,159;28525,079;    3,615;   -1,045
733,729;28328,955;    1,251;    0,409
734,300;27675,648;    0,160;    0,864
734,870;28060,433;   -1,385;    0,591
735,441;28635,309;    0,888;   -0,591
736,011;28377,003;    1,070;   -1,591
736,582;28330,878;    1,251;    0,045
737,152;27813,027;    0,979;   -2,045
737,722;28219,357;    1,070;   -0,682
738,293;27956,414;   -2,021;    1,318
738,863;27822,472;    1,797;    2,318
739,433;27624,075;    4,524;    0,318
740,003;28311,132;    1,524;   -0,682
740,573;27613,644;    2,252;   -1,591
741,143;27659,975;    3,615;    0,318
741,713;28368,396;    0,252;   -0,500
742,283;28044,817;    1,706;    1,591
742,853;27827,693;    0,524;    1,591
743,423;27240,477;    0,161;    0,045
743,993;27365,353;    1,070;    1,500
744,563;26755,138;    2,524;   -0,864
745,133;26743,377;   -0,112;   -0,864
745,702;27470,435;    2,797;    1,773
746,272;26646,401;    0,434;    0,591
746,842;26336,459;   -0,748;   -0,591
747,411;26802,425;   -0,839;   -0,318
747,981;27022,846;   -0,930;    0,500
748,551;27106,904;   -0,021;   -1,045
749,120;26899,507;   -0,112;   -0,227
749,690;27284,746;    2,161;    2,409
750,259;27569,440;    0,979;    2,955
750,828;27481,861;    4,070;   -1,955
751,398;27715,646;   -0,112;   -0,045
751,967;27227,703;    2,888;    0,409
752,536;27443,943;    1,161;   -0,227
753,105;27890,455;   -1,384;    0,227
753,675;27676,603;   -0,112;    1,773
754,244;27619,933;    0,888;    3,591
754,813;27668,809;    0,979;    1,227
755,382;27302,048;    0,798;    0,955
755,951;27827,651;   -0,112;    3,682
756,520;27307,163;    2,525;    1,864
757,089;27871,766;    1,888;    0,500
757,658;28041,369;    2,434;    1,227
758,227;28085,245;   -1,111;    0,318
758,795;28338,393;   -1,021;    1,136
759,364;28586,451;    0,525;   -0,591
759,933;27578,781;    1,343;   -0,045
760,501;27094,384;    0,252;   -1,318
761,070;27554,350;   -0,293;   -1,409
761,639;28270,499;    1,434;    1,318
762,207;27565,738;    0,889;   -0,955
762,776;27510,068;    2,889;    0,864
763,344;27485,307;    0,071;    0,591
763,913;26588,001;    1,616;    1,409
764,481;27318,877;    1,980;   -0,136
765,049;27177,662;    0,616;    1,409
765,618;27076,537;    1,434;    0,318
766,186;27102,686;    2,434;    0,136
766,754;27298,016;    1,798;    1,864
767,322;26204,346;    1,162;    0,409
767,890;26275,767;    0,525;   -1,773
768,459;26714,098;    2,616;   -0,318
769,027;26869,337;    2,525;    3,409
769,595;25866,213;    2,616;    2,591
770,163;26301,270;    3,344;    2,955
770,730;25988,328;    2,525;   -0,136
771,298;25848,749;    1,162;   -1,409
771,866;25939,170;    0,253;    4,955
772,434;26229,682;    1,162;   -1,864
773,002;26400,739;    2,616;    0,682
773,569;26044,069;    1,071;    1,682
774,137;25885,309;    0,889;   -0,045
774,705;26681,275;   -0,747;   -0,136
775,272;26140,606;    0,253;    0,682
775,840;25940,390;   -0,111;    2,682
776,407;25392,811;   -0,293;    1,955
776,975;24980,869;    1,162;    0,318
777,542;26073,563;    2,162;   -0,045
778,110;25946,529;    0,707;   -0,045
778,677;25495,223;    1,071;   -0,864
779,244;25239,281;   -1,020;    1,045
779,812;25393,520;    0,980;    0,864
780,379;25249,941;    2,435;    1,136
780,946;25547,817;    2,617;   -0,773
781,513;25831,965;   -0,565;    0,318
782,080;25122,477;    1,253;    2,864
782,647;25908,444;    1,708;    3,045
783,214;25523,138;   -0,201;    3,864
783,781;25127,286;    1,708;   -0,682
784,348;24960,162;    0,253;    1,500
784,915;25454,856;   -1,474;    0,318
785,482;25187,186;    2,708;    2,591
786,049;25634,243;    1,071;   -0,591
786,615;25710,301;    1,708;   -0,955
787,182;25463,176;   -3,201;   -0,682
787,749;25158,598;   -2,201;    1,409
788,315;24479,200;    0,253;   -0,409
788,882;24773,258;    0,981;   -1,227
789,448;25407,497;    1,435;   -0,955
790,015;25509,282;    1,799;    3,227
790,581;25046,521;    0,708;    0,227
791,148;24914,579;    1,344;    1,045
791,714;25150,636;   -1,019;    3,136
792,280;24846,148;    3,708;    1,591
792,847;24420,388;   -0,928;    2,500
793,413;24987,627;   -0,110;   -0,318
793,979;24503,139;    1,526;   -1,318
794,545;24540,742;    2,981;    2,682
795,111;23907,072;    2,435;    1,318
795,678;24112,493;    3,526;   -1,682
796,244;23764,187;    2,799;    0,136
796,810;24361,608;    0,799;    0,773
797,375;24064,575;   -0,292;   -2,136
797,941;24109,905;   -1,110;    0,591
798,507;24187,235;    0,254;   -0,955
799,073;23772,384;    2,708;    0,591
799,639;23882,714;    1,435;    3,136
800,205;23851,771;   -1,565;    2,682
800,770;23387,647;    1,345;    1,773
801,336;23447,977;    2,981;   -0,955
801,901;23129,489;    6,072;    3,136
802,467;23725,001;    0,526;    2,045
803,033;23052,513;   -0,019;    0,864
803,598;23215,389;    1,072;   -1,045
804,163;23292,628;    0,708;   -0,318
804,729;23266,958;   -0,110;    1,136
805,294;23615,107;    1,072;    2,227
805,859;23417,073;    0,890;   -0,409
806,425;22894,585;    3,890;    2,682
806,990;22561,097;    1,890;    4,318
807,555;23071,519;   -0,110;    2,591
808,120;22929,758;   -1,292;   -0,409
808,685;22991,815;    1,072;   -2,500
809,250;22434,691;    2,072;   -0,500
809,815;22809,203;   -0,201;    0,682
810,380;23356,261;    0,981;    1,591
810,945;23855,045;    2,890;    2,045
811,510;23069,830;   -0,200;    1,591
812,075;22739,069;    2,800;   -1,409
812,640;22760,854;    3,709;    1,409
813,204;22804,912;    2,163;   -0,227
813,769;23362,605;    0,254;   -0,045
814,334;22714,027;    0,527;    0,864
814,898;22752,630;    1,981;    0,591
815,463;22585,687;    0,981;   -0,773
816,027;22600,108;    1,345;   -2,318
816,592;22702,438;    2,163;   -2,045
817,156;22207,587;   -2,200;    1,136
817,721;21985,735;    0,982;    2,318
818,285;21960,611;    0,618;    1,500
818,849;22649,487;   -0,018;    1,682
819,414;22565,089;    0,073;    2,955
819,978;22097,783;   -0,291;    1,773
820,542;22683,568;    2,891;    0,500
821,106;22395,444;    2,800;    0,682
821,670;22418,683;    2,709;    2,591
822,234;22171,286;    1,073;    1,409
822,798;21545,889;   -0,836;    0,500
823,362;21539,492;    1,527;    4,227
823,926;20834,458;   -0,018;    1,136
824,490;21040,698;    3,527;   -0,682
825,054;21511,210;    2,527;   -1,136
825,618;21155,267;   -1,200;   -1,500
826,181;21063,779;    0,982;   -1,318
826,745;20991,382;   -0,745;   -1,045
827,309;21301,803;    2,255;    1,318
827,872;20720,224;    0,527;    0,955
828,436;21733,009;    1,982;   -0,773
828,999;21813,521;    2,436;    1,227
829,563;20653,851;   -0,654;    1,136
830,126;20441,000;   -0,018;   -0,591
830,690;20419,148;    0,709;    2,864
831,253;19902,115;   -0,473;    2,227
831,816;20083,627;   -0,018;    0,500
832,380;20020,048;    1,164;    0,864
832,943;20204,742;    3,073;   -0,500
833,506;19721,708;    0,255;   -1,227
834,069;20558,130;    2,164;   -0,955
834,632;20587,096;   -2,200;    1,318
835,195;20435,335;    1,346;    0,955
835,758;19686,938;    0,709;    1,955
836,321;19483,632;    1,073;   -1,045
836,884;19560,144;   -1,291;   -0,955
837,447;19621,293;    0,528;    1,773
838,010;19859,623;    1,800;    3,227
838,573;20215,771;    0,528;    0,773
839,135;20078,920;   -0,109;   -0,955
839,698;19521,704;    2,528;    0,409
840,261;19071,398;    0,255;   -0,227
840,823;18954,365;   -0,927;    0,864
841,386;19179,877;   -0,018;   -2,409
841,948;19077,753;    0,255;    1,773
842,511;18838,628;    0,255;    1,682
843,073;18952,049;    2,982;    0,227
843,636;18758,470;    0,619;   -0,227
844,198;18676,437;    1,255;    0,591
844,760;18814,313;    0,619;    1,955
845,322;18421,825;    0,164;    1,136
845,885;18906,973;   -0,290;    0,591
846,447;19319,576;    0,710;    0,227
847,009;18876,452;    3,983;   -0,682
847,571;19240,509;    1,346;   -2,045
848,133;19308,839;   -0,199;   -1,864
848,695;19138,442;    2,346;    1,409
849,257;18701,136;    1,346;   -1,682
849,819;18882,375;    2,983;   -0,409
850,381;18915,615;    1,801;   -0,864
850,942;19236,490;    1,892;   -0,591
851,504;19143,548;    0,983;    0,227
852,066;19208,242;    1,619;   -1,591
852,628;18767,845;    0,165;    1,955
853,189;18288,084;    0,256;    2,682
853,751;18485,232;   -0,654;    1,409
854,312;18269,017;    1,256;   -1,682
854,874;18797,166;   -0,108;   -0,773
855,435;19284,132;    0,528;   -1,682
855,997;19438,371;    3,983;   -0,136
856,558;18694,429;    0,801;    1,773
857,119;18818,759;   -0,744;    2,864
857,681;18472,908;   -0,108;    0,318
858,242;18523,056;    1,347;   -2,136
858,803;19000,932;    1,074;   -0,773
859,364;19514,898;    0,892;   -4,773
859,925;18873,319;   -0,290;   -0,955
860,486;18768,559;    0,529;   -0,955
861,047;18469,434;    0,165;   -1,227
861,608;18273,855;    0,165;   -0,773
862,169;18441,367;   -0,562;   -0,045
862,730;18223,516;   -0,290;    1,409
863,291;18455,937;    0,438;   -0,500
863,852;18763,631;   -0,926;    1,955
864,412;18248,870;   -1,835;   -0,864
864,973;16785,928;    1,892;    0,500
865,534;16641,258;    2,074;    0,227
866,094;18183,133;    2,620;    0,227
866,655;17823,009;    4,711;    3,318
867,215;18080,612;    0,074;    0,136
867,776;17968,124;   -1,199;   -0,136
868,336;18057,000;    1,529;    0,136
868,897;17508,875;    3,438;    1,682
869,457;17282,024;    3,256;    0,318
870,017;17515,354;    2,438;   -1,227
870,578;18070,593;    1,893;    0,773
871,138;17691,196;    2,620;   -0,955
871,698;17229,527;   -0,562;   -1,318
872,258;17093,039;    0,711;   -2,864
872,818;17468,187;    2,347;    0,045
873,378;17445,881;   -2,198;    1,045
873,938;17024,211;    4,984;    0,500
874,498;17299,723;    1,256;   -1,955
875,058;17215,417;    4,347;    1,773
875,618;17031,929;    1,438;   -2,682
876,177;17006,350;   -0,471;    0,136
876,737;16588,408;   -0,289;    1,955
877,297;16594,556;    2,711;    1,955
877,856;16578,795;    2,529;    0,318
878,416;16518,125;    2,438;   -0,136
878,976;16766,183;    3,438;    0,409
879,535;16981,149;    4,529;    3,136
880,095;16705,662;    1,347;    0,045
880,654;16818,446;    0,347;    1,318
881,213;16913,413;    2,347;    1,500
881,773;16558,289;    1,984;    2,682
882,332;16917,073;    6,075;    5,136
882,891;16761,676;    0,711;    2,136
883,451;17201,188;   -2,016;    1,682
884,010;16677,609;   -1,107;   -0,409
884,569;16737,394;   -2,289;   -0,045
885,128;16870,361;   -0,743;   -1,864
885,687;16938,145;   -0,743;    0,682
886,246;16623,476;    2,620;    2,136
886,805;16404,624;    1,620;    2,045
887,364;16710,318;    1,166;   -0,500
887,922;17067,739;   -0,016;    0,045
888,481;16515,069;    1,530;    0,591
889,040;16850,127;    3,711;    2,136
889,599;17541,366;    2,166;    1,409
890,157;17630,151;    2,166;    2,409
890,716;17299,390;    2,166;    0,227
891,274;17038,902;    0,075;   -1,136
891,833;17437,323;    1,166;    0,864
892,391;17355,290;    1,802;    0,500
892,950;17447,347;    0,166;   -0,773
893,508;17759,041;    0,984;   -0,409
894,067;17134,644;   -0,379;    0,136
894,625;17072,793;   -1,016;   -1,500
895,183;17326,759;   -0,198;   -0,682
895,741;17189,362;    2,257;   -1,773
896,299;17018,147;    1,621;   -2,409
896,858;17200,113;    1,530;   -1,591
897,416;17355,353;    0,166;   -1,318
897,974;17079,774;   -2,197;    0,318
898,532;17214,195;    6,530;    2,682
899,089;17110,798;    0,621;   -0,682
899,647;17171,855;    0,530;    1,318
900,205;16880,276;    0,257;    1,045
900,763;17120,061;    2,166;    0,227
901,321;17143,301;    3,530;   -1,409
901,878;16505,085;    3,257;   -0,773
902,436;16356,870;    0,257;    1,318
902,994;16778,746;    6,712;    3,682
903,551;16232,167;    1,439;    0,409
904,109;16624,679;    1,530;   -1,409
904,666;16250,191;    1,439;    1,045
905,224;16003,430;    3,894;   -0,409
905,781;15728,851;   -0,470;   -0,318
906,338;15829,818;    0,167;    1,045
906,895;15765,148;    1,894;    2,045
907,453;15709,478;    2,348;    1,136
908,010;15718,809;    3,348;    0,409
908,567;15328,230;   -0,561;    0,591
909,124;14922,651;    2,439;   -1,500
909,681;14963,072;   -1,288;    0,682
910,238;15097,857;   -0,106;   -1,318
910,795;15416,460;   -1,561;   -1,136
911,352;15047,187;   -0,379;   -2,682
911,909;14466,369;    2,803;   -0,864
912,466;14939,096;    1,985;    1,500
913,022;14519,460;   -0,924;    0,500
913,579;14879,278;   -0,470;    2,045
914,136;14556,551;   -2,561;    0,955
914,692;14910,005;    1,530;   -1,227
915,249;14507,823;    0,530;    0,409
915,806;14675,914;    1,803;    1,955
916,362;14384,732;    0,894;    1,864
916,918;13987,641;    2,439;    1,045
917,475;13973,914;    1,621;    0,955
918,031;14094,732;    0,076;   -0,045
918,587;13522,551;    0,621;   -0,318
919,144;13712,460;   -0,379;    0,227
919,700;14056,278;    0,167;    0,773
920,256;13620,005;    0,439;    0,045
920,812;13223,369;    1,439;   -1,045
921,368;13214,005;    1,348;   -1,045
921,924;12882,551;    0,439;   -0,136
922,480;12428,369;    0,076;    1,227
923,036;13049,096;   -0,652;    1,955
923,592;13017,369;    0,621;    0,318
924,148;12889,551;    1,894;   -0,955
924,704;12237,641;    0,258;   -0,409
925,259;12512,823;   -0,561;    0,591
925,815;12252,641;    3,803;    0,500
926,371;11776,914;    3,530;    1,409
926,926;11671,369;    1,621;    0,591
927,482;11304,005;    1,621;    0,773
928,037;11201,732;   -0,833;    2,045
928,593;11506,641;    0,258;    1,045
929,148;11327,369;    1,167;   -1,500
929,704;10859,460;    2,439;   -0,500
930,259;11015,641;    0,894;   -0,136
930,814;10107,005;    1,803;    1,955
931,369; 9830,732;    0,258;   -0,773
931,925; 9697,460;   -1,924;    0,136
932,480; 9587,551;    3,076;   -2,591
933,035; 9465,096;    3,985;   -0,318
933,590; 9200,460;   -1,742;   -1,773
934,145; 8888,369;   -1,288;   -0,318
934,700; 9259,641;    0,348;   -0,591
935,255; 9043,096;    4,803;    0,045
935,809; 8306,187;    6,258;    0,864
936,364; 7433,551;    2,167;   -0,136
936,919; 7421,914;    2,348;   -1,773
937,474; 7335,369;    1,348;    0,136
938,028; 7067,551;    3,076;    1,136
938,583; 6531,460;    6,348;    4,682
939,138; 6841,641;    0,167;    2,136
939,692; 6292,096;   -1,015;   -1,136
940,247; 5949,278;    1,167;   -1,045
940,801; 5527,369;    0,621;    0,227
941,355; 5451,187;    0,439;    2,591
941,910; 5106,914;    0,712;   -2,136
942,464; 5208,369;    2,712;   -0,318
943,018; 4983,096;    3,258;   -0,227
943,572; 4907,732;    2,803;   -0,682
944,126; 4334,641;   -0,924;   -0,409
944,681; 4222,551;    0,712;    0,227
945,235; 4221,732;    2,167;   -0,591
945,789; 4144,641;    1,258;   -1,864
946,342; 4249,096;   -0,561;   -0,591
946,896; 4060,187;    0,348;    0,955
947,450; 3814,460;   -0,561;   -0,227
948,004; 4019,551;    1,076;   -0,045
948,558; 4035,096;    1,258;   -0,864
949,111; 3957,278;   -1,197;   -0,318
949,665; 3972,278;   -0,106;   -0,682
950,219; 3831,641;    0,621;   -1,045
950,772; 3918,005;    0,258;    1,864
951,326; 3835,460;   -1,106;   -0,955
951,879; 3934,278;    1,076;   -2,318
952,433; 3961,278;    1,348;    2,227
952,986; 3799,005;    0,348;    0,682
953,539; 3739,914;    1,530;    0,591
954,093; 3680,823;    0,985;   -1,318
954,646; 3816,096;   -0,288;    1,318
955,199; 3620,278;    1,258;   -0,500
955,752; 3489,187;    1,985;    1,773
956,305; 3450,369;    0,894;    2,955
956,858; 3636,551;    0,621;   -0,318
957,411; 3826,914;    3,621;    2,136
957,964; 3653,460;    2,076;    2,136
958,517; 3623,096;    0,985;    3,136
959,070; 3471,551;   -1,197;    1,955
959,623; 3525,369;    1,076;    1,500
960,176; 3300,187;    0,712;    2,045
960,728; 3276,369;    1,712;    0,773
961,281; 3350,551;    2,258;    0,500
961,834; 3377,369;   -0,833;    0,864
962,386; 3292,914;    1,258;    1,045
962,939; 3213,187;    3,439;   -0,318
963,491; 3366,278;    2,621;    1,136
964,043; 3230,914;    0,076;    2,409
964,596; 3358,005;    1,712;    2,227
965,148; 3178,096;   -0,379;    1,773
965,700; 3122,460;   -0,015;   -0,227
966,253; 3271,278;   -0,833;    0,318
966,805; 3097,278;    1,894;    0,773
967,357; 3158,187;    0,439;   -1,500
967,909; 3094,278;    1,167;   -1,227
968,461; 3238,096;    0,894;    3,136
969,013; 3170,187;   -1,561;   -0,864
969,565; 3225,460;    1,803;   -1,136
970,117; 3295,914;    3,803;    1,045
970,669; 3137,369;    3,258;   -0,136
971,220; 3014,460;    2,167;   -1,500
971,772; 2916,460;    1,348;   -0,318
972,324; 3028,914;   -1,197;   -0,500
972,876; 2985,369;    0,167;   -0,045
973,427; 3097,914;   -1,197;   -1,045
973,979; 3092,823;    0,076;   -2,500
974,530; 3116,823;    0,803;    1,318
975,082; 3134,641;    2,167;    1,682
975,633; 3034,732;    2,894;    1,682
976,184; 3162,187;    2,076;    0,773
976,736; 2962,005;    0,348;    0,227
977,287; 2747,369;    0,258;   -0,500
977,838; 2939,460;   -0,924;   -0,318
978,389; 2992,187;    0,803;   -0,500
978,940; 2872,641;    1,258;   -0,409
979,491; 2889,187;    2,258;   -0,500
980,042; 2829,823;   -0,652;    3,045
980,593; 2904,187;    1,894;    0,227
981,144; 2957,187;    3,530;   -0,500
981,695; 2926,551;   -0,470;    1,500
982,246; 2889,914;   -1,833;    1,045
982,797; 3040,551;   -0,561;    0,682
983,347; 3174,823;    2,167;    0,591
983,898; 3303,823;    4,167;    0,409
984,449; 3122,369;    2,530;    0,773
984,999; 3061,914;    1,894;   -1,136
985,550; 2822,460;    3,167;   -0,318
986,100; 2860,096;    0,712;   -0,318
986,651; 2900,005;    0,258;    0,045
987,201; 2873,187;    0,894;   -0,591
987,751; 2946,732;   -0,288;    2,864
988,302; 2920,096;   -0,379;    1,500
988,852; 2952,278;    1,985;   -1,136
989,402; 2991,914;    0,985;    0,682
989,952; 2905,551;    1,621;    0,864
990,502; 2999,732;    1,076;    0,682
991,052; 2964,005;   -0,106;    0,045
991,602; 2840,823;    1,167;    1,318
992,152; 2845,914;    2,803;    0,682
992,702; 2821,187;    1,167;   -0,045
993,252; 2733,823;    0,076;   -0,500
993,802; 2819,641;    1,167;    1,318
994,352; 3079,278;   -0,742;    1,136
994,901; 3186,187;    1,076;    3,227
995,451; 3074,641;   -1,197;    0,318
996,000; 3162,369;    1,076;    0,318
996,550; 2883,914;    2,894;    0,227
997,100; 2872,278;   -0,561;   -0,045
997,649; 3165,369;   -0,197;    0,955
998,198; 2793,278;   -0,288;   -1,500
998,748; 2973,641;    0,348;   -2,318
999,297; 2889,096;    0,985;   -0,409
999,846; 2974,005;    1,894;   -0,773
1000,395; 3012,187;    1,530;    0,500
1000,945; 2967,641;    1,076;   -0,773
1001,494; 3046,641;    0,167;    0,682
1002,043; 3037,005;    0,712;    0,864
1002,592; 2867,914;    3,439;    1,955
1003,141; 3024,096;    2,439;   -0,682
1003,690; 2866,369;    1,258;    0,500
1004,238; 2927,005;   -0,106;   -0,045
1004,787; 2552,823;   -1,288;    1,227
1005,336; 2803,641;    1,621;    0,682
1005,885; 2954,369;   -0,197;   -2,773
1006,433; 3100,096;   -0,470;    0,955
1006,982; 3167,641;    2,167;    1,682
1007,531; 3064,460;    2,712;   -0,227
1008,079; 3042,914;    0,258;    0,500
1008,627; 3178,187;    1,621;    0,409
1009,176; 2900,823;    0,076;   -1,955
1009,724; 2959,732;   -2,742;    0,864
1010,273; 2992,187;    1,076;    0,500
1010,821; 3110,005;    1,076;    1,409
1011,369; 2838,005;    0,076;    1,318
1011,917; 2843,187;   -0,833;   -0,591
1012,465; 3126,551;    2,530;   -1,591
1013,013; 3246,369;    0,439;   -1,682
1013,561; 3080,914;   -1,288;   -0,773
1014,109; 3135,732;   -0,833;    1,682
1014,657; 3014,005;    1,348;    0,591
1015,205; 3132,823;    0,894;   -0,955
1015,753; 3180,460;    0,258;   -1,409
1016,301; 3208,005;    2,621;    3,045
1016,848; 3215,005;    2,167;    0,409
1017,396; 3259,460;    1,621;    0,045
1017,944; 3378,551;    2,621;    1,864
1018,491; 3127,914;   -0,197;    1,409
1019,039; 3295,823;   -0,652;    0,591
1019,586; 3193,823;    0,076;    1,682
1020,134; 3298,096;    0,712;    1,500
1020,681; 3326,460;    2,894;   -1,136
1021,228; 3346,823;   -0,561;   -2,227
1021,776; 3174,823;   -0,833;   -1,136
1022,323; 3388,732;    0,803;    0,773
1022,870; 3323,551;   -0,470;   -0,045
1023,417; 3220,551;    2,076;    1,864
1023,964; 3362,369;    0,621;    1,227
1024,511; 3185,005;   -0,652;    0,773
1025,058; 2988,096;    0,439;   -0,045
1025,605; 3056,187;   -1,742;    3,136
1026,152; 3272,005;   -0,106;   -0,591
1026,699; 2991,005;    0,167;    1,318
1027,245; 3156,732;    2,439;    0,318
1027,792; 3386,641;    0,712;    1,409
1028,339; 3254,823;    4,076;   -0,045
1028,885; 3099,732;    3,621;   -0,227
1029,432; 3053,732;   -0,106;    0,227
1029,978; 3105,187;    1,348;   -1,591
1030,525; 2988,823;    1,621;    0,409
1031,071; 3256,187;    0,348;    1,136
1031,618; 3353,914;    1,258;    1,682
1032,164; 3152,460;    2,076;    3,045
1032,710; 3198,278;    0,076;   -1,500
1033,256; 3098,641;    0,712;   -0,136
1033,803; 3091,551;   -0,288;    1,500
1034,349; 2852,823;    1,803;    0,136
1034,895; 2995,369;    2,621;   -0,318
1035,441; 2945,732;    0,439;    0,318
1035,987; 2955,460;   -2,288;   -0,682
1036,533; 2966,369;   -0,197;   -0,955
1037,078; 3165,278;    4,712;    1,682
1037,624; 2978,551;    2,439;   -0,955
1038,170; 3011,005;    1,712;   -0,318
1038,716; 2909,096;    2,167;   -0,409
1039,261; 2812,278;    2,167;   -0,773
1039,807; 2752,278;   -0,015;    3,409
1040,352; 2833,187;   -1,288;   -0,318
1040,898; 2855,641;    0,167;   -0,682
1041,443; 2774,732;    0,803;   -2,591
1041,989; 2818,278;    3,621;    1,591
1042,534; 2684,369;    0,985;    2,591
1043,079; 2818,369;    1,985;    0,955
1043,625; 2598,641;    0,258;    0,500
1044,170; 2630,278;    2,439;    1,045
1044,715; 2896,187;    0,167;    0,955
1045,260; 2727,914;   -0,833;   -0,955
1045,805; 2762,641;    0,258;   -0,591
1046,350; 2710,823;    0,530;   -0,409
1046,895; 2669,187;    0,803;    1,591
1047,440; 2609,732;    1,530;    0,409
1047,985; 2515,551;   -1,197;   -0,955
1048,530; 2441,732;    1,348;    1,227
1049,074; 2509,369;    2,803;    0,318
1049,619; 2484,278;   -0,924;    1,955
1050,164; 2276,187;    1,076;    0,227
1050,708; 2322,732;    2,621;    0,045
1051,253; 2693,369;    3,258;   -2,227
1051,797; 2417,732;   -0,197;   -1,318
1052,342; 2431,005;    1,348;    1,045
1052,886; 2405,823;    1,803;   -1,409
1053,430; 2284,278;    2,167;    0,136
1053,975; 2307,823;    0,894;   -0,318
1054,519; 2284,732;    1,803;    3,227
1055,063; 2289,823;    3,621;    1,318
1055,607; 2184,278;    1,348;    0,227
1056,151; 2207,460;    0,530;    1,682
1056,695; 2118,369;   -1,833;   -1,136
1057,239; 2183,278;   -1,197;   -0,682
1057,783; 2188,187;    2,258;   -1,500
1058,327; 2151,914;    3,076;    1,409
1058,871; 2368,005;    3,985;    1,318
1059,415; 2076,460;   -0,561;   -0,045
1059,958; 2339,278;    2,985;    2,591
1060,502; 2060,551;    1,348;   -0,773
1061,046; 1965,460;    1,712;   -0,955
1061,589; 1948,369;    2,803;   -1,136
1062,133; 1834,096;    0,985;    1,864
1062,676; 1760,823;    1,439;    0,864
1063,220; 1785,278;    0,985;    0,500
1063,763; 1790,369;    2,985;    1,136
1064,306; 1865,187;    0,985;    1,864
1064,849; 1751,823;    2,076;    0,591
1065,393; 1761,369;    2,894;   -1,500
1065,936; 1880,187;    2,530;   -0,409
1066,479; 1756,551;    2,621;    1,318
1067,022; 1788,732;    1,894;   -0,227
1067,565; 1691,460;   -1,197;   -1,318
1068,108; 1729,005;    1,258;   -0,591
1068,651; 1696,641;   -2,470;    1,409
1069,194; 1626,732;   -1,106;   -1,682
1069,736; 1614,278;    3,803;    0,955
1070,279; 1595,005;   -1,652;   -0,500
1070,822; 1656,732;    1,530;   -0,318
1071,364; 1721,641;    0,530;    1,318
1071,907; 1544,641;    0,348;    3,227
1072,450; 1466,823;    0,258;   -0,045
1072,992; 1458,732;   -0,561;    3,136
1073,535; 1584,551;    0,167;    2,136
1074,077; 1389,641;    2,985;    2,045
1074,619; 1361,278;    0,985;    0,591
1075,161; 1378,005;   -0,561;    1,500
1075,704; 1571,460;    0,258;    1,227
1076,246; 1370,641;    1,530;    0,682
1076,788; 1295,005;   -1,015;    1,773
1077,330; 1371,460;   -2,106;    2,136
1077,872; 1339,278;   -1,924;    0,955
1078,414; 1559,278;    3,712;    0,773
1078,956; 1288,641;    0,167;   -0,227
1079,498; 1537,187;    0,439;    0,318
1080,040; 1238,369;    0,985;   -1,318
1080,581; 1191,278;    0,621;   -0,318
1081,123; 1126,823;   -0,106;   -0,773
1081,665; 1177,823;    3,803;   -0,955
1082,206; 1444,278;    3,258;   -0,500
1082,748; 1324,460;    3,258;    2,045
1083,289; 1221,369;    0,167;    1,318
1083,831; 1126,187;    0,258;    0,227
1084,372; 1145,460;    0,894;    0,591
1084,913; 1141,823;    3,348;    0,864
1085,455; 1122,732;    1,530;   -2,045
1085,996; 1089,551;    0,530;    0,136
1086,537; 1114,641;    0,985;    0,864
1087,078; 1147,551;    0,439;   -2,136
1087,619; 1181,278;   -1,652;    0,227
1088,160; 1107,278;    1,439;    1,318
1088,701; 1100,914;   -0,742;    0,682
1089,242; 1033,460;   -0,561;   -2,227
1089,783; 1105,823;   -0,561;    1,409
1090,324; 1088,096;   -0,833;    0,682
1090,865;  975,278;   -1,924;   -0,409
1091,405;  964,914;   -0,561;    2,227
1091,946;  986,460;   -0,197;   -0,955
1092,487;  916,096;   -1,288;   -1,409
1093,027; 1064,914;    1,803;   -1,500
1093,568;  918,187;    2,258;    1,227
1094,108; 1003,914;    0,621;    1,773
1094,649;  955,278;   -0,470;    0,136
1095,189;  902,278;    1,167;   -0,682
1095,729;  842,641;    0,712;    0,955
1096,269;  853,914;    1,258;   -0,955
1096,810; 1160,460;   -0,197;    0,500
1097,350;  980,551;   -0,561;   -0,773
1097,890;  879,732;    2,985;    1,227
1098,430; 1122,823;    4,985;    2,864
1098,970; 1008,096;    1,894;    1,682
1099,510;  878,369;   -0,833;   -2,318
1100,050;  806,278;    0,258;   -1,591
1100,589;  767,641;    0,076;   -0,318
1101,129;  883,187;    0,894;   -0,955
1101,669; 1032,460;    2,803;    2,136
1102,209;  865,187;    1,530;    2,227
1102,748;  815,823;    3,439;    0,955
1103,288;  806,641;    0,712;   -1,227
1103,827;  840,914;    3,530;   -2,227
1104,367;  719,369;    1,712;   -2,409
1104,906;  679,460;   -1,015;   -1,136
1105,445;  753,460;    0,985;   -1,136
1105,985;  685,278;   -0,652;    1,500
1106,524;  733,551;    1,530;   -0,682
1107,063;  709,551;    1,167;    1,409
1107,602;  684,096;    1,894;   -1,500
1108,141;  614,551;    1,621;    1,500
1108,680;  715,732;    3,985;   -0,591
1109,219;  657,278;    0,167;   -0,500
1109,758;  660,460;    4,167;    0,682
1110,297;  644,369;   -1,106;   -0,682
1110,836;  592,005;    1,439;    0,955
1111,375;  733,641;    0,348;    0,409
1111,913;  742,005;    0,985;    0,773
1112,452;  678,551;    0,894;    0,136
1112,991;  579,187;    1,076;    1,955
1113,529;  539,460;    0,167;   -0,045
1114,068;  592,278;    0,439;    2,955
1114,606;  490,551;   -0,561;   -0,955
1115,144;  658,005;    1,530;    1,045
1115,683;  599,187;    1,985;    0,318
1116,221;  644,823;    2,076;   -0,864
1116,759;  563,278;    1,621;   -0,864
1117,297;  733,823;    1,621;    1,864
1117,836;  561,005;    1,985;   -1,227
1118,374;  559,369;    0,258;   -0,682
1118,912;  513,914;    0,439;    2,682
1119,450;  505,005;    0,985;    0,864
1119,988;  550,369;    3,348;    2,136
1120,525;  990,823;    7,258;    3,318
1121,063;  682,369;    0,530;    1,864
1121,601;  504,641;    1,076;   -1,227
1122,139;  458,460;    1,076;   -2,045
1122,676;  654,551;   -1,652;    2,773
1123,214;  591,460;    0,712;    4,409
1123,751;  405,732;    0,621;    2,227
1124,289;  535,278;    0,894;   -0,409
1124,826;  413,005;   -0,379;    0,227
1125,364;  340,914;    0,712;   -0,955
1125,901;  513,551;    6,258;    1,227
1126,438;  606,551;    3,530;    0,955
1126,975;  355,096;    2,985;   -0,773
1127,513;  420,551;    2,621;    2,136
1128,050;  339,096;   -0,561;   -0,682
1128,587;  428,005;    1,348;   -0,227
1129,124;  460,278;   -0,015;    1,318
1129,661;  345,096;   -1,924;    0,227
1130,198;  503,460;    2,439;    0,773
1130,734;  445,369;   -0,379;    1,409
1131,271;  318,823;   -1,197;    0,864
1131,808;  482,369;    1,621;    3,045
1132,345;  350,005;    4,530;    0,318
1132,881;  242,187;   -0,561;   -1,864
1133,418;  373,823;    0,348;   -1,136
1133,954;  310,278;    0,712;   -2,682
1134,491;  377,278;    1,712;   -0,773
1135,027;  285,005;    2,167;    0,864
1135,564;  361,096;    1,439;    2,955
1136,100;  353,096;   -0,742;    2,136
1136,636;  254,823;   -1,015;   -1,045
1137,172;  324,641;    0,894;   -1,045
1137,708;  269,096;   -1,561;   -1,045
1138,245;  272,187;    0,803;   -1,227
1138,781;  230,278;    1,803;   -3,318
1139,317;  277,187;    1,894;   -1,409
1139,852;  275,732;    3,076;    0,136
1140,388;  376,641;    2,076;   -0,409
1140,924;  265,551;    1,076;   -2,227
1141,460;  218,914;   -0,288;    0,136
1141,996;  164,005;   -0,652;    2,682
1142,531;  199,823;    1,076;    3,318
1143,067;  394,005;    1,167;    1,045
1143,602;  446,369;    3,439;   -0,318
1144,138;  296,641;    0,803;    1,045
1144,673;  181,005;    1,621;    1,409
1145,209;  246,096;    2,894;   -0,318
1145,744;  166,914;    0,803;    0,864
1146,279;  297,369;    1,530;   -0,136
1146,815;  223,641;    1,530;   -2,682
1147,350;  256,823;   -0,924;    0,045
1147,885;  174,369;   -1,924;   -1,318
1148,420;  175,005;    2,439;    0,773
1148,955;  157,460;   -1,470;    1,864
1149,490;  174,005;   -1,106;   -1,591
1150,025;  161,551;   -1,106;   -1,773
1150,560;  266,914;   -0,288;   -0,955
1151,094;  240,460;    0,258;   -0,591
1151,629;  232,823;   -3,742;    0,864
1152,164;  168,551;   -1,288;    1,318
1152,698;  142,187;    1,258;   -0,136
1153,233;  101,187;   -1,379;   -0,682
1153,767;  135,005;   -0,288;   -2,318
1154,302;  183,187;   -0,379;    1,773
1154,836;  188,914;    0,803;   -2,136
1155,371;  222,914;    2,258;    3,682
1155,905;  192,096;    1,985;    1,682
1156,439;  166,369;    0,530;   -0,500
1156,973;  188,460;    0,439;    0,318
1157,507;  134,914;   -1,742;    0,682
1158,042;  157,187;   -0,652;    1,045
1158,576;  193,460;   -0,561;    1,773
1159,110;  184,732;    0,076;    2,409
1159,643;  161,005;   -2,470;   -0,045
1160,177;  117,369;   -2,015;    1,500

