
Integration time [ms]:   0,050
Averaging Nr. [scans]: 11
Smoothing Nr. [pixels]: 0
Data measured with spectrometer [name]: 7318044SP
Wave   ;Sample   ;Dark     ;Reference
[nm]   ;[counts] ;[counts] ;[counts] 

186,757;   -9,789;   38,161;    1,318
187,357;   20,914;   26,706;    0,955
187,958;    6,086;   17,252;   -1,591
188,558;   55,837;   12,979;   -1,227
189,159;   30,749;   10,070;   -4,500
189,759;   -4,107;    5,797;   -3,591
190,360;    0,080;    6,797;   -2,136
190,960;   34,833;    5,706;   -4,136
191,560;   46,692;    2,614;   -6,591
192,161;  281,699;    5,885;   -3,500
192,761;  129,920;    5,520;   -3,227
193,361;   80,484;    3,065;   -3,773
193,962;  135,210;    1,612;   -2,682
194,562;   63,371;   -0,114;   -3,955
195,162;  102,794;   -0,567;   -2,227
195,762;  268,876;    2,433;   -0,045
196,362;  210,214;    1,706;   -2,500
196,963;   84,521;    1,706;   -0,864
197,563;  155,024;    1,252;   -0,955
198,163;  110,612;   -0,111;   -0,682
198,763;  133,551;   -0,020;   -0,500
199,363;  232,989;    3,616;   -0,500
199,963;  197,074;    2,162;    0,409
200,563;  171,723;    6,344;   -1,409
201,163;  154,206;    5,435;   -0,227
201,763;  248,269;    1,435;    0,318
202,363;  190,741;    0,980;    1,500
202,963;  297,075;    1,526;    1,045
203,563;  408,410;    0,344;    0,500
204,162;  249,796;    1,889;   -1,864
204,762;  246,486;    2,071;    0,591
205,362;  225,361;    0,708;    1,955
205,962;  321,564;    3,435;    1,955
206,562;  319,798;    1,889;    2,318
207,161;  282,787;    1,708;    0,318
207,761;  442,012;    4,435;    2,409
208,361;  329,898;    1,889;    1,409
208,960;  417,653;    2,889;    1,500
209,560;  499,320;    0,435;    1,591
210,160;  485,062;    5,071;    1,864
210,759;  460,585;    0,708;    1,227
211,359;  443,584;   -0,474;    1,045
211,958;  720,351;    3,526;    2,045
212,558;  813,318;    0,799;    1,864
213,157;  659,753;   -0,929;    1,500
213,757; 1116,981;    5,617;   -0,227
214,356;  808,380;    1,708;   -0,409
214,956; 1152,825;    3,526;    0,409
215,555;  781,554;    0,617;    2,136
216,154;  714,768;   -0,292;   -0,591
216,754;  738,848;    1,253;    0,773
217,353;  884,064;   -0,383;   -1,045
217,952;  743,273;    2,072;    0,318
218,552;  972,460;    0,254;   -0,773
219,151;  893,285;   -1,110;    0,955
219,750;  905,272;    0,890;   -0,227
220,349; 1070,910;   -2,292;    1,045
220,948; 1119,169;    1,163;    1,136
221,548; 1171,246;    0,617;    1,227
222,147; 1303,614;   -1,292;   -0,409
222,746; 1595,698;    1,254;   -0,955
223,345; 1474,361;   -1,019;    0,500
223,944; 1502,407;    1,163;    0,773
224,543; 1708,154;    4,072;   -1,409
225,142; 1823,984;    1,345;    0,136
225,741; 1735,413;    1,163;    1,045
226,340; 1779,745;    1,254;   -0,955
226,939; 2269,785;    2,708;   -0,136
227,538; 2313,520;    1,163;   -0,773
228,137; 2450,982;    0,435;    0,864
228,735; 2671,158;    0,435;    1,227
229,334; 2374,692;   -0,474;   -0,227
229,933; 2764,950;    0,799;    0,591
230,532; 2923,338;   -1,201;   -0,409
231,131; 2965,508;    1,253;    0,318
231,729; 3155,286;    1,163;   -2,318
232,328; 3371,419;    0,435;   -1,500
232,927; 3485,534;    4,526;   -0,500
233,525; 3652,615;    0,981;    0,045
234,124; 3874,852;    1,890;   -1,591
234,723; 3950,986;    1,617;   -1,045
235,321; 4150,678;    1,163;    0,136
235,920; 4416,019;    2,526;   -1,227
236,518; 4720,529;    1,072;    0,318
237,117; 4993,492;    2,890;   -0,227
237,715; 5150,211;    1,163;   -0,500
238,314; 5200,355;    1,708;   -2,318
238,912; 5300,569;    0,526;   -1,409
239,510; 5390,092;    1,162;   -1,227
240,109; 5580,886;   -0,474;    3,773
240,707; 5660,245;   -0,474;    1,227
241,305; 6143,588;   -0,383;    0,136
241,904; 6351,134;   -0,292;   -2,045
242,502; 6319,514;    3,253;   -0,227
243,100; 6311,655;    3,344;   -0,955
243,698; 6550,465;    2,799;    1,682
244,297; 6746,607;   -0,656;    0,682
244,895; 6592,485;   -0,474;   -2,318
245,493; 6969,054;    2,981;   -0,591
246,091; 7036,000;    5,163;   -1,318
246,689; 7028,358;    2,163;    0,591
247,287; 7240,138;   -0,019;   -1,136
247,885; 7601,702;   -1,019;    1,227
248,483; 7692,373;   -0,201;   -0,500
249,081; 7846,683;    0,981;    1,591
249,679; 8009,603;   -1,019;    1,682
250,277; 8328,846;   -2,292;    0,864
250,875; 8303,751;    0,617;   -1,045
251,473; 8372,438;   -0,019;    0,500
252,071; 8581,555;   -0,383;    1,045
252,669; 8749,043;   -1,565;    0,318
253,267; 9068,139;    1,618;    0,773
253,864; 9073,138;    0,617;    0,682
254,462; 8857,595;    1,526;    1,591
255,060; 8883,568;    0,072;    1,318
255,658; 9280,134;   -3,292;   -0,136
256,255; 9733,133;   -0,201;   -2,045
256,853; 9573,975;    2,345;    1,409
257,451; 9596,224;    1,981;    1,864
258,048; 9841,742;    2,072;    1,864
258,646; 9597,862;    0,436;   -1,045
259,243; 9852,611;    2,981;    2,227
259,841; 9890,198;    1,799;    0,318
260,438; 9754,130;    0,254;    0,864
261,036;10587,917;    0,617;    1,409
261,633;10507,236;    1,526;    2,227
262,231;10228,241;   -0,110;   -0,045
262,828;10348,879;   -0,383;    1,136
263,425;10408,004;   -1,928;   -0,591
264,023;10703,568;    1,436;    0,045
264,620;10199,851;    1,526;   -0,318
265,217;10565,231;    2,890;    3,136
265,815;10712,945;    2,527;    2,136
266,412;10451,332;    0,072;    0,136
267,009;10513,310;    0,526;    0,773
267,606;10380,044;    0,345;   -0,955
268,203;10382,062;   -0,383;   -0,591
268,801;10717,615;   -0,474;    0,591
269,398;11045,842;   -0,564;    2,500
269,995;11040,697;    0,890;    1,591
270,592;10762,361;    0,799;   -0,500
271,189;11016,419;    1,981;    0,409
271,786;11172,860;    2,072;    1,227
272,383;10960,565;   -0,383;    0,227
272,980;11190,743;    1,617;    0,318
273,577;11745,023;    2,162;    1,227
274,174;11256,804;    1,435;    2,591
274,771;11252,589;    1,890;   -0,773
275,367;11424,199;    3,253;    1,409
275,964;11376,056;   -0,565;   -0,500
276,561;11524,514;   -2,474;   -1,045
277,158;11780,512;    1,799;   -1,773
277,755;11870,320;   -0,110;    0,409
278,351;11190,311;    0,436;   -1,500
278,948;11552,464;   -0,201;    0,045
279,545;11610,067;    0,527;    2,318
280,141;12260,293;    1,254;   -2,045
280,738;12141,669;    2,435;   -0,136
281,334;12412,933;   -0,383;    0,591
281,931;11760,354;    2,890;   -1,318
282,528;11886,813;    4,072;   -0,500
283,124;12690,413;    3,345;   -0,500
283,721;12619,241;    0,709;    1,409
284,317;12437,606;    0,163;    2,500
284,913;12990,675;   -0,110;    0,591
285,510;13152,584;    2,890;   -0,318
286,106;13210,208;    2,345;   -0,955
286,703;12780,506;    0,072;    1,955
287,299;13015,017;    1,254;   -0,591
287,895;13270,520;    0,890;   -1,045
288,491;13994,205;    0,163;    2,136
289,088;13634,223;    0,163;    2,409
289,684;13709,043;    2,890;    1,500
290,280;13758,641;    1,890;    0,682
290,876;13819,268;    0,163;    5,500
291,472;13680,089;    2,163;    2,227
292,068;13791,582;    1,254;    0,227
292,665;13503,108;   -0,564;    0,773
293,261;13059,521;   -1,292;    2,136
293,857;13484,448;    4,072;    2,136
294,453;13434,671;   -0,928;    0,955
295,049;13277,980;    0,253;    1,955
295,644;13299,010;   -1,292;    0,136
296,240;13209,430;    0,162;   -0,136
296,836;13266,855;   -0,747;    0,318
297,432;13598,516;    2,980;   -0,500
298,028;13593,217;    0,435;    0,773
298,624;14029,508;    0,889;    1,864
299,220;14356,063;    0,435;    0,591
299,815;13967,920;    0,526;   -0,409
300,411;13734,980;    0,435;    1,773
301,007;13756,746;    1,889;    0,227
301,602;13841,743;    2,071;   -2,318
302,198;13995,237;    1,435;   -0,773
302,794;14369,651;    1,526;   -0,500
303,389;14524,304;    1,071;    1,045
303,985;14597,924;    1,253;    1,409
304,580;14524,827;    0,889;    1,591
305,176;14538,493;    0,344;    0,136
305,771;14476,575;   -0,929;   -1,227
306,367;14253,035;    3,071;    0,136
306,962;14688,652;    2,889;    1,500
307,558;14411,588;    2,435;    0,136
308,153;14347,408;   -0,383;   -1,136
308,748;14578,434;    0,162;    1,682
309,344;14567,340;    0,253;   -1,318
309,939;14654,414;    2,071;   -1,318
310,534;14947,741;   -2,020;   -1,682
311,130;14927,413;   -0,656;   -2,500
311,725;14643,547;    0,526;   -0,500
312,320;14953,268;    1,253;    0,045
312,915;14833,928;    2,890;   -1,045
313,510;14901,676;    0,526;   -0,500
314,105;15426,859;   -3,565;    1,409
314,700;14780,084;   -1,656;   -1,045
315,295;14384,282;   -0,020;    0,045
315,890;13906,732;   -0,292;    0,864
316,485;14257,649;    0,253;   -0,318
317,080;14391,209;   -0,929;    1,591
317,675;14979,728;    3,071;   -0,682
318,270;14257,809;    6,889;    3,318
318,865;14326,531;    2,435;    3,045
319,460;14145,166;   -1,565;    0,591
320,055;14449,086;   -2,565;   -1,227
320,650;14072,481;   -1,838;   -0,591
321,244;14079,568;    0,889;   -1,409
321,839;15131,192;    0,980;   -0,227
322,434;15049,540;   -0,111;   -1,591
323,029;14607,596;   -0,474;    1,591
323,623;14430,343;    0,798;    0,773
324,218;14153,467;    2,707;    1,409
324,812;14063,020;    0,889;    1,591
325,407;13858,348;   -0,929;    2,045
326,002;13741,599;    0,526;   -0,409
326,596;14084,068;   -0,656;    1,318
327,191;14380,208;   -0,383;   -1,045
327,785;13892,704;   -0,747;   -0,227
328,379;14166,877;   -0,383;    0,136
328,974;13938,727;    1,798;   -3,955
329,568;14164,876;    2,889;   -2,409
330,163;13967,639;    2,435;    1,045
330,757;14357,906;    0,253;    1,591
331,351;13605,151;   -0,292;    0,682
331,945;13919,645;   -0,383;    1,409
332,540;13440,247;    1,617;   -0,591
333,134;13610,794;    3,344;    0,773
333,728;13861,124;    2,799;    0,318
334,322;14248,080;    0,889;   -0,864
334,916;13499,549;    0,344;    0,955
335,510;13831,808;   -0,111;   -0,136
336,105;14087,299;   -0,929;    1,591
336,699;13745,082;   -1,292;    0,591
337,293;13666,325;    1,071;    0,318
337,887;13840,572;    0,071;    1,955
338,481;13940,728;    2,980;    0,591
339,074;14088,180;    2,071;    2,682
339,668;13856,030;   -0,110;    1,227
340,262;14057,286;    7,708;    3,227
340,856;13578,754;    1,708;   -0,682
341,450;12875,135;    0,708;    1,864
342,044;13891,597;    1,799;    0,136
342,637;13630,341;    1,162;   -2,136
343,231;13435,652;   -1,474;    0,682
343,825;13357,622;   -0,747;   -0,591
344,419;13312,860;   -0,474;    0,500
345,012;13010,025;    2,889;    4,045
345,606;12979,596;   -0,656;    1,591
346,199;12878,466;   -0,111;   -0,227
346,793;12359,861;    2,525;    2,045
347,386;12542,073;    0,889;   -1,136
347,980;12516,282;   -0,838;   -0,045
348,573;12310,981;   -1,748;    0,409
349,167;11911,123;    6,161;    4,773
349,760;12278,711;    2,252;    2,682
350,354;12273,577;    1,616;    1,136
350,947;11971,451;    2,798;    1,682
351,540;11649,836;    0,616;   -1,409
352,134;11581,652;   -1,111;    1,136
352,727;11652,437;   -0,657;    1,136
353,320;11412,257;    2,343;    0,591
353,913;11249,322;   -1,929;    1,864
354,507;11410,077;    0,434;   -1,227
355,100;11426,135;    0,071;    0,864
355,693;10530,842;    4,798;    2,409
356,286;10597,192;    0,980;    2,773
356,879;10982,631;   -0,475;    1,227
357,472;10523,771;    0,980;    1,500
358,065;10733,287;    3,161;    2,500
358,658;10691,535;    0,798;    2,318
359,251;10280,546;    0,252;   -0,591
359,844; 9703,544;    0,343;   -1,136
360,437; 9844,114;    0,252;    0,045
361,030;10160,968;    0,525;   -0,682
361,623; 9716,671;    0,434;    0,318
362,215; 9751,758;    0,979;    2,045
362,808; 9602,881;   -2,293;   -1,682
363,401; 9771,504;    0,798;    0,136
363,994; 9473,877;    3,252;   -1,500
364,586; 9390,750;    0,888;   -1,500
365,179; 9643,593;   -0,203;   -1,136
365,772; 9069,570;   -0,930;    2,045
366,364; 9381,953;    1,524;   -3,227
366,957; 9590,519;    1,342;   -0,045
367,549; 9597,213;   -0,203;   -0,864
368,142; 9222,803;    0,978;   -1,500
368,734; 9466,470;    2,523;   -2,136
369,327; 9422,912;    2,341;   -0,500
369,919; 9314,245;   -1,659;    0,409
370,512; 9038,468;   -1,023;   -0,500
371,104; 8763,965;    2,704;    1,591
371,696; 8954,075;    1,703;   -0,955
372,289; 9054,153;    0,157;    1,136
372,881; 9205,502;    1,156;    1,318
373,473; 9140,538;    4,064;    1,136
374,066; 8898,222;    1,336;    0,500
374,658; 8732,792;    0,879;    1,136
375,250; 9113,331;   -1,668;   -1,409
375,842; 8961,256;   -0,124;   -0,045
376,434; 8837,889;   -2,762;   -0,409
377,026; 9514,160;   -1,855;   -2,500
377,618; 9347,705;    0,779;   -0,682
378,210; 9201,500;    3,141;   -1,955
378,802; 9026,961;    3,412;   -0,591
379,394; 8944,003;    3,411;    0,682
379,986; 9618,525;    1,138;   -0,955
380,578; 9752,612;    1,410;    0,773
381,170; 8981,448;    0,320;    0,045
381,762; 8953,882;   -0,224;    1,409
382,354; 9191,606;   -0,223;   -1,318
382,945; 9264,832;    0,870;    0,318
383,537; 9449,955;    1,144;   -1,955
384,129; 9456,024;    0,963;   -1,136
384,721; 9681,122;    0,418;    0,955
385,312; 9619,640;   -1,399;   -0,955
385,904; 9676,353;   -0,945;    1,591
386,496; 8983,167;    0,691;    1,045
387,087; 9126,287;    0,418;    2,500
387,679; 9185,765;   -0,401;    0,045
388,270; 9349,730;   -2,401;    2,045
388,862; 9449,850;   -0,401;   -0,318
389,453; 9324,977;    1,054;    1,045
390,045; 9630,672;    3,236;   -2,682
390,636; 9565,037;    0,144;   -0,591
391,227; 9412,496;    2,054;   -0,045
391,819; 9466,226;    0,781;    0,773
392,410; 9588,416;    0,600;    0,045
393,001; 9507,382;    1,600;   -1,591
393,593; 9831,951;    0,600;   -0,045
394,184; 9638,121;    0,873;   -0,409
394,775; 9561,976;    1,146;    2,136
395,366; 9803,656;    1,782;    0,773
395,957; 9819,459;   -2,400;    0,136
396,548;10170,329;    1,054;    2,682
397,139;10476,746;    2,236;    0,591
397,730;10146,522;    0,873;    0,955
398,321;10236,835;    0,509;    0,955
398,912;10274,093;   -0,764;    0,136
399,503;10379,660;   -1,945;   -1,409
400,094; 9778,780;   -1,582;    1,682
400,685; 9621,209;    3,600;    0,045
401,276; 9718,802;   -0,400;   -0,955
401,867;10035,815;   -1,127;    0,773
402,458;10136,668;    1,509;   -2,318
403,048;10142,762;    0,146;    0,591
403,639; 9700,320;    1,509;    0,864
404,230; 9938,987;    0,691;    0,318
404,821; 9851,842;   -0,127;    0,045
405,411; 9985,518;   -0,763;   -2,591
406,002; 9562,351;    3,237;   -1,136
406,592; 9326,033;    2,691;    0,045
407,183; 9698,610;    0,328;   -1,500
407,774; 9586,143;    1,419;   -0,136
408,364; 9960,061;    2,600;    0,409
408,954; 9513,362;   -0,036;    1,227
409,545; 9589,255;    1,873;    1,045
410,135; 9047,954;   -1,581;    0,500
410,726; 9238,350;    0,783;    0,318
411,316; 9645,212;    2,237;    0,773
411,906; 9327,183;    0,146;   -0,409
412,497; 8749,376;   -0,490;   -0,045
413,087; 9423,088;    0,783;   -0,227
413,677; 9824,201;   -2,490;    3,864
414,267; 9611,419;   -1,035;    1,409
414,857; 9661,270;    0,419;    4,227
415,448; 9961,238;   -0,763;    0,500
416,038; 9621,843;   -2,945;   -0,591
416,628; 9582,821;    0,965;    0,409
417,218; 8999,047;   -1,762;    3,318
417,808; 9306,080;    0,965;   -0,409
418,398; 9837,208;   -1,035;    2,682
418,988; 9840,840;   -2,217;    0,591
419,578;10142,201;    3,601;    1,409
420,168;10491,012;    0,692;   -0,955
420,757;10003,725;    0,964;   -1,500
421,347; 9648,324;    1,601;   -0,227
421,937; 9858,703;    3,329;    1,409
422,527; 9769,502;    2,602;   -0,773
423,116; 9579,235;    2,692;   -0,045
423,706; 9997,092;    2,965;    0,318
424,296; 9959,627;    1,601;    0,682
424,885;10442,718;    1,510;   -3,045
425,475;10748,073;    1,147;   -2,864
426,065;10659,912;   -1,489;   -0,318
426,654;10250,746;    0,329;   -0,318
427,244;10344,854;    1,147;    1,409
427,833; 9732,997;    1,056;   -0,500
428,423;10276,926;    0,147;    1,136
429,012;11116,983;    2,420;   -1,136
429,601;10530,365;    2,057;    0,136
430,191;10804,437;    2,511;    4,318
430,780;10403,633;   -1,671;   -0,409
431,369;10309,643;    1,329;   -0,045
431,959;11016,794;    1,693;    0,500
432,548;10789,388;   -1,398;   -0,045
433,137;10960,999;    0,329;   -1,318
433,726;11517,677;    0,148;    0,500
434,315;10817,876;    0,148;    2,409
434,905;10912,854;    0,693;    1,409
435,494;10786,231;    3,148;    0,955
436,083;11280,399;    1,420;   -0,955
436,672;11146,829;    1,148;    0,500
437,261;10666,190;    0,512;   -1,955
437,850;10764,921;   -1,125;    0,682
438,439;10760,000;    2,239;    1,955
439,027;10568,590;    3,421;    1,773
439,616;10973,550;    2,239;    1,227
440,205;10860,141;    0,057;   -2,136
440,794;10943,941;   -0,306;   -0,045
441,383;11211,682;    1,603;   -0,591
441,971;11128,933;   -0,306;    0,591
442,560;10920,005;    0,603;   -1,773
443,149;10710,218;    3,060;   -1,318
443,737;10841,363;    0,968;   -2,318
444,326;11087,658;    0,331;    0,318
444,915;11160,572;   -1,851;    0,864
445,503;11589,239;    0,058;   -0,318
446,092;10775,646;    7,876;    2,136
446,680;11367,637;    1,876;    0,318
447,269;11558,018;   -1,487;   -0,318
447,857;11298,401;    2,240;   -1,773
448,445;11432,198;    2,149;    1,318
449,034;11680,834;    0,876;   -1,136
449,622;11829,203;    1,240;    3,500
450,210;10916,166;    3,149;    2,227
450,799;11523,113;    2,604;   -0,591
451,387;11477,280;    1,786;   -0,591
451,975;11074,947;   -1,305;    0,864
452,563;11179,271;    0,422;    2,318
453,151;11258,793;   -1,032;   -1,227
453,739;11158,622;   -1,577;    0,136
454,328;10991,064;    0,604;   -2,136
454,916;10660,275;    1,150;   -0,136
455,504;10859,498;    3,513;    1,227
456,092;11032,186;    2,150;   -1,591
456,679;11030,625;    0,604;    0,682
457,267;10873,370;    3,604;    1,045
457,855;11128,768;    3,241;    1,409
458,443;10896,990;   -0,304;    1,682
459,031;11001,181;    1,332;    2,409
459,619;11526,805;   -3,577;    2,864
460,206;11658,431;   -0,759;    2,045
460,794;11735,449;   -0,668;   -0,227
461,382;12003,282;    0,878;   -0,864
461,970;11530,854;    0,605;    1,864
462,557;11565,875;    0,878;   -0,682
463,145;11806,238;   -0,304;   -1,682
463,732;11911,958;    2,514;   -1,045
464,320;11877,394;    1,514;   -3,045
464,907;11511,677;    0,423;   -0,773
465,495;11365,635;    2,696;   -1,227
466,082;11557,228;    2,060;   -0,045
466,670;11477,341;    2,605;    1,227
467,257;11914,941;    0,060;    2,045
467,844;12073,023;    1,514;    0,045
468,432;12080,259;   -0,031;    3,500
469,019;11553,925;    1,606;   -1,773
469,606;12052,987;    0,969;    3,682
470,193;11824,061;    2,151;    0,227
470,780;11360,871;    0,333;    0,864
471,368;11732,910;   -1,212;   -0,773
471,955;11526,225;    1,060;   -0,682
472,542;11146,308;   -0,303;   -1,136
473,129;11365,589;   -0,485;    0,136
473,716;11096,519;    0,060;    0,591
474,303;11311,166;    1,333;   -0,864
474,890;11635,183;    2,333;   -0,500
475,477;11626,040;   -0,576;    0,409
476,064;11532,290;    0,697;   -1,591
476,650;11476,874;    2,152;    0,318
477,237;11313,511;    1,879;    0,955
477,824;11496,030;    3,879;    0,864
478,411;11540,554;    0,606;   -0,318
478,997;11746,589;    0,606;   -0,773
479,584;11795,903;   -0,666;   -0,409
480,171;12561,655;    1,243;   -0,773
480,757;12184,199;   -0,848;    0,773
481,344;12520,543;    0,334;    0,409
481,931;12015,318;   -0,393;    1,045
482,517;13033,950;    0,425;    0,318
483,104;13725,598;    1,334;    2,864
483,690;14074,614;    0,243;    0,045
484,276;14535,949;    0,698;    0,227
484,863;14255,423;    2,152;    1,136
485,449;14917,229;    0,152;    0,318
486,035;14884,011;   -0,666;   -0,136
486,622;15321,350;   -2,393;    0,045
487,208;15284,576;    1,334;    1,500
487,794;15149,349;    0,971;    0,318
488,380;15239,575;    0,698;   -1,409
488,967;15285,970;   -1,120;   -0,409
489,553;15324,551;   -1,029;   -1,409
490,139;15530,439;    0,971;    0,773
490,725;14950,739;    0,789;   -0,227
491,311;14471,952;    1,516;    3,045
491,897;13635,696;   -0,665;    1,500
492,483;13426,044;    0,426;    1,227
493,069;13160,140;    5,426;    0,864
493,655;13142,094;    1,789;    0,682
494,241;13066,217;    1,517;   -0,955
494,826;13477,909;    0,335;   -1,045
495,412;12907,668;    0,335;   -0,682
495,998;13064,493;    0,971;   -0,318
496,584;13262,727;    2,244;    1,045
497,169;13237,482;    2,335;   -0,682
497,755;13167,011;    1,244;    1,227
498,341;13740,386;    2,153;    0,318
498,926;13260,987;    2,881;    1,955
499,512;13496,997;   -0,028;    2,955
500,097;13680,993;   -0,574;   -0,318
500,683;13576,381;   -0,028;    2,136
501,268;13996,879;    1,881;   -0,955
501,854;13708,731;   -0,119;    1,227
502,439;13628,430;   -0,573;   -1,773
503,024;13837,561;    1,608;    0,500
503,610;13883,758;    1,335;   -0,682
504,195;13861,032;    1,245;    1,955
504,780;14028,355;    2,335;    1,227
505,366;13827,232;    4,063;    2,864
505,951;13511,807;   -1,119;    1,045
506,536;13521,443;    1,427;   -3,682
507,121;13511,227;    1,699;   -0,318
507,706;14080,789;   -0,392;    1,045
508,291;14474,994;   -2,937;    1,136
508,876;13956,419;   -0,482;    2,591
509,461;13372,031;    1,427;   -0,773
510,046;13801,677;   -0,391;    0,318
510,631;14045,221;   -0,119;   -0,773
511,216;13697,447;   -0,664;   -0,500
511,801;14109,791;   -0,755;    2,591
512,386;14405,232;    0,972;    0,500
512,971;14370,113;    0,427;    0,955
513,555;13863,977;    1,154;   -1,500
514,140;14716,865;    1,336;   -3,136
514,725;14714,009;    1,791;   -1,136
515,309;14877,067;    1,064;    0,318
515,894;14301,756;   -0,300;   -2,227
516,479;14754,084;    1,973;   -0,955
517,063;14572,671;    0,882;    1,227
517,648;14701,693;    0,155;   -1,136
518,232;14348,084;   -1,300;   -1,409
518,817;14707,063;    1,337;    1,682
519,401;14911,271;    0,700;    0,591
519,985;14385,045;    2,700;    1,136
520,570;14277,630;   -0,118;   -1,955
521,154;14608,311;    0,064;    0,591
521,738;14783,555;    1,064;    2,409
522,323;15381,733;   -0,390;    1,682
522,907;15120,416;    2,428;   -0,136
523,491;14834,069;    1,155;    0,955
524,075;14792,957;    0,428;    0,591
524,659;14851,805;    0,973;    0,591
525,243;14248,041;    0,883;    0,409
525,827;14513,203;    0,883;   -0,045
526,411;15386,441;    1,155;   -0,136
526,995;15658,736;    0,337;    1,409
527,579;15241,030;    1,974;   -1,045
528,163;15541,786;    0,428;   -1,500
528,747;15498,850;    1,065;   -0,773
529,331;15798,491;    0,883;   -1,409
529,915;15996,465;    2,338;    0,955
530,499;15959,433;    0,247;    1,227
531,082;15625,746;    1,065;    1,591
531,666;15052,415;    0,520;    0,773
532,250;15780,465;    0,428;    2,682
532,833;16156,446;    0,610;    2,773
533,417;16015,944;    1,247;    0,864
534,001;15940,535;    0,429;   -0,318
534,584;16697,591;    1,974;    0,500
535,168;16521,307;    3,247;    1,409
535,751;16540,725;    4,520;    0,045
536,334;15990,684;    4,520;   -0,409
536,918;16677,063;    1,974;    1,591
537,501;16736,140;    1,520;    1,318
538,085;16709,451;    1,702;    1,045
538,668;16879,248;    0,883;    2,409
539,251;17220,227;    3,156;    3,773
539,834;17282,750;    0,156;    0,773
540,418;17193,117;    3,247;    4,318
541,001;17326,587;    2,702;    1,773
541,584;17365,812;    1,429;    2,227
542,167;17008,990;    0,702;    2,955
542,750;17135,435;    0,793;   -0,773
543,333;16715,856;    1,429;    2,136
543,916;17552,677;   -0,298;    2,500
544,499;18165,699;    2,520;    0,227
545,082;18239,320;    0,248;    3,591
545,665;18339,490;   -0,207;    1,500
546,248;18711,038;    0,520;   -0,318
546,830;18341,251;   -1,752;    1,955
547,413;18742,527;    0,157;   -0,773
547,996;19352,384;    0,157;    0,500
548,579;19125,899;   -0,843;    0,955
549,161;18917,975;    0,884;    2,682
549,744;18672,399;    0,612;    0,409
550,326;19230,410;    0,885;   -1,136
550,909;18954,364;    2,339;    0,591
551,492;19383,559;    0,521;    0,227
552,074;19189,622;   -0,024;   -1,318
552,657;19763,777;    2,430;    0,045
553,239;19537,986;   -3,024;   -0,773
553,821;19422,513;   -1,570;    1,045
554,404;18899,012;   -0,024;    1,136
554,986;19287,896;    2,248;    1,045
555,568;19883,650;    0,430;   -0,955
556,151;19089,811;    4,067;   -0,227
556,733;19358,414;   -1,388;   -0,864
557,315;19807,862;    4,703;    0,500
557,897;19616,990;    0,521;   -0,500
558,479;19756,214;    1,703;    1,318
559,061;19885,379;    1,067;   -0,864
559,643;20225,543;   -0,297;    0,045
560,225;20583,362;   -0,388;    2,864
560,807;20595,543;    0,340;    0,318
561,389;20090,816;   -1,206;    2,318
561,971;20828,115;   -0,660;    2,136
562,553;20648,871;    0,613;    1,591
563,135;20812,068;    1,249;    1,136
563,717;20445,031;    3,158;    1,136
564,298;21181,936;    3,976;   -0,045
564,880;20859,957;    0,340;   -1,409
565,462;21044,139;    1,977;    1,318
566,043;22239,627;   -0,933;    2,318
566,625;21762,894;    4,067;    1,227
567,207;21619,356;    0,704;    1,682
567,788;22819,838;   -0,114;    1,500
568,370;23687,670;   -1,841;   -0,500
568,951;23490,481;   -0,569;    0,227
569,533;24396,383;    0,977;   -0,500
570,114;24872,436;   -0,296;    0,682
570,695;25394,649;   -0,478;   -1,318
571,277;25979,715;   -0,205;   -1,682
571,858;26778,329;    2,704;   -1,136
572,439;27716,862;    0,795;   -1,045
573,021;27896,002;    0,432;   -2,773
573,602;28432,295;    1,795;    0,318
574,183;29424,152;   -0,114;    2,227
574,764;29576,285;    2,068;    0,409
575,345;30205,345;    0,250;   -0,136
575,926;30895,118;    2,704;    0,136
576,507;30865,744;    2,704;   -0,227
577,088;31964,530;    1,704;    1,682
577,669;32035,602;    1,704;    1,955
578,250;32763,152;   -0,750;   -1,045
578,831;33460,033;   -0,841;   -2,227
579,412;33713,035;   -1,205;    0,955
579,993;34727,928;    1,432;    0,227
580,573;35075,511;   -0,023;   -0,955
581,154;33996,821;    1,613;   -0,591
581,735;34840,200;    0,341;    0,773
582,315;34345,291;    0,523;    2,136
582,896;34698,285;   -1,750;    1,227
583,477;34118,053;    0,614;    1,227
584,057;34305,169;    1,159;    0,955
584,638;34575,474;   -2,750;    2,318
585,218;34603,885;    2,886;    2,682
585,799;34708,601;    1,977;   -0,227
586,379;34677,712;    1,250;    1,591
586,959;33443,398;    2,613;    0,318
587,540;32764,375;    0,432;    2,227
588,120;32187,379;   -1,113;   -0,045
588,700;31130,194;    2,977;    2,136
589,281;31462,174;    1,250;   -0,955
589,861;31395,785;   -0,296;   -1,682
590,441;31210,822;   -1,477;   -2,682
591,021;30113,287;    1,432;   -2,591
591,601;30342,705;    0,431;    0,500
592,181;30294,897;   -1,296;   -0,773
592,761;29542,414;    2,250;    1,409
593,341;29497,906;    1,522;    0,045
593,921;29414,679;   -0,569;    1,591
594,501;29296,430;    1,250;    1,318
595,081;29145,428;    0,522;   -0,318
595,661;29473,547;    1,068;    0,955
596,240;30051,192;   -1,023;    0,136
596,820;29631,302;    2,613;    1,955
597,400;29849,835;    1,977;    0,773
597,980;30106,817;   -0,750;    1,045
598,559;30110,910;    0,341;   -0,227
599,139;29789,761;   -0,750;   -1,227
599,718;29706,579;    0,795;   -0,409
600,298;29940,487;   -2,387;    0,682
600,877;30132,288;    4,795;    1,409
601,457;30422,670;    0,340;    1,136
602,036;30302,882;    1,795;    2,045
602,616;30551,902;    2,250;    1,682
603,195;30852,483;    0,431;    3,500
603,774;30365,938;   -0,296;    2,045
604,354;30360,463;    2,522;   -0,500
604,933;29824,598;    0,250;    1,864
605,512;29963,083;    2,340;    0,591
606,091;29982,231;    1,886;    3,773
606,671;30774,189;    0,249;    0,773
607,250;29831,200;    1,431;    3,136
607,829;30125,892;    1,158;    3,227
608,408;29983,642;    4,613;    2,591
608,987;28981,745;    2,704;    3,409
609,566;29279,280;    0,341;   -2,500
610,145;29335,190;    2,885;    0,682
610,723;29788,789;    1,613;    6,864
611,302;28945,150;    1,067;    1,682
611,881;28439,831;    5,158;   11,227
612,460;29264,269;    0,795;    3,955
613,039;29693,283;    1,703;    2,045
613,617;28440,310;    0,886;    4,773
614,196;28614,847;    1,613;    1,227
614,775;28978,513;    1,249;    2,409
615,353;28897,511;   -1,660;    0,864
615,932;28595,677;    0,249;    2,409
616,510;29183,871;    0,158;    0,591
617,089;28685,025;    8,794;   17,591
617,667;28443,592;    4,885;    6,136
618,246;28263,195;   -1,115;    1,318
618,824;28394,730;    1,612;   -0,955
619,402;27983,917;    0,431;   -1,773
619,981;28504,119;    1,067;   -1,045
620,559;28344,856;    0,794;    1,682
621,137;27855,856;    3,067;    1,864
621,715;27797,365;    3,703;   -0,682
622,293;27731,910;    1,885;   -0,773
622,871;28256,953;    0,340;    0,500
623,450;27782,554;    0,430;   -0,864
624,028;27692,064;   -0,388;   -0,955
624,606;27273,218;    2,339;    1,682
625,183;27635,018;   -0,661;   -1,136
625,761;27264,194;    1,885;    1,136
626,339;27565,758;    2,339;    2,591
626,917;27969,079;    0,339;   -0,045
627,495;27995,037;    2,794;    1,318
628,073;27445,442;    5,248;    2,864
628,650;27064,268;    3,067;    2,136
629,228;27539,928;    1,248;    4,409
629,806;26902,461;   -0,024;    1,136
630,383;27194,881;    0,066;   -0,318
630,961;26945,220;   -2,206;   -0,955
631,539;26687,838;   -2,479;    0,227
632,116;25893,220;   12,703;   15,409
632,694;26489,165;    4,885;    6,500
633,271;26819,294;    1,975;    2,682
633,848;26806,644;    1,430;    2,045
634,426;26865,844;    1,521;    1,773
635,003;25951,342;   -0,207;   -0,409
635,580;26232,047;    1,884;    3,682
636,158;26795,805;    3,793;    1,227
636,735;26805,417;    3,339;   -0,500
637,312;26934,730;    0,521;   -0,682
637,889;27033,512;    2,248;   -0,682
638,466;26508,469;    0,066;   -0,409
639,043;26476,070;    1,702;   -1,136
639,620;26800,668;    0,611;   -0,955
640,197;27164,531;    1,612;    1,682
640,774;27304,408;    1,430;    1,136
641,351;27667,558;    0,612;    1,136
641,928;27051,798;    2,794;    1,409
642,505;26718,766;    0,794;   -0,500
643,082;26880,462;    1,885;    1,227
643,658;25826,339;    1,157;    1,500
644,235;26613,488;   -2,479;    2,500
644,812;26845,729;    1,794;    0,773
645,388;26626,879;    1,612;    1,409
645,965;26722,483;    1,521;    1,682
646,542;26756,997;    3,430;   -0,227
647,118;26743,419;    3,703;   -0,955
647,695;27077,842;    0,339;    1,136
648,271;26972,083;   -2,115;    0,500
648,848;27268,505;    0,248;    2,227
649,424;27093,928;    0,976;    1,318
650,000;26853,987;   -0,388;   -1,045
650,577;26713,136;    0,158;   -0,955
651,153;27143,650;   -1,115;    0,955
651,729;28106,072;    0,521;    0,864
652,305;28334,768;    1,339;    2,773
652,881;32992,917;   -1,297;    1,136
653,458;40210,885;    0,249;    0,227
654,034;44293,672;    0,703;    1,591
654,610;45908,276;    0,339;    0,773
655,186;47260,244;    1,612;    3,045
655,762;46983,666;   -1,842;    0,409
656,338;47043,180;    0,703;    0,136
656,913;48139,784;   -0,297;    0,409
657,489;47440,207;    0,249;   -0,318
658,065;47315,266;    0,794;   -1,591
658,641;47973,052;    2,158;   -0,864
659,217;47165,293;    2,067;    0,409
659,792;46524,988;   -1,751;   -0,409
660,368;46804,410;   -0,388;   -0,682
660,944;46483,924;    1,794;    1,227
661,519;41729,892;    0,522;    0,409
662,095;35280,223;   -0,206;    0,591
662,670;30361,919;   -0,206;   -0,136
663,246;29120,978;   -0,660;   -0,409
663,821;28354,582;    0,431;    1,682
664,396;27865,004;    0,613;    1,864
664,972;28149,245;   -0,660;   -0,500
665,547;28474,850;    3,794;    0,136
666,122;28439,545;    1,340;    0,318
666,698;28808,240;    2,431;    0,318
667,273;28110,663;    0,885;    0,136
667,848;28943,358;    0,340;    1,500
668,423;28702,326;    1,795;    2,318
668,998;29318,658;    0,976;   -0,682
669,573;29849,171;    2,067;   -1,500
670,148;29656,593;    1,885;   -0,682
670,723;29454,743;   -0,024;    0,318
671,298;29894,984;   -1,296;    1,045
671,873;30013,770;   -0,296;   -0,136
672,448;30000,284;    1,704;    0,136
673,023;30286,524;    0,249;   -0,227
673,597;30566,674;    2,704;    2,318
674,172;30344,460;    2,431;    0,318
674,747;29860,065;   -0,205;   -1,045
675,321;29740,033;   -0,933;    3,318
675,896;29326,910;    2,158;    1,045
676,471;30225,241;    2,522;    1,591
677,045;30050,028;   -0,296;    0,682
677,620;30090,905;    2,158;    1,136
678,194;30415,782;    0,249;    1,136
678,769;29930,113;    0,886;   -0,318
679,343;30133,900;   -0,023;    1,773
679,917;29986,231;    0,340;    1,955
680,492;30089,926;    0,249;    3,227
681,066;30290,349;    0,613;    0,409
681,640;30312,862;    1,795;   -0,318
682,214;31134,649;    2,340;    0,500
682,788;30658,162;    0,613;   -0,773
683,363;30598,494;    1,977;    1,682
683,937;30243,371;    0,886;   -0,318
684,511;31138,702;   -1,023;   -0,591
685,085;30805,307;   -1,478;    0,318
685,659;30530,547;    1,431;    0,864
686,232;30710,061;    1,159;   -0,318
686,806;30461,756;    2,159;    0,409
687,380;31132,997;   -1,932;    0,591
687,954;31405,874;    2,432;    1,136
688,528;31077,569;    2,613;    1,955
689,101;31857,810;    0,432;    1,045
689,675;31437,778;    0,886;   -0,136
690,249;30789,746;    3,432;    0,409
690,822;31041,896;    1,159;    0,318
691,396;31178,409;    2,068;    1,227
691,969;30679,923;    2,523;    0,136
692,543;31121,163;   -0,568;   -1,955
693,116;30725,404;   -0,659;   -1,409
693,690;30591,372;   -0,296;    0,500
694,263;31173,795;    2,341;    2,955
694,836;31199,126;    2,795;    3,591
695,410;29760,185;    1,159;    1,773
695,983;30261,244;    1,614;    0,591
696,556;30207,939;   -0,750;   -1,045
697,129;30641,453;   -1,114;    1,409
697,703;30267,239;    1,341;    1,955
698,276;30292,661;    1,705;   -0,773
698,849;30030,357;   -1,023;    1,409
699,422;30390,961;    1,250;    0,591
699,995;30105,111;   -0,659;    0,136
700,568;30653,352;   -0,204;    3,045
701,140;30594,683;   -1,841;    1,682
701,713;30300,288;    0,341;    2,409
702,286;30038,801;    0,796;    0,864
702,859;29927,860;    0,614;   -0,591
703,432;29096,828;   -0,841;    0,682
704,004;29637,978;    1,978;    0,318
704,577;29496,218;    1,068;    0,136
705,150;30054,914;    0,887;    2,500
705,722;29840,336;    1,523;   -3,227
706,295;29592,122;    1,432;   -0,591
706,867;29422,272;    0,250;    1,955
707,440;29654,786;   -0,113;   -0,409
708,012;29897,390;   -0,022;    0,591
708,584;29835,813;    2,705;    0,227
709,157;30149,599;    1,160;   -0,591
709,729;29793,839;    1,069;    2,045
710,301;30671,807;   -1,204;    0,045
710,874;30642,594;    0,341;   -0,227
711,446;29503,471;   -0,295;    0,864
712,018;29396,984;   -3,022;    0,500
712,590;29142,679;   -0,204;    1,682
713,162;29661,738;   -0,477;    1,318
713,734;29889,343;    1,796;   -2,045
714,306;29774,038;    0,342;   -0,409
714,878;28475,551;   -0,295;    0,864
715,450;29296,428;   -0,113;    0,864
716,022;29608,306;    2,433;    1,318
716,593;29738,001;    0,978;    0,591
717,165;29654,332;    1,796;   -1,227
717,737;29391,846;    0,796;    0,409
718,309;29063,178;    1,160;   -0,045
718,880;28986,418;   -1,295;   -1,409
719,452;29241,295;    0,887;   -1,591
720,024;28754,263;    1,705;   -0,591
720,595;29287,868;    2,978;    0,955
721,167;28797,017;    1,160;   -2,045
721,738;28330,895;    2,069;   -1,045
722,309;28262,499;    1,251;   -1,227
722,881;28055,194;    2,705;    0,773
723,452;28779,435;    1,251;    2,864
724,023;28917,676;    1,524;    2,682
724,595;28652,007;    2,342;    0,682
725,166;28356,975;    1,524;   -0,409
725,737;27996,852;    1,887;    0,227
726,308;28161,275;    0,797;    0,318
726,879;28556,516;    1,069;    1,227
727,450;28419,574;   -2,022;   -0,045
728,021;28380,088;    1,069;    0,682
728,592;28193,420;    1,160;    0,500
729,163;28587,024;    1,433;   -0,136
729,734;28547,810;    2,160;   -0,227
730,305;28891,687;    0,615;    0,136
730,876;29227,473;    0,888;    2,955
731,447;28915,350;    0,797;    2,682
732,017;29089,318;   -0,840;    1,864
732,588;28573,832;   -0,021;    1,227
733,159;28728,073;    3,615;   -1,045
733,729;28521,313;    1,251;    0,409
734,300;27790,281;    0,160;    0,864
734,870;28257,977;   -1,385;    0,591
735,441;28806,945;    0,888;   -0,591
736,011;28515,640;    1,070;   -1,591
736,582;28503,153;    1,251;    0,045
737,152;27903,848;    0,979;   -2,045
737,722;28414,362;    1,070;   -0,682
738,293;28121,057;   -2,021;    1,318
738,863;27969,389;    1,797;    2,318
739,433;27777,630;    4,524;    0,318
740,003;28464,507;    1,524;   -0,682
740,573;27845,202;    2,252;   -1,591
741,143;27802,806;    3,615;    0,318
741,713;28556,502;    0,252;   -0,500
742,283;28224,197;    1,706;    1,591
742,853;27999,438;    0,524;    1,591
743,423;27449,769;    0,161;    0,045
743,993;27571,373;    1,070;    1,500
744,563;26903,160;    2,524;   -0,864
745,133;26895,764;   -0,112;   -0,864
745,702;27638,368;    2,797;    1,773
746,272;26766,609;    0,434;    0,591
746,842;26501,032;   -0,748;   -0,591
747,411;26998,454;   -0,839;   -0,318
747,981;27139,604;   -0,930;    0,500
748,551;27199,481;   -0,021;   -1,045
749,120;27058,722;   -0,112;   -0,227
749,690;27452,690;    2,161;    2,409
750,259;27800,749;    0,979;    2,955
750,828;27640,898;    4,070;   -1,955
751,398;27879,594;   -0,112;   -0,045
751,967;27385,471;    2,888;    0,409
752,536;27601,802;    1,161;   -0,227
753,105;28048,225;   -1,384;    0,227
753,675;27808,193;   -0,112;    1,773
754,244;27776,070;    0,888;    3,591
754,813;27869,856;    0,979;    1,227
755,382;27429,279;    0,798;    0,955
755,951;27925,156;   -0,112;    3,682
756,520;27482,306;    2,525;    1,864
757,089;28032,092;    1,888;    0,500
757,658;28170,423;    2,434;    1,227
758,227;28200,573;   -1,111;    0,318
758,795;28522,450;   -1,021;    1,136
759,364;28782,418;    0,525;   -0,591
759,933;27708,841;    1,343;   -0,045
760,501;27272,809;    0,252;   -1,318
761,070;27766,413;   -0,293;   -1,409
761,639;28511,018;    1,434;    1,318
762,207;27780,895;    0,889;   -0,955
762,776;27729,135;    2,889;    0,864
763,344;27645,376;    0,071;    0,591
763,913;26737,071;    1,616;    1,409
764,481;27501,585;    1,980;   -0,136
765,049;27316,644;    0,616;    1,409
765,618;27194,157;    1,434;    0,318
766,186;27306,307;    2,434;    0,136
766,754;27439,548;    1,798;    1,864
767,322;26385,243;    1,162;    0,409
767,890;26454,302;    0,525;   -1,773
768,459;26902,997;    2,616;   -0,318
769,027;27025,601;    2,525;    3,409
769,595;25962,751;    2,616;    2,591
770,163;26400,901;    3,344;    2,955
770,730;26117,778;    2,525;   -0,136
771,298;25949,019;    1,162;   -1,409
771,866;26080,532;    0,253;    4,955
772,434;26401,682;    1,162;   -1,864
773,002;26553,559;    2,616;    0,682
773,569;26180,982;    1,071;    1,682
774,137;25987,677;    0,889;   -0,045
774,705;26795,645;   -0,747;   -0,136
775,272;26269,431;    0,253;    0,682
775,840;26058,217;   -0,111;    2,682
776,407;25550,367;   -0,293;    1,955
776,975;25129,881;    1,162;    0,318
777,542;26185,576;    2,162;   -0,045
778,110;26058,908;    0,707;   -0,045
778,677;25675,603;    1,071;   -0,864
779,244;25393,571;   -1,020;    1,045
779,812;25549,902;    0,980;    0,864
780,379;25397,052;    2,435;    1,136
780,946;25666,384;    2,617;   -0,773
781,513;25964,170;   -0,565;    0,318
782,080;25291,320;    1,253;    2,864
782,647;26056,106;    1,708;    3,045
783,214;25696,256;   -0,201;    3,864
783,781;25219,587;    1,708;   -0,682
784,348;25106,646;    0,253;    1,500
784,915;25608,614;   -1,474;    0,318
785,482;25323,764;    2,708;    2,591
786,049;25813,732;    1,071;   -0,591
786,615;25886,427;    1,708;   -0,955
787,182;25700,486;   -3,201;   -0,682
787,749;25346,091;   -2,201;    1,409
788,315;24651,422;    0,253;   -0,409
788,882;24922,118;    0,981;   -1,227
789,448;25621,449;    1,435;   -0,955
790,015;25623,144;    1,799;    3,227
790,581;25174,294;    0,708;    0,227
791,148;25077,717;    1,344;    1,045
791,714;25328,958;   -1,019;    3,136
792,280;24997,835;    3,708;    1,591
792,847;24529,439;   -0,928;    2,500
793,413;25124,498;   -0,110;   -0,318
793,979;24629,193;    1,526;   -1,318
794,545;24701,797;    2,981;    2,682
795,111;24106,765;    2,435;    1,318
795,678;24270,188;    3,526;   -1,682
796,244;23913,883;    2,799;    0,136
796,810;24468,215;    0,799;    0,773
797,375;24170,819;   -0,292;   -2,136
797,941;24195,151;   -1,110;    0,591
798,507;24332,846;    0,254;   -0,955
799,073;23931,632;    2,708;    0,591
799,639;23993,964;    1,435;    3,136
800,205;24014,841;   -1,565;    2,682
800,770;23493,718;    1,345;    1,773
801,336;23561,686;    2,981;   -0,955
801,901;23322,109;    6,072;    3,136
802,467;23886,258;    0,526;    2,045
803,033;23194,045;   -0,019;    0,864
803,598;23364,194;    1,072;   -1,045
804,163;23418,526;    0,708;   -0,318
804,729;23343,494;   -0,110;    1,136
805,294;23691,553;    1,072;    2,227
805,859;23537,521;    0,890;   -0,409
806,425;23012,580;    3,890;    2,682
806,990;22670,548;    1,890;    4,318
807,555;23176,061;   -0,110;    2,591
808,120;23087,393;   -1,292;   -0,409
808,685;23146,361;    1,072;   -2,500
809,250;22601,511;    2,072;   -0,500
809,815;22965,115;   -0,201;    0,682
810,380;23438,810;    0,981;    1,591
810,945;23962,778;    2,890;    2,045
811,510;23188,201;   -0,200;    1,591
812,075;22856,442;    2,800;   -1,409
812,640;22887,682;    3,709;    1,409
813,204;22963,378;    2,163;   -0,227
813,769;23493,527;    0,254;   -0,045
814,334;22845,677;    0,527;    0,864
814,898;22884,463;    1,981;    0,591
815,463;22767,977;    0,981;   -0,773
816,027;22723,581;    1,345;   -2,318
816,592;22811,640;    2,163;   -2,045
817,156;22344,881;   -2,200;    1,136
817,721;22142,212;    0,982;    2,318
818,285;22125,089;    0,618;    1,500
818,849;22813,421;   -0,018;    1,682
819,414;22653,389;    0,073;    2,955
819,978;22199,084;   -0,291;    1,773
820,542;22818,052;    2,891;    0,500
821,106;22533,929;    2,800;    0,682
821,670;22581,443;    2,709;    2,591
822,234;22297,775;    1,073;    1,409
822,798;21693,924;   -0,836;    0,500
823,362;21668,801;    1,527;    4,227
823,926;20974,678;   -0,018;    1,136
824,490;21181,283;    3,527;   -0,682
825,054;21673,978;    2,527;   -1,136
825,618;21269,673;   -1,200;   -1,500
826,181;21199,550;    0,982;   -1,318
826,745;21089,791;   -0,745;   -1,045
827,309;21489,577;    2,255;    1,318
827,872;20870,364;    0,527;    0,955
828,436;21882,695;    1,982;   -0,773
828,999;21962,845;    2,436;    1,227
829,563;20796,722;   -0,654;    1,136
830,126;20563,235;   -0,018;   -0,591
830,690;20539,113;    0,709;    2,864
831,253;20049,808;   -0,473;    2,227
831,816;20210,139;   -0,018;    0,500
832,380;20120,926;    1,164;    0,864
832,943;20351,985;    3,073;   -0,500
833,506;19858,771;    0,255;   -1,227
834,069;20633,921;    2,164;   -0,955
834,632;20672,343;   -2,200;    1,318
835,195;20569,856;    1,346;    0,955
835,758;19788,279;    0,709;    1,955
836,321;19622,702;    1,073;   -1,045
836,884;19702,306;   -1,291;   -0,955
837,447;19751,365;    0,528;    1,773
838,010;19997,515;    1,800;    3,227
838,573;20312,119;    0,528;    0,773
839,135;20250,814;   -0,109;   -0,955
839,698;19667,873;    2,528;    0,409
840,261;19187,296;    0,255;   -0,227
840,823;19048,355;   -0,927;    0,864
841,386;19313,777;   -0,018;   -2,409
841,948;19193,109;    0,255;    1,773
842,511;18952,713;    0,255;    1,682
843,073;19077,045;    2,982;    0,227
843,636;18880,558;    0,619;   -0,227
844,198;18798,253;    1,255;    0,591
844,760;18934,767;    0,619;    1,955
845,322;18573,280;    0,164;    1,136
845,885;18997,521;   -0,290;    0,591
846,447;19437,307;    0,710;    0,227
847,009;18951,002;    3,983;   -0,682
847,571;19338,698;    1,346;   -2,045
848,133;19412,938;   -0,199;   -1,864
848,695;19244,543;    2,346;    1,409
849,257;18799,693;    1,346;   -1,682
849,819;18958,933;    2,983;   -0,409
850,381;18958,901;    1,801;   -0,864
850,942;19390,233;    1,892;   -0,591
851,504;19266,474;    0,983;    0,227
852,066;19323,533;    1,619;   -1,591
852,628;18868,864;    0,165;    1,955
853,189;18413,923;    0,256;    2,682
853,751;18535,709;   -0,654;    1,409
854,312;18370,132;    1,256;   -1,682
854,874;18901,009;   -0,108;   -0,773
855,435;19365,613;    0,528;   -1,682
855,997;19470,672;    3,983;   -0,136
856,558;18776,731;    0,801;    1,773
857,119;18907,699;   -0,744;    2,864
857,681;18571,667;   -0,108;    0,318
858,242;18632,544;    1,347;   -2,136
858,803;19036,330;    1,074;   -0,773
859,364;19606,207;    0,892;   -4,773
859,925;18975,357;   -0,290;   -0,955
860,486;18882,780;    0,529;   -0,955
861,047;18618,293;    0,165;   -1,227
861,608;18435,625;    0,165;   -0,773
862,169;18555,684;   -0,562;   -0,045
862,730;18288,106;   -0,290;    1,409
863,291;18539,892;    0,438;   -0,500
863,852;18901,770;   -0,926;    1,955
864,412;18363,465;   -1,835;   -0,864
864,973;16945,796;    1,892;    0,500
865,534;16761,219;    2,074;    0,227
866,094;18284,460;    2,620;    0,227
866,655;17979,609;    4,711;    3,318
867,215;18247,668;    0,074;    0,136
867,776;18092,182;   -1,199;   -0,136
868,336;18166,695;    1,529;    0,136
868,897;17598,391;    3,438;    1,682
869,457;17398,995;    3,256;    0,318
870,017;17642,145;    2,438;   -1,227
870,578;18170,204;    1,893;    0,773
871,138;17798,535;    2,620;   -0,955
871,698;17329,230;   -0,562;   -1,318
872,258;17146,017;    0,711;   -2,864
872,818;17534,348;    2,347;    0,045
873,378;17532,134;   -2,198;    1,045
873,938;17103,921;    4,984;    0,500
874,498;17428,798;    1,256;   -1,955
875,058;17272,493;    4,347;    1,773
875,618;17134,188;    1,438;   -2,682
876,177;17077,338;   -0,471;    0,136
876,737;16629,033;   -0,289;    1,955
877,297;16667,456;    2,711;    1,955
877,856;16689,606;    2,529;    0,318
878,416;16571,210;    2,438;   -0,136
878,976;16879,814;    3,438;    0,409
879,535;17074,601;    4,529;    3,136
880,095;16754,569;    1,347;    0,045
880,654;16866,627;    0,347;    1,318
881,213;16967,595;    2,347;    1,500
881,773;16674,382;    1,984;    2,682
882,332;17014,622;    6,075;    5,136
882,891;16861,590;    0,711;    2,136
883,451;17332,376;   -2,016;    1,682
884,010;16783,344;   -1,107;   -0,409
884,569;16855,494;   -2,289;   -0,045
885,128;16986,099;   -0,743;   -1,864
885,687;17011,430;   -0,743;    0,682
886,246;16722,126;    2,620;    2,136
886,805;16458,366;    1,620;    2,045
887,364;16766,971;    1,166;   -0,500
887,922;17135,302;   -0,016;    0,045
888,481;16637,361;    1,530;    0,591
889,040;16926,329;    3,711;    2,136
889,599;17626,115;    2,166;    1,409
890,157;17726,811;    2,166;    2,409
890,716;17381,688;    2,166;    0,227
891,274;17138,747;    0,075;   -1,136
891,833;17544,169;    1,166;    0,864
892,391;17475,592;    1,802;    0,500
892,950;17576,287;    0,166;   -0,773
893,508;17873,346;    0,984;   -0,409
894,067;17223,677;   -0,379;    0,136
894,625;17194,373;   -1,016;   -1,500
895,183;17415,522;   -0,198;   -0,682
895,741;17323,945;    2,257;   -1,773
896,299;17118,004;    1,621;   -2,409
896,858;17297,426;    1,530;   -1,591
897,416;17430,122;    0,166;   -1,318
897,974;17180,181;   -2,197;    0,318
898,532;17332,149;    6,530;    2,682
899,089;17196,753;    0,621;   -0,682
899,647;17255,085;    0,530;    1,318
900,205;17016,416;    0,257;    1,045
900,763;17212,202;    2,166;    0,227
901,321;17198,352;    3,530;   -1,409
901,878;16613,229;    3,257;   -0,773
902,436;16462,652;    0,257;    1,318
902,994;16841,438;    6,712;    3,682
903,551;16294,679;    1,439;    0,409
904,109;16692,101;    1,530;   -1,409
904,666;16303,433;    1,439;    1,045
905,224;16105,583;    3,894;   -0,409
905,781;15843,096;   -0,470;   -0,318
906,338;15922,882;    0,167;    1,045
906,895;15874,941;    1,894;    2,045
907,453;15773,182;    2,348;    1,136
908,010;15781,150;    3,348;    0,409
908,567;15435,936;   -0,561;    0,591
909,124;14953,359;    2,439;   -1,500
909,681;15031,963;   -1,288;    0,682
910,238;15191,113;   -0,106;   -1,318
910,795;15496,899;   -1,561;   -1,136
911,352;15139,717;   -0,379;   -2,682
911,909;14511,172;    2,803;   -0,864
912,466;15015,535;    1,985;    1,500
913,022;14555,717;   -0,924;    0,500
913,579;14931,354;   -0,470;    2,045
914,136;14640,990;   -2,561;    0,955
914,692;14986,717;    1,530;   -1,227
915,249;14554,444;    0,530;    0,409
915,806;14758,081;    1,803;    1,955
916,362;14478,354;    0,894;    1,864
916,918;14045,263;    2,439;    1,045
917,475;14042,808;    1,621;    0,955
918,031;14126,626;    0,076;   -0,045
918,587;13583,990;    0,621;   -0,318
919,144;13788,172;   -0,379;    0,227
919,700;14107,899;    0,167;    0,773
920,256;13700,808;    0,439;    0,045
920,812;13281,535;    1,439;   -1,045
921,368;13250,717;    1,348;   -1,045
921,924;12945,263;    0,439;   -0,136
922,480;12529,626;    0,076;    1,227
923,036;13131,444;   -0,652;    1,955
923,592;13073,081;    0,621;    0,318
924,148;12987,626;    1,894;   -0,955
924,704;12321,535;    0,258;   -0,409
925,259;12663,535;   -0,561;    0,591
925,815;12342,172;    3,803;    0,500
926,371;11895,263;    3,530;    1,409
926,926;11815,808;    1,621;    0,591
927,482;11406,717;    1,621;    0,773
928,037;11263,354;   -0,833;    2,045
928,593;11570,081;    0,258;    1,045
929,148;11383,717;    1,167;   -1,500
929,704;10943,263;    2,439;   -0,500
930,259;11120,808;    0,894;   -0,136
930,814;10197,263;    1,803;    1,955
931,369; 9881,081;    0,258;   -0,773
931,925; 9765,172;   -1,924;    0,136
932,480; 9643,354;    3,076;   -2,591
933,035; 9537,899;    3,985;   -0,318
933,590; 9287,444;   -1,742;   -1,773
934,145; 8961,444;   -1,288;   -0,318
934,700; 9313,444;    0,348;   -0,591
935,255; 9082,263;    4,803;    0,045
935,809; 8351,172;    6,258;    0,864
936,364; 7501,899;    2,167;   -0,136
936,919; 7494,444;    2,348;   -1,773
937,474; 7394,263;    1,348;    0,136
938,028; 7158,990;    3,076;    1,136
938,583; 6581,808;    6,348;    4,682
939,138; 6880,535;    0,167;    2,136
939,692; 6342,899;   -1,015;   -1,136
940,247; 6002,263;    1,167;   -1,045
940,801; 5559,081;    0,621;    0,227
941,355; 5467,990;    0,439;    2,591
941,910; 5140,990;    0,712;   -2,136
942,464; 5220,990;    2,712;   -0,318
943,018; 5008,263;    3,258;   -0,227
943,572; 4957,263;    2,803;   -0,682
944,126; 4356,263;   -0,924;   -0,409
944,681; 4255,626;    0,712;    0,227
945,235; 4248,717;    2,167;   -0,591
945,789; 4189,990;    1,258;   -1,864
946,342; 4267,990;   -0,561;   -0,591
946,896; 4096,808;    0,348;    0,955
947,450; 3851,263;   -0,561;   -0,227
948,004; 4035,354;    1,076;   -0,045
948,558; 4049,717;    1,258;   -0,864
949,111; 3972,899;   -1,197;   -0,318
949,665; 3996,263;   -0,106;   -0,682
950,219; 3861,535;    0,621;   -1,045
950,772; 3945,172;    0,258;    1,864
951,326; 3868,717;   -1,106;   -0,955
951,879; 3954,626;    1,076;   -2,318
952,433; 3980,263;    1,348;    2,227
952,986; 3828,717;    0,348;    0,682
953,539; 3755,808;    1,530;    0,591
954,093; 3691,263;    0,985;   -1,318
954,646; 3841,172;   -0,288;    1,318
955,199; 3642,990;    1,258;   -0,500
955,752; 3522,354;    1,985;    1,773
956,305; 3475,354;    0,894;    2,955
956,858; 3650,535;    0,621;   -0,318
957,411; 3821,990;    3,621;    2,136
957,964; 3647,172;    2,076;    2,136
958,517; 3651,990;    0,985;    3,136
959,070; 3492,717;   -1,197;    1,955
959,623; 3533,990;    1,076;    1,500
960,176; 3313,172;    0,712;    2,045
960,728; 3301,081;    1,712;    0,773
961,281; 3388,990;    2,258;    0,500
961,834; 3412,263;   -0,833;    0,864
962,386; 3320,354;    1,258;    1,045
962,939; 3228,808;    3,439;   -0,318
963,491; 3376,172;    2,621;    1,136
964,043; 3231,444;    0,076;    2,409
964,596; 3363,626;    1,712;    2,227
965,148; 3195,808;   -0,379;    1,773
965,700; 3128,535;   -0,015;   -0,227
966,253; 3285,717;   -0,833;    0,318
966,805; 3111,081;    1,894;    0,773
967,357; 3176,626;    0,439;   -1,500
967,909; 3115,626;    1,167;   -1,227
968,461; 3242,808;    0,894;    3,136
969,013; 3146,899;   -1,561;   -0,864
969,565; 3219,172;    1,803;   -1,136
970,117; 3302,899;    3,803;    1,045
970,669; 3137,808;    3,258;   -0,136
971,220; 3019,354;    2,167;   -1,500
971,772; 2926,081;    1,348;   -0,318
972,324; 3058,990;   -1,197;   -0,500
972,876; 2996,626;    0,167;   -0,045
973,427; 3121,172;   -1,197;   -1,045
973,979; 3100,172;    0,076;   -2,500
974,530; 3116,354;    0,803;    1,318
975,082; 3150,990;    2,167;    1,682
975,633; 3021,081;    2,894;    1,682
976,184; 3181,263;    2,076;    0,773
976,736; 2969,354;    0,348;    0,227
977,287; 2752,626;    0,258;   -0,500
977,838; 2925,717;   -0,924;   -0,318
978,389; 3012,263;    0,803;   -0,500
978,940; 2891,990;    1,258;   -0,409
979,491; 2908,081;    2,258;   -0,500
980,042; 2845,990;   -0,652;    3,045
980,593; 2926,626;    1,894;    0,227
981,144; 2973,444;    3,530;   -0,500
981,695; 2943,172;   -0,470;    1,500
982,246; 2919,444;   -1,833;    1,045
982,797; 3044,808;   -0,561;    0,682
983,347; 3189,626;    2,167;    0,591
983,898; 3330,263;    4,167;    0,409
984,449; 3133,899;    2,530;    0,773
984,999; 3056,626;    1,894;   -1,136
985,550; 2828,263;    3,167;   -0,318
986,100; 2867,626;    0,712;   -0,318
986,651; 2896,990;    0,258;    0,045
987,201; 2883,081;    0,894;   -0,591
987,751; 2991,990;   -0,288;    2,864
988,302; 2963,626;   -0,379;    1,500
988,852; 2974,444;    1,985;   -1,136
989,402; 3015,626;    0,985;    0,682
989,952; 2929,717;    1,621;    0,864
990,502; 3039,899;    1,076;    0,682
991,052; 2999,444;   -0,106;    0,045
991,602; 2845,444;    1,167;    1,318
992,152; 2855,263;    2,803;    0,682
992,702; 2833,899;    1,167;   -0,045
993,252; 2758,808;    0,076;   -0,500
993,802; 2843,899;    1,167;    1,318
994,352; 3099,263;   -0,742;    1,136
994,901; 3184,717;    1,076;    3,227
995,451; 3084,354;   -1,197;    0,318
996,000; 3179,444;    1,076;    0,318
996,550; 2885,717;    2,894;    0,227
997,100; 2886,172;   -0,561;   -0,045
997,649; 3187,263;   -0,197;    0,955
998,198; 2835,444;   -0,288;   -1,500
998,748; 3003,808;    0,348;   -2,318
999,297; 2904,354;    0,985;   -0,409
999,846; 2979,717;    1,894;   -0,773
1000,395; 3019,626;    1,530;    0,500
1000,945; 2971,808;    1,076;   -0,773
1001,494; 3046,081;    0,167;    0,682
1002,043; 3028,717;    0,712;    0,864
1002,592; 2869,263;    3,439;    1,955
1003,141; 3029,354;    2,439;   -0,682
1003,690; 2864,354;    1,258;    0,500
1004,238; 2947,717;   -0,106;   -0,045
1004,787; 2581,263;   -1,288;    1,227
1005,336; 2814,626;    1,621;    0,682
1005,885; 2979,172;   -0,197;   -2,773
1006,433; 3119,808;   -0,470;    0,955
1006,982; 3172,626;    2,167;    1,682
1007,531; 3087,263;    2,712;   -0,227
1008,079; 3047,172;    0,258;    0,500
1008,627; 3199,263;    1,621;    0,409
1009,176; 2927,808;    0,076;   -1,955
1009,724; 2953,535;   -2,742;    0,864
1010,273; 2997,717;    1,076;    0,500
1010,821; 3139,717;    1,076;    1,409
1011,369; 2870,808;    0,076;    1,318
1011,917; 2850,535;   -0,833;   -0,591
1012,465; 3133,808;    2,530;   -1,591
1013,013; 3225,081;    0,439;   -1,682
1013,561; 3097,172;   -1,288;   -0,773
1014,109; 3140,081;   -0,833;    1,682
1014,657; 3010,717;    1,348;    0,591
1015,205; 3150,081;    0,894;   -0,955
1015,753; 3190,081;    0,258;   -1,409
1016,301; 3243,808;    2,621;    3,045
1016,848; 3243,535;    2,167;    0,409
1017,396; 3259,808;    1,621;    0,045
1017,944; 3404,444;    2,621;    1,864
1018,491; 3159,172;   -0,197;    1,409
1019,039; 3326,717;   -0,652;    0,591
1019,586; 3237,808;    0,076;    1,682
1020,134; 3321,081;    0,712;    1,500
1020,681; 3336,263;    2,894;   -1,136
1021,228; 3363,263;   -0,561;   -2,227
1021,776; 3200,444;   -0,833;   -1,136
1022,323; 3408,535;    0,803;    0,773
1022,870; 3339,808;   -0,470;   -0,045
1023,417; 3229,263;    2,076;    1,864
1023,964; 3382,354;    0,621;    1,227
1024,511; 3211,172;   -0,652;    0,773
1025,058; 3004,263;    0,439;   -0,045
1025,605; 3052,990;   -1,742;    3,136
1026,152; 3266,626;   -0,106;   -0,591
1026,699; 3015,444;    0,167;    1,318
1027,245; 3177,626;    2,439;    0,318
1027,792; 3418,081;    0,712;    1,409
1028,339; 3283,263;    4,076;   -0,045
1028,885; 3130,444;    3,621;   -0,227
1029,432; 3067,990;   -0,106;    0,227
1029,978; 3128,535;    1,348;   -1,591
1030,525; 3007,354;    1,621;    0,409
1031,071; 3271,354;    0,348;    1,136
1031,618; 3366,354;    1,258;    1,682
1032,164; 3156,808;    2,076;    3,045
1032,710; 3198,626;    0,076;   -1,500
1033,256; 3124,081;    0,712;   -0,136
1033,803; 3113,717;   -0,288;    1,500
1034,349; 2860,354;    1,803;    0,136
1034,895; 3007,626;    2,621;   -0,318
1035,441; 2980,808;    0,439;    0,318
1035,987; 2971,990;   -2,288;   -0,682
1036,533; 2973,626;   -0,197;   -0,955
1037,078; 3170,626;    4,712;    1,682
1037,624; 2999,081;    2,439;   -0,955
1038,170; 3033,626;    1,712;   -0,318
1038,716; 2930,535;    2,167;   -0,409
1039,261; 2836,263;    2,167;   -0,773
1039,807; 2773,899;   -0,015;    3,409
1040,352; 2823,354;   -1,288;   -0,318
1040,898; 2870,990;    0,167;   -0,682
1041,443; 2815,172;    0,803;   -2,591
1041,989; 2826,626;    3,621;    1,591
1042,534; 2709,990;    0,985;    2,591
1043,079; 2833,808;    1,985;    0,955
1043,625; 2601,535;    0,258;    0,500
1044,170; 2661,172;    2,439;    1,045
1044,715; 2908,354;    0,167;    0,955
1045,260; 2713,808;   -0,833;   -0,955
1045,805; 2779,081;    0,258;   -0,591
1046,350; 2731,990;    0,530;   -0,409
1046,895; 2678,717;    0,803;    1,591
1047,440; 2627,263;    1,530;    0,409
1047,985; 2535,535;   -1,197;   -0,955
1048,530; 2457,354;    1,348;    1,227
1049,074; 2525,899;    2,803;    0,318
1049,619; 2480,535;   -0,924;    1,955
1050,164; 2272,808;    1,076;    0,227
1050,708; 2333,717;    2,621;    0,045
1051,253; 2700,990;    3,258;   -2,227
1051,797; 2419,535;   -0,197;   -1,318
1052,342; 2433,081;    1,348;    1,045
1052,886; 2415,990;    1,803;   -1,409
1053,430; 2295,444;    2,167;    0,136
1053,975; 2318,717;    0,894;   -0,318
1054,519; 2283,444;    1,803;    3,227
1055,063; 2296,717;    3,621;    1,318
1055,607; 2206,990;    1,348;    0,227
1056,151; 2227,081;    0,530;    1,682
1056,695; 2135,081;   -1,833;   -1,136
1057,239; 2193,444;   -1,197;   -0,682
1057,783; 2202,444;    2,258;   -1,500
1058,327; 2169,354;    3,076;    1,409
1058,871; 2393,263;    3,985;    1,318
1059,415; 2094,354;   -0,561;   -0,045
1059,958; 2341,263;    2,985;    2,591
1060,502; 2072,354;    1,348;   -0,773
1061,046; 1983,263;    1,712;   -0,955
1061,589; 1961,081;    2,803;   -1,136
1062,133; 1843,444;    0,985;    1,864
1062,676; 1780,263;    1,439;    0,864
1063,220; 1786,172;    0,985;    0,500
1063,763; 1794,354;    2,985;    1,136
1064,306; 1870,263;    0,985;    1,864
1064,849; 1750,172;    2,076;    0,591
1065,393; 1767,172;    2,894;   -1,500
1065,936; 1895,444;    2,530;   -0,409
1066,479; 1781,808;    2,621;    1,318
1067,022; 1791,535;    1,894;   -0,227
1067,565; 1688,535;   -1,197;   -1,318
1068,108; 1726,172;    1,258;   -0,591
1068,651; 1696,535;   -2,470;    1,409
1069,194; 1628,626;   -1,106;   -1,682
1069,736; 1622,354;    3,803;    0,955
1070,279; 1614,354;   -1,652;   -0,500
1070,822; 1663,263;    1,530;   -0,318
1071,364; 1721,717;    0,530;    1,318
1071,907; 1557,990;    0,348;    3,227
1072,450; 1472,899;    0,258;   -0,045
1072,992; 1460,172;   -0,561;    3,136
1073,535; 1581,081;    0,167;    2,136
1074,077; 1401,808;    2,985;    2,045
1074,619; 1365,444;    0,985;    0,591
1075,161; 1392,535;   -0,561;    1,500
1075,704; 1575,354;    0,258;    1,227
1076,246; 1378,626;    1,530;    0,682
1076,788; 1309,172;   -1,015;    1,773
1077,330; 1389,535;   -2,106;    2,136
1077,872; 1346,990;   -1,924;    0,955
1078,414; 1558,899;    3,712;    0,773
1078,956; 1295,444;    0,167;   -0,227
1079,498; 1537,899;    0,439;    0,318
1080,040; 1244,535;    0,985;   -1,318
1080,581; 1201,172;    0,621;   -0,318
1081,123; 1151,081;   -0,106;   -0,773
1081,665; 1183,626;    3,803;   -0,955
1082,206; 1467,535;    3,258;   -0,500
1082,748; 1340,354;    3,258;    2,045
1083,289; 1217,263;    0,167;    1,318
1083,831; 1131,444;    0,258;    0,227
1084,372; 1152,535;    0,894;    0,591
1084,913; 1158,172;    3,348;    0,864
1085,455; 1143,263;    1,530;   -2,045
1085,996; 1101,444;    0,530;    0,136
1086,537; 1122,354;    0,985;    0,864
1087,078; 1157,081;    0,439;   -2,136
1087,619; 1196,899;   -1,652;    0,227
1088,160; 1117,081;    1,439;    1,318
1088,701; 1096,354;   -0,742;    0,682
1089,242; 1037,081;   -0,561;   -2,227
1089,783; 1120,899;   -0,561;    1,409
1090,324; 1096,172;   -0,833;    0,682
1090,865;  978,354;   -1,924;   -0,409
1091,405;  971,899;   -0,561;    2,227
1091,946;  990,081;   -0,197;   -0,955
1092,487;  921,990;   -1,288;   -1,409
1093,027; 1090,172;    1,803;   -1,500
1093,568;  930,626;    2,258;    1,227
1094,108; 1003,808;    0,621;    1,773
1094,649;  952,354;   -0,470;    0,136
1095,189;  906,990;    1,167;   -0,682
1095,729;  850,354;    0,712;    0,955
1096,269;  863,990;    1,258;   -0,955
1096,810; 1166,444;   -0,197;    0,500
1097,350;  990,717;   -0,561;   -0,773
1097,890;  883,899;    2,985;    1,227
1098,430; 1138,899;    4,985;    2,864
1098,970; 1018,444;    1,894;    1,682
1099,510;  885,899;   -0,833;   -2,318
1100,050;  811,626;    0,258;   -1,591
1100,589;  779,535;    0,076;   -0,318
1101,129;  893,717;    0,894;   -0,955
1101,669; 1019,717;    2,803;    2,136
1102,209;  863,535;    1,530;    2,227
1102,748;  823,808;    3,439;    0,955
1103,288;  803,717;    0,712;   -1,227
1103,827;  829,263;    3,530;   -2,227
1104,367;  714,444;    1,712;   -2,409
1104,906;  680,717;   -1,015;   -1,136
1105,445;  757,899;    0,985;   -1,136
1105,985;  695,899;   -0,652;    1,500
1106,524;  736,535;    1,530;   -0,682
1107,063;  710,717;    1,167;    1,409
1107,602;  697,535;    1,894;   -1,500
1108,141;  621,990;    1,621;    1,500
1108,680;  719,899;    3,985;   -0,591
1109,219;  653,899;    0,167;   -0,500
1109,758;  664,990;    4,167;    0,682
1110,297;  640,535;   -1,106;   -0,682
1110,836;  584,081;    1,439;    0,955
1111,375;  736,263;    0,348;    0,409
1111,913;  747,535;    0,985;    0,773
1112,452;  696,263;    0,894;    0,136
1112,991;  592,717;    1,076;    1,955
1113,529;  536,535;    0,167;   -0,045
1114,068;  599,535;    0,439;    2,955
1114,606;  508,081;   -0,561;   -0,955
1115,144;  657,081;    1,530;    1,045
1115,683;  598,808;    1,985;    0,318
1116,221;  643,899;    2,076;   -0,864
1116,759;  558,717;    1,621;   -0,864
1117,297;  736,899;    1,621;    1,864
1117,836;  557,081;    1,985;   -1,227
1118,374;  556,808;    0,258;   -0,682
1118,912;  509,626;    0,439;    2,682
1119,450;  489,626;    0,985;    0,864
1119,988;  539,899;    3,348;    2,136
1120,525;  987,535;    7,258;    3,318
1121,063;  688,444;    0,530;    1,864
1121,601;  509,172;    1,076;   -1,227
1122,139;  469,081;    1,076;   -2,045
1122,676;  652,899;   -1,652;    2,773
1123,214;  593,808;    0,712;    4,409
1123,751;  409,899;    0,621;    2,227
1124,289;  530,899;    0,894;   -0,409
1124,826;  414,263;   -0,379;    0,227
1125,364;  342,990;    0,712;   -0,955
1125,901;  518,081;    6,258;    1,227
1126,438;  609,535;    3,530;    0,955
1126,975;  357,899;    2,985;   -0,773
1127,513;  412,990;    2,621;    2,136
1128,050;  338,899;   -0,561;   -0,682
1128,587;  425,172;    1,348;   -0,227
1129,124;  469,444;   -0,015;    1,318
1129,661;  355,808;   -1,924;    0,227
1130,198;  496,263;    2,439;    0,773
1130,734;  445,717;   -0,379;    1,409
1131,271;  316,444;   -1,197;    0,864
1131,808;  487,626;    1,621;    3,045
1132,345;  360,444;    4,530;    0,318
1132,881;  245,717;   -0,561;   -1,864
1133,418;  375,263;    0,348;   -1,136
1133,954;  314,990;    0,712;   -2,682
1134,491;  383,990;    1,712;   -0,773
1135,027;  295,263;    2,167;    0,864
1135,564;  362,444;    1,439;    2,955
1136,100;  337,626;   -0,742;    2,136
1136,636;  255,172;   -1,015;   -1,045
1137,172;  336,717;    0,894;   -1,045
1137,708;  263,081;   -1,561;   -1,045
1138,245;  273,808;    0,803;   -1,227
1138,781;  228,990;    1,803;   -3,318
1139,317;  279,535;    1,894;   -1,409
1139,852;  272,626;    3,076;    0,136
1140,388;  391,081;    2,076;   -0,409
1140,924;  268,990;    1,076;   -2,227
1141,460;  217,626;   -0,288;    0,136
1141,996;  164,444;   -0,652;    2,682
1142,531;  205,263;    1,076;    3,318
1143,067;  401,717;    1,167;    1,045
1143,602;  456,717;    3,439;   -0,318
1144,138;  305,444;    0,803;    1,045
1144,673;  183,717;    1,621;    1,409
1145,209;  250,172;    2,894;   -0,318
1145,744;  174,717;    0,803;    0,864
1146,279;  301,626;    1,530;   -0,136
1146,815;  226,081;    1,530;   -2,682
1147,350;  256,172;   -0,924;    0,045
1147,885;  172,899;   -1,924;   -1,318
1148,420;  180,808;    2,439;    0,773
1148,955;  161,263;   -1,470;    1,864
1149,490;  174,717;   -1,106;   -1,591
1150,025;  160,808;   -1,106;   -1,773
1150,560;  270,808;   -0,288;   -0,955
1151,094;  240,172;    0,258;   -0,591
1151,629;  237,081;   -3,742;    0,864
1152,164;  172,717;   -1,288;    1,318
1152,698;  141,808;    1,258;   -0,136
1153,233;   98,081;   -1,379;   -0,682
1153,767;  142,172;   -0,288;   -2,318
1154,302;  191,990;   -0,379;    1,773
1154,836;  191,535;    0,803;   -2,136
1155,371;  235,263;    2,258;    3,682
1155,905;  189,717;    1,985;    1,682
1156,439;  159,626;    0,530;   -0,500
1156,973;  189,899;    0,439;    0,318
1157,507;  131,626;   -1,742;    0,682
1158,042;  155,808;   -0,652;    1,045
1158,576;  194,535;   -0,561;    1,773
1159,110;  186,626;    0,076;    2,409
1159,643;  170,626;   -2,470;   -0,045
1160,177;  113,626;   -2,015;    1,500

