
Integration time [ms]:   0,050
Averaging Nr. [scans]: 11
Smoothing Nr. [pixels]: 0
Data measured with spectrometer [name]: 7318044SP
Wave   ;Sample   ;Dark     ;Reference
[nm]   ;[counts] ;[counts] ;[counts] 

186,757;  -35,771;   38,161;    1,318
187,357;   -9,405;   26,706;    0,955
187,958;  -28,782;   17,252;   -1,591
188,558;    8,038;   12,979;   -1,227
189,159;  -14,301;   10,070;   -4,500
189,759;  -30,791;    5,797;   -3,591
190,360;  -29,650;    6,797;   -2,136
190,960;   -4,396;    5,706;   -4,136
191,560;   -0,617;    2,614;   -6,591
192,161;  167,782;    5,885;   -3,500
192,761;   57,385;    5,520;   -3,227
193,361;   16,332;    3,065;   -3,773
193,962;   48,852;    1,612;   -2,682
194,562;  -10,253;   -0,114;   -3,955
195,162;   -9,780;   -0,567;   -2,227
195,762;  101,150;    2,433;   -0,045
196,362;   59,749;    1,706;   -2,500
196,963;  -11,326;    1,706;   -0,864
197,563;   27,406;    1,252;   -0,955
198,163;   -9,770;   -0,111;   -0,682
198,763;   -3,541;   -0,020;   -0,500
199,363;   34,349;    3,616;   -0,500
199,963;   11,037;    2,162;    0,409
200,563;    7,490;    6,344;   -1,409
201,163;   -9,407;    5,435;   -0,227
201,763;   18,116;    1,435;    0,318
202,363;  -13,240;    0,980;    1,500
202,963;   18,895;    1,526;    1,045
203,563;   61,242;    0,344;    0,500
204,162;    1,623;    1,889;   -1,864
204,762;   -6,459;    2,071;    0,591
205,362;  -17,839;    0,708;    1,955
205,962;   10,952;    3,435;    1,955
206,562;    1,062;    1,889;    2,318
207,161;   -8,806;    1,708;    0,318
207,761;   50,730;    4,435;    2,409
208,361;   -3,641;    1,889;    1,409
208,960;    9,922;    2,889;    1,500
209,560;   13,009;    0,435;    1,591
210,160;   19,765;    5,071;    1,864
210,759;   -5,066;    0,708;    1,227
211,359;   -5,743;   -0,474;    1,045
211,958;   83,051;    3,526;    2,045
212,558;   85,752;    0,799;    1,864
213,157;   27,446;   -0,929;    1,500
213,757;  143,738;    5,617;   -0,227
214,356;   49,790;    1,708;   -0,409
214,956;  125,630;    3,526;    0,409
215,555;   32,942;    0,617;    2,136
216,154;    1,247;   -0,292;   -0,591
216,754;    0,693;    1,253;    0,773
217,353;   10,568;   -0,383;   -1,045
217,952;  -26,814;    2,072;    0,318
218,552;   18,281;    0,254;   -0,773
219,151;   -2,816;   -1,110;    0,955
219,750;   -7,486;    0,890;   -0,227
220,349;  -15,547;   -2,292;    1,045
220,948;   34,879;    1,163;    1,136
221,548;   -6,655;    0,617;    1,227
222,147;    1,628;   -1,292;   -0,409
222,746;   63,502;    1,254;   -0,955
223,345;   23,979;   -1,019;    0,500
223,944;   11,681;    1,163;    0,773
224,543;   11,169;    4,072;   -1,409
225,142;    3,945;    1,345;    0,136
225,741;    9,862;    1,163;    1,045
226,340;    5,825;    1,254;   -0,955
226,939;   48,892;    2,708;   -0,136
227,538;    3,608;    1,163;   -0,773
228,137;   63,642;    0,435;    0,864
228,735;   32,729;    0,435;    1,227
229,334;  -19,280;   -0,474;   -0,227
229,933;   52,156;    0,799;    0,591
230,532;   47,557;   -1,201;   -0,409
231,131;   77,190;    1,253;    0,318
231,729;   31,407;    1,163;   -2,318
232,328;    0,271;    0,435;   -1,500
232,927;    9,859;    4,526;   -0,500
233,525;    3,259;    0,981;    0,045
234,124;   13,707;    1,890;   -1,591
234,723;   -6,803;    1,617;   -1,045
235,321;  -15,672;    1,163;    0,136
235,920;  -11,134;    2,526;   -1,227
236,518;   51,723;    1,072;    0,318
237,117;   -7,227;    2,890;   -0,227
237,715;    7,147;    1,163;   -0,500
238,314;   11,480;    1,708;   -2,318
238,912;   60,057;    0,526;   -1,409
239,510;   23,676;    1,162;   -1,227
240,109;   70,764;   -0,474;    3,773
240,707;   48,482;   -0,474;    1,227
241,305;  -14,092;   -0,383;    0,136
241,904;   15,181;   -0,292;   -2,045
242,502;   74,831;    3,253;   -0,227
243,100;   26,957;    3,344;   -0,955
243,698;   -3,942;    2,799;    1,682
244,297;   12,815;   -0,656;    0,682
244,895;   10,410;   -0,474;   -2,318
245,493;   60,513;    2,981;   -0,591
246,091;   70,009;    5,163;   -1,318
246,689;   33,277;    2,163;    0,591
247,287;   31,423;   -0,019;   -1,136
247,885;    5,330;   -1,019;    1,227
248,483;   -4,431;   -0,201;   -0,500
249,081;   35,201;    0,981;    1,591
249,679;   38,851;   -1,019;    1,682
250,277;   -4,974;   -2,292;    0,864
250,875;   32,415;    0,617;   -1,045
251,473;    7,081;   -0,019;    0,500
252,071;   37,387;   -0,383;    1,045
252,669;   10,499;   -1,565;    0,318
253,267;   -1,895;    1,618;    0,773
253,864;    8,150;    0,617;    0,682
254,462;   46,044;    1,526;    1,591
255,060;   -7,706;    0,072;    1,318
255,658;   -8,137;   -3,292;   -0,136
256,255;    2,237;   -0,201;   -2,045
256,853;   31,966;    2,345;    1,409
257,451;    9,322;    1,981;    1,864
258,048;  150,573;    2,072;    1,864
258,646;   53,676;    0,436;   -1,045
259,243;   81,694;    2,981;    2,227
259,841;   40,199;    1,799;    0,318
260,438;   -4,243;    0,254;    0,864
261,036;   29,942;    0,617;    1,409
261,633;   -2,492;    1,526;    2,227
262,231;  -17,119;   -0,110;   -0,045
262,828;  -21,089;   -0,383;    1,136
263,425;   -3,800;   -1,928;   -0,591
264,023;    1,931;    1,436;    0,045
264,620;   35,212;    1,526;   -0,318
265,217;   62,413;    2,890;    3,136
265,815;    1,374;    2,527;    2,136
266,412;   28,694;    0,072;    0,136
267,009;   21,591;    0,526;    0,773
267,606;   43,948;    0,345;   -0,955
268,203;    4,174;   -0,383;   -0,591
268,801;    2,345;   -0,474;    0,591
269,398;  -14,261;   -0,564;    2,500
269,995;   14,093;    0,890;    1,591
270,592;   10,479;    0,799;   -0,500
271,189;   -9,775;    1,981;    0,409
271,786;  -18,400;    2,072;    1,227
272,383;   35,042;   -0,383;    0,227
272,980;    4,931;    1,617;    0,318
273,577;   -4,756;    2,162;    1,227
274,174;  -17,070;    1,435;    2,591
274,771;   24,590;    1,890;   -0,773
275,367;  161,240;    3,253;    1,409
275,964;   67,538;   -0,565;   -0,500
276,561;    4,058;   -2,474;   -1,045
277,158;  -15,422;    1,799;   -1,773
277,755;   53,292;   -0,110;    0,409
278,351;   21,853;    0,436;   -1,500
278,948;   36,073;   -0,201;    0,045
279,545;   20,234;    0,527;    2,318
280,141;   54,850;    1,254;   -2,045
280,738;   62,490;    2,435;   -0,136
281,334;    6,284;   -0,383;    0,591
281,931;   -2,056;    2,890;   -1,318
282,528;   42,136;    4,072;   -0,500
283,124;   63,407;    3,345;   -0,500
283,721;   52,926;    0,709;    1,409
284,317;   13,921;    0,163;    2,500
284,913;   58,813;   -0,110;    0,591
285,510;  113,358;    2,890;   -0,318
286,106;   69,087;    2,345;   -0,955
286,703;   24,665;    0,072;    1,955
287,299;    7,381;    1,254;   -0,591
287,895;   -0,029;    0,890;   -1,045
288,491;   -4,352;    0,163;    2,136
289,088;   22,838;    0,163;    2,409
289,684;   21,226;    2,890;    1,500
290,280;   80,200;    1,890;    0,682
290,876;   57,449;    0,163;    5,500
291,472;   36,519;    2,163;    2,227
292,068;   46,732;    1,254;    0,227
292,665;   17,017;   -0,564;    0,773
293,261;   -6,584;   -1,292;    2,136
293,857;   40,737;    4,072;    2,136
294,453;   13,333;   -0,928;    0,955
295,049;   78,335;    0,253;    1,955
295,644;   32,973;   -1,292;    0,136
296,240;   -6,862;    0,162;   -0,136
296,836;   20,495;   -0,747;    0,318
297,432;   48,720;    2,980;   -0,500
298,028;   42,601;    0,435;    0,773
298,624;   11,327;    0,889;    1,864
299,220;   21,709;    0,435;    0,591
299,815;    2,826;    0,526;   -0,409
300,411;   43,335;    0,435;    1,773
301,007;   52,588;    1,889;    0,227
301,602;    2,927;    2,071;   -2,318
302,198;   56,271;    1,435;   -0,773
302,794;   13,573;    1,526;   -0,500
303,389;  -12,413;    1,071;    1,045
303,985;    0,023;    1,253;    1,409
304,580;   54,660;    0,889;    1,591
305,176;   19,939;    0,344;    0,136
305,771;  -26,171;   -0,929;   -1,227
306,367;  112,010;    3,071;    0,136
306,962;   28,290;    2,889;    1,500
307,558;   44,590;    2,435;    0,136
308,153;   27,307;   -0,383;   -1,136
308,748;  -11,387;    0,162;    1,682
309,344;   98,315;    0,253;   -1,318
309,939;   87,579;    2,071;   -1,318
310,534;   19,356;   -2,020;   -1,682
311,130;    2,317;   -0,656;   -2,500
311,725;  -10,466;    0,526;   -0,500
312,320;    3,995;    1,253;    0,045
312,915;   33,724;    2,890;   -1,045
313,510;  105,389;    0,526;   -0,500
314,105;   15,242;   -3,565;    1,409
314,700;   -5,359;   -1,656;   -1,045
315,295;    3,660;   -0,020;    0,045
315,890;  -11,264;   -0,292;    0,864
316,485;   19,270;    0,253;   -0,318
317,080;   -7,246;   -0,929;    1,591
317,675;  104,272;    3,071;   -0,682
318,270;  196,657;    6,889;    3,318
318,865;  123,834;    2,435;    3,045
319,460;   67,986;   -1,565;    0,591
320,055;    3,399;   -2,565;   -1,227
320,650;    6,072;   -1,838;   -0,591
321,244;    6,057;    0,889;   -1,409
321,839;    2,564;    0,980;   -0,227
322,434;   17,086;   -0,111;   -1,591
323,029;   -5,016;   -0,474;    1,591
323,623;   -6,660;    0,798;    0,773
324,218;   73,225;    2,707;    1,409
324,812;   42,396;    0,889;    1,591
325,407;   25,168;   -0,929;    2,045
326,002;   91,781;    0,526;   -0,409
326,596;   61,174;   -0,656;    1,318
327,191;    7,304;   -0,383;   -1,045
327,785;   12,174;   -0,747;   -0,227
328,379;   -2,573;   -0,383;    0,136
328,974;   10,732;    1,798;   -3,955
329,568;   23,250;    2,889;   -2,409
330,163;   59,024;    2,435;    1,045
330,757;    9,161;    0,253;    1,591
331,351;  -13,583;   -0,292;    0,682
331,945;  -10,886;   -0,383;    1,409
332,540;   20,239;    1,617;   -0,591
333,134;   12,320;    3,344;    0,773
333,728;   22,299;    2,799;    0,318
334,322;  -10,823;    0,889;   -0,864
334,916;  -14,481;    0,344;    0,955
335,510;   38,076;   -0,111;   -0,136
336,105;   33,032;   -0,929;    1,591
336,699;   -4,111;   -1,292;    0,591
337,293;   17,115;    1,071;    0,318
337,887;    3,117;    0,071;    1,955
338,481;   34,449;    2,980;    0,591
339,074;   72,060;    2,071;    2,682
339,668;   56,006;   -0,110;    1,227
340,262;  295,538;    7,708;    3,227
340,856;  114,986;    1,708;   -0,682
341,450;   10,085;    0,708;    1,864
342,044;   30,024;    1,799;    0,136
342,637;   59,037;    1,162;   -2,136
343,231;   21,841;   -1,474;    0,682
343,825;    5,521;   -0,747;   -0,591
344,419;   16,505;   -0,474;    0,500
345,012;  237,133;    2,889;    4,045
345,606;  133,620;   -0,656;    1,591
346,199;   23,230;   -0,111;   -0,227
346,793;   59,813;    2,525;    2,045
347,386;    6,360;    0,889;   -1,136
347,980;  -14,391;   -0,838;   -0,045
348,573;    4,143;   -1,748;    0,409
349,167;  148,213;    6,161;    4,773
349,760;   69,163;    2,252;    2,682
350,354;   47,441;    1,616;    1,136
350,947;   60,020;    2,798;    1,682
351,540;   21,770;    0,616;   -1,409
352,134;  -16,351;   -1,111;    1,136
352,727;   -8,958;   -0,657;    1,136
353,320;   -6,388;    2,343;    0,591
353,913;  -21,693;   -1,929;    1,864
354,507;   43,784;    0,434;   -1,227
355,100;    2,121;    0,071;    0,864
355,693;  202,684;    4,798;    2,409
356,286;   81,463;    0,980;    2,773
356,879;   15,172;   -0,475;    1,227
357,472;   22,126;    0,980;    1,500
358,065;   30,023;    3,161;    2,500
358,658;  -16,742;    0,798;    2,318
359,251;  -15,187;    0,252;   -0,591
359,844;   41,919;    0,343;   -1,136
360,437;   65,825;    0,252;    0,045
361,030;    9,054;    0,525;   -0,682
361,623;   12,147;    0,434;    0,318
362,215;  112,769;    0,979;    2,045
362,808;   32,068;   -2,293;   -1,682
363,401;    6,626;    0,798;    0,136
363,994;  106,008;    3,252;   -1,500
364,586;   26,093;    0,888;   -1,500
365,179;    6,318;   -0,203;   -1,136
365,772;  -35,958;   -0,930;    2,045
366,364;   10,758;    1,524;   -3,227
366,957;   24,735;    1,342;   -0,045
367,549;   -0,832;   -0,203;   -0,864
368,142;    7,512;    0,978;   -1,500
368,734;   -4,769;    2,523;   -2,136
369,327;  -27,944;    2,341;   -0,500
369,919;  -11,123;   -1,659;    0,409
370,512;    0,605;   -1,023;   -0,500
371,104;  153,555;    2,704;    1,591
371,696;  170,862;    1,703;   -0,955
372,289;   81,732;    0,157;    1,136
372,881;   46,108;    1,156;    1,318
373,473;  -12,941;    4,064;    1,136
374,066;   40,923;    1,336;    0,500
374,658;   24,002;    0,879;    1,136
375,250;  -12,325;   -1,668;   -1,409
375,842;    7,402;   -0,124;   -0,045
376,434;  -28,582;   -2,762;   -0,409
377,026;  -40,762;   -1,855;   -2,500
377,618;  -18,862;    0,779;   -0,682
378,210;  -65,652;    3,141;   -1,955
378,802;  -76,935;    3,412;   -0,591
379,394;  253,152;    3,411;    0,682
379,986;   45,140;    1,138;   -0,955
380,578;  -43,471;    1,410;    0,773
381,170;  180,719;    0,320;    0,045
381,762;  101,110;   -0,224;    1,409
382,354;   64,463;   -0,223;   -1,318
382,945;    1,588;    0,870;    0,318
383,537;  -30,229;    1,144;   -1,955
384,129;  -19,419;    0,963;   -1,136
384,721;   72,893;    0,418;    0,955
385,312;   18,916;   -1,399;   -0,955
385,904;   78,206;   -0,945;    1,591
386,496;   21,236;    0,691;    1,045
387,087;  123,148;    0,418;    2,500
387,679;   71,473;   -0,401;    0,045
388,270;   37,826;   -2,401;    2,045
388,862;   21,292;   -0,401;   -0,318
389,453;    7,612;    1,054;    1,045
390,045;   10,762;    3,236;   -2,682
390,636;  -80,117;    0,144;   -0,591
391,227;  -27,057;    2,054;   -0,045
391,819;  -47,618;    0,781;    0,773
392,410;  169,275;    0,600;    0,045
393,001;    7,985;    1,600;   -1,591
393,593;   55,811;    0,600;   -0,045
394,184;   87,358;    0,873;   -0,409
394,775;  -10,515;    1,146;    2,136
395,366;  -69,252;    1,782;    0,773
395,957;   66,315;   -2,400;    0,136
396,548;  -21,387;    1,054;    2,682
397,139;   64,708;    2,236;    0,591
397,730;   -3,838;    0,873;    0,955
398,321;    9,632;    0,509;    0,955
398,912;  -31,210;   -0,764;    0,136
399,503;  -35,005;   -1,945;   -1,409
400,094;    0,734;   -1,582;    1,682
400,685;   -8,899;    3,600;    0,045
401,276;  -42,571;   -0,400;   -0,955
401,867;  -59,669;   -1,127;    0,773
402,458;  -88,976;    1,509;   -2,318
403,048;   17,999;    0,146;    0,591
403,639;  -29,957;    1,509;    0,864
404,230;   66,585;    0,691;    0,318
404,821;  109,268;   -0,127;    0,045
405,411;   40,470;   -0,763;   -2,591
406,002;  -28,961;    3,237;   -1,136
406,592;  154,514;    2,691;    0,045
407,183;   33,874;    0,328;   -1,500
407,774;   23,239;    1,419;   -0,136
408,364;  -16,833;    2,600;    0,409
408,954;   76,912;   -0,036;    1,227
409,545;   72,080;    1,873;    1,045
410,135;   40,841;   -1,581;    0,500
410,726;    4,913;    0,783;    0,318
411,316;  154,448;    2,237;    0,773
411,906;   32,305;    0,146;   -0,409
412,497;   32,536;   -0,490;   -0,045
413,087;  -19,210;    0,783;   -0,227
413,677;  -64,601;   -2,490;    3,864
414,267;  -72,742;   -1,035;    1,409
414,857;  -79,988;    0,419;    4,227
415,448;  -81,792;   -0,763;    0,500
416,038;  -60,920;   -2,945;   -0,591
416,628;  -27,705;    0,965;    0,409
417,218;   16,870;   -1,762;    3,318
417,808;  144,079;    0,965;   -0,409
418,398;   51,115;   -1,035;    2,682
418,988;  -40,167;   -2,217;    0,591
419,578;   29,939;    3,601;    1,409
420,168;  -22,413;    0,692;   -0,955
420,757;   82,876;    0,964;   -1,500
421,347;   -9,615;    1,601;   -0,227
421,937;  -27,051;    3,329;    1,409
422,527;   86,734;    2,602;   -0,773
423,116;  200,233;    2,692;   -0,045
423,706;  -14,741;    2,965;    0,318
424,296;  -55,204;    1,601;    0,682
424,885;   46,614;    1,510;   -3,045
425,475;   17,681;    1,147;   -2,864
426,065;  -67,660;   -1,489;   -0,318
426,654;  -84,142;    0,329;   -0,318
427,244;  149,003;    1,147;    1,409
427,833;  108,881;    1,056;   -0,500
428,423;   -3,768;    0,147;    1,136
429,012;    7,534;    2,420;   -1,136
429,601;  115,264;    2,057;    0,136
430,191;   16,271;    2,511;    4,318
430,780;  -69,973;   -1,671;   -0,409
431,369;   90,814;    1,329;   -0,045
431,959;   -1,496;    1,693;    0,500
432,548;  -44,542;   -1,398;   -0,045
433,137;  -92,125;    0,329;   -1,318
433,726;  -33,528;    0,148;    0,500
434,315;   -9,338;    0,148;    2,409
434,905;   82,053;    0,693;    1,409
435,494;   64,814;    3,148;    0,955
436,083;  -33,265;    1,420;   -0,955
436,672;   36,424;    1,148;    0,500
437,261;   -1,692;    0,512;   -1,955
437,850;  180,778;   -1,125;    0,682
438,439;  232,274;    2,239;    1,955
439,027;  339,855;    3,421;    1,773
439,616;  256,248;    2,239;    1,227
440,205;   57,314;    0,057;   -2,136
440,794;   14,088;   -0,306;   -0,045
441,383;  -28,923;    1,603;   -0,591
441,971;  -49,396;   -0,306;    0,591
442,560;  -46,803;    0,603;   -1,773
443,149; -120,065;    3,060;   -1,318
443,737;  -81,615;    0,968;   -2,318
444,326;  -63,153;    0,331;    0,318
444,915;  -19,325;   -1,851;    0,864
445,503;  -17,556;    0,058;   -0,318
446,092;  226,298;    7,876;    2,136
446,680;  155,728;    1,876;    0,318
447,269;   61,191;   -1,487;   -0,318
447,857;   58,098;    2,240;   -1,773
448,445;   12,797;    2,149;    1,318
449,034;  -32,107;    0,876;   -1,136
449,622;  -20,194;    1,240;    3,500
450,210;  218,997;    3,149;    2,227
450,799;  134,392;    2,604;   -0,591
451,387;   94,914;    1,786;   -0,591
451,975;   77,410;   -1,305;    0,864
452,563;  152,117;    0,422;    2,318
453,151;    0,337;   -1,032;   -1,227
453,739;   36,032;   -1,577;    0,136
454,328;  134,579;    0,604;   -2,136
454,916;   67,227;    1,150;   -0,136
455,504;   84,283;    3,513;    1,227
456,092;   -3,379;    2,150;   -1,591
456,679;  -36,034;    0,604;    0,682
457,267;  340,328;    3,604;    1,045
457,855;   52,168;    3,241;    1,409
458,443;  -71,999;   -0,304;    1,682
459,031;   52,844;    1,332;    2,409
459,619;   24,027;   -3,577;    2,864
460,206;  -59,174;   -0,759;    2,045
460,794;  -56,262;   -0,668;   -0,227
461,382;  -13,370;    0,878;   -0,864
461,970;   -9,342;    0,605;    1,864
462,557;  -66,501;    0,878;   -0,682
463,145;   15,055;   -0,304;   -1,682
463,732;  232,469;    2,514;   -1,045
464,320;   45,880;    1,514;   -3,045
464,907;  158,990;    0,423;   -0,773
465,495;   77,899;    2,696;   -1,227
466,082;    7,353;    2,060;   -0,045
466,670;   31,735;    2,605;    1,227
467,257;  -48,130;    0,060;    2,045
467,844;   33,487;    1,514;    0,045
468,432;    7,173;   -0,031;    3,500
469,019;  -15,462;    1,606;   -1,773
469,606;   65,617;    0,969;    3,682
470,193;   83,109;    2,151;    0,227
470,780;   38,312;    0,333;    0,864
471,368;  -18,213;   -1,212;   -0,773
471,955;   66,293;    1,060;   -0,682
472,542;   36,531;   -0,303;   -1,136
473,129;  -59,712;   -0,485;    0,136
473,716;  -51,957;    0,060;    0,591
474,303;  -17,039;    1,333;   -0,864
474,890;  -20,526;    2,333;   -0,500
475,477;   67,318;   -0,576;    0,409
476,064;   -9,099;    0,697;   -1,591
476,650;   86,695;    2,152;    0,318
477,237;    5,241;    1,879;    0,955
477,824;   -5,155;    3,879;    0,864
478,411;  -76,901;    0,606;   -0,318
478,997;  -78,980;    0,606;   -0,773
479,584; -110,152;   -0,666;   -0,409
480,171;   26,068;    1,243;   -0,773
480,757;   75,583;   -0,848;    0,773
481,344;  -15,319;    0,334;    0,409
481,931;  -88,991;   -0,393;    1,045
482,517;   12,585;    0,425;    0,318
483,104;   85,180;    1,334;    2,864
483,690;  -22,625;    0,243;    0,045
484,276;  -45,768;    0,698;    0,227
484,863;  141,629;    2,152;    1,136
485,449;    6,857;    0,152;    0,318
486,035;  -34,093;   -0,666;   -0,136
486,622;   37,632;   -2,393;    0,045
487,208;  -25,429;    1,334;    1,500
487,794;  -84,585;    0,971;    0,318
488,380;  -78,550;    0,698;   -1,409
488,967;  -75,922;   -1,120;   -0,409
489,553;  -63,234;   -1,029;   -1,409
490,139;   -1,984;    0,971;    0,773
490,725;  -56,871;    0,789;   -0,227
491,311;  -19,743;    1,516;    3,045
491,897;  -34,639;   -0,665;    1,500
492,483;  -29,117;    0,426;    1,227
493,069;  357,529;    5,426;    0,864
493,655;  106,736;    1,789;    0,682
494,241;   -9,136;    1,517;   -0,955
494,826;  -12,966;    0,335;   -1,045
495,412;   42,793;    0,335;   -0,682
495,998;  -24,253;    0,971;   -0,318
496,584;   21,812;    2,244;    1,045
497,169;   34,465;    2,335;   -0,682
497,755;  -16,225;    1,244;    1,227
498,341;   85,734;    2,153;    0,318
498,926;  198,136;    2,881;    1,955
499,512;  -28,663;   -0,028;    2,955
500,097;  -28,632;   -0,574;   -0,318
500,683;  -10,958;   -0,028;    2,136
501,268;  -42,917;    1,881;   -0,955
501,854;  -21,896;   -0,119;    1,227
502,439;  -28,772;   -0,573;   -1,773
503,024;  -18,347;    1,608;    0,500
503,610;   -0,237;    1,335;   -0,682
504,195;  -40,157;    1,245;    1,955
504,780;   36,555;    2,335;    1,227
505,366;  108,892;    4,063;    2,864
505,951;   53,489;   -1,119;    1,045
506,536;  -18,142;    1,427;   -3,682
507,121;   21,200;    1,699;   -0,318
507,706;   -9,786;   -0,392;    1,045
508,291;  -51,779;   -2,937;    1,136
508,876;  -51,321;   -0,482;    2,591
509,461;  -17,960;    1,427;   -0,773
510,046;   20,236;   -0,391;    0,318
510,631;   23,888;   -0,119;   -0,773
511,216;  -37,536;   -0,664;   -0,500
511,801;    1,021;   -0,755;    2,591
512,386;    9,801;    0,972;    0,500
512,971;   25,652;    0,427;    0,955
513,555;   51,627;    1,154;   -1,500
514,140;   21,690;    1,336;   -3,136
514,725;  115,527;    1,791;   -1,136
515,309;   39,319;    1,064;    0,318
515,894;  -24,808;   -0,300;   -2,227
516,479;    3,236;    1,973;   -0,955
517,063;    0,651;    0,882;    1,227
517,648;  -32,695;    0,155;   -1,136
518,232;  -55,900;   -1,300;   -1,409
518,817;   14,622;    1,337;    1,682
519,401;   97,836;    0,700;    0,591
519,985;   78,801;    2,700;    1,136
520,570;  -14,815;   -0,118;   -1,955
521,154;   56,488;    0,064;    0,591
521,738;  174,885;    1,064;    2,409
522,323;   67,825;   -0,390;    1,682
522,907;   94,022;    2,428;   -0,136
523,491;   57,763;    1,155;    0,955
524,075;   63,467;    0,428;    0,591
524,659;  268,151;    0,973;    0,591
525,243;  262,564;    0,883;    0,409
525,827;  257,621;    0,883;   -0,045
526,411;  335,878;    1,155;   -0,136
526,995;  554,254;    0,337;    1,409
527,579;  716,600;    1,974;   -1,045
528,163;  757,157;    0,428;   -1,500
528,747; 1056,226;    1,065;   -0,773
529,331; 1152,690;    0,883;   -1,409
529,915; 1128,653;    2,338;    0,955
530,499; 1462,439;    0,247;    1,227
531,082; 1797,682;    1,065;    1,591
531,666; 2032,305;    0,520;    0,773
532,250; 2354,931;    0,428;    2,682
532,833; 2844,887;    0,610;    2,773
533,417; 3047,655;    1,247;    0,864
534,001; 3377,498;    0,429;   -0,318
534,584; 4068,714;    1,974;    0,500
535,168; 4332,433;    3,247;    1,409
535,751; 4889,614;    4,520;    0,045
536,334; 4899,835;    4,520;   -0,409
536,918; 5761,581;    1,974;    1,591
537,501; 6192,916;    1,520;    1,318
538,085; 6624,038;    1,702;    1,045
538,668; 7086,561;    0,883;    2,409
539,251; 7810,992;    3,156;    3,773
539,834; 8247,702;    0,156;    0,773
540,418; 8603,130;    3,247;    4,318
541,001; 9046,881;    2,702;    1,773
541,584; 9391,331;    1,429;    2,227
542,167; 9437,544;    0,702;    2,955
542,750; 9844,252;    0,793;   -0,773
543,333; 9801,912;    1,429;    2,136
543,916;10794,573;   -0,298;    2,500
544,499;11499,131;    2,520;    0,227
545,082;11775,567;    0,248;    3,591
545,665;12158,745;   -0,207;    1,500
546,248;12717,730;    0,520;   -0,318
546,830;12662,040;   -1,752;    1,955
547,413;13261,292;    0,157;   -0,773
547,996;13933,863;    0,157;    0,500
548,579;13901,089;   -0,843;    0,955
549,161;13926,707;    0,884;    2,682
549,744;13884,387;    0,612;    0,409
550,326;14534,123;    0,885;   -1,136
550,909;14427,880;    2,339;    0,591
551,492;14973,369;    0,521;    0,227
552,074;14878,311;   -0,024;   -1,318
552,657;15578,738;    2,430;    0,045
553,239;15533,124;   -3,024;   -0,773
553,821;15517,945;   -1,570;    1,045
554,404;15123,066;   -0,024;    1,136
554,986;15584,210;    2,248;    1,045
555,568;16285,960;    0,430;   -0,955
556,151;15603,118;    4,067;   -0,227
556,733;15868,006;   -1,388;   -0,864
557,315;16392,148;    4,703;    0,500
557,897;16257,917;    0,521;   -0,500
558,479;16537,866;    1,703;    1,318
559,061;16701,727;    1,067;   -0,864
559,643;17076,633;   -0,297;    0,045
560,225;17505,032;   -0,388;    2,864
560,807;17623,269;    0,340;    0,318
561,389;17197,082;   -1,206;    2,318
561,971;17836,160;   -0,660;    2,136
562,553;17798,309;    0,613;    1,591
563,135;17991,782;    1,249;    1,136
563,717;17622,200;    3,158;    1,136
564,298;18380,458;    3,976;   -0,045
564,880;18112,071;    0,340;   -1,409
565,462;18319,981;    1,977;    1,318
566,043;19474,866;   -0,933;    2,318
566,625;19070,225;    4,067;    1,227
567,207;19008,669;    0,704;    1,682
567,788;20133,873;   -0,114;    1,500
568,370;21017,861;   -1,841;   -0,500
568,951;20792,236;   -0,569;    0,227
569,533;21710,287;    0,977;   -0,500
570,114;22207,847;   -0,296;    0,682
570,695;22692,565;   -0,478;   -1,318
571,277;23251,800;   -0,205;   -1,682
571,858;23996,333;    2,704;   -1,136
572,439;24907,789;    0,795;   -1,045
573,021;25090,693;    0,432;   -2,773
573,602;25591,635;    1,795;    0,318
574,183;26532,933;   -0,114;    2,227
574,764;26740,979;    2,068;    0,409
575,345;27310,664;    0,250;   -0,136
575,926;27966,735;    2,704;    0,136
576,507;27916,539;    2,704;   -0,227
577,088;29072,508;    1,704;    1,682
577,669;29159,106;    1,704;    1,955
578,250;29934,115;   -0,750;   -1,045
578,831;30588,143;   -0,841;   -2,227
579,412;30863,810;   -1,205;    0,955
579,993;31854,519;    1,432;    0,227
580,573;32230,464;   -0,023;   -0,955
581,154;31182,506;    1,613;   -0,591
581,735;32056,797;    0,341;    0,773
582,315;31588,615;    0,523;    2,136
582,896;31977,343;   -1,750;    1,227
583,477;31452,813;    0,614;    1,227
584,057;31638,942;    1,159;    0,955
584,638;31961,246;   -2,750;    2,318
585,218;32028,660;    2,886;    2,682
585,799;32170,656;    1,977;   -0,227
586,379;32191,235;    1,250;    1,591
586,959;31013,633;    2,613;    0,318
587,540;30403,126;    0,432;    2,227
588,120;29946,464;   -1,113;   -0,045
588,700;28894,575;    2,977;    2,136
589,281;29261,128;    1,250;   -0,955
589,861;29200,823;   -0,296;   -1,682
590,441;29057,773;   -1,477;   -2,682
591,021;28035,969;    1,432;   -2,591
591,601;28274,327;    0,431;    0,500
592,181;28334,432;   -1,296;   -0,773
592,761;27609,333;    2,250;    1,409
593,341;27559,052;    1,522;    0,045
593,921;27524,658;   -0,569;    1,591
594,501;27437,392;    1,250;    1,318
595,081;27368,953;    0,522;   -0,318
595,661;27671,970;    1,068;    0,955
596,240;28235,358;   -1,023;    0,136
596,820;27818,033;    2,613;    1,955
597,400;28058,807;    1,977;    0,773
597,980;28317,900;   -0,750;    1,045
598,559;28341,066;    0,341;   -0,227
599,139;28067,820;   -0,750;   -1,227
599,718;27985,820;    0,795;   -0,409
600,298;28263,371;   -2,387;    0,682
600,877;28575,095;    4,795;    1,409
601,457;28858,497;    0,340;    1,136
602,036;28753,959;    1,795;    2,045
602,616;28959,623;    2,250;    1,682
603,195;29319,311;    0,431;    3,500
603,774;28811,669;   -0,296;    2,045
604,354;28769,101;    2,522;   -0,500
604,933;28246,677;    0,250;    1,864
605,512;28378,901;    2,340;    0,591
606,091;28436,612;    1,886;    3,773
606,671;29265,288;    0,249;    0,773
607,250;28314,570;    1,431;    3,136
607,829;28643,649;    1,158;    3,227
608,408;28520,026;    4,613;    2,591
608,987;27546,797;    2,704;    3,409
609,566;27849,520;    0,341;   -2,500
610,145;27938,601;    2,885;    0,682
610,723;28442,378;    1,613;    6,864
611,302;27592,484;    1,067;    1,682
611,881;27082,975;    5,158;   11,227
612,460;27933,683;    0,795;    3,955
613,039;28389,445;    1,703;    2,045
613,617;27159,153;    0,886;    4,773
614,196;27366,897;    1,613;    1,227
614,775;27663,222;    1,249;    2,409
615,353;27638,869;   -1,660;    0,864
615,932;27363,578;    0,249;    2,409
616,510;27943,127;    0,158;    0,591
617,089;27509,105;    8,794;   17,591
617,667;27253,582;    4,885;    6,136
618,246;27062,924;   -1,115;    1,318
618,824;27243,274;    1,612;   -0,955
619,402;26786,824;    0,431;   -1,773
619,981;27313,220;    1,067;   -1,045
620,559;27196,058;    0,794;    1,682
621,137;26803,144;    3,067;    1,864
621,715;26741,284;    3,703;   -0,682
622,293;26629,471;    1,885;   -0,773
622,871;27173,875;    0,340;    0,500
623,450;26722,682;    0,430;   -0,864
624,028;26622,358;   -0,388;   -0,955
624,606;26233,523;    2,339;    1,682
625,183;26598,611;   -0,661;   -1,136
625,761;26250,970;    1,885;    1,136
626,339;26581,422;    2,339;    2,591
626,917;26951,513;    0,339;   -0,045
627,495;27024,831;    2,794;    1,318
628,073;26448,614;    5,248;    2,864
628,650;26124,689;    3,067;    2,136
629,228;26550,060;    1,248;    4,409
629,806;25936,971;   -0,024;    1,136
630,383;26235,591;    0,066;   -0,318
630,961;26062,275;   -2,206;   -0,955
631,539;25769,459;   -2,479;    0,227
632,116;25015,366;   12,703;   15,409
632,694;25638,872;    4,885;    6,500
633,271;25949,489;    1,975;    2,682
633,848;25884,733;    1,430;    2,045
634,426;25976,322;    1,521;    1,773
635,003;25091,585;   -0,207;   -0,409
635,580;25349,658;    1,884;    3,682
636,158;25954,751;    3,793;    1,227
636,735;25906,703;    3,339;   -0,500
637,312;26032,814;    0,521;   -0,682
637,889;26192,359;    2,248;   -0,682
638,466;25672,723;    0,066;   -0,409
639,043;25645,444;    1,702;   -1,136
639,620;25954,408;    0,611;   -0,955
640,197;26319,716;    1,612;    1,682
640,774;26514,772;    1,430;    1,136
641,351;26862,010;    0,612;    1,136
641,928;26253,067;    2,794;    1,409
642,505;25899,941;    0,794;   -0,500
643,082;26057,816;    1,885;    1,227
643,658;25062,327;    1,157;    1,500
644,235;25847,474;   -2,479;    2,500
644,812;26127,167;    1,794;    0,773
645,388;25894,405;    1,612;    1,409
645,965;25931,188;    1,521;    1,682
646,542;26026,881;    3,430;   -0,227
647,118;26002,301;    3,703;   -0,955
647,695;26277,084;    0,339;    1,136
648,271;26237,232;   -2,115;    0,500
648,848;26574,379;    0,248;    2,227
649,424;26403,072;    0,976;    1,318
650,000;26179,491;   -0,388;   -1,045
650,577;26023,093;    0,158;   -0,955
651,153;26442,695;   -1,115;    0,955
651,729;27427,297;    0,521;    0,864
652,305;27617,080;    1,339;    2,773
652,881;32165,046;   -1,297;    1,136
653,458;39317,193;    0,249;    0,227
654,034;43342,522;    0,703;    1,591
654,610;44922,760;    0,339;    0,773
655,186;46246,726;    1,612;    3,045
655,762;45951,873;   -1,842;    0,409
656,338;45966,838;    0,703;    0,136
656,913;47061,258;   -0,297;    0,409
657,489;46366,042;    0,249;   -0,318
658,065;46256,734;    0,794;   -1,591
658,641;46819,063;    2,158;   -0,864
659,217;46096,211;    2,067;    0,409
659,792;45437,085;   -1,751;   -0,409
660,368;45825,960;   -0,388;   -0,682
660,944;45527,107;    1,794;    1,227
661,519;40857,436;    0,522;    0,409
662,095;34471,856;   -0,206;    0,591
662,670;29659,821;   -0,206;   -0,136
663,246;28498,696;   -0,660;   -0,409
663,821;27757,752;    0,431;    1,682
664,396;27219,081;    0,613;    1,864
664,972;27489,592;   -0,660;   -0,500
665,547;27887,012;    3,794;    0,136
666,122;27891,523;    1,340;    0,318
666,698;28154,943;    2,431;    0,318
667,273;27473,908;    0,885;    0,136
667,848;28290,328;    0,340;    1,500
668,423;28055,202;    1,795;    2,318
668,998;28625,350;    0,976;   -0,682
669,573;29229,133;    2,067;   -1,500
670,148;29056,462;    1,885;   -0,682
670,723;28846,973;   -0,024;    0,318
671,298;29317,666;   -1,296;    1,045
671,873;29425,722;   -0,296;   -0,136
672,448;29380,233;    1,704;    0,136
673,023;29738,562;    0,249;   -0,227
673,597;30064,982;    2,704;    2,318
674,172;29803,584;    2,431;    0,318
674,747;29312,549;   -0,205;   -1,045
675,321;29105,060;   -0,933;    3,318
675,896;28696,571;    2,158;    1,045
676,471;29699,445;    2,522;    1,591
677,045;29501,774;   -0,296;    0,682
677,620;29533,558;    2,158;    1,136
678,194;29826,796;    0,249;    1,136
678,769;29366,489;    0,886;   -0,318
679,343;29602,091;   -0,023;    1,773
679,917;29470,056;    0,340;    1,955
680,492;29566,749;    0,249;    3,227
681,066;29741,169;    0,613;    0,409
681,640;29748,043;    1,795;   -0,318
682,214;30579,463;    2,340;    0,500
682,788;30045,065;    0,613;   -0,773
683,363;30092,848;    1,977;    1,682
683,937;29737,177;    0,886;   -0,318
684,511;30558,870;   -1,023;   -0,591
685,085;30245,199;   -1,478;    0,318
685,659;30003,710;    1,431;    0,864
686,232;30231,039;    1,159;   -0,318
686,806;29992,368;    2,159;    0,409
687,380;30662,333;   -1,932;    0,591
687,954;30896,117;    2,432;    1,136
688,528;30495,264;    2,613;    1,955
689,101;31315,048;    0,432;    1,045
689,675;30873,650;    0,886;   -0,136
690,249;30254,706;    3,432;    0,409
690,822;30533,126;    1,159;    0,318
691,396;30689,455;    2,068;    1,227
691,969;30174,148;    2,523;    0,136
692,543;30614,386;   -0,568;   -1,955
693,116;30267,442;   -0,659;   -1,409
693,690;30122,680;   -0,296;    0,500
694,263;30647,100;    2,341;    2,955
694,836;30687,975;    2,795;    3,591
695,410;29364,485;    1,159;    1,773
695,983;29834,360;    1,614;    0,591
696,556;29802,598;   -0,750;   -1,045
697,129;30139,836;   -1,114;    1,409
697,703;29720,529;    1,341;    1,955
698,276;29771,221;    1,705;   -0,773
698,849;29569,460;   -1,023;    1,409
699,422;29931,243;    1,250;    0,591
699,995;29617,027;   -0,659;    0,136
700,568;30102,083;   -0,204;    3,045
701,140;30174,594;   -1,841;    1,682
701,713;29943,378;    0,341;    2,409
702,286;29638,343;    0,796;    0,864
702,859;29475,490;    0,614;   -0,591
703,432;28666,546;   -0,841;    0,682
704,004;29184,694;    1,978;    0,318
704,577;29000,023;    1,068;    0,136
705,150;29611,897;    0,887;    2,500
705,722;29339,681;    1,523;   -3,227
706,295;29121,373;    1,432;   -0,591
706,867;28972,248;    0,250;    1,955
707,440;29199,486;   -0,113;   -0,409
708,012;29453,997;   -0,022;    0,591
708,584;29405,417;    2,705;    0,227
709,157;29688,473;    1,160;   -0,591
709,729;29395,620;    1,069;    2,045
710,301;30246,586;   -1,204;    0,045
710,874;30213,006;    0,341;   -0,227
711,446;29035,971;   -0,295;    0,864
712,018;29005,482;   -3,022;    0,500
712,590;28653,993;   -0,204;    1,682
713,162;29216,504;   -0,477;    1,318
713,734;29493,015;    1,796;   -2,045
714,306;29365,980;    0,342;   -0,409
714,878;28071,673;   -0,295;    0,864
715,450;28856,638;   -0,113;    0,864
716,022;29168,331;    2,433;    1,318
716,593;29320,023;    0,978;    0,591
717,165;29257,625;    1,796;   -1,227
717,737;28932,772;    0,796;    0,409
718,309;28609,829;    1,160;   -0,045
718,880;28554,794;   -1,295;   -1,409
719,452;28791,487;    0,887;   -1,591
720,024;28336,361;    1,705;   -0,591
720,595;28899,418;    2,978;    0,955
721,167;28443,019;    1,160;   -2,045
721,738;27931,257;    2,069;   -1,045
722,309;27864,859;    1,251;   -1,227
722,881;27676,188;    2,705;    0,773
723,452;28375,790;    1,251;    2,864
724,023;28574,028;    1,524;    2,682
724,595;28319,448;    2,342;    0,682
725,166;28010,413;    1,524;   -0,409
725,737;27645,288;    1,887;    0,227
726,308;27740,890;    0,797;    0,318
726,879;28202,673;    1,069;    1,227
727,450;28054,093;   -2,022;   -0,045
728,021;28044,877;    1,069;    0,682
728,592;27872,660;    1,160;    0,500
729,163;28137,808;    1,433;   -0,136
729,734;28126,864;    2,160;   -0,227
730,305;28496,557;    0,615;    0,136
730,876;28799,704;    0,888;    2,955
731,447;28541,669;    0,797;    2,682
732,017;28676,453;   -0,840;    1,864
732,588;28181,055;   -0,021;    1,227
733,159;28375,656;    3,615;   -1,045
733,729;28194,985;    1,251;    0,409
734,300;27498,769;    0,160;    0,864
734,870;27927,643;   -1,385;    0,591
735,441;28483,518;    0,888;   -0,591
736,011;28153,211;    1,070;   -1,591
736,582;28112,903;    1,251;    0,045
737,152;27583,505;    0,979;   -2,045
737,722;28031,652;    1,070;   -0,682
738,293;27754,163;   -2,021;    1,318
738,863;27614,401;    1,797;    2,318
739,433;27411,730;    4,524;    0,318
740,003;28028,787;    1,524;   -0,682
740,573;27438,934;    2,252;   -1,591
741,143;27423,172;    3,615;    0,318
741,713;28128,592;    0,252;   -0,500
742,283;27842,921;    1,706;    1,591
742,853;27621,523;    0,524;    1,591
743,423;27081,943;    0,161;    0,045
743,993;27222,817;    1,070;    1,500
744,563;26553,328;    2,524;   -0,864
745,133;26537,839;   -0,112;   -0,864
745,702;27279,622;    2,797;    1,773
746,272;26431,042;    0,434;    0,591
746,842;26208,462;   -0,748;   -0,591
747,411;26663,428;   -0,839;   -0,318
747,981;26860,757;   -0,930;    0,500
748,551;26926,177;   -0,021;   -1,045
749,120;26740,142;   -0,112;   -0,227
749,690;27129,289;    2,161;    2,409
750,259;27483,891;    0,979;    2,955
750,828;27336,311;    4,070;   -1,955
751,398;27587,186;   -0,112;   -0,045
751,967;27114,696;    2,888;    0,409
752,536;27336,389;    1,161;   -0,227
753,105;27746,264;   -1,384;    0,227
753,675;27554,047;   -0,112;    1,773
754,244;27475,831;    0,888;    3,591
754,813;27545,887;    0,979;    1,227
755,382;27165,216;    0,798;    0,955
755,951;27658,363;   -0,112;    3,682
756,520;27165,783;    2,525;    1,864
757,089;27753,203;    1,888;    0,500
757,658;27913,987;    2,434;    1,227
758,227;27871,770;   -1,111;    0,318
758,795;28180,372;   -1,021;    1,136
759,364;28471,428;    0,525;   -0,591
759,933;27447,667;    1,343;   -0,045
760,501;26970,450;    0,252;   -1,318
761,070;27457,870;   -0,293;   -1,409
761,639;28161,290;    1,434;    1,318
762,207;27458,983;    0,889;   -0,955
762,776;27443,584;    2,889;    0,864
763,344;27326,550;    0,071;    0,591
763,913;26467,788;    1,616;    1,409
764,481;27220,299;    1,980;   -0,136
765,049;27014,173;    0,616;    1,409
765,618;26909,957;    1,434;    0,318
766,186;27019,195;    2,434;    0,136
766,754;27126,888;    1,798;    1,864
767,322;26151,944;    1,162;    0,409
767,890;26153,546;    0,525;   -1,773
768,459;26525,875;    2,616;   -0,318
769,027;26721,749;    2,525;    3,409
769,595;25718,987;    2,616;    2,591
770,163;26130,044;    3,344;    2,955
770,730;25841,736;    2,525;   -0,136
771,298;25723,429;    1,162;   -1,409
771,866;25823,031;    0,253;    4,955
772,434;26132,724;    1,162;   -1,864
773,002;26326,689;    2,616;    0,682
773,569;25930,745;    1,071;    1,682
774,137;25720,620;    0,889;   -0,045
774,705;26509,312;   -0,747;   -0,136
775,272;25942,732;    0,253;    0,682
775,840;25815,152;   -0,111;    2,682
776,407;25297,663;   -0,293;    1,955
776,975;24878,720;    1,162;    0,318
777,542;25905,685;    2,162;   -0,045
778,110;25804,468;    0,707;   -0,045
778,677;25429,979;    1,071;   -0,864
779,244;25152,308;   -1,020;    1,045
779,812;25307,728;    0,980;    0,864
780,379;25086,512;    2,435;    1,136
780,946;25425,932;    2,617;   -0,773
781,513;25706,443;   -0,565;    0,318
782,080;25053,681;    1,253;    2,864
782,647;25749,646;    1,708;    3,045
783,214;25346,339;   -0,201;    3,864
783,781;24924,395;    1,708;   -0,682
784,348;24880,270;    0,253;    1,500
784,915;25332,508;   -1,474;    0,318
785,482;25085,110;    2,708;    2,591
786,049;25532,257;    1,071;   -0,591
786,615;25662,495;    1,708;   -0,955
787,182;25440,733;   -3,201;   -0,682
787,749;25068,153;   -2,201;    1,409
788,315;24342,755;    0,253;   -0,409
788,882;24647,993;    0,981;   -1,227
789,448;25375,413;    1,435;   -0,955
790,015;25387,833;    1,799;    3,227
790,581;24903,253;    0,708;    0,227
791,148;24790,309;    1,344;    1,045
791,714;25050,002;   -1,019;    3,136
792,280;24732,694;    3,708;    1,591
792,847;24289,751;   -0,928;    2,500
793,413;24858,443;   -0,110;   -0,318
793,979;24379,409;    1,526;   -1,318
794,545;24472,011;    2,981;    2,682
795,111;23876,249;    2,435;    1,318
795,678;24030,760;    3,526;   -1,682
796,244;23684,725;    2,799;    0,136
796,810;24251,236;    0,799;    0,773
797,375;23995,292;   -0,292;   -2,136
797,941;23996,530;   -1,110;    0,591
798,507;24074,041;    0,254;   -0,955
799,073;23634,734;    2,708;    0,591
799,639;23747,063;    1,435;    3,136
800,205;23753,392;   -1,565;    2,682
800,770;23253,994;    1,345;    1,773
801,336;23321,686;    2,981;   -0,955
801,901;23022,106;    6,072;    3,136
802,467;23618,617;    0,526;    2,045
803,033;22908,219;   -0,019;    0,864
803,598;23097,912;    1,072;   -1,045
804,163;23187,150;    0,708;   -0,318
804,729;23131,751;   -0,110;    1,136
805,294;23497,262;    1,072;    2,227
805,859;23319,046;    0,890;   -0,409
806,425;22844,829;    3,890;    2,682
806,990;22445,886;    1,890;    4,318
807,555;22983,124;   -0,110;    2,591
808,120;22840,180;   -1,292;   -0,409
808,685;22832,691;    1,072;   -2,500
809,250;22358,293;    2,072;   -0,500
809,815;22727,895;   -0,201;    0,682
810,380;23256,405;    0,981;    1,591
810,945;23701,734;    2,890;    2,045
811,510;22941,154;   -0,200;    1,591
812,075;22670,302;    2,800;   -1,409
812,640;22681,631;    3,709;    1,409
813,204;22746,323;    2,163;   -0,227
813,769;23296,561;    0,254;   -0,045
814,334;22673,527;    0,527;    0,864
814,898;22650,310;    1,981;    0,591
815,463;22512,094;    0,981;   -0,773
816,027;22490,241;    1,345;   -2,318
816,592;22615,661;    2,163;   -2,045
817,156;22059,354;   -2,200;    1,136
817,721;21874,228;    0,982;    2,318
818,285;21853,285;    0,618;    1,500
818,849;22519,614;   -0,018;    1,682
819,414;22406,579;    0,073;    2,955
819,978;21979,272;   -0,291;    1,773
820,542;22562,510;    2,891;    0,500
821,106;22288,293;    2,800;    0,682
821,670;22350,168;    2,709;    2,591
822,234;22084,679;    1,073;    1,409
822,798;21468,190;   -0,836;    0,500
823,362;21447,973;    1,527;    4,227
823,926;20750,757;   -0,018;    1,136
824,490;20988,904;    3,527;   -0,682
825,054;21442,051;    2,527;   -1,136
825,618;21031,835;   -1,200;   -1,500
826,181;20979,800;    0,982;   -1,318
826,745;20886,402;   -0,745;   -1,045
827,309;21209,731;    2,255;    1,318
827,872;20625,878;    0,527;    0,955
828,436;21617,662;    1,982;   -0,773
828,999;21694,991;    2,436;    1,227
829,563;20508,229;   -0,654;    1,136
830,126;20330,558;   -0,018;   -0,591
830,690;20319,433;    0,709;    2,864
831,253;19819,398;   -0,473;    2,227
831,816;19992,727;   -0,018;    0,500
832,380;19907,420;    1,164;    0,864
832,943;20154,112;    3,073;   -0,500
833,506;19668,896;    0,255;   -1,227
834,069;20450,225;    2,164;   -0,955
834,632;20486,009;   -2,200;    1,318
835,195;20385,247;    1,346;    0,955
835,758;19616,758;    0,709;    1,955
836,321;19399,814;    1,073;   -1,045
836,884;19477,779;   -1,291;   -0,955
837,447;19531,472;    0,528;    1,773
838,010;19769,074;    1,800;    3,227
838,573;20078,766;    0,528;    0,773
839,135;20003,459;   -0,109;   -0,955
839,698;19474,788;    2,528;    0,409
840,261;19021,572;    0,255;   -0,227
840,823;18837,810;   -0,927;    0,864
841,386;19123,957;   -0,018;   -2,409
841,948;18949,741;    0,255;    1,773
842,511;18714,433;    0,255;    1,682
843,073;18858,126;    2,982;    0,227
843,636;18713,091;    0,619;   -0,227
844,198;18617,511;    1,255;    0,591
844,760;18762,022;    0,619;    1,955
845,322;18372,988;    0,164;    1,136
845,885;18836,589;   -0,290;    0,591
846,447;19282,100;    0,710;    0,227
847,009;18808,702;    3,983;   -0,682
847,571;19136,031;    1,346;   -2,045
848,133;19214,542;   -0,199;   -1,864
848,695;19034,689;    2,346;    1,409
849,257;18619,836;    1,346;   -1,682
849,819;18772,802;    2,983;   -0,409
850,381;18807,222;    1,801;   -0,864
850,942;19177,005;    1,892;   -0,591
851,504;19048,880;    0,983;    0,227
852,066;19115,209;    1,619;   -1,591
852,628;18690,174;    0,165;    1,955
853,189;18233,139;    0,256;    2,682
853,751;18394,469;   -0,654;    1,409
854,312;18221,252;    1,256;   -1,682
854,874;18745,581;   -0,108;   -0,773
855,435;19181,637;    0,528;   -1,682
855,997;19339,148;    3,983;   -0,136
856,558;18562,114;    0,801;    1,773
857,119;18680,352;   -0,744;    2,864
857,681;18371,045;   -0,108;    0,318
858,242;18398,555;    1,347;   -2,136
858,803;18892,884;    1,074;   -0,773
859,364;19458,395;    0,892;   -4,773
859,925;18806,088;   -0,290;   -0,955
860,486;18724,599;    0,529;   -0,955
861,047;18440,655;    0,165;   -1,227
861,608;18259,348;    0,165;   -0,773
862,169;18384,404;   -0,562;   -0,045
862,730;18139,097;   -0,290;    1,409
863,291;18366,608;    0,438;   -0,500
863,852;18704,573;   -0,926;    1,955
864,412;18201,357;   -1,835;   -0,864
864,973;16750,867;    1,892;    0,500
865,534;16552,287;    2,074;    0,227
866,094;18089,435;    2,620;    0,227
866,655;17766,036;    4,711;    3,318
867,215;18103,729;    0,074;    0,136
867,776;17908,785;   -1,199;   -0,136
868,336;17951,296;    1,529;    0,136
868,897;17389,353;    3,438;    1,682
869,457;17188,409;    3,256;    0,318
870,017;17464,283;    2,438;   -1,227
870,578;17966,521;    1,893;    0,773
871,138;17560,032;    2,620;   -0,955
871,698;17146,907;   -0,562;   -1,318
872,258;17029,690;    0,711;   -2,864
872,818;17389,019;    2,347;    0,045
873,378;17391,985;   -2,198;    1,045
873,938;16933,405;    4,984;    0,500
874,498;17241,279;    1,256;   -1,955
875,058;17146,426;    4,347;    1,773
875,618;16980,301;    1,438;   -2,682
876,177;16921,266;   -0,471;    0,136
876,737;16491,050;   -0,289;    1,955
877,297;16510,470;    2,711;    1,955
877,856;16519,981;    2,529;    0,318
878,416;16469,946;    2,438;   -0,136
878,976;16704,002;    3,438;    0,409
879,535;16910,968;    4,529;    3,136
880,095;16620,661;    1,347;    0,045
880,654;16761,990;    0,347;    1,318
881,213;16852,500;    2,347;    1,500
881,773;16516,011;    1,984;    2,682
882,332;16859,977;    6,075;    5,136
882,891;16735,215;    0,711;    2,136
883,451;17172,726;   -2,016;    1,682
884,010;16640,146;   -1,107;   -0,409
884,569;16752,747;   -2,289;   -0,045
885,128;16840,895;   -0,743;   -1,864
885,687;16887,587;   -0,743;    0,682
886,246;16577,734;    2,620;    2,136
886,805;16308,882;    1,620;    2,045
887,364;16651,847;    1,166;   -0,500
887,922;16989,449;   -0,016;    0,045
888,481;16478,596;    1,530;    0,591
889,040;16801,380;    3,711;    2,136
889,599;17484,345;    2,166;    1,409
890,157;17564,856;    2,166;    2,409
890,716;17226,276;    2,166;    0,227
891,274;16994,514;    0,075;   -1,136
891,833;17454,843;    1,166;    0,864
892,391;17310,354;    1,802;    0,500
892,950;17435,137;    0,166;   -0,773
893,508;17774,648;    0,984;   -0,409
894,067;17133,614;   -0,379;    0,136
894,625;17018,034;   -1,016;   -1,500
895,183;17242,817;   -0,198;   -0,682
895,741;17141,419;    2,257;   -1,773
896,299;16961,021;    1,621;   -2,409
896,858;17158,713;    1,530;   -1,591
897,416;17267,497;    0,166;   -1,318
897,974;17057,281;   -2,197;    0,318
898,532;17192,973;    6,530;    2,682
899,089;17098,302;    0,621;   -0,682
899,647;17146,450;    0,530;    1,318
900,205;16864,597;    0,257;    1,045
900,763;17050,017;    2,166;    0,227
901,321;17110,164;    3,530;   -1,409
901,878;16522,584;    3,257;   -0,773
902,436;16368,458;    0,257;    1,318
902,994;16737,333;    6,712;    3,682
903,551;16180,935;    1,439;    0,409
904,109;16593,991;    1,530;   -1,409
904,666;16205,865;    1,439;    1,045
905,224;16014,013;    3,894;   -0,409
905,781;15712,614;   -0,470;   -0,318
906,338;15825,125;    0,167;    1,045
906,895;15749,545;    1,894;    2,045
907,453;15689,602;    2,348;    1,136
908,010;15708,203;    3,348;    0,409
908,567;15345,896;   -0,561;    0,591
909,124;14852,134;    2,439;   -1,500
909,681;14948,372;   -1,288;    0,682
910,238;15098,974;   -0,106;   -1,318
910,795;15375,576;   -1,561;   -1,136
911,352;15038,939;   -0,379;   -2,682
911,909;14433,394;    2,803;   -0,864
912,466;14924,667;    1,985;    1,500
913,022;14443,485;   -0,924;    0,500
913,579;14784,485;   -0,470;    2,045
914,136;14478,939;   -2,561;    0,955
914,692;14883,485;    1,530;   -1,227
915,249;14423,667;    0,530;    0,409
915,806;14609,667;    1,803;    1,955
916,362;14324,485;    0,894;    1,864
916,918;13912,030;    2,439;    1,045
917,475;13953,394;    1,621;    0,955
918,031;14038,848;    0,076;   -0,045
918,587;13467,121;    0,621;   -0,318
919,144;13733,576;   -0,379;    0,227
919,700;14047,848;    0,167;    0,773
920,256;13615,212;    0,439;    0,045
920,812;13187,667;    1,439;   -1,045
921,368;13179,939;    1,348;   -1,045
921,924;12865,303;    0,439;   -0,136
922,480;12398,121;    0,076;    1,227
923,036;13015,758;   -0,652;    1,955
923,592;12988,485;    0,621;    0,318
924,148;12916,485;    1,894;   -0,955
924,704;12241,667;    0,258;   -0,409
925,259;12525,939;   -0,561;    0,591
925,815;12245,576;    3,803;    0,500
926,371;11769,758;    3,530;    1,409
926,926;11684,939;    1,621;    0,591
927,482;11302,212;    1,621;    0,773
928,037;11171,939;   -0,833;    2,045
928,593;11492,121;    0,258;    1,045
929,148;11306,848;    1,167;   -1,500
929,704;10805,121;    2,439;   -0,500
930,259;11008,121;    0,894;   -0,136
930,814;10082,485;    1,803;    1,955
931,369; 9795,030;    0,258;   -0,773
931,925; 9688,121;   -1,924;    0,136
932,480; 9559,485;    3,076;   -2,591
933,035; 9454,485;    3,985;   -0,318
933,590; 9198,848;   -1,742;   -1,773
934,145; 8855,394;   -1,288;   -0,318
934,700; 9222,394;    0,348;   -0,591
935,255; 9005,394;    4,803;    0,045
935,809; 8285,212;    6,258;    0,864
936,364; 7434,758;    2,167;   -0,136
936,919; 7398,212;    2,348;   -1,773
937,474; 7302,758;    1,348;    0,136
938,028; 7088,758;    3,076;    1,136
938,583; 6524,394;    6,348;    4,682
939,138; 6824,485;    0,167;    2,136
939,692; 6277,576;   -1,015;   -1,136
940,247; 5965,758;    1,167;   -1,045
940,801; 5520,212;    0,621;    0,227
941,355; 5422,576;    0,439;    2,591
941,910; 5112,394;    0,712;   -2,136
942,464; 5182,939;    2,712;   -0,318
943,018; 4971,303;    3,258;   -0,227
943,572; 4916,667;    2,803;   -0,682
944,126; 4322,667;   -0,924;   -0,409
944,681; 4220,030;    0,712;    0,227
945,235; 4180,848;    2,167;   -0,591
945,789; 4126,394;    1,258;   -1,864
946,342; 4209,394;   -0,561;   -0,591
946,896; 4024,121;    0,348;    0,955
947,450; 3794,485;   -0,561;   -0,227
948,004; 3993,394;    1,076;   -0,045
948,558; 3993,212;    1,258;   -0,864
949,111; 3919,303;   -1,197;   -0,318
949,665; 3958,303;   -0,106;   -0,682
950,219; 3828,576;    0,621;   -1,045
950,772; 3912,576;    0,258;    1,864
951,326; 3831,394;   -1,106;   -0,955
951,879; 3899,667;    1,076;   -2,318
952,433; 3917,394;    1,348;    2,227
952,986; 3770,758;    0,348;    0,682
953,539; 3722,848;    1,530;    0,591
954,093; 3668,030;    0,985;   -1,318
954,646; 3784,121;   -0,288;    1,318
955,199; 3617,121;    1,258;   -0,500
955,752; 3490,303;    1,985;    1,773
956,305; 3442,485;    0,894;    2,955
956,858; 3602,939;    0,621;   -0,318
957,411; 3794,030;    3,621;    2,136
957,964; 3613,121;    2,076;    2,136
958,517; 3594,394;    0,985;    3,136
959,070; 3442,667;   -1,197;    1,955
959,623; 3517,212;    1,076;    1,500
960,176; 3280,667;    0,712;    2,045
960,728; 3247,303;    1,712;    0,773
961,281; 3326,939;    2,258;    0,500
961,834; 3348,939;   -0,833;    0,864
962,386; 3267,303;    1,258;    1,045
962,939; 3201,030;    3,439;   -0,318
963,491; 3349,939;    2,621;    1,136
964,043; 3197,758;    0,076;    2,409
964,596; 3325,303;    1,712;    2,227
965,148; 3167,576;   -0,379;    1,773
965,700; 3116,303;   -0,015;   -0,227
966,253; 3263,303;   -0,833;    0,318
966,805; 3094,667;    1,894;    0,773
967,357; 3147,121;    0,439;   -1,500
967,909; 3093,848;    1,167;   -1,227
968,461; 3199,212;    0,894;    3,136
969,013; 3126,212;   -1,561;   -0,864
969,565; 3186,667;    1,803;   -1,136
970,117; 3289,848;    3,803;    1,045
970,669; 3128,030;    3,258;   -0,136
971,220; 2991,030;    2,167;   -1,500
971,772; 2912,303;    1,348;   -0,318
972,324; 3039,667;   -1,197;   -0,500
972,876; 2983,394;    0,167;   -0,045
973,427; 3091,303;   -1,197;   -1,045
973,979; 3086,758;    0,076;   -2,500
974,530; 3098,576;    0,803;    1,318
975,082; 3094,576;    2,167;    1,682
975,633; 3002,030;    2,894;    1,682
976,184; 3172,758;    2,076;    0,773
976,736; 2954,485;    0,348;    0,227
977,287; 2732,303;    0,258;   -0,500
977,838; 2918,667;   -0,924;   -0,318
978,389; 2984,485;    0,803;   -0,500
978,940; 2861,212;    1,258;   -0,409
979,491; 2890,576;    2,258;   -0,500
980,042; 2817,394;   -0,652;    3,045
980,593; 2893,212;    1,894;    0,227
981,144; 2949,485;    3,530;   -0,500
981,695; 2905,758;   -0,470;    1,500
982,246; 2879,121;   -1,833;    1,045
982,797; 3037,303;   -0,561;    0,682
983,347; 3154,576;    2,167;    0,591
983,898; 3300,485;    4,167;    0,409
984,449; 3117,485;    2,530;    0,773
984,999; 3030,939;    1,894;   -1,136
985,550; 2810,121;    3,167;   -0,318
986,100; 2865,030;    0,712;   -0,318
986,651; 2893,939;    0,258;    0,045
987,201; 2872,030;    0,894;   -0,591
987,751; 2946,485;   -0,288;    2,864
988,302; 2937,576;   -0,379;    1,500
988,852; 2952,485;    1,985;   -1,136
989,402; 2987,303;    0,985;    0,682
989,952; 2901,030;    1,621;    0,864
990,502; 3018,939;    1,076;    0,682
991,052; 2987,030;   -0,106;    0,045
991,602; 2839,576;    1,167;    1,318
992,152; 2843,212;    2,803;    0,682
992,702; 2798,848;    1,167;   -0,045
993,252; 2732,576;    0,076;   -0,500
993,802; 2811,030;    1,167;    1,318
994,352; 3082,394;   -0,742;    1,136
994,901; 3191,030;    1,076;    3,227
995,451; 3082,758;   -1,197;    0,318
996,000; 3145,758;    1,076;    0,318
996,550; 2854,758;    2,894;    0,227
997,100; 2873,848;   -0,561;   -0,045
997,649; 3164,848;   -0,197;    0,955
998,198; 2774,848;   -0,288;   -1,500
998,748; 2966,030;    0,348;   -2,318
999,297; 2885,121;    0,985;   -0,409
999,846; 2959,030;    1,894;   -0,773
1000,395; 3011,576;    1,530;    0,500
1000,945; 2954,939;    1,076;   -0,773
1001,494; 3034,303;    0,167;    0,682
1002,043; 3035,394;    0,712;    0,864
1002,592; 2859,939;    3,439;    1,955
1003,141; 3008,758;    2,439;   -0,682
1003,690; 2849,212;    1,258;    0,500
1004,238; 2914,667;   -0,106;   -0,045
1004,787; 2553,576;   -1,288;    1,227
1005,336; 2800,758;    1,621;    0,682
1005,885; 2950,939;   -0,197;   -2,773
1006,433; 3089,030;   -0,470;    0,955
1006,982; 3138,485;    2,167;    1,682
1007,531; 3053,485;    2,712;   -0,227
1008,079; 3003,667;    0,258;    0,500
1008,627; 3168,212;    1,621;    0,409
1009,176; 2900,212;    0,076;   -1,955
1009,724; 2934,667;   -2,742;    0,864
1010,273; 2993,030;    1,076;    0,500
1010,821; 3120,212;    1,076;    1,409
1011,369; 2843,667;    0,076;    1,318
1011,917; 2814,848;   -0,833;   -0,591
1012,465; 3110,485;    2,530;   -1,591
1013,013; 3203,030;    0,439;   -1,682
1013,561; 3073,030;   -1,288;   -0,773
1014,109; 3123,667;   -0,833;    1,682
1014,657; 3011,212;    1,348;    0,591
1015,205; 3123,303;    0,894;   -0,955
1015,753; 3176,394;    0,258;   -1,409
1016,301; 3219,303;    2,621;    3,045
1016,848; 3234,485;    2,167;    0,409
1017,396; 3240,212;    1,621;    0,045
1017,944; 3371,667;    2,621;    1,864
1018,491; 3124,758;   -0,197;    1,409
1019,039; 3299,758;   -0,652;    0,591
1019,586; 3204,121;    0,076;    1,682
1020,134; 3309,939;    0,712;    1,500
1020,681; 3306,394;    2,894;   -1,136
1021,228; 3320,939;   -0,561;   -2,227
1021,776; 3163,667;   -0,833;   -1,136
1022,323; 3367,667;    0,803;    0,773
1022,870; 3321,121;   -0,470;   -0,045
1023,417; 3212,485;    2,076;    1,864
1023,964; 3359,212;    0,621;    1,227
1024,511; 3193,030;   -0,652;    0,773
1025,058; 2962,576;    0,439;   -0,045
1025,605; 3019,848;   -1,742;    3,136
1026,152; 3229,758;   -0,106;   -0,591
1026,699; 2982,212;    0,167;    1,318
1027,245; 3145,394;    2,439;    0,318
1027,792; 3364,485;    0,712;    1,409
1028,339; 3252,303;    4,076;   -0,045
1028,885; 3112,212;    3,621;   -0,227
1029,432; 3032,394;   -0,106;    0,227
1029,978; 3100,667;    1,348;   -1,591
1030,525; 2990,576;    1,621;    0,409
1031,071; 3254,667;    0,348;    1,136
1031,618; 3357,030;    1,258;    1,682
1032,164; 3156,121;    2,076;    3,045
1032,710; 3171,030;    0,076;   -1,500
1033,256; 3094,848;    0,712;   -0,136
1033,803; 3097,303;   -0,288;    1,500
1034,349; 2812,848;    1,803;    0,136
1034,895; 2977,121;    2,621;   -0,318
1035,441; 2951,848;    0,439;    0,318
1035,987; 2973,212;   -2,288;   -0,682
1036,533; 2962,576;   -0,197;   -0,955
1037,078; 3157,394;    4,712;    1,682
1037,624; 2956,485;    2,439;   -0,955
1038,170; 2993,212;    1,712;   -0,318
1038,716; 2892,576;    2,167;   -0,409
1039,261; 2824,121;    2,167;   -0,773
1039,807; 2749,848;   -0,015;    3,409
1040,352; 2835,485;   -1,288;   -0,318
1040,898; 2876,121;    0,167;   -0,682
1041,443; 2777,212;    0,803;   -2,591
1041,989; 2807,939;    3,621;    1,591
1042,534; 2683,848;    0,985;    2,591
1043,079; 2804,576;    1,985;    0,955
1043,625; 2563,121;    0,258;    0,500
1044,170; 2632,848;    2,439;    1,045
1044,715; 2906,121;    0,167;    0,955
1045,260; 2704,212;   -0,833;   -0,955
1045,805; 2750,667;    0,258;   -0,591
1046,350; 2699,758;    0,530;   -0,409
1046,895; 2649,121;    0,803;    1,591
1047,440; 2595,667;    1,530;    0,409
1047,985; 2499,394;   -1,197;   -0,955
1048,530; 2422,848;    1,348;    1,227
1049,074; 2473,848;    2,803;    0,318
1049,619; 2446,758;   -0,924;    1,955
1050,164; 2262,030;    1,076;    0,227
1050,708; 2330,485;    2,621;    0,045
1051,253; 2688,212;    3,258;   -2,227
1051,797; 2393,939;   -0,197;   -1,318
1052,342; 2423,758;    1,348;    1,045
1052,886; 2418,121;    1,803;   -1,409
1053,430; 2297,758;    2,167;    0,136
1053,975; 2300,212;    0,894;   -0,318
1054,519; 2270,939;    1,803;    3,227
1055,063; 2276,758;    3,621;    1,318
1055,607; 2185,758;    1,348;    0,227
1056,151; 2216,848;    0,530;    1,682
1056,695; 2127,030;   -1,833;   -1,136
1057,239; 2189,848;   -1,197;   -0,682
1057,783; 2192,212;    2,258;   -1,500
1058,327; 2135,758;    3,076;    1,409
1058,871; 2358,394;    3,985;    1,318
1059,415; 2065,485;   -0,561;   -0,045
1059,958; 2304,485;    2,985;    2,591
1060,502; 2055,030;    1,348;   -0,773
1061,046; 1971,576;    1,712;   -0,955
1061,589; 1955,939;    2,803;   -1,136
1062,133; 1826,848;    0,985;    1,864
1062,676; 1746,394;    1,439;    0,864
1063,220; 1757,394;    0,985;    0,500
1063,763; 1782,394;    2,985;    1,136
1064,306; 1858,212;    0,985;    1,864
1064,849; 1757,212;    2,076;    0,591
1065,393; 1760,485;    2,894;   -1,500
1065,936; 1870,121;    2,530;   -0,409
1066,479; 1764,848;    2,621;    1,318
1067,022; 1786,758;    1,894;   -0,227
1067,565; 1682,576;   -1,197;   -1,318
1068,108; 1713,848;    1,258;   -0,591
1068,651; 1699,667;   -2,470;    1,409
1069,194; 1621,303;   -1,106;   -1,682
1069,736; 1614,939;    3,803;    0,955
1070,279; 1581,667;   -1,652;   -0,500
1070,822; 1631,758;    1,530;   -0,318
1071,364; 1696,939;    0,530;    1,318
1071,907; 1551,576;    0,348;    3,227
1072,450; 1463,121;    0,258;   -0,045
1072,992; 1456,939;   -0,561;    3,136
1073,535; 1576,121;    0,167;    2,136
1074,077; 1385,121;    2,985;    2,045
1074,619; 1355,939;    0,985;    0,591
1075,161; 1389,212;   -0,561;    1,500
1075,704; 1563,667;    0,258;    1,227
1076,246; 1358,303;    1,530;    0,682
1076,788; 1294,758;   -1,015;    1,773
1077,330; 1373,485;   -2,106;    2,136
1077,872; 1327,121;   -1,924;    0,955
1078,414; 1541,758;    3,712;    0,773
1078,956; 1273,212;    0,167;   -0,227
1079,498; 1533,667;    0,439;    0,318
1080,040; 1235,485;    0,985;   -1,318
1080,581; 1194,212;    0,621;   -0,318
1081,123; 1125,394;   -0,106;   -0,773
1081,665; 1170,485;    3,803;   -0,955
1082,206; 1467,939;    3,258;   -0,500
1082,748; 1330,030;    3,258;    2,045
1083,289; 1207,121;    0,167;    1,318
1083,831; 1110,303;    0,258;    0,227
1084,372; 1136,576;    0,894;    0,591
1084,913; 1134,758;    3,348;    0,864
1085,455; 1106,576;    1,530;   -2,045
1085,996; 1088,939;    0,530;    0,136
1086,537; 1102,394;    0,985;    0,864
1087,078; 1146,667;    0,439;   -2,136
1087,619; 1178,758;   -1,652;    0,227
1088,160; 1097,576;    1,439;    1,318
1088,701; 1090,212;   -0,742;    0,682
1089,242; 1027,303;   -0,561;   -2,227
1089,783; 1111,485;   -0,561;    1,409
1090,324; 1082,212;   -0,833;    0,682
1090,865;  953,030;   -1,924;   -0,409
1091,405;  947,667;   -0,561;    2,227
1091,946;  984,758;   -0,197;   -0,955
1092,487;  910,667;   -1,288;   -1,409
1093,027; 1075,667;    1,803;   -1,500
1093,568;  923,394;    2,258;    1,227
1094,108;  993,394;    0,621;    1,773
1094,649;  948,576;   -0,470;    0,136
1095,189;  898,394;    1,167;   -0,682
1095,729;  846,121;    0,712;    0,955
1096,269;  847,485;    1,258;   -0,955
1096,810; 1152,848;   -0,197;    0,500
1097,350;  975,303;   -0,561;   -0,773
1097,890;  881,576;    2,985;    1,227
1098,430; 1122,121;    4,985;    2,864
1098,970; 1002,939;    1,894;    1,682
1099,510;  874,485;   -0,833;   -2,318
1100,050;  800,485;    0,258;   -1,591
1100,589;  771,848;    0,076;   -0,318
1101,129;  897,394;    0,894;   -0,955
1101,669; 1025,939;    2,803;    2,136
1102,209;  857,394;    1,530;    2,227
1102,748;  818,576;    3,439;    0,955
1103,288;  803,394;    0,712;   -1,227
1103,827;  827,485;    3,530;   -2,227
1104,367;  712,758;    1,712;   -2,409
1104,906;  678,848;   -1,015;   -1,136
1105,445;  750,212;    0,985;   -1,136
1105,985;  695,485;   -0,652;    1,500
1106,524;  733,121;    1,530;   -0,682
1107,063;  710,121;    1,167;    1,409
1107,602;  692,667;    1,894;   -1,500
1108,141;  616,030;    1,621;    1,500
1108,680;  706,576;    3,985;   -0,591
1109,219;  646,848;    0,167;   -0,500
1109,758;  652,667;    4,167;    0,682
1110,297;  631,576;   -1,106;   -0,682
1110,836;  579,121;    1,439;    0,955
1111,375;  730,212;    0,348;    0,409
1111,913;  740,212;    0,985;    0,773
1112,452;  676,667;    0,894;    0,136
1112,991;  568,394;    1,076;    1,955
1113,529;  523,030;    0,167;   -0,045
1114,068;  592,303;    0,439;    2,955
1114,606;  501,758;   -0,561;   -0,955
1115,144;  654,939;    1,530;    1,045
1115,683;  593,485;    1,985;    0,318
1116,221;  636,485;    2,076;   -0,864
1116,759;  550,303;    1,621;   -0,864
1117,297;  738,667;    1,621;    1,864
1117,836;  552,758;    1,985;   -1,227
1118,374;  548,030;    0,258;   -0,682
1118,912;  501,758;    0,439;    2,682
1119,450;  491,121;    0,985;    0,864
1119,988;  534,212;    3,348;    2,136
1120,525;  980,394;    7,258;    3,318
1121,063;  689,939;    0,530;    1,864
1121,601;  496,212;    1,076;   -1,227
1122,139;  459,485;    1,076;   -2,045
1122,676;  645,939;   -1,652;    2,773
1123,214;  583,485;    0,712;    4,409
1123,751;  405,303;    0,621;    2,227
1124,289;  527,212;    0,894;   -0,409
1124,826;  407,667;   -0,379;    0,227
1125,364;  338,394;    0,712;   -0,955
1125,901;  514,485;    6,258;    1,227
1126,438;  616,394;    3,530;    0,955
1126,975;  353,939;    2,985;   -0,773
1127,513;  408,939;    2,621;    2,136
1128,050;  334,667;   -0,561;   -0,682
1128,587;  426,667;    1,348;   -0,227
1129,124;  460,667;   -0,015;    1,318
1129,661;  345,848;   -1,924;    0,227
1130,198;  500,030;    2,439;    0,773
1130,734;  443,758;   -0,379;    1,409
1131,271;  309,848;   -1,197;    0,864
1131,808;  472,030;    1,621;    3,045
1132,345;  352,848;    4,530;    0,318
1132,881;  238,576;   -0,561;   -1,864
1133,418;  365,576;    0,348;   -1,136
1133,954;  311,030;    0,712;   -2,682
1134,491;  373,121;    1,712;   -0,773
1135,027;  283,212;    2,167;    0,864
1135,564;  356,121;    1,439;    2,955
1136,100;  344,667;   -0,742;    2,136
1136,636;  249,576;   -1,015;   -1,045
1137,172;  325,939;    0,894;   -1,045
1137,708;  253,121;   -1,561;   -1,045
1138,245;  268,667;    0,803;   -1,227
1138,781;  229,303;    1,803;   -3,318
1139,317;  282,848;    1,894;   -1,409
1139,852;  269,758;    3,076;    0,136
1140,388;  364,758;    2,076;   -0,409
1140,924;  264,212;    1,076;   -2,227
1141,460;  219,030;   -0,288;    0,136
1141,996;  152,394;   -0,652;    2,682
1142,531;  194,848;    1,076;    3,318
1143,067;  391,303;    1,167;    1,045
1143,602;  445,394;    3,439;   -0,318
1144,138;  288,212;    0,803;    1,045
1144,673;  174,212;    1,621;    1,409
1145,209;  239,212;    2,894;   -0,318
1145,744;  170,576;    0,803;    0,864
1146,279;  291,758;    1,530;   -0,136
1146,815;  214,030;    1,530;   -2,682
1147,350;  250,212;   -0,924;    0,045
1147,885;  172,030;   -1,924;   -1,318
1148,420;  168,121;    2,439;    0,773
1148,955;  159,939;   -1,470;    1,864
1149,490;  180,030;   -1,106;   -1,591
1150,025;  163,121;   -1,106;   -1,773
1150,560;  262,939;   -0,288;   -0,955
1151,094;  228,485;    0,258;   -0,591
1151,629;  231,303;   -3,742;    0,864
1152,164;  164,758;   -1,288;    1,318
1152,698;  129,758;    1,258;   -0,136
1153,233;   94,576;   -1,379;   -0,682
1153,767;  141,758;   -0,288;   -2,318
1154,302;  186,303;   -0,379;    1,773
1154,836;  185,848;    0,803;   -2,136
1155,371;  229,939;    2,258;    3,682
1155,905;  187,030;    1,985;    1,682
1156,439;  150,030;    0,530;   -0,500
1156,973;  190,303;    0,439;    0,318
1157,507;  126,939;   -1,742;    0,682
1158,042;  149,758;   -0,652;    1,045
1158,576;  182,303;   -0,561;    1,773
1159,110;  176,848;    0,076;    2,409
1159,643;  157,848;   -2,470;   -0,045
1160,177;  100,303;   -2,015;    1,500

