
Integration time [ms]:   0,050
Averaging Nr. [scans]: 11
Smoothing Nr. [pixels]: 0
Data measured with spectrometer [name]: 7318044SP
Wave   ;Sample   ;Dark     ;Reference
[nm]   ;[counts] ;[counts] ;[counts] 

186,757;  -16,955;   38,161;    1,318
187,357;   16,838;   26,706;    0,955
187,958;   -0,354;   17,252;   -1,591
188,558;   35,307;   12,979;   -1,227
189,159;    3,491;   10,070;   -4,500
189,759;  -19,638;    5,797;   -3,591
190,360;  -14,269;    6,797;   -2,136
190,960;   22,212;    5,706;   -4,136
191,560;   33,344;    2,614;   -6,591
192,161;  233,350;    5,885;   -3,500
192,761;   90,390;    5,520;   -3,227
193,361;   42,227;    3,065;   -3,773
193,962;   88,589;    1,612;   -2,682
194,562;   27,659;   -0,114;   -3,955
195,162;   49,718;   -0,567;   -2,227
195,762;  170,800;    2,433;   -0,045
196,362;  123,957;    1,706;   -2,500
196,963;   22,264;    1,706;   -0,864
197,563;   83,585;    1,252;   -0,955
198,163;   31,172;   -0,111;   -0,682
198,763;   44,566;   -0,020;   -0,500
199,363;  119,368;    3,616;   -0,500
199,963;   93,271;    2,162;    0,409
200,563;   71,556;    6,344;   -1,409
201,163;   55,857;    5,435;   -0,227
201,763;  114,830;    1,435;    0,318
202,363;   67,756;    0,980;    1,500
202,963;  134,363;    1,526;    1,045
203,563;  218,971;    0,344;    0,500
204,162;  109,266;    1,889;   -1,864
204,762;   99,501;    2,071;    0,591
205,362;   76,376;    0,708;    1,955
205,962;  147,488;    3,435;    1,955
206,562;  137,359;    1,889;    2,318
207,161;  118,620;    1,708;    0,318
207,761;  239,573;    4,435;    2,409
208,361;  136,913;    1,889;    1,409
208,960;  200,123;    2,889;    1,500
209,560;  242,427;    0,435;    1,591
210,160;  244,077;    5,071;    1,864
210,759;  213,873;    0,708;    1,227
211,359;  202,509;   -0,474;    1,045
211,958;  422,912;    3,526;    2,045
212,558;  479,788;    0,799;    1,864
213,157;  348,223;   -0,929;    1,500
213,757;  693,451;    5,617;   -0,227
214,356;  444,486;    1,708;   -0,409
214,956;  704,841;    3,526;    0,409
215,555;  406,933;    0,617;    2,136
216,154;  350,783;   -0,292;   -0,591
216,754;  363,226;    1,253;    0,773
217,353;  444,898;   -0,383;   -1,045
217,952;  315,743;    2,072;    0,318
218,552;  524,657;    0,254;   -0,773
219,151;  417,755;   -1,110;    0,955
219,750;  418,287;    0,890;   -0,227
220,349;  446,652;   -2,292;    1,045
220,948;  570,820;    1,163;    1,136
221,548;  502,170;    0,617;    1,227
222,147;  596,720;   -1,292;   -0,409
222,746;  838,531;    1,254;   -0,955
223,345;  687,195;   -1,019;    0,500
223,944;  682,149;    1,163;    0,773
224,543;  760,260;    4,072;   -1,409
225,142;  857,272;    1,345;    0,136
225,741;  760,065;    1,163;    1,045
226,340;  751,215;    1,254;   -0,955
226,939; 1060,164;    2,708;   -0,136
227,538;  872,444;    1,163;   -0,773
228,137; 1067,360;    0,435;    0,864
228,735; 1019,173;    0,435;    1,227
229,334;  800,526;   -0,474;   -0,227
229,933; 1139,965;    0,799;    0,591
230,532; 1210,172;   -1,201;   -0,409
231,131; 1277,251;    1,253;    0,318
231,729; 1164,846;    1,163;   -2,318
232,328; 1103,252;    0,435;   -1,500
232,927; 1100,095;    4,526;   -0,500
233,525; 1113,357;    0,981;    0,045
234,124; 1221,140;    1,890;   -1,591
234,723; 1135,911;    1,617;   -1,045
235,321; 1171,421;    1,163;    0,136
235,920; 1280,034;    2,526;   -1,227
236,518; 1529,453;    1,072;    0,318
237,117; 1408,234;    2,890;   -0,227
237,715; 1454,045;    1,163;   -0,500
238,314; 1521,370;    1,708;   -2,318
238,912; 1724,493;    0,526;   -1,409
239,510; 1613,017;    1,162;   -1,227
240,109; 1816,356;   -0,474;    3,773
240,707; 1787,897;   -0,474;    1,227
241,305; 1862,513;   -0,383;    0,136
241,904; 2051,331;   -0,292;   -2,045
242,502; 2143,347;    3,253;   -0,227
243,100; 2086,943;    3,344;   -0,955
243,698; 2245,026;    2,799;    1,682
244,297; 2402,986;   -0,656;    0,682
244,895; 2407,501;   -0,474;   -2,318
245,493; 2720,887;    2,981;   -0,591
246,091; 2768,924;    5,163;   -1,318
246,689; 2761,373;    2,163;    0,591
247,287; 2883,517;   -0,019;   -1,136
247,885; 3156,354;   -1,019;    1,227
248,483; 3277,207;   -0,201;   -0,500
249,081; 3419,426;    0,981;    1,591
249,679; 3628,345;   -1,019;    1,682
250,277; 3873,406;   -2,292;    0,864
250,875; 3905,221;    0,617;   -1,045
251,473; 3980,454;   -0,019;    0,500
252,071; 4162,661;   -0,383;    1,045
252,669; 4330,331;   -1,565;    0,318
253,267; 4555,881;    1,618;    0,773
253,864; 4540,790;    0,617;    0,682
254,462; 4568,428;    1,526;    1,591
255,060; 4526,674;    0,072;    1,318
255,658; 4817,968;   -3,292;   -0,136
256,255; 5212,239;   -0,201;   -2,045
256,853; 5146,536;    2,345;    1,409
257,451; 5143,058;    1,981;    1,864
258,048; 5540,303;    2,072;    1,864
258,646; 5264,514;    0,436;   -1,045
259,243; 5452,536;    2,981;    2,227
259,841; 5501,032;    1,799;    0,318
260,438; 5443,327;    0,254;    0,864
261,036; 6036,205;    0,617;    1,409
261,633; 6048,069;    1,526;    2,227
262,231; 5885,347;   -0,110;   -0,045
262,828; 5989,167;   -0,383;    1,136
263,425; 6038,383;   -1,928;   -0,591
264,023; 6289,219;    1,436;    0,045
264,620; 5911,776;    1,526;   -0,318
265,217; 6263,519;    2,890;    3,136
265,815; 6377,506;    2,527;    2,136
266,412; 6267,802;    0,072;    0,136
267,009; 6328,143;    0,526;    0,773
267,606; 6305,059;    0,345;   -0,955
268,203; 6249,441;   -0,383;   -0,591
268,801; 6506,176;   -0,474;    0,591
269,398; 6780,039;   -0,564;    2,500
269,995; 6785,621;    0,890;    1,591
270,592; 6572,103;    0,799;   -0,500
271,189; 6758,980;    1,981;    0,409
271,786; 6922,512;    2,072;    1,227
272,383; 6791,125;   -0,383;    0,227
272,980; 6902,395;    1,617;    0,318
273,577; 7319,129;    2,162;    1,227
274,174; 6901,092;    1,435;    2,591
274,771; 6874,786;    1,890;   -0,773
275,367; 7065,941;    3,253;    1,409
275,964; 7044,071;   -0,565;   -0,500
276,561; 7147,802;   -2,474;   -1,045
277,158; 7315,072;    1,799;   -1,773
277,755; 7436,880;   -0,110;    0,409
278,351; 6882,326;    0,436;   -1,500
278,948; 7216,024;   -0,201;    0,045
279,545; 7221,627;    0,527;    2,318
280,141; 7876,763;    1,254;   -2,045
280,738; 7719,502;    2,435;   -0,136
281,334; 7896,221;   -0,383;    0,591
281,931; 7388,460;    2,890;   -1,318
282,528; 7541,647;    4,072;   -0,500
283,124; 8233,701;    3,345;   -0,500
283,721; 8179,165;    0,709;    1,409
284,317; 8056,530;    0,163;    2,500
284,913; 8595,781;   -0,110;    0,591
285,510; 8822,326;    2,890;   -0,318
286,106; 8906,768;    2,345;   -0,955
286,703; 8484,612;    0,072;    1,955
287,299; 8775,123;    1,254;   -0,591
287,895; 9021,080;    0,890;   -1,045
288,491; 9634,221;    0,163;    2,136
289,088; 9445,783;    0,163;    2,409
289,684; 9556,149;    2,890;    1,500
290,280; 9649,383;    1,890;    0,682
290,876; 9800,192;    0,163;    5,500
291,472; 9761,559;    2,163;    2,227
292,068; 9937,779;    1,254;    0,227
292,665; 9703,668;   -0,564;    0,773
293,261; 9429,809;   -1,292;    2,136
293,857; 9879,827;    4,072;    2,136
294,453; 9884,050;   -0,928;    0,955
295,049; 9824,722;    0,253;    1,955
295,644; 9932,571;   -1,292;    0,136
296,240; 9933,900;    0,162;   -0,136
296,836;10046,416;   -0,747;    0,318
297,432;10373,350;    2,980;   -0,500
298,028;10460,232;    0,435;    0,773
298,624;10924,887;    0,889;    1,864
299,220;11224,260;    0,435;    0,591
299,815;10932,117;    0,526;   -0,409
300,411;10767,995;    0,435;    1,773
301,007;10836,125;    1,889;    0,227
301,602;10913,304;    2,071;   -2,318
302,198;11081,979;    1,435;   -0,773
302,794;11449,484;    1,526;   -0,500
303,389;11608,773;    1,071;    1,045
303,985;11674,121;    1,253;    1,409
304,580;11667,024;    0,889;    1,591
305,176;11674,963;    0,344;    0,136
305,771;11671,862;   -0,929;   -1,227
306,367;11496,141;    3,071;    0,136
306,962;11853,668;    2,889;    1,500
307,558;11549,058;    2,435;    0,136
308,153;11502,332;   -0,383;   -1,136
308,748;11691,176;    0,162;    1,682
309,344;11675,810;    0,253;   -1,318
309,939;11774,247;    2,071;   -1,318
310,534;12046,756;   -2,020;   -1,682
311,130;11963,155;   -0,656;   -2,500
311,725;11645,381;    0,526;   -0,500
312,320;11974,101;    1,253;    0,045
312,915;11798,398;    2,890;   -1,045
313,510;11812,600;    0,526;   -0,500
314,105;12358,783;   -3,565;    1,409
314,700;11693,372;   -1,656;   -1,045
315,295;11327,297;   -0,020;    0,045
315,890;10846,657;   -0,292;    0,864
316,485;11144,664;    0,253;   -0,318
317,080;11227,588;   -0,929;    1,591
317,675;11742,834;    3,071;   -0,682
318,270;11121,643;    6,889;    3,318
318,865;11154,819;    2,435;    3,045
319,460;10956,454;   -1,565;    0,591
320,055;11158,647;   -2,565;   -1,227
320,650;10830,133;   -1,838;   -0,591
321,244;10838,856;    0,889;   -1,409
321,839;11760,389;    0,980;   -0,227
322,434;11653,828;   -0,111;   -1,591
323,029;11304,248;   -0,474;    1,591
323,623;11142,267;    0,798;    0,773
324,218;10920,482;    2,707;    1,409
324,812;10863,399;    0,889;    1,591
325,407;10694,999;   -0,929;    2,045
326,002;10615,069;    0,526;   -0,409
326,596;10962,992;   -0,656;    1,318
327,191;11185,950;   -0,383;   -1,045
327,785;10786,447;   -0,747;   -0,227
328,379;11106,255;   -0,383;    0,136
328,974;10921,106;    1,798;   -3,955
329,568;11202,709;    2,889;   -2,409
330,163;11043,382;    2,435;    1,045
330,757;11486,285;    0,253;    1,591
331,351;10839,530;   -0,292;    0,682
331,945;11183,479;   -0,383;    1,409
332,540;10819,535;    1,617;   -0,591
333,134;10989,355;    3,344;    0,773
333,728;11249,867;    2,799;    0,318
334,322;11673,277;    0,889;   -0,864
334,916;11016,837;    0,344;    0,955
335,510;11407,551;   -0,111;   -0,136
336,105;11670,587;   -0,929;    1,591
336,699;11362,188;   -1,292;    0,591
337,293;11358,521;    1,071;    0,318
337,887;11540,769;    0,071;    1,955
338,481;11701,198;    2,980;    0,591
339,074;11938,923;    2,071;    2,682
339,668;11783,954;   -0,110;    1,227
340,262;12109,938;    7,708;    3,227
340,856;11625,951;    1,708;   -0,682
341,450;11003,968;    0,708;    1,864
342,044;11966,431;    1,799;    0,136
342,637;11775,629;    1,162;   -2,136
343,231;11631,304;   -1,474;    0,682
343,825;11611,637;   -0,747;   -0,591
344,419;11592,875;   -0,474;    0,500
345,012;11379,585;    2,889;    4,045
345,606;11428,248;   -0,656;    1,591
346,199;11298,027;   -0,111;   -0,227
346,793;10807,240;    2,525;    2,045
347,386;11072,361;    0,889;   -1,136
347,980;11083,843;   -0,838;   -0,045
348,573;10900,087;   -1,748;    0,409
349,167;10559,774;    6,161;    4,773
349,760;10945,817;    2,252;    2,682
350,354;10933,865;    1,616;    1,136
350,947;10633,557;    2,798;    1,682
351,540;10334,033;    0,616;   -1,409
352,134;10280,849;   -1,111;    1,136
352,727;10323,088;   -0,657;    1,136
353,320;10158,818;    2,343;    0,591
353,913; 9992,428;   -1,929;    1,864
354,507;10153,547;    0,434;   -1,227
355,100;10213,241;    0,071;    0,864
355,693; 9347,493;    4,798;    2,409
356,286; 9394,935;    0,980;    2,773
356,879; 9763,010;   -0,475;    1,227
357,472; 9355,422;    0,980;    1,500
358,065; 9554,484;    3,161;    2,500
358,658; 9476,914;    0,798;    2,318
359,251; 9056,197;    0,252;   -0,591
359,844; 8503,741;    0,343;   -1,136
360,437; 8689,038;    0,252;    0,045
361,030; 8962,165;    0,525;   -0,682
361,623; 8486,140;    0,434;    0,318
362,215; 8537,591;    0,979;    2,045
362,808; 8409,260;   -2,293;   -1,682
363,401; 8597,792;    0,798;    0,136
363,994; 8293,438;    3,252;   -1,500
364,586; 8226,220;    0,888;   -1,500
365,179; 8410,881;   -0,203;   -1,136
365,772; 7891,403;   -0,930;    2,045
366,364; 8163,695;    1,524;   -3,227
366,957; 8366,261;    1,342;   -0,045
367,549; 8354,682;   -0,203;   -0,864
368,142; 7998,364;    0,978;   -1,500
368,734; 8196,758;    2,523;   -2,136
369,327; 8144,473;    2,341;   -0,500
369,919; 8034,169;   -1,659;    0,409
370,512; 7811,665;   -1,023;   -0,500
371,104; 7522,708;    2,704;    1,591
371,696; 7700,363;    1,703;   -0,955
372,289; 7761,622;    0,157;    1,136
372,881; 7904,608;    1,156;    1,318
373,473; 7838,372;    4,064;    1,136
374,066; 7632,782;    1,336;    0,500
374,658; 7478,352;    0,879;    1,136
375,250; 7837,800;   -1,668;   -1,409
375,842; 7678,817;   -0,124;   -0,045
376,434; 7508,904;   -2,762;   -0,409
377,026; 8122,448;   -1,855;   -2,500
377,618; 7987,357;    0,779;   -0,682
378,210; 7838,697;    3,141;   -1,955
378,802; 7661,339;    3,412;   -0,591
379,394; 7585,654;    3,411;    0,682
379,986; 8204,085;    1,138;   -0,955
380,578; 8264,536;    1,410;    0,773
381,170; 7604,191;    0,320;    0,045
381,762; 7562,988;   -0,224;    1,409
382,354; 7791,257;   -0,223;   -1,318
382,945; 7866,666;    0,870;    0,318
383,537; 8020,334;    1,144;   -1,955
384,129; 8034,039;    0,963;   -1,136
384,721; 8217,046;    0,418;    0,955
385,312; 8137,928;   -1,399;   -0,955
385,904; 8230,732;   -0,945;    1,591
386,496; 7542,182;    0,691;    1,045
387,087; 7707,484;    0,418;    2,500
387,679; 7740,780;   -0,401;    0,045
388,270; 7852,382;   -2,401;    2,045
388,862; 7993,047;   -0,401;   -0,318
389,453; 7858,810;    1,054;    1,045
390,045; 8136,323;    3,236;   -2,682
390,636; 8094,689;    0,144;   -0,591
391,227; 7940,693;    2,054;   -0,045
391,819; 8028,605;    0,781;    0,773
392,410; 8087,067;    0,600;    0,045
393,001; 8012,761;    1,600;   -1,591
393,593; 8293,330;    0,600;   -0,045
394,184; 8145,590;    0,873;   -0,409
394,775; 8054,173;    1,146;    2,136
395,366; 8300,671;    1,782;    0,773
395,957; 8303,020;   -2,400;    0,136
396,548; 8595,798;    1,054;    2,682
397,139; 8903,398;    2,236;    0,591
397,730; 8591,356;    0,873;    0,955
398,321; 8629,032;    0,509;    0,955
398,912; 8635,926;   -0,764;    0,136
399,503; 8758,493;   -1,945;   -1,409
400,094; 8193,795;   -1,582;    1,682
400,685; 8039,679;    3,600;    0,045
401,276; 8119,635;   -0,400;   -0,955
401,867; 8439,466;   -1,127;    0,773
402,458; 8554,865;    1,509;   -2,318
403,048; 8531,687;    0,146;    0,591
403,639; 8106,699;    1,509;    0,864
404,230; 8357,639;    0,691;    0,318
404,821; 8244,129;   -0,127;    0,045
405,411; 8364,351;   -0,763;   -2,591
406,002; 7908,730;    3,237;   -1,136
406,592; 7771,867;    2,691;    0,045
407,183; 8061,079;    0,328;   -1,500
407,774; 7950,067;    1,419;   -0,136
408,364; 8281,986;    2,600;    0,409
408,954; 7837,105;   -0,036;    1,227
409,545; 7874,270;    1,873;    1,045
410,135; 7329,151;   -1,581;    0,500
410,726; 7503,638;    0,783;    0,318
411,316; 7856,318;    2,237;    0,773
411,906; 7489,471;    0,146;   -0,409
412,497; 6963,209;   -0,490;   -0,045
413,087; 7559,285;    0,783;   -0,227
413,677; 7907,670;   -2,490;    3,864
414,267; 7708,344;   -1,035;    1,409
414,857; 7633,377;    0,419;    4,227
415,448; 7883,708;   -0,763;    0,500
416,038; 7529,222;   -2,945;   -0,591
416,628; 7439,927;    0,965;    0,409
417,218; 6925,062;   -1,762;    3,318
417,808; 7142,095;    0,965;   -0,409
418,398; 7519,042;   -1,035;    2,682
418,988; 7480,128;   -2,217;    0,591
419,578; 7635,035;    3,601;    1,409
420,168; 7899,845;    0,692;   -0,955
420,757; 7472,558;    0,964;   -1,500
421,347; 7083,157;    1,601;   -0,227
421,937; 7195,082;    3,329;    1,409
422,527; 7102,426;    2,602;   -0,773
423,116; 6863,796;    2,692;   -0,045
423,706; 7159,107;    2,965;    0,318
424,296; 7061,733;    1,601;    0,682
424,885; 7428,278;    1,510;   -3,045
425,475; 7612,906;    1,147;   -2,864
426,065; 7484,745;   -1,489;   -0,318
426,654; 7096,216;    0,329;   -0,318
427,244; 7179,960;    1,147;    1,409
427,833; 6602,831;    1,056;   -0,500
428,423; 6927,942;    0,147;    1,136
429,012; 7547,635;    2,420;   -1,136
429,601; 7065,926;    2,057;    0,136
430,191; 7216,997;    2,511;    4,318
430,780; 6768,830;   -1,671;   -0,409
431,369; 6698,658;    1,329;   -0,045
431,959; 7207,900;    1,693;    0,500
432,548; 6949,039;   -1,398;   -0,045
433,137; 6966,741;    0,329;   -1,318
433,726; 7377,601;    0,148;    0,500
434,315; 6791,254;    0,148;    2,409
434,905; 6821,506;    0,693;    1,409
435,494; 6693,883;    3,148;    0,955
436,083; 6986,323;    1,420;   -0,955
436,672; 6769,298;    1,148;    0,500
437,261; 6413,568;    0,512;   -1,955
437,850; 6421,482;   -1,125;    0,682
438,439; 6314,288;    2,239;    1,955
439,027; 6103,696;    3,421;    1,773
439,616; 6324,928;    2,239;    1,227
440,205; 6078,610;    0,057;   -2,136
440,794; 5994,138;   -0,306;   -0,045
441,383; 6056,606;    1,603;   -0,591
441,971; 5874,311;   -0,306;    0,591
442,560; 5659,475;    0,603;   -1,773
443,149; 5363,960;    3,060;   -1,318
443,737; 5438,469;    0,968;   -2,318
444,326; 5517,673;    0,331;    0,318
444,915; 5426,132;   -1,851;    0,864
445,503; 5597,072;    0,058;   -0,318
446,092; 5089,207;    7,876;    2,136
446,680; 5404,562;    1,876;    0,318
447,269; 5416,943;   -1,487;   -0,318
447,857; 5116,416;    2,240;   -1,773
448,445; 5141,122;    2,149;    1,318
449,034; 5220,394;    0,876;   -1,136
449,622; 5180,218;    1,240;    3,500
450,210; 4783,363;    3,149;    2,227
450,799; 5002,310;    2,604;   -0,591
451,387; 4795,204;    1,786;   -0,591
451,975; 4565,235;   -1,305;    0,864
452,563; 4647,468;    0,422;    2,318
453,151; 4488,718;   -1,032;   -1,227
453,739; 4322,274;   -1,577;    0,136
454,328; 4267,443;    0,604;   -2,136
454,916; 4025,290;    1,150;   -0,136
455,504; 4062,967;    3,513;    1,227
456,092; 4102,928;    2,150;   -1,591
456,679; 3957,003;    0,604;    0,682
457,267; 4205,386;    3,604;    1,045
457,855; 3998,692;    3,241;    1,409
458,443; 3667,460;   -0,304;    1,682
459,031; 3873,559;    1,332;    2,409
459,619; 4025,092;   -3,577;    2,864
460,206; 3916,447;   -0,759;    2,045
460,794; 3962,464;   -0,668;   -0,227
461,382; 4030,661;    0,878;   -0,864
461,970; 3742,324;    0,605;    1,864
462,557; 3760,254;    0,878;   -0,682
463,145; 3898,707;   -0,304;   -1,682
463,732; 3973,155;    2,514;   -1,045
464,320; 3728,682;    1,514;   -3,045
464,907; 3642,965;    0,423;   -0,773
465,495; 3492,923;    2,696;   -1,227
466,082; 3441,334;    2,060;   -0,045
466,670; 3278,538;    2,605;    1,227
467,257; 3472,047;    0,060;    2,045
467,844; 3618,220;    1,514;    0,045
468,432; 3604,910;   -0,031;    3,500
469,019; 3312,940;    1,606;   -1,773
469,606; 3457,912;    0,969;    3,682
470,193; 3362,713;    2,151;    0,227
470,780; 3186,068;    0,333;    0,864
471,368; 3215,925;   -1,212;   -0,773
471,955; 3101,058;    1,060;   -0,682
472,542; 2850,233;   -0,303;   -1,136
473,129; 2808,422;   -0,485;    0,136
473,716; 2658,079;    0,060;    0,591
474,303; 2663,817;    1,333;   -0,864
474,890; 2693,743;    2,333;   -0,500
475,477; 2737,873;   -0,576;    0,409
476,064; 2573,305;    0,697;   -1,591
476,650; 2509,344;    2,152;    0,318
477,237; 2332,253;    1,879;    0,955
477,824; 2317,682;    3,879;    0,864
478,411; 2157,478;    0,606;   -0,318
478,997; 2150,968;    0,606;   -0,773
479,584; 2029,009;   -0,666;   -0,409
480,171; 2389,943;    1,243;   -0,773
480,757; 2338,396;   -0,848;    0,773
481,344; 2189,831;    0,334;    0,409
481,931; 1839,515;   -0,393;    1,045
482,517; 2171,602;    0,425;    0,318
483,104; 2249,431;    1,334;    2,864
483,690; 2111,721;    0,243;    0,045
484,276; 2061,600;    0,698;    0,227
484,863; 2255,438;    2,152;    1,136
485,449; 2085,608;    0,152;    0,318
486,035; 1934,571;   -0,666;   -0,136
486,622; 2127,183;   -2,393;    0,045
487,208; 1968,046;    1,334;    1,500
487,794; 1862,091;    0,971;    0,318
488,380; 1890,863;    0,698;   -1,409
488,967; 1854,985;   -1,120;   -0,409
489,553; 1869,839;   -1,029;   -1,409
490,139; 1997,090;    0,971;    0,773
490,725; 1823,845;    0,789;   -0,227
491,311; 1788,149;    1,516;    3,045
491,897; 1614,075;   -0,665;    1,500
492,483; 1707,787;    0,426;    1,227
493,069; 2483,883;    5,426;    0,864
493,655; 2026,110;    1,789;    0,682
494,241; 1899,777;    1,517;   -0,955
494,826; 2090,470;    0,335;   -1,045
495,412; 2075,956;    0,335;   -0,682
495,998; 2127,599;    0,971;   -0,318
496,584; 2219,378;    2,244;    1,045
497,169; 2250,770;    2,335;   -0,682
497,755; 2299,662;    1,244;    1,227
498,341; 2867,765;    2,153;    0,318
498,926; 2941,184;    2,881;    1,955
499,512; 2943,921;   -0,028;    2,955
500,097; 3028,008;   -0,574;   -0,318
500,683; 3245,851;   -0,028;    2,136
501,268; 3657,712;    1,881;   -0,955
501,854; 3814,564;   -0,119;    1,227
502,439; 3964,263;   -0,573;   -1,773
503,024; 4272,939;    1,608;    0,500
503,610; 4623,955;    1,335;   -0,682
504,195; 4853,775;    1,245;    1,955
504,780; 5295,916;    2,335;    1,227
505,366; 5568,792;    4,063;    2,864
505,951; 5688,186;   -1,119;    1,045
506,536; 6049,003;    1,427;   -3,682
507,121; 6322,606;    1,699;   -0,318
507,706; 7060,350;   -0,392;    1,045
508,291; 7653,737;   -2,937;    1,136
508,876; 7570,525;   -0,482;    2,591
509,461; 7526,228;    1,427;   -0,773
510,046; 8192,602;   -0,391;    0,318
510,631; 8713,963;   -0,119;   -0,773
511,216; 8779,553;   -0,664;   -0,500
511,801; 9478,897;   -0,755;    2,591
512,386;10016,520;    0,972;    0,500
512,971;10249,764;    0,427;    0,955
513,555;10141,446;    1,154;   -1,500
514,140;11144,517;    1,336;   -3,136
514,725;11386,569;    1,791;   -1,136
515,309;11766,354;    1,064;    0,318
515,894;11520,226;   -0,300;   -2,227
516,479;12164,553;    1,973;   -0,955
517,063;12181,231;    0,882;    1,227
517,648;12548,344;    0,155;   -1,136
518,232;12342,008;   -1,300;   -1,409
518,817;12832,078;    1,337;    1,682
519,401;13241,377;    0,700;    0,591
519,985;12850,969;    2,700;    1,136
520,570;12814,191;   -0,118;   -1,955
521,154;13269,599;    0,064;    0,591
521,738;13580,116;    1,064;    2,409
522,323;14259,112;   -0,390;    1,682
522,907;14094,340;    2,428;   -0,136
523,491;13875,447;    1,155;    0,955
524,075;13906,972;    0,428;    0,591
524,659;14107,911;    0,973;    0,591
525,243;13598,238;    0,883;    0,409
525,827;13909,309;    0,883;   -0,045
526,411;14831,638;    1,155;   -0,136
526,995;15157,115;    0,337;    1,409
527,579;14795,863;    1,974;   -1,045
528,163;15101,165;    0,428;   -1,500
528,747;15084,501;    1,065;   -0,773
529,331;15371,506;    0,883;   -1,409
529,915;15654,935;    2,338;    0,955
530,499;15628,085;    0,247;    1,227
531,082;15313,125;    1,065;    1,591
531,666;14793,612;    0,520;    0,773
532,250;15505,571;    0,428;    2,682
532,833;15882,643;    0,610;    2,773
533,417;15796,687;    1,247;    0,864
534,001;15759,641;    0,429;   -0,318
534,584;16493,606;    1,974;    0,500
535,168;16375,232;    3,247;    1,409
535,751;16432,013;    4,520;    0,045
536,334;15854,972;    4,520;   -0,409
536,918;16473,806;    1,974;    1,591
537,501;16588,428;    1,520;    1,318
538,085;16568,011;    1,702;    1,045
538,668;16771,808;    0,883;    2,409
539,251;17129,605;    3,156;    3,773
539,834;17182,765;    0,156;    0,773
540,418;17106,314;    3,247;    4,318
541,001;17216,238;    2,702;    1,773
541,584;17231,736;    1,429;    2,227
542,167;16911,550;    0,702;    2,955
542,750;17093,086;    0,793;   -0,773
543,333;16653,326;    1,429;    2,136
543,916;17473,783;   -0,298;    2,500
544,499;18089,624;    2,520;    0,227
545,082;18102,426;    0,248;    3,591
545,665;18247,596;   -0,207;    1,500
546,248;18600,780;    0,520;   -0,318
546,830;18288,721;   -1,752;    1,955
547,413;18733,724;    0,157;   -0,773
547,996;19300,581;    0,157;    0,500
548,579;19075,551;   -0,843;    0,955
549,161;18879,172;    0,884;    2,682
549,744;18684,869;    0,612;    0,409
550,326;19182,880;    0,885;   -1,136
550,909;18913,652;    2,339;    0,591
551,492;19286,392;    0,521;    0,227
552,074;19080,728;   -0,024;   -1,318
552,657;19678,246;    2,430;    0,045
553,239;19478,092;   -3,024;   -0,773
553,821;19358,982;   -1,570;    1,045
554,404;18847,300;   -0,024;    1,136
554,986;19236,002;    2,248;    1,045
555,568;19838,484;    0,430;   -0,955
556,151;18996,826;    4,067;   -0,227
556,733;19228,702;   -1,388;   -0,864
557,315;19718,877;    4,703;    0,500
557,897;19512,186;    0,521;   -0,500
558,479;19653,411;    1,703;    1,318
559,061;19793,121;    1,067;   -0,864
559,643;20150,921;   -0,297;    0,045
560,225;20503,468;   -0,388;    2,864
560,807;20588,830;    0,340;    0,318
561,389;20093,377;   -1,206;    2,318
561,971;20793,767;   -0,660;    2,136
562,553;20605,886;    0,613;    1,591
563,135;20753,174;    1,249;    1,136
563,717;20350,955;    3,158;    1,136
564,298;21117,951;    3,976;   -0,045
564,880;20821,427;    0,340;   -1,409
565,462;21037,063;    1,977;    1,318
566,043;22213,551;   -0,933;    2,318
566,625;21743,364;    4,067;    1,227
567,207;21579,462;    0,704;    1,682
567,788;22756,035;   -0,114;    1,500
568,370;23626,322;   -1,841;   -0,500
568,951;23423,860;   -0,569;    0,227
569,533;24308,762;    0,977;   -0,500
570,114;24891,996;   -0,296;    0,682
570,695;25391,392;   -0,478;   -1,318
571,277;25973,730;   -0,205;   -1,682
571,858;26753,707;    2,704;   -1,136
572,439;27722,150;    0,795;   -1,045
573,021;27928,199;    0,432;   -2,773
573,602;28417,764;    1,795;    0,318
574,183;29370,440;   -0,114;    2,227
574,764;29533,573;    2,068;    0,409
575,345;30119,906;    0,250;   -0,136
575,926;30751,315;    2,704;    0,136
576,507;30856,395;    2,704;   -0,227
577,088;31987,909;    1,704;    1,682
577,669;32034,253;    1,704;    1,955
578,250;32745,894;   -0,750;   -1,045
578,831;33385,594;   -0,841;   -2,227
579,412;33685,687;   -1,205;    0,955
579,993;34712,489;    1,432;    0,227
580,573;35052,981;   -0,023;   -0,955
581,154;33958,745;    1,613;   -0,591
581,735;34809,670;    0,341;    0,773
582,315;34369,943;    0,523;    2,136
582,896;34638,755;   -1,750;    1,227
583,477;34130,523;    0,614;    1,227
584,057;34277,821;    1,159;    0,955
584,638;34567,580;   -2,750;    2,318
585,218;34582,082;    2,886;    2,682
585,799;34740,889;    1,977;   -0,227
586,379;34704,363;    1,250;    1,591
586,959;33442,595;    2,613;    0,318
587,540;32685,390;    0,432;    2,227
588,120;32115,666;   -1,113;   -0,045
588,700;31127,754;    2,977;    2,136
589,281;31456,553;    1,250;   -0,955
589,861;31348,709;   -0,296;   -1,682
590,441;31148,110;   -1,477;   -2,682
591,021;30072,120;    1,432;   -2,591
591,601;30293,175;    0,431;    0,500
592,181;30301,913;   -1,296;   -0,773
592,761;29571,702;    2,250;    1,409
593,341;29435,285;    1,522;    0,045
593,921;29445,513;   -0,569;    1,591
594,501;29296,809;    1,250;    1,318
595,081;29156,988;    0,522;   -0,318
595,661;29476,926;    1,068;    0,955
596,240;29994,934;   -1,023;    0,136
596,820;29635,135;    2,613;    1,955
597,400;29838,305;    1,977;    0,773
597,980;30093,923;   -0,750;    1,045
598,559;30094,925;    0,341;   -0,227
599,139;29775,140;   -0,750;   -1,227
599,718;29707,958;    0,795;   -0,409
600,298;29921,321;   -2,387;    0,682
600,877;30154,394;    4,795;    1,409
601,457;30430,776;    0,340;    1,136
602,036;30316,351;    1,795;    2,045
602,616;30534,008;    2,250;    1,682
603,195;30883,862;    0,431;    3,500
603,774;30448,317;   -0,296;    2,045
604,354;30347,114;    2,522;   -0,500
604,933;29806,704;    0,250;    1,864
605,512;29916,735;    2,340;    0,591
606,091;29959,791;    1,886;    3,773
606,671;30781,295;    0,249;    0,773
607,250;29838,761;    1,431;    3,136
607,829;30115,907;    1,158;    3,227
608,408;29940,294;    4,613;    2,591
608,987;28923,397;    2,704;    3,409
609,566;29252,022;    0,341;   -2,500
610,145;29270,477;    2,885;    0,682
610,723;29731,713;    1,613;    6,864
611,302;28929,711;    1,067;    1,682
611,881;28389,573;    5,158;   11,227
612,460;29278,739;    0,795;    3,955
613,039;29728,662;    1,703;    2,045
613,617;28376,871;    0,886;    4,773
614,196;28616,226;    1,613;    1,227
614,775;28962,255;    1,249;    2,409
615,353;28946,072;   -1,660;    0,864
615,932;28534,329;    0,249;    2,409
616,510;29222,522;    0,158;    0,591
617,089;28723,131;    8,794;   17,591
617,667;28469,243;    4,885;    6,136
618,246;28206,573;   -1,115;    1,318
618,824;28360,018;    1,612;   -0,955
619,402;27929,296;    0,431;   -1,773
619,981;28449,134;    1,067;   -1,045
620,559;28338,780;    0,794;    1,682
621,137;27867,780;    3,067;    1,864
621,715;27813,198;    3,703;   -0,682
622,293;27760,288;    1,885;   -0,773
622,871;28257,513;    0,340;    0,500
623,450;27782,569;    0,430;   -0,864
624,028;27694,806;   -0,388;   -0,955
624,606;27247,142;    2,339;    1,682
625,183;27600,397;   -0,661;   -1,136
625,761;27289,846;    1,885;    1,136
626,339;27586,410;    2,339;    2,591
626,917;28020,095;    0,339;   -0,045
627,495;28040,507;    2,794;    1,318
628,073;27485,002;    5,248;    2,864
628,650;27109,465;    3,067;    2,136
629,228;27524,125;    1,248;    4,409
629,806;26897,021;   -0,024;    1,136
630,383;27212,533;    0,066;   -0,318
630,961;26979,145;   -2,206;   -0,955
631,539;26691,035;   -2,479;    0,227
632,116;25907,417;   12,703;   15,409
632,694;26542,725;    4,885;    6,500
633,271;26843,491;    1,975;    2,682
633,848;26782,841;    1,430;    2,045
634,426;26820,859;    1,521;    1,773
635,003;25926,630;   -0,207;   -0,409
635,580;26228,153;    1,884;    3,682
636,158;26788,911;    3,793;    1,227
636,735;26775,978;    3,339;   -0,500
637,312;26903,018;    0,521;   -0,682
637,889;27017,254;    2,248;   -0,682
638,466;26473,030;    0,066;   -0,409
639,043;26470,539;    1,702;   -1,136
639,620;26793,684;    0,611;   -0,955
640,197;27089,182;    1,612;    1,682
640,774;27309,605;    1,430;    1,136
641,351;27680,209;    0,612;    1,136
641,928;27073,813;    2,794;    1,409
642,505;26726,690;    0,794;   -0,500
643,082;26841,204;    1,885;    1,227
643,658;25800,808;    1,157;    1,500
644,235;26606,504;   -2,479;    2,500
644,812;26878,290;    1,794;    0,773
645,388;26650,076;    1,612;    1,409
645,965;26724,317;    1,521;    1,682
646,542;26732,557;    3,430;   -0,227
647,118;26768,434;    3,703;   -0,955
647,695;27123,130;    0,339;    1,136
648,271;27002,007;   -2,115;    0,500
648,848;27250,884;    0,248;    2,227
649,424;27099,488;    0,976;    1,318
650,000;26825,274;   -0,388;   -1,045
650,577;26657,788;    0,158;   -0,955
651,153;27129,574;   -1,115;    0,955
651,729;28124,451;    0,521;    0,864
652,305;28390,874;    1,339;    2,773
652,881;33034,114;   -1,297;    1,136
653,458;40213,082;    0,249;    0,227
654,034;44315,505;    0,703;    1,591
654,610;45933,200;    0,339;    0,773
655,186;47307,714;    1,612;    3,045
655,762;47025,318;   -1,842;    0,409
656,338;47038,195;    0,703;    0,136
656,913;48083,799;   -0,297;    0,409
657,489;47412,586;    0,249;   -0,318
658,065;47361,644;    0,794;   -1,591
658,641;47860,522;    2,158;   -0,864
659,217;47114,580;    2,067;    0,409
659,792;46520,094;   -1,751;   -0,409
660,368;46834,516;   -0,388;   -0,682
660,944;46527,666;    1,794;    1,227
661,519;41771,816;    0,522;    0,409
662,095;35276,420;   -0,206;    0,591
662,670;30327,116;   -0,206;   -0,136
663,246;29080,175;   -0,660;   -0,409
663,821;28360,506;    0,431;    1,682
664,396;27853,656;    0,613;    1,864
664,972;28070,806;   -0,660;   -0,500
665,547;28451,228;    3,794;    0,136
666,122;28467,742;    1,340;    0,318
666,698;28725,528;    2,431;    0,318
667,273;28108,314;    0,885;    0,136
667,848;28956,555;    0,340;    1,500
668,423;28715,341;    1,795;    2,318
668,998;29276,218;    0,976;   -0,682
669,573;29813,550;    2,067;   -1,500
670,148;29601,972;    1,885;   -0,682
670,723;29487,395;   -0,024;    0,318
671,298;29924,908;   -1,296;    1,045
671,873;30032,331;   -0,296;   -0,136
672,448;29929,026;    1,704;    0,136
673,023;30279,449;    0,249;   -0,227
673,597;30566,780;    2,704;    2,318
674,172;30337,748;    2,431;    0,318
674,747;29878,080;   -0,205;   -1,045
675,321;29725,139;   -0,933;    3,318
675,896;29289,470;    2,158;    1,045
676,471;30258,438;    2,522;    1,591
677,045;30043,679;   -0,296;    0,682
677,620;30041,374;    2,158;    1,136
678,194;30379,615;    0,249;    1,136
678,769;29958,583;    0,886;   -0,318
679,343;30156,187;   -0,023;    1,773
679,917;30016,519;    0,340;    1,955
680,492;30111,760;    0,249;    3,227
681,066;30297,364;    0,613;    0,409
681,640;30323,332;    1,795;   -0,318
682,214;31143,846;    2,340;    0,500
682,788;30611,995;    0,613;   -0,773
683,363;30566,509;    1,977;    1,682
683,937;30230,204;    0,886;   -0,318
684,511;31069,718;   -1,023;   -0,591
685,085;30780,322;   -1,478;    0,318
685,659;30552,108;    1,431;    0,864
686,232;30762,803;    1,159;   -0,318
686,806;30468,953;    2,159;    0,409
687,380;31100,103;   -1,932;    0,591
687,954;31345,525;    2,432;    1,136
688,528;31042,403;    2,613;    1,955
689,101;31851,461;    0,432;    1,045
689,675;31431,339;    0,886;   -0,136
690,249;30730,761;    3,432;    0,409
690,822;31027,547;    1,159;    0,318
691,396;31139,515;    2,068;    1,227
691,969;30598,574;    2,523;    0,136
692,543;31126,088;   -0,568;   -1,955
693,116;30758,510;   -0,659;   -1,409
693,690;30559,751;   -0,296;    0,500
694,263;31125,901;    2,341;    2,955
694,836;31217,141;    2,795;    3,591
695,410;29810,473;    1,159;    1,773
695,983;30274,714;    1,614;    0,591
696,556;30276,409;   -0,750;   -1,045
697,129;30646,741;   -1,114;    1,409
697,703;30223,981;    1,341;    1,955
698,276;30247,313;    1,705;   -0,773
698,849;30053,645;   -1,023;    1,409
699,422;30382,340;    1,250;    0,591
699,995;30108,126;   -0,659;    0,136
700,568;30606,458;   -0,204;    3,045
701,140;30590,880;   -1,841;    1,682
701,713;30336,030;    0,341;    2,409
702,286;30066,634;    0,796;    0,864
702,859;29956,875;    0,614;   -0,591
703,432;29095,661;   -0,841;    0,682
704,004;29666,084;    1,978;    0,318
704,577;29500,870;    1,068;    0,136
705,150;30067,020;    0,887;    2,500
705,722;29819,806;    1,523;   -3,227
706,295;29612,956;    1,432;   -0,591
706,867;29375,833;    0,250;    1,955
707,440;29617,437;   -0,113;   -0,409
708,012;29858,860;   -0,022;    0,591
708,584;29756,282;    2,705;    0,227
709,157;30127,159;    1,160;   -0,591
709,729;29771,218;    1,069;    2,045
710,301;30692,277;   -1,204;    0,045
710,874;30698,518;    0,341;   -0,227
711,446;29479,031;   -0,295;    0,864
712,018;29429,181;   -3,022;    0,500
712,590;29127,422;   -0,204;    1,682
713,162;29676,844;   -0,477;    1,318
713,734;29944,631;    1,796;   -2,045
714,306;29822,508;    0,342;   -0,409
714,878;28488,385;   -0,295;    0,864
715,450;29319,353;   -0,113;    0,864
716,022;29584,139;    2,433;    1,318
716,593;29767,743;    0,978;    0,591
717,165;29653,166;    1,796;   -1,227
717,737;29351,497;    0,796;    0,409
718,309;29047,465;    1,160;   -0,045
718,880;28992,342;   -1,295;   -1,409
719,452;29265,674;    0,887;   -1,591
720,024;28755,733;    1,705;   -0,591
720,595;29300,519;    2,978;    0,955
721,167;28809,124;    1,160;   -2,045
721,738;28319,728;    2,069;   -1,045
722,309;28232,423;    1,251;   -1,227
722,881;28005,027;    2,705;    0,773
723,452;28716,814;    1,251;    2,864
724,023;28904,963;    1,524;    2,682
724,595;28646,295;    2,342;    0,682
725,166;28389,172;    1,524;   -0,409
725,737;28058,777;    1,887;    0,227
726,308;28182,926;    0,797;    0,318
726,879;28576,076;    1,069;    1,227
727,450;28473,771;   -2,022;   -0,045
728,021;28431,285;    1,069;    0,682
728,592;28218,344;    1,160;    0,500
729,163;28570,585;    1,433;   -0,136
729,734;28518,098;    2,160;   -0,227
730,305;28847,248;    0,615;    0,136
730,876;29223,398;    0,888;    2,955
731,447;28874,911;    0,797;    2,682
732,017;29023,334;   -0,840;    1,864
732,588;28577,756;   -0,021;    1,227
733,159;28766,360;    3,615;   -1,045
733,729;28579,328;    1,251;    0,409
734,300;27816,115;    0,160;    0,864
734,870;28237,083;   -1,385;    0,591
735,441;28820,414;    0,888;   -0,591
736,011;28565,473;    1,070;   -1,591
736,582;28488,805;    1,251;    0,045
737,152;27920,773;    0,979;   -2,045
737,722;28358,104;    1,070;   -0,682
738,293;28094,163;   -2,021;    1,318
738,863;27959,859;    1,797;    2,318
739,433;27761,190;    4,524;    0,318
740,003;28374,704;    1,524;   -0,682
740,573;27776,035;    2,252;   -1,591
741,143;27733,821;    3,615;    0,318
741,713;28479,153;    0,252;   -0,500
742,283;28186,030;    1,706;    1,591
742,853;27961,907;    0,524;    1,591
743,423;27416,966;    0,161;    0,045
743,993;27520,025;    1,070;    1,500
744,563;26876,720;    2,524;   -0,864
745,133;26871,597;   -0,112;   -0,864
745,702;27619,565;    2,797;    1,773
746,272;26803,261;    0,434;    0,591
746,842;26529,410;   -0,748;   -0,591
747,411;26941,651;   -0,839;   -0,318
747,981;27136,619;   -0,930;    0,500
748,551;27238,769;   -0,021;   -1,045
749,120;27035,646;   -0,112;   -0,227
749,690;27436,796;    2,161;    2,409
750,259;27750,127;    0,979;    2,955
750,828;27612,459;    4,070;   -1,955
751,398;27931,063;   -0,112;   -0,045
751,967;27388,304;    2,888;    0,409
752,536;27634,999;    1,161;   -0,227
753,105;28086,786;   -1,384;    0,227
753,675;27812,117;   -0,112;    1,773
754,244;27788,631;    0,888;    3,591
754,813;27871,144;    0,979;    1,227
755,382;27408,930;    0,798;    0,955
755,951;27931,807;   -0,112;    3,682
756,520;27509,684;    2,525;    1,864
757,089;28053,562;    1,888;    0,500
757,658;28182,530;    2,434;    1,227
758,227;28162,225;   -1,111;    0,318
758,795;28500,738;   -1,021;    1,136
759,364;28778,797;    0,525;   -0,591
759,933;27748,220;    1,343;   -0,045
760,501;27302,824;    0,252;   -1,318
761,070;27724,610;   -0,293;   -1,409
761,639;28498,942;    1,434;    1,318
762,207;27752,273;    0,889;   -0,955
762,776;27719,151;    2,889;    0,864
763,344;27639,937;    0,071;    0,591
763,913;26712,087;    1,616;    1,409
764,481;27533,964;    1,980;   -0,136
765,049;27278,932;    0,616;    1,409
765,618;27153,809;    1,434;    0,318
766,186;27279,595;    2,434;    0,136
766,754;27414,745;    1,798;    1,864
767,322;26375,531;    1,162;    0,409
767,890;26450,408;    0,525;   -1,773
768,459;26859,194;    2,616;   -0,318
769,027;27019,435;    2,525;    3,409
769,595;25973,312;    2,616;    2,591
770,163;26416,462;    3,344;    2,955
770,730;26141,248;    2,525;   -0,136
771,298;26016,943;    1,162;   -1,409
771,866;26092,547;    0,253;    4,955
772,434;26410,061;    1,162;   -1,864
773,002;26524,665;    2,616;    0,682
773,569;26184,270;    1,071;    1,682
774,137;26054,965;    0,889;   -0,045
774,705;26833,387;   -0,747;   -0,136
775,272;26286,901;    0,253;    0,682
775,840;26070,233;   -0,111;    2,682
776,407;25532,019;   -0,293;    1,955
776,975;25105,169;    1,162;    0,318
777,542;26202,137;    2,162;   -0,045
778,110;26045,468;    0,707;   -0,045
778,677;25696,800;    1,071;   -0,864
779,244;25410,222;   -1,020;    1,045
779,812;25568,099;    0,980;    0,864
780,379;25392,158;    2,435;    1,136
780,946;25661,217;    2,617;   -0,773
781,513;25981,731;   -0,565;    0,318
782,080;25305,790;    1,253;    2,864
782,647;26052,394;    1,708;    3,045
783,214;25644,726;   -0,201;    3,864
783,781;25252,148;    1,708;   -0,682
784,348;25104,752;    0,253;    1,500
784,915;25592,902;   -1,474;    0,318
785,482;25317,779;    2,708;    2,591
786,049;25751,656;    1,071;   -0,591
786,615;25891,533;    1,708;   -0,955
787,182;25662,956;   -3,201;   -0,682
787,749;25344,833;   -2,201;    1,409
788,315;24583,347;    0,253;   -0,409
788,882;24947,678;    0,981;   -1,227
789,448;25620,919;    1,435;   -0,955
790,015;25623,160;    1,799;    3,227
790,581;25194,946;    0,708;    0,227
791,148;25078,186;    1,344;    1,045
791,714;25274,154;   -1,019;    3,136
792,280;24962,486;    3,708;    1,591
792,847;24524,545;   -0,928;    2,500
793,413;25130,695;   -0,110;   -0,318
793,979;24622,663;    1,526;   -1,318
794,545;24689,267;    2,981;    2,682
795,111;24056,599;    2,435;    1,318
795,678;24238,021;    3,526;   -1,682
796,244;23907,353;    2,799;    0,136
796,810;24479,866;    0,799;    0,773
797,375;24224,289;   -0,292;   -2,136
797,941;24268,802;   -1,110;    0,591
798,507;24346,134;    0,254;   -0,955
799,073;23888,375;    2,708;    0,591
799,639;23973,525;    1,435;    3,136
800,205;24019,493;   -1,565;    2,682
800,770;23559,642;    1,345;    1,773
801,336;23624,701;    2,981;   -0,955
801,901;23292,760;    6,072;    3,136
802,467;23878,637;    0,526;    2,045
803,033;23170,787;   -0,019;    0,864
803,598;23386,755;    1,072;   -1,045
804,163;23441,632;    0,708;   -0,318
804,729;23365,327;   -0,110;    1,136
805,294;23766,114;    1,072;    2,227
805,859;23555,263;    0,890;   -0,409
806,425;23023,504;    3,890;    2,682
806,990;22713,108;    1,890;    4,318
807,555;23234,349;   -0,110;    2,591
808,120;23097,408;   -1,292;   -0,409
808,685;23113,376;    1,072;   -2,500
809,250;22621,799;    2,072;   -0,500
809,815;22959,221;   -0,201;    0,682
810,380;23471,098;    0,981;    1,591
810,945;23984,339;    2,890;    2,045
811,510;23181,671;   -0,200;    1,591
812,075;22879,548;    2,800;   -1,409
812,640;22884,970;    3,709;    1,409
813,204;22919,120;    2,163;   -0,227
813,769;23419,361;    0,254;   -0,045
814,334;22836,874;    0,527;    0,864
814,898;22889,024;    1,981;    0,591
815,463;22754,810;    0,981;   -0,773
816,027;22754,869;    1,345;   -2,318
816,592;22876,473;    2,163;   -2,045
817,156;22289,441;   -2,200;    1,136
817,721;22113,318;    0,982;    2,318
818,285;22087,832;    0,618;    1,500
818,849;22767,073;   -0,018;    1,682
819,414;22676,586;    0,073;    2,955
819,978;22207,190;   -0,291;    1,773
820,542;22831,340;    2,891;    0,500
821,106;22528,672;    2,800;    0,682
821,670;22608,549;    2,709;    2,591
822,234;22299,790;    1,073;    1,409
822,798;21714,394;   -0,836;    0,500
823,362;21679,180;    1,527;    4,227
823,926;20942,603;   -0,018;    1,136
824,490;21171,662;    3,527;   -0,682
825,054;21664,084;    2,527;   -1,136
825,618;21262,961;   -1,200;   -1,500
826,181;21209,111;    0,982;   -1,318
826,745;21122,624;   -0,745;   -1,045
827,309;21456,956;    2,255;    1,318
827,872;20867,651;    0,527;    0,955
828,436;21857,710;    1,982;   -0,773
828,999;21947,133;    2,436;    1,227
829,563;20772,555;   -0,654;    1,136
830,126;20548,887;   -0,018;   -0,591
830,690;20529,491;    0,709;    2,864
831,253;20092,278;   -0,473;    2,227
831,816;20217,882;   -0,018;    0,500
832,380;20146,486;    1,164;    0,864
832,943;20343,091;    3,073;   -0,500
833,506;19875,513;    0,255;   -1,227
834,069;20665,754;    2,164;   -0,955
834,632;20710,267;   -2,200;    1,318
835,195;20582,963;    1,346;    0,955
835,758;19786,112;    0,709;    1,955
836,321;19639,444;    1,073;   -1,045
836,884;19726,139;   -1,291;   -0,955
837,447;19737,744;    0,528;    1,773
838,010;20003,166;    1,800;    3,227
838,573;20331,316;    0,528;    0,773
839,135;20244,375;   -0,109;   -0,955
839,698;19671,343;    2,528;    0,409
840,261;19191,856;    0,255;   -0,227
840,823;19050,461;   -0,927;    0,864
841,386;19284,429;   -0,018;   -2,409
841,948;19186,215;    0,255;    1,773
842,511;18926,456;    0,255;    1,682
843,073;19079,969;    2,982;    0,227
843,636;18870,482;    0,619;   -0,227
844,198;18794,541;    1,255;    0,591
844,760;18927,146;    0,619;    1,955
845,322;18561,114;    0,164;    1,136
845,885;18975,809;   -0,290;    0,591
846,447;19408,595;    0,710;    0,227
847,009;18932,836;    3,983;   -0,682
847,571;19312,440;    1,346;   -2,045
848,133;19410,681;   -0,199;   -1,864
848,695;19251,831;    2,346;    1,409
849,257;18764,890;    1,346;   -1,682
849,819;18925,221;    2,983;   -0,409
850,381;18971,462;    1,801;   -0,864
850,942;19366,794;    1,892;   -0,591
851,504;19243,671;    0,983;    0,227
852,066;19322,457;    1,619;   -1,591
852,628;18845,425;    0,165;    1,955
853,189;18394,575;    0,256;    2,682
853,751;18531,270;   -0,654;    1,409
854,312;18329,329;    1,256;   -1,682
854,874;18883,479;   -0,108;   -0,773
855,435;19344,174;    0,528;   -1,682
855,997;19461,324;    3,983;   -0,136
856,558;18769,655;    0,801;    1,773
857,119;18901,441;   -0,744;    2,864
857,681;18570,591;   -0,108;    0,318
858,242;18613,377;    1,347;   -2,136
858,803;19055,709;    1,074;   -0,773
859,364;19659,677;    0,892;   -4,773
859,925;18992,645;   -0,290;   -0,955
860,486;18871,340;    0,529;   -0,955
861,047;18597,945;    0,165;   -1,227
861,608;18412,731;    0,165;   -0,773
862,169;18561,699;   -0,562;   -0,045
862,730;18360,576;   -0,290;    1,409
863,291;18600,362;    0,438;   -0,500
863,852;18932,966;   -0,926;    1,955
864,412;18364,571;   -1,835;   -0,864
864,973;16936,357;    1,892;    0,500
865,534;16783,234;    2,074;    0,227
866,094;18296,748;    2,620;    0,227
866,655;17962,170;    4,711;    3,318
867,215;18237,593;    0,074;    0,136
867,776;18134,833;   -1,199;   -0,136
868,336;18209,620;    1,529;    0,136
868,897;17647,588;    3,438;    1,682
869,457;17421,465;    3,256;    0,318
870,017;17645,796;    2,438;   -1,227
870,578;18178,673;    1,893;    0,773
871,138;17804,550;    2,620;   -0,955
871,698;17360,973;   -0,562;   -1,318
872,258;17191,214;    0,711;   -2,864
872,818;17568,636;    2,347;    0,045
873,378;17526,059;   -2,198;    1,045
873,938;17096,027;    4,984;    0,500
874,498;17431,722;    1,256;   -1,955
875,058;17249,599;    4,347;    1,773
875,618;17149,476;    1,438;   -2,682
876,177;17099,535;   -0,471;    0,136
876,737;16632,685;   -0,289;    1,955
877,297;16650,926;    2,711;    1,955
877,856;16702,166;    2,529;    0,318
878,416;16648,134;    2,438;   -0,136
878,976;16861,920;    3,438;    0,409
879,535;17061,343;    4,529;    3,136
880,095;16786,856;    1,347;    0,045
880,654;16903,006;    0,347;    1,318
881,213;17040,065;    2,347;    1,500
881,773;16681,579;    1,984;    2,682
882,332;17002,001;    6,075;    5,136
882,891;16886,242;    0,711;    2,136
883,451;17310,210;   -2,016;    1,682
884,010;16756,360;   -1,107;   -0,409
884,569;16830,055;   -2,289;   -0,045
885,128;16933,841;   -0,743;   -1,864
885,687;17040,264;   -0,743;    0,682
886,246;16733,504;    2,620;    2,136
886,805;16505,472;    1,620;    2,045
887,364;16810,349;    1,166;   -0,500
887,922;17159,772;   -0,016;    0,045
888,481;16638,194;    1,530;    0,591
889,040;16928,981;    3,711;    2,136
889,599;17638,858;    2,166;    1,409
890,157;17745,735;    2,166;    2,409
890,716;17370,976;    2,166;    0,227
891,274;17187,671;    0,075;   -1,136
891,833;17588,912;    1,166;    0,864
892,391;17426,152;    1,802;    0,500
892,950;17542,302;    0,166;   -0,773
893,508;17860,543;    0,984;   -0,409
894,067;17240,511;   -0,379;    0,136
894,625;17192,479;   -1,016;   -1,500
895,183;17391,901;   -0,198;   -0,682
895,741;17287,324;    2,257;   -1,773
896,299;17148,110;    1,621;   -2,409
896,858;17334,260;    1,530;   -1,591
897,416;17426,501;    0,166;   -1,318
897,974;17169,014;   -2,197;    0,318
898,532;17305,618;    6,530;    2,682
899,089;17205,859;    0,621;   -0,682
899,647;17255,009;    0,530;    1,318
900,205;16991,704;    0,257;    1,045
900,763;17229,036;    2,166;    0,227
901,321;17221,004;    3,530;   -1,409
901,878;16602,790;    3,257;   -0,773
902,436;16450,849;    0,257;    1,318
902,994;16863,180;    6,712;    3,682
903,551;16282,785;    1,439;    0,409
904,109;16692,480;    1,530;   -1,409
904,666;16298,812;    1,439;    1,045
905,224;16099,598;    3,894;   -0,409
905,781;15830,202;   -0,470;   -0,318
906,338;15912,716;    0,167;    1,045
906,895;15863,047;    1,894;    2,045
907,453;15798,197;    2,348;    1,136
908,010;15815,438;    3,348;    0,409
908,567;15454,315;   -0,561;    0,591
909,124;14989,647;    2,439;   -1,500
909,681;15057,342;   -1,288;    0,682
910,238;15214,946;   -0,106;   -1,318
910,795;15495,641;   -1,561;   -1,136
911,352;15143,551;   -0,379;   -2,682
911,909;14543,914;    2,803;   -0,864
912,466;15026,641;    1,985;    1,500
913,022;14581,096;   -0,924;    0,500
913,579;14942,823;   -0,470;    2,045
914,136;14631,914;   -2,561;    0,955
914,692;14998,823;    1,530;   -1,227
915,249;14533,278;    0,530;    0,409
915,806;14738,823;    1,803;    1,955
916,362;14493,187;    0,894;    1,864
916,918;14023,460;    2,439;    1,045
917,475;14027,278;    1,621;    0,955
918,031;14137,823;    0,076;   -0,045
918,587;13561,732;    0,621;   -0,318
919,144;13808,641;   -0,379;    0,227
919,700;14138,460;    0,167;    0,773
920,256;13701,187;    0,439;    0,045
920,812;13313,096;    1,439;   -1,045
921,368;13284,005;    1,348;   -1,045
921,924;12941,187;    0,439;   -0,136
922,480;12516,005;    0,076;    1,227
923,036;13153,551;   -0,652;    1,955
923,592;13077,914;    0,621;    0,318
924,148;13013,732;    1,894;   -0,955
924,704;12368,096;    0,258;   -0,409
925,259;12637,732;   -0,561;    0,591
925,815;12348,460;    3,803;    0,500
926,371;11885,460;    3,530;    1,409
926,926;11768,641;    1,621;    0,591
927,482;11391,823;    1,621;    0,773
928,037;11286,278;   -0,833;    2,045
928,593;11568,641;    0,258;    1,045
929,148;11380,005;    1,167;   -1,500
929,704;10937,914;    2,439;   -0,500
930,259;11101,278;    0,894;   -0,136
930,814;10203,460;    1,803;    1,955
931,369; 9897,005;    0,258;   -0,773
931,925; 9779,096;   -1,924;    0,136
932,480; 9631,914;    3,076;   -2,591
933,035; 9535,823;    3,985;   -0,318
933,590; 9271,551;   -1,742;   -1,773
934,145; 8954,096;   -1,288;   -0,318
934,700; 9325,641;    0,348;   -0,591
935,255; 9098,641;    4,803;    0,045
935,809; 8352,369;    6,258;    0,864
936,364; 7503,278;    2,167;   -0,136
936,919; 7467,005;    2,348;   -1,773
937,474; 7371,641;    1,348;    0,136
938,028; 7140,914;    3,076;    1,136
938,583; 6569,187;    6,348;    4,682
939,138; 6876,551;    0,167;    2,136
939,692; 6350,096;   -1,015;   -1,136
940,247; 5996,187;    1,167;   -1,045
940,801; 5560,823;    0,621;    0,227
941,355; 5461,005;    0,439;    2,591
941,910; 5128,732;    0,712;   -2,136
942,464; 5218,914;    2,712;   -0,318
943,018; 4988,369;    3,258;   -0,227
943,572; 4957,278;    2,803;   -0,682
944,126; 4361,460;   -0,924;   -0,409
944,681; 4243,914;    0,712;    0,227
945,235; 4249,551;    2,167;   -0,591
945,789; 4187,823;    1,258;   -1,864
946,342; 4255,914;   -0,561;   -0,591
946,896; 4097,187;    0,348;    0,955
947,450; 3862,823;   -0,561;   -0,227
948,004; 4035,096;    1,076;   -0,045
948,558; 4042,732;    1,258;   -0,864
949,111; 3971,732;   -1,197;   -0,318
949,665; 3996,914;   -0,106;   -0,682
950,219; 3864,460;    0,621;   -1,045
950,772; 3945,551;    0,258;    1,864
951,326; 3882,551;   -1,106;   -0,955
951,879; 3967,460;    1,076;   -2,318
952,433; 3969,732;    1,348;    2,227
952,986; 3827,551;    0,348;    0,682
953,539; 3754,005;    1,530;    0,591
954,093; 3706,460;    0,985;   -1,318
954,646; 3822,187;   -0,288;    1,318
955,199; 3651,641;    1,258;   -0,500
955,752; 3531,732;    1,985;    1,773
956,305; 3479,732;    0,894;    2,955
956,858; 3643,278;    0,621;   -0,318
957,411; 3853,278;    3,621;    2,136
957,964; 3657,460;    2,076;    2,136
958,517; 3642,278;    0,985;    3,136
959,070; 3481,732;   -1,197;    1,955
959,623; 3551,823;    1,076;    1,500
960,176; 3329,823;    0,712;    2,045
960,728; 3285,551;    1,712;    0,773
961,281; 3362,005;    2,258;    0,500
961,834; 3376,823;   -0,833;    0,864
962,386; 3305,187;    1,258;    1,045
962,939; 3220,732;    3,439;   -0,318
963,491; 3368,460;    2,621;    1,136
964,043; 3247,369;    0,076;    2,409
964,596; 3359,551;    1,712;    2,227
965,148; 3210,096;   -0,379;    1,773
965,700; 3148,005;   -0,015;   -0,227
966,253; 3300,641;   -0,833;    0,318
966,805; 3128,005;    1,894;    0,773
967,357; 3161,460;    0,439;   -1,500
967,909; 3113,096;    1,167;   -1,227
968,461; 3245,914;    0,894;    3,136
969,013; 3167,005;   -1,561;   -0,864
969,565; 3247,005;    1,803;   -1,136
970,117; 3311,278;    3,803;    1,045
970,669; 3127,551;    3,258;   -0,136
971,220; 3025,641;    2,167;   -1,500
971,772; 2931,278;    1,348;   -0,318
972,324; 3044,278;   -1,197;   -0,500
972,876; 2982,278;    0,167;   -0,045
973,427; 3122,460;   -1,197;   -1,045
973,979; 3104,005;    0,076;   -2,500
974,530; 3132,187;    0,803;    1,318
975,082; 3137,005;    2,167;    1,682
975,633; 3033,914;    2,894;    1,682
976,184; 3190,369;    2,076;    0,773
976,736; 2969,914;    0,348;    0,227
977,287; 2751,551;    0,258;   -0,500
977,838; 2957,732;   -0,924;   -0,318
978,389; 2999,551;    0,803;   -0,500
978,940; 2881,187;    1,258;   -0,409
979,491; 2903,187;    2,258;   -0,500
980,042; 2844,641;   -0,652;    3,045
980,593; 2920,187;    1,894;    0,227
981,144; 2966,641;    3,530;   -0,500
981,695; 2918,187;   -0,470;    1,500
982,246; 2886,369;   -1,833;    1,045
982,797; 3063,823;   -0,561;    0,682
983,347; 3189,914;    2,167;    0,591
983,898; 3318,096;    4,167;    0,409
984,449; 3148,096;    2,530;    0,773
984,999; 3077,369;    1,894;   -1,136
985,550; 2818,460;    3,167;   -0,318
986,100; 2889,278;    0,712;   -0,318
986,651; 2916,732;    0,258;    0,045
987,201; 2901,551;    0,894;   -0,591
987,751; 2986,187;   -0,288;    2,864
988,302; 2955,551;   -0,379;    1,500
988,852; 2972,369;    1,985;   -1,136
989,402; 3007,369;    0,985;    0,682
989,952; 2925,914;    1,621;    0,864
990,502; 3025,460;    1,076;    0,682
991,052; 2990,369;   -0,106;    0,045
991,602; 2848,187;    1,167;    1,318
992,152; 2857,641;    2,803;    0,682
992,702; 2835,005;    1,167;   -0,045
993,252; 2754,732;    0,076;   -0,500
993,802; 2841,369;    1,167;    1,318
994,352; 3093,278;   -0,742;    1,136
994,901; 3185,823;    1,076;    3,227
995,451; 3102,096;   -1,197;    0,318
996,000; 3198,823;    1,076;    0,318
996,550; 2871,460;    2,894;    0,227
997,100; 2904,460;   -0,561;   -0,045
997,649; 3204,369;   -0,197;    0,955
998,198; 2814,732;   -0,288;   -1,500
998,748; 2998,823;    0,348;   -2,318
999,297; 2903,823;    0,985;   -0,409
999,846; 2978,823;    1,894;   -0,773
1000,395; 3015,823;    1,530;    0,500
1000,945; 2967,914;    1,076;   -0,773
1001,494; 3038,096;    0,167;    0,682
1002,043; 3031,369;    0,712;    0,864
1002,592; 2874,551;    3,439;    1,955
1003,141; 3027,823;    2,439;   -0,682
1003,690; 2863,005;    1,258;    0,500
1004,238; 2935,641;   -0,106;   -0,045
1004,787; 2584,823;   -1,288;    1,227
1005,336; 2806,823;    1,621;    0,682
1005,885; 2950,278;   -0,197;   -2,773
1006,433; 3107,096;   -0,470;    0,955
1006,982; 3165,641;    2,167;    1,682
1007,531; 3080,460;    2,712;   -0,227
1008,079; 3034,551;    0,258;    0,500
1008,627; 3194,187;    1,621;    0,409
1009,176; 2912,551;    0,076;   -1,955
1009,724; 2946,460;   -2,742;    0,864
1010,273; 3001,460;    1,076;    0,500
1010,821; 3130,823;    1,076;    1,409
1011,369; 2867,278;    0,076;    1,318
1011,917; 2854,641;   -0,833;   -0,591
1012,465; 3141,187;    2,530;   -1,591
1013,013; 3237,005;    0,439;   -1,682
1013,561; 3100,187;   -1,288;   -0,773
1014,109; 3165,369;   -0,833;    1,682
1014,657; 3024,551;    1,348;    0,591
1015,205; 3158,914;    0,894;   -0,955
1015,753; 3194,823;    0,258;   -1,409
1016,301; 3214,278;    2,621;    3,045
1016,848; 3238,823;    2,167;    0,409
1017,396; 3261,369;    1,621;    0,045
1017,944; 3377,732;    2,621;    1,864
1018,491; 3156,005;   -0,197;    1,409
1019,039; 3318,005;   -0,652;    0,591
1019,586; 3232,732;    0,076;    1,682
1020,134; 3329,732;    0,712;    1,500
1020,681; 3328,187;    2,894;   -1,136
1021,228; 3344,005;   -0,561;   -2,227
1021,776; 3184,641;   -0,833;   -1,136
1022,323; 3389,096;    0,803;    0,773
1022,870; 3342,732;   -0,470;   -0,045
1023,417; 3235,732;    2,076;    1,864
1023,964; 3385,914;    0,621;    1,227
1024,511; 3210,096;   -0,652;    0,773
1025,058; 3003,641;    0,439;   -0,045
1025,605; 3056,551;   -1,742;    3,136
1026,152; 3272,460;   -0,106;   -0,591
1026,699; 2998,641;    0,167;    1,318
1027,245; 3175,187;    2,439;    0,318
1027,792; 3401,641;    0,712;    1,409
1028,339; 3268,278;    4,076;   -0,045
1028,885; 3114,914;    3,621;   -0,227
1029,432; 3062,641;   -0,106;    0,227
1029,978; 3120,823;    1,348;   -1,591
1030,525; 3016,732;    1,621;    0,409
1031,071; 3276,005;    0,348;    1,136
1031,618; 3367,732;    1,258;    1,682
1032,164; 3157,732;    2,076;    3,045
1032,710; 3213,823;    0,076;   -1,500
1033,256; 3139,732;    0,712;   -0,136
1033,803; 3111,460;   -0,288;    1,500
1034,349; 2833,187;    1,803;    0,136
1034,895; 2994,005;    2,621;   -0,318
1035,441; 2980,641;    0,439;    0,318
1035,987; 2978,096;   -2,288;   -0,682
1036,533; 2970,278;   -0,197;   -0,955
1037,078; 3162,641;    4,712;    1,682
1037,624; 2987,278;    2,439;   -0,955
1038,170; 3039,914;    1,712;   -0,318
1038,716; 2921,187;    2,167;   -0,409
1039,261; 2834,460;    2,167;   -0,773
1039,807; 2771,914;   -0,015;    3,409
1040,352; 2842,823;   -1,288;   -0,318
1040,898; 2897,551;    0,167;   -0,682
1041,443; 2808,278;    0,803;   -2,591
1041,989; 2823,005;    3,621;    1,591
1042,534; 2719,369;    0,985;    2,591
1043,079; 2836,732;    1,985;    0,955
1043,625; 2598,460;    0,258;    0,500
1044,170; 2659,369;    2,439;    1,045
1044,715; 2918,096;    0,167;    0,955
1045,260; 2727,369;   -0,833;   -0,955
1045,805; 2765,732;    0,258;   -0,591
1046,350; 2720,187;    0,530;   -0,409
1046,895; 2655,641;    0,803;    1,591
1047,440; 2619,005;    1,530;    0,409
1047,985; 2528,823;   -1,197;   -0,955
1048,530; 2450,551;    1,348;    1,227
1049,074; 2500,823;    2,803;    0,318
1049,619; 2498,823;   -0,924;    1,955
1050,164; 2302,641;    1,076;    0,227
1050,708; 2341,914;    2,621;    0,045
1051,253; 2704,732;    3,258;   -2,227
1051,797; 2423,187;   -0,197;   -1,318
1052,342; 2441,732;    1,348;    1,045
1052,886; 2412,641;    1,803;   -1,409
1053,430; 2299,096;    2,167;    0,136
1053,975; 2314,005;    0,894;   -0,318
1054,519; 2296,187;    1,803;    3,227
1055,063; 2300,005;    3,621;    1,318
1055,607; 2187,460;    1,348;    0,227
1056,151; 2220,460;    0,530;    1,682
1056,695; 2142,732;   -1,833;   -1,136
1057,239; 2222,641;   -1,197;   -0,682
1057,783; 2217,005;    2,258;   -1,500
1058,327; 2147,732;    3,076;    1,409
1058,871; 2388,460;    3,985;    1,318
1059,415; 2092,005;   -0,561;   -0,045
1059,958; 2331,460;    2,985;    2,591
1060,502; 2063,005;    1,348;   -0,773
1061,046; 1982,732;    1,712;   -0,955
1061,589; 1946,187;    2,803;   -1,136
1062,133; 1821,823;    0,985;    1,864
1062,676; 1763,005;    1,439;    0,864
1063,220; 1787,005;    0,985;    0,500
1063,763; 1800,732;    2,985;    1,136
1064,306; 1868,551;    0,985;    1,864
1064,849; 1757,005;    2,076;    0,591
1065,393; 1773,823;    2,894;   -1,500
1065,936; 1899,187;    2,530;   -0,409
1066,479; 1789,914;    2,621;    1,318
1067,022; 1805,460;    1,894;   -0,227
1067,565; 1707,732;   -1,197;   -1,318
1068,108; 1721,096;    1,258;   -0,591
1068,651; 1688,460;   -2,470;    1,409
1069,194; 1617,823;   -1,106;   -1,682
1069,736; 1627,278;    3,803;    0,955
1070,279; 1622,732;   -1,652;   -0,500
1070,822; 1661,096;    1,530;   -0,318
1071,364; 1729,187;    0,530;    1,318
1071,907; 1559,460;    0,348;    3,227
1072,450; 1479,823;    0,258;   -0,045
1072,992; 1469,278;   -0,561;    3,136
1073,535; 1589,005;    0,167;    2,136
1074,077; 1391,551;    2,985;    2,045
1074,619; 1353,005;    0,985;    0,591
1075,161; 1385,278;   -0,561;    1,500
1075,704; 1563,369;    0,258;    1,227
1076,246; 1373,460;    1,530;    0,682
1076,788; 1306,096;   -1,015;    1,773
1077,330; 1395,914;   -2,106;    2,136
1077,872; 1343,005;   -1,924;    0,955
1078,414; 1562,369;    3,712;    0,773
1078,956; 1300,823;    0,167;   -0,227
1079,498; 1546,096;    0,439;    0,318
1080,040; 1251,096;    0,985;   -1,318
1080,581; 1216,914;    0,621;   -0,318
1081,123; 1139,460;   -0,106;   -0,773
1081,665; 1180,460;    3,803;   -0,955
1082,206; 1454,732;    3,258;   -0,500
1082,748; 1330,096;    3,258;    2,045
1083,289; 1226,641;    0,167;    1,318
1083,831; 1137,732;    0,258;    0,227
1084,372; 1140,914;    0,894;    0,591
1084,913; 1134,551;    3,348;    0,864
1085,455; 1123,823;    1,530;   -2,045
1085,996; 1092,187;    0,530;    0,136
1086,537; 1118,096;    0,985;    0,864
1087,078; 1164,823;    0,439;   -2,136
1087,619; 1190,096;   -1,652;    0,227
1088,160; 1096,732;    1,439;    1,318
1088,701; 1104,641;   -0,742;    0,682
1089,242; 1042,369;   -0,561;   -2,227
1089,783; 1122,369;   -0,561;    1,409
1090,324; 1100,460;   -0,833;    0,682
1090,865;  975,369;   -1,924;   -0,409
1091,405;  962,005;   -0,561;    2,227
1091,946;  995,005;   -0,197;   -0,955
1092,487;  921,551;   -1,288;   -1,409
1093,027; 1076,914;    1,803;   -1,500
1093,568;  929,096;    2,258;    1,227
1094,108; 1007,005;    0,621;    1,773
1094,649;  954,096;   -0,470;    0,136
1095,189;  891,732;    1,167;   -0,682
1095,729;  833,369;    0,712;    0,955
1096,269;  856,914;    1,258;   -0,955
1096,810; 1158,732;   -0,197;    0,500
1097,350;  995,460;   -0,561;   -0,773
1097,890;  892,460;    2,985;    1,227
1098,430; 1132,369;    4,985;    2,864
1098,970; 1014,641;    1,894;    1,682
1099,510;  881,823;   -0,833;   -2,318
1100,050;  804,460;    0,258;   -1,591
1100,589;  784,551;    0,076;   -0,318
1101,129;  890,732;    0,894;   -0,955
1101,669; 1026,732;    2,803;    2,136
1102,209;  860,732;    1,530;    2,227
1102,748;  822,369;    3,439;    0,955
1103,288;  810,551;    0,712;   -1,227
1103,827;  833,278;    3,530;   -2,227
1104,367;  724,187;    1,712;   -2,409
1104,906;  695,823;   -1,015;   -1,136
1105,445;  761,005;    0,985;   -1,136
1105,985;  694,096;   -0,652;    1,500
1106,524;  737,551;    1,530;   -0,682
1107,063;  717,641;    1,167;    1,409
1107,602;  695,187;    1,894;   -1,500
1108,141;  617,278;    1,621;    1,500
1108,680;  708,551;    3,985;   -0,591
1109,219;  663,732;    0,167;   -0,500
1109,758;  664,278;    4,167;    0,682
1110,297;  638,005;   -1,106;   -0,682
1110,836;  585,096;    1,439;    0,955
1111,375;  731,914;    0,348;    0,409
1111,913;  735,823;    0,985;    0,773
1112,452;  687,823;    0,894;    0,136
1112,991;  574,914;    1,076;    1,955
1113,529;  532,369;    0,167;   -0,045
1114,068;  593,096;    0,439;    2,955
1114,606;  501,732;   -0,561;   -0,955
1115,144;  651,460;    1,530;    1,045
1115,683;  597,278;    1,985;    0,318
1116,221;  656,005;    2,076;   -0,864
1116,759;  558,096;    1,621;   -0,864
1117,297;  728,732;    1,621;    1,864
1117,836;  547,551;    1,985;   -1,227
1118,374;  557,641;    0,258;   -0,682
1118,912;  515,641;    0,439;    2,682
1119,450;  491,551;    0,985;    0,864
1119,988;  537,551;    3,348;    2,136
1120,525;  991,278;    7,258;    3,318
1121,063;  696,096;    0,530;    1,864
1121,601;  504,096;    1,076;   -1,227
1122,139;  466,914;    1,076;   -2,045
1122,676;  655,732;   -1,652;    2,773
1123,214;  597,460;    0,712;    4,409
1123,751;  410,823;    0,621;    2,227
1124,289;  540,278;    0,894;   -0,409
1124,826;  417,914;   -0,379;    0,227
1125,364;  350,005;    0,712;   -0,955
1125,901;  521,823;    6,258;    1,227
1126,438;  619,369;    3,530;    0,955
1126,975;  370,914;    2,985;   -0,773
1127,513;  427,460;    2,621;    2,136
1128,050;  344,005;   -0,561;   -0,682
1128,587;  429,460;    1,348;   -0,227
1129,124;  468,096;   -0,015;    1,318
1129,661;  349,460;   -1,924;    0,227
1130,198;  499,187;    2,439;    0,773
1130,734;  448,914;   -0,379;    1,409
1131,271;  317,732;   -1,197;    0,864
1131,808;  478,369;    1,621;    3,045
1132,345;  357,187;    4,530;    0,318
1132,881;  249,460;   -0,561;   -1,864
1133,418;  369,551;    0,348;   -1,136
1133,954;  310,278;    0,712;   -2,682
1134,491;  368,460;    1,712;   -0,773
1135,027;  293,369;    2,167;    0,864
1135,564;  370,460;    1,439;    2,955
1136,100;  352,005;   -0,742;    2,136
1136,636;  257,369;   -1,015;   -1,045
1137,172;  327,641;    0,894;   -1,045
1137,708;  264,369;   -1,561;   -1,045
1138,245;  270,732;    0,803;   -1,227
1138,781;  224,460;    1,803;   -3,318
1139,317;  292,005;    1,894;   -1,409
1139,852;  282,823;    3,076;    0,136
1140,388;  389,641;    2,076;   -0,409
1140,924;  269,914;    1,076;   -2,227
1141,460;  215,732;   -0,288;    0,136
1141,996;  149,460;   -0,652;    2,682
1142,531;  188,096;    1,076;    3,318
1143,067;  395,278;    1,167;    1,045
1143,602;  458,005;    3,439;   -0,318
1144,138;  310,005;    0,803;    1,045
1144,673;  183,096;    1,621;    1,409
1145,209;  247,187;    2,894;   -0,318
1145,744;  169,096;    0,803;    0,864
1146,279;  292,641;    1,530;   -0,136
1146,815;  223,551;    1,530;   -2,682
1147,350;  256,096;   -0,924;    0,045
1147,885;  171,914;   -1,924;   -1,318
1148,420;  173,460;    2,439;    0,773
1148,955;  155,278;   -1,470;    1,864
1149,490;  178,641;   -1,106;   -1,591
1150,025;  162,369;   -1,106;   -1,773
1150,560;  265,823;   -0,288;   -0,955
1151,094;  230,096;    0,258;   -0,591
1151,629;  239,460;   -3,742;    0,864
1152,164;  174,096;   -1,288;    1,318
1152,698;  144,187;    1,258;   -0,136
1153,233;  101,551;   -1,379;   -0,682
1153,767;  141,096;   -0,288;   -2,318
1154,302;  187,551;   -0,379;    1,773
1154,836;  186,278;    0,803;   -2,136
1155,371;  229,278;    2,258;    3,682
1155,905;  192,096;    1,985;    1,682
1156,439;  158,278;    0,530;   -0,500
1156,973;  191,369;    0,439;    0,318
1157,507;  130,369;   -1,742;    0,682
1158,042;  156,187;   -0,652;    1,045
1158,576;  202,732;   -0,561;    1,773
1159,110;  186,187;    0,076;    2,409
1159,643;  162,914;   -2,470;   -0,045
1160,177;  107,823;   -2,015;    1,500

