
Integration time [ms]:   0,050
Averaging Nr. [scans]: 11
Smoothing Nr. [pixels]: 0
Data measured with spectrometer [name]: 7318044SP
Wave   ;Sample   ;Dark     ;Reference
[nm]   ;[counts] ;[counts] ;[counts] 

186,757;  -35,600;   38,161;    1,318
187,357;  -13,701;   26,706;    0,955
187,958;  -34,585;   17,252;   -1,591
188,558;   10,733;   12,979;   -1,227
189,159;  -11,838;   10,070;   -4,500
189,759;  -28,979;    5,797;   -3,591
190,360;  -33,757;    6,797;   -2,136
190,960;   -4,075;    5,706;   -4,136
191,560;    7,931;    2,614;   -6,591
192,161;  203,058;    5,885;   -3,500
192,761;   65,695;    5,520;   -3,227
193,361;   15,261;    3,065;   -3,773
193,962;   50,235;    1,612;   -2,682
194,562;   -7,306;   -0,114;   -3,955
195,162;    3,890;   -0,567;   -2,227
195,762;  109,910;    2,433;   -0,045
196,362;   63,274;    1,706;   -2,500
196,963;  -14,979;    1,706;   -0,864
197,563;   28,930;    1,252;   -0,955
198,163;   -5,504;   -0,111;   -0,682
198,763;    3,001;   -0,020;   -0,500
199,363;   40,738;    3,616;   -0,500
199,963;   10,950;    2,162;    0,409
200,563;    8,364;    6,344;   -1,409
201,163;   -1,813;    5,435;   -0,227
201,763;   25,112;    1,435;    0,318
202,363;  -12,606;    0,980;    1,500
202,963;   24,071;    1,526;    1,045
203,563;   68,303;    0,344;    0,500
204,162;   10,637;    1,889;   -1,864
204,762;    3,379;    2,071;    0,591
205,362;  -15,368;    0,708;    1,955
205,962;   12,627;    3,435;    1,955
206,562;    6,985;    1,889;    2,318
207,161;  -11,490;    1,708;    0,318
207,761;   51,748;    4,435;    2,409
208,361;   -6,060;    1,889;    1,409
208,960;   12,344;    2,889;    1,500
209,560;    7,788;    0,435;    1,591
210,160;   17,485;    5,071;    1,864
210,759;    3,824;    0,708;    1,227
211,359;   -3,803;   -0,474;    1,045
211,958;   92,349;    3,526;    2,045
212,558;   91,076;    0,799;    1,864
213,157;   27,727;   -0,929;    1,500
213,757;  156,561;    5,617;   -0,227
214,356;   49,263;    1,708;   -0,409
214,956;  129,970;    3,526;    0,409
215,555;   33,818;    0,617;    2,136
216,154;    2,308;   -0,292;   -0,591
216,754;    4,914;    1,253;    0,773
217,353;   15,743;   -0,383;   -1,045
217,952;  -30,717;    2,072;    0,318
218,552;   24,298;    0,254;   -0,773
219,151;    1,151;   -1,110;    0,955
219,750;   -3,581;    0,890;   -0,227
220,349;   -7,753;   -2,292;    1,045
220,948;   35,460;    1,163;    1,136
221,548;  -10,793;    0,617;    1,227
222,147;    0,530;   -1,292;   -0,409
222,746;   67,414;    1,254;   -0,955
223,345;   23,126;   -1,019;    0,500
223,944;   18,894;    1,163;    0,773
224,543;   18,333;    4,072;   -1,409
225,142;    8,394;    1,345;    0,136
225,741;   18,783;    1,163;    1,045
226,340;   16,803;    1,254;   -0,955
226,939;   52,591;    2,708;   -0,136
227,538;    2,955;    1,163;   -0,773
228,137;   63,798;    0,435;    0,864
228,735;   37,328;    0,435;    1,227
229,334;  -23,066;   -0,474;   -0,227
229,933;   66,763;    0,799;    0,591
230,532;   61,763;   -1,201;   -0,409
231,131;   95,768;    1,253;    0,318
231,729;   34,960;    1,163;   -2,318
232,328;    0,424;    0,435;   -1,500
232,927;    8,733;    4,526;   -0,500
233,525;    4,222;    0,981;    0,045
234,124;   18,091;    1,890;   -1,591
234,723;   -6,515;    1,617;   -1,045
235,321;  -20,581;    1,163;    0,136
235,920;   -8,116;    2,526;   -1,227
236,518;   60,545;    1,072;    0,318
237,117;    1,460;    2,890;   -0,227
237,715;    3,278;    1,163;   -0,500
238,314;   13,081;    1,708;   -2,318
238,912;   64,753;    0,526;   -1,409
239,510;   31,965;    1,162;   -1,227
240,109;   70,465;   -0,474;    3,773
240,707;   46,778;   -0,474;    1,227
241,305;   -4,808;   -0,383;    0,136
241,904;   22,828;   -0,292;   -2,045
242,502;   83,419;    3,253;   -0,227
243,100;   33,793;    3,344;   -0,955
243,698;   -6,298;    2,799;    1,682
244,297;   13,950;   -0,656;    0,682
244,895;   13,662;   -0,474;   -2,318
245,493;   76,960;    2,981;   -0,591
246,091;   82,227;    5,163;   -1,318
246,689;   35,758;    2,163;    0,591
247,287;   33,798;   -0,019;   -1,136
247,885;   16,646;   -1,019;    1,227
248,483;   -8,798;   -0,201;   -0,500
249,081;   32,808;    0,981;    1,591
249,679;   36,055;   -1,019;    1,682
250,277;   -6,187;   -2,292;    0,864
250,875;   30,263;    0,617;   -1,045
251,473;    3,237;   -0,019;    0,500
252,071;   43,748;   -0,383;    1,045
252,669;    5,258;   -1,565;    0,318
253,267;   -3,955;    1,618;    0,773
253,864;    8,798;    0,617;    0,682
254,462;   51,874;    1,526;    1,591
255,060;   -2,838;    0,072;    1,318
255,658;   -5,015;   -3,292;   -0,136
256,255;    7,056;   -0,201;   -2,045
256,853;   24,192;    2,345;    1,409
257,451;    1,202;    1,981;    1,864
258,048;  151,490;    2,072;    1,864
258,646;   56,677;    0,436;   -1,045
259,243;   99,919;    2,981;    2,227
259,841;   50,056;    1,799;    0,318
260,438;   -0,283;    0,254;    0,864
261,036;   36,091;    0,617;    1,409
261,633;    3,924;    1,526;    2,227
262,231;   -8,116;   -0,110;   -0,045
262,828;  -14,379;   -0,383;    1,136
263,425;   -2,904;   -1,928;   -0,591
264,023;   -0,111;    1,436;    0,045
264,620;   41,556;    1,526;   -0,318
265,217;   80,182;    2,890;    3,136
265,815;   11,778;    2,527;    2,136
266,412;   33,121;    0,072;    0,136
267,009;   23,823;    0,526;    0,773
267,606;   51,404;    0,345;   -0,955
268,203;    9,732;   -0,383;   -0,591
268,801;    6,914;   -0,474;    0,591
269,398;  -10,182;   -0,564;    2,500
269,995;   21,258;    0,890;    1,591
270,592;   12,333;    0,799;   -0,500
271,189;   -7,419;    1,981;    0,409
271,786;  -12,763;    2,072;    1,227
272,383;   44,394;   -0,383;    0,227
272,980;    9,273;    1,617;    0,318
273,577;   -2,757;    2,162;    1,227
274,174;  -13,207;    1,435;    2,591
274,771;   24,348;    1,890;   -0,773
275,367;  167,409;    3,253;    1,409
275,964;   67,571;   -0,565;   -0,500
276,561;   10,485;   -2,474;   -1,045
277,158;  -17,308;    1,799;   -1,773
277,755;   66,990;   -0,110;    0,409
278,351;   36,207;    0,436;   -1,500
278,948;   47,757;   -0,201;    0,045
279,545;   17,338;    0,527;    2,318
280,141;   60,232;    1,254;   -2,045
280,738;   65,682;    2,435;   -0,136
281,334;    9,182;   -0,383;    0,591
281,931;   -0,445;    2,890;   -1,318
282,528;   38,333;    4,072;   -0,500
283,124;   60,328;    3,345;   -0,500
283,721;   54,949;    0,709;    1,409
284,317;   14,823;    0,163;    2,500
284,913;   59,944;   -0,110;    0,591
285,510;  117,853;    2,890;   -0,318
286,106;   67,803;    2,345;   -0,955
286,703;   32,222;    0,072;    1,955
287,299;    6,874;    1,254;   -0,591
287,895;    6,045;    0,890;   -1,045
288,491;   -3,273;    0,163;    2,136
289,088;   23,101;    0,163;    2,409
289,684;   21,985;    2,890;    1,500
290,280;   87,005;    1,890;    0,682
290,876;   63,141;    0,163;    5,500
291,472;   42,182;    2,163;    2,227
292,068;   52,742;    1,254;    0,227
292,665;   17,419;   -0,564;    0,773
293,261;  -11,571;   -1,292;    2,136
293,857;   39,248;    4,072;    2,136
294,453;   24,111;   -0,928;    0,955
295,049;   81,349;    0,253;    1,955
295,644;   38,647;   -1,292;    0,136
296,240;   -3,192;    0,162;   -0,136
296,836;   24,111;   -0,747;    0,318
297,432;   48,329;    2,980;   -0,500
298,028;   51,672;    0,435;    0,773
298,624;   24,248;    0,889;    1,864
299,220;   22,713;    0,435;    0,591
299,815;    9,329;    0,526;   -0,409
300,411;   43,349;    0,435;    1,773
301,007;   59,263;    1,889;    0,227
301,602;    8,743;    2,071;   -2,318
302,198;   59,748;    1,435;   -0,773
302,794;   22,359;    1,526;   -0,500
303,389;   -8,141;    1,071;    1,045
303,985;   -1,040;    1,253;    1,409
304,580;   55,435;    0,889;    1,591
305,176;   21,677;    0,344;    0,136
305,771;  -29,424;   -0,929;   -1,227
306,367;  121,647;    3,071;    0,136
306,962;   32,106;    2,889;    1,500
307,558;   55,854;    2,435;    0,136
308,153;   40,601;   -0,383;   -1,136
308,748;   -3,979;    0,162;    1,682
309,344;  102,773;    0,253;   -1,318
309,939;   97,581;    2,071;   -1,318
310,534;   12,586;   -2,020;   -1,682
311,130;   -2,985;   -0,656;   -2,500
311,725;    0,864;    0,526;   -0,500
312,320;   12,829;    1,253;    0,045
312,915;   40,601;    2,890;   -1,045
313,510;  113,096;    0,526;   -0,500
314,105;   23,233;   -3,565;    1,409
314,700;   -7,192;   -1,656;   -1,045
315,295;    2,526;   -0,020;    0,045
315,890;  -16,015;   -0,292;    0,864
316,485;   23,076;    0,253;   -0,318
317,080;   -6,136;   -0,929;    1,591
317,675;  106,844;    3,071;   -0,682
318,270;  205,915;    6,889;    3,318
318,865;  129,627;    2,435;    3,045
319,460;   74,798;   -1,565;    0,591
320,055;   20,364;   -2,565;   -1,227
320,650;   11,980;   -1,838;   -0,591
321,244;   14,440;    0,889;   -1,409
321,839;    9,490;    0,980;   -0,227
322,434;   21,283;   -0,111;   -1,591
323,029;    3,389;   -0,474;    1,591
323,623;   -6,798;    0,798;    0,773
324,218;   71,192;    2,707;    1,409
324,812;   44,283;    0,889;    1,591
325,407;   30,526;   -0,929;    2,045
326,002;   95,339;    0,526;   -0,409
326,596;   68,308;   -0,656;    1,318
327,191;    6,172;   -0,383;   -1,045
327,785;   14,308;   -0,747;   -0,227
328,379;    4,753;   -0,383;    0,136
328,974;   11,606;    1,798;   -3,955
329,568;   27,061;    2,889;   -2,409
330,163;   60,273;    2,435;    1,045
330,757;    7,813;    0,253;    1,591
331,351;  -14,045;   -0,292;    0,682
331,945;   -9,838;   -0,383;    1,409
332,540;   31,243;    1,617;   -0,591
333,134;   22,263;    3,344;    0,773
333,728;   32,026;    2,799;    0,318
334,322;   -5,878;    0,889;   -0,864
334,916;   -1,242;    0,344;    0,955
335,510;   47,233;   -0,111;   -0,136
336,105;   30,081;   -0,929;    1,591
336,699;   -4,712;   -1,292;    0,591
337,293;   12,329;    1,071;    0,318
337,887;   -6,409;    0,071;    1,955
338,481;   35,627;    2,980;    0,591
339,074;   80,197;    2,071;    2,682
339,668;   65,268;   -0,110;    1,227
340,262;  312,313;    7,708;    3,227
340,856;  122,056;    1,708;   -0,682
341,450;   14,429;    0,708;    1,864
342,044;   32,874;    1,799;    0,136
342,637;   60,919;    1,162;   -2,136
343,231;   24,455;   -1,474;    0,682
343,825;   10,728;   -0,747;   -0,591
344,419;   11,162;   -0,474;    0,500
345,012;  260,970;    2,889;    4,045
345,606;  147,298;   -0,656;    1,591
346,199;   28,319;   -0,111;   -0,227
346,793;   60,935;    2,525;    2,045
347,386;    4,869;    0,889;   -1,136
347,980;  -18,030;   -0,838;   -0,045
348,573;   11,783;   -1,748;    0,409
349,167;  155,294;    6,161;    4,773
349,760;   63,087;    2,252;    2,682
350,354;   50,501;    1,616;    1,136
350,947;   65,036;    2,798;    1,682
351,540;   29,768;    0,616;   -1,409
352,134;  -10,060;   -1,111;    1,136
352,727;   -6,015;   -0,657;    1,136
353,320;    0,051;    2,343;    0,591
353,913;  -27,095;   -1,929;    1,864
354,507;   48,889;    0,434;   -1,227
355,100;    7,435;    0,071;    0,864
355,693;  202,875;    4,798;    2,409
356,286;   80,925;    0,980;    2,773
356,879;   23,935;   -0,475;    1,227
357,472;   24,743;    0,980;    1,500
358,065;   31,193;    3,161;    2,500
358,658;  -10,353;    0,798;    2,318
359,251;  -19,595;    0,252;   -0,591
359,844;   40,693;    0,343;   -1,136
360,437;   72,703;    0,252;    0,045
361,030;   16,006;    0,525;   -0,682
361,623;   20,178;    0,434;    0,318
362,215;  114,001;    0,979;    2,045
362,808;   28,092;   -2,293;   -1,682
363,401;   -0,434;    0,798;    0,136
363,994;  119,577;    3,252;   -1,500
364,586;   28,991;    0,888;   -1,500
365,179;    8,299;   -0,203;   -1,136
365,772;  -44,524;   -0,930;    2,045
366,364;   11,122;    1,524;   -3,227
366,957;   24,516;    1,342;   -0,045
367,549;    7,824;   -0,203;   -0,864
368,142;   15,173;    0,978;   -1,500
368,734;    3,269;    2,523;   -2,136
369,327;  -26,564;    2,341;   -0,500
369,919;   -2,554;   -1,659;    0,409
370,512;   -3,700;   -1,023;   -0,500
371,104;  155,962;    2,704;    1,591
371,696;  174,270;    1,703;   -0,955
372,289;   80,372;    0,157;    1,136
372,881;   44,534;    1,156;    1,318
373,473;  -15,875;    4,064;    1,136
374,066;   40,035;    1,336;    0,500
374,658;   14,672;    0,879;    1,136
375,250;  -26,888;   -1,668;   -1,409
375,842;    3,931;   -0,124;   -0,045
376,434;  -41,315;   -2,762;   -0,409
377,026;  -61,344;   -1,855;   -2,500
377,618;  -28,263;    0,779;   -0,682
378,210;  -79,378;    3,141;   -1,955
378,802;  -90,913;    3,412;   -0,591
379,394;  253,138;    3,411;    0,682
379,986;   24,710;    1,138;   -0,955
380,578;  -55,477;    1,410;    0,773
381,170;  167,846;    0,320;    0,045
381,762;   85,072;   -0,224;    1,409
382,354;   58,193;   -0,223;   -1,318
382,945;   -7,879;    0,870;    0,318
383,537;  -36,137;    1,144;   -1,955
384,129;  -29,592;    0,963;   -1,136
384,721;   72,327;    0,418;    0,955
385,312;    7,226;   -1,399;   -0,955
385,904;   76,463;   -0,945;    1,591
386,496;   10,130;    0,691;    1,045
387,087;  114,751;    0,418;    2,500
387,679;   54,948;   -0,401;    0,045
388,270;   37,327;   -2,401;    2,045
388,862;    8,150;   -0,401;   -0,318
389,453;   -3,092;    1,054;    1,045
390,045;    1,600;    3,236;   -2,682
390,636;  -90,662;    0,144;   -0,591
391,227;  -35,875;    2,054;   -0,045
391,819;  -60,163;    0,781;    0,773
392,410;  161,529;    0,600;    0,045
393,001;   -4,815;    1,600;   -1,591
393,593;   42,630;    0,600;   -0,045
394,184;   71,398;    0,873;   -0,409
394,775;  -18,007;    1,146;    2,136
395,366;  -68,587;    1,782;    0,773
395,957;   64,231;   -2,400;    0,136
396,548;  -36,102;    1,054;    2,682
397,139;   67,110;    2,236;    0,591
397,730;  -11,653;    0,873;    0,955
398,321;   -0,926;    0,509;    0,955
398,912;  -37,678;   -0,764;    0,136
399,503;  -38,037;   -1,945;   -1,409
400,094;  -11,486;   -1,582;    1,682
400,685;  -26,133;    3,600;    0,045
401,276;  -54,527;   -0,400;   -0,955
401,867;  -72,421;   -1,127;    0,773
402,458; -111,138;    1,509;   -2,318
403,048;   10,231;    0,146;    0,591
403,639;  -32,693;    1,509;    0,864
404,230;   65,387;    0,691;    0,318
404,821;  107,327;   -0,127;    0,045
405,411;   27,362;   -0,763;   -2,591
406,002;  -39,885;    3,237;   -1,136
406,592;  153,857;    2,691;    0,045
407,183;   33,392;    0,328;   -1,500
407,774;   14,705;    1,419;   -0,136
408,364;  -20,830;    2,600;    0,409
408,954;   75,392;   -0,036;    1,227
409,545;   72,892;    1,873;    1,045
410,135;   32,680;   -1,581;    0,500
410,726;  -17,073;    0,783;    0,318
411,316;  148,528;    2,237;    0,773
411,906;   17,533;    0,146;   -0,409
412,497;   21,008;   -0,490;   -0,045
413,087;  -21,982;    0,783;   -0,227
413,677;  -77,219;   -2,490;    3,864
414,267;  -83,951;   -1,035;    1,409
414,857; -101,679;    0,419;    4,227
415,448;  -94,961;   -0,763;    0,500
416,038;  -65,669;   -2,945;   -0,591
416,628;  -38,174;    0,965;    0,409
417,218;   13,185;   -1,762;    3,318
417,808;  144,367;    0,965;   -0,409
418,398;   37,508;   -1,035;    2,682
418,988;  -55,997;   -2,217;    0,591
419,578;   12,382;    3,601;    1,409
420,168;  -30,618;    0,692;   -0,955
420,757;   83,074;    0,964;   -1,500
421,347;  -21,118;    1,601;   -0,227
421,937;  -39,583;    3,329;    1,409
422,527;   81,887;    2,602;   -0,773
423,116;  202,346;    2,692;   -0,045
423,706;  -33,037;    2,965;    0,318
424,296;  -68,795;    1,601;    0,682
424,885;   36,478;    1,510;   -3,045
425,475;    7,978;    1,147;   -2,864
426,065;  -74,199;   -1,489;   -0,318
426,654;  -90,416;    0,329;   -0,318
427,244;  138,528;    1,147;    1,409
427,833;  102,149;    1,056;   -0,500
428,423;  -10,982;    0,147;    1,136
429,012;   -7,482;    2,420;   -1,136
429,601;  111,129;    2,057;    0,136
430,191;   11,861;    2,511;    4,318
430,780;  -74,987;   -1,671;   -0,409
431,369;   89,599;    1,329;   -0,045
431,959;   -4,836;    1,693;    0,500
432,548;  -54,937;   -1,398;   -0,045
433,137; -104,391;    0,329;   -1,318
433,726;  -44,073;    0,148;    0,500
434,315;  -30,063;    0,148;    2,409
434,905;   74,487;    0,693;    1,409
435,494;   54,856;    3,148;    0,955
436,083;  -47,669;    1,420;   -0,955
436,672;   30,422;    1,148;    0,500
437,261;   -1,917;    0,512;   -1,955
437,850;  191,169;   -1,125;    0,682
438,439;  230,422;    2,239;    1,955
439,027;  336,815;    3,421;    1,773
439,616;  257,517;    2,239;    1,227
440,205;   57,103;    0,057;   -2,136
440,794;   19,139;   -0,306;   -0,045
441,383;  -39,427;    1,603;   -0,591
441,971;  -65,761;   -0,306;    0,591
442,560;  -53,725;    0,603;   -1,773
443,149; -136,418;    3,060;   -1,318
443,737;  -94,630;    0,968;   -2,318
444,326;  -74,589;    0,331;    0,318
444,915;  -39,175;   -1,851;    0,864
445,503;  -23,705;    0,058;   -0,318
446,092;  216,325;    7,876;    2,136
446,680;  155,552;    1,876;    0,318
447,269;   54,199;   -1,487;   -0,318
447,857;   46,502;    2,240;   -1,773
448,445;    6,280;    2,149;    1,318
449,034;  -45,412;    0,876;   -1,136
449,622;  -36,852;    1,240;    3,500
450,210;  214,345;    3,149;    2,227
450,799;  137,360;    2,604;   -0,591
451,387;  107,608;    1,786;   -0,591
451,975;   77,350;   -1,305;    0,864
452,563;  153,588;    0,422;    2,318
453,151;   -1,428;   -1,032;   -1,227
453,739;   31,158;   -1,577;    0,136
454,328;  130,562;    0,604;   -2,136
454,916;   75,567;    1,150;   -0,136
455,504;   92,830;    3,513;    1,227
456,092;  -12,150;    2,150;   -1,591
456,679;  -46,504;    0,604;    0,682
457,267;  347,890;    3,604;    1,045
457,855;   43,582;    3,241;    1,409
458,443;  -79,418;   -0,304;    1,682
459,031;   47,355;    1,332;    2,409
459,619;   14,304;   -3,577;    2,864
460,206;  -57,160;   -0,759;    2,045
460,794;  -55,186;   -0,668;   -0,227
461,382;  -21,150;    0,878;   -0,864
461,970;  -19,676;    0,605;    1,864
462,557;  -76,761;    0,878;   -0,682
463,145;   18,400;   -0,304;   -1,682
463,732;  240,158;    2,514;   -1,045
464,320;   45,647;    1,514;   -3,045
464,907;  162,658;    0,423;   -0,773
465,495;   82,986;    2,696;   -1,227
466,082;   19,001;    2,060;   -0,045
466,670;   39,971;    2,605;    1,227
467,257;  -54,151;    0,060;    2,045
467,844;   32,476;    1,514;    0,045
468,432;    9,117;   -0,031;    3,500
469,019;  -15,858;    1,606;   -1,773
469,606;   64,501;    0,969;    3,682
470,193;   82,647;    2,151;    0,227
470,780;   33,809;    0,333;    0,864
471,368;  -29,519;   -1,212;   -0,773
471,955;   67,072;    1,060;   -0,682
472,542;   29,501;   -0,303;   -1,136
473,129;  -69,146;   -0,485;    0,136
473,716;  -64,469;    0,060;    0,591
474,303;  -33,620;    1,333;   -0,864
474,890;  -17,691;    2,333;   -0,500
475,477;   73,470;   -0,576;    0,409
476,064;  -12,272;    0,697;   -1,591
476,650;   91,788;    2,152;    0,318
477,237;    2,516;    1,879;    0,955
477,824;   -9,267;    3,879;    0,864
478,411;  -75,510;    0,606;   -0,318
478,997;  -88,888;    0,606;   -0,773
479,584; -124,197;   -0,666;   -0,409
480,171;   27,440;    1,243;   -0,773
480,757;   72,884;   -0,848;    0,773
481,344;  -18,202;    0,334;    0,409
481,931;  -98,101;   -0,393;    1,045
482,517;   14,384;    0,425;    0,318
483,104;   83,677;    1,334;    2,864
483,690;  -32,187;    0,243;    0,045
484,276;  -44,909;    0,698;    0,227
484,863;  148,258;    2,152;    1,136
485,449;    1,455;    0,152;    0,318
486,035;  -35,995;   -0,666;   -0,136
486,622;   42,505;   -2,393;    0,045
487,208;  -28,136;    1,334;    1,500
487,794;  -93,540;    0,971;    0,318
488,380;  -83,601;    0,698;   -1,409
488,967;  -80,465;   -1,120;   -0,409
489,553;  -82,763;   -1,029;   -1,409
490,139;  -19,040;    0,971;    0,773
490,725;  -72,147;    0,789;   -0,227
491,311;  -27,894;    1,516;    3,045
491,897;  -52,667;   -0,665;    1,500
492,483;  -41,147;    0,426;    1,227
493,069;  367,540;    5,426;    0,864
493,655;   93,682;    1,789;    0,682
494,241;  -17,793;    1,517;   -0,955
494,826;  -11,414;    0,335;   -1,045
495,412;   37,621;    0,335;   -0,682
495,998;  -31,334;    0,971;   -0,318
496,584;   15,687;    2,244;    1,045
497,169;   36,273;    2,335;   -0,682
497,755;  -25,399;    1,244;    1,227
498,341;   85,348;    2,153;    0,318
498,926;  209,919;    2,881;    1,955
499,512;  -33,395;   -0,028;    2,955
500,097;  -33,910;   -0,574;   -0,318
500,683;   -4,000;   -0,028;    2,136
501,268;  -50,480;    1,881;   -0,955
501,854;  -34,607;   -0,119;    1,227
502,439;  -39,364;   -0,573;   -1,773
503,024;  -29,430;    1,608;    0,500
503,610;   -9,258;    1,335;   -0,682
504,195;  -48,238;    1,245;    1,955
504,780;   35,944;    2,335;    1,227
505,366;  110,126;    4,063;    2,864
505,951;   40,797;   -1,119;    1,045
506,536;  -19,622;    1,427;   -3,682
507,121;   18,141;    1,699;   -0,318
507,706;  -16,086;   -0,392;    1,045
508,291;  -49,006;   -2,937;    1,136
508,876;  -55,137;   -0,482;    2,591
509,461;  -24,637;    1,427;   -0,773
510,046;   13,519;   -0,391;    0,318
510,631;   24,444;   -0,119;   -0,773
511,216;  -36,561;   -0,664;   -0,500
511,801;   11,570;   -0,755;    2,591
512,386;   21,530;    0,972;    0,500
512,971;   27,045;    0,427;    0,955
513,555;   49,812;    1,154;   -1,500
514,140;   10,226;    1,336;   -3,136
514,725;  122,676;    1,791;   -1,136
515,309;   44,494;    1,064;    0,318
515,894;  -30,102;   -0,300;   -2,227
516,479;   -6,223;    1,973;   -0,955
517,063;   -4,541;    0,882;    1,227
517,648;  -37,026;    0,155;   -1,136
518,232;  -55,521;   -1,300;   -1,409
518,817;   14,928;    1,337;    1,682
519,401;   98,347;    0,700;    0,591
519,985;   82,317;    2,700;    1,136
520,570;  -10,375;   -0,118;   -1,955
521,154;   44,347;    0,064;    0,591
521,738;  167,771;    1,064;    2,409
522,323;   67,165;   -0,390;    1,682
522,907;   78,418;    2,428;   -0,136
523,491;   32,827;    1,155;    0,955
524,075;   45,004;    0,428;    0,591
524,659;  235,963;    0,973;    0,591
525,243;  226,968;    0,883;    0,409
525,827;  216,984;    0,883;   -0,045
526,411;  294,327;    1,155;   -0,136
526,995;  491,352;    0,337;    1,409
527,579;  640,640;    1,974;   -1,045
528,163;  681,099;    0,428;   -1,500
528,747;  982,296;    1,065;   -0,773
529,331; 1078,983;    0,883;   -1,409
529,915; 1033,256;    2,338;    0,955
530,499; 1350,584;    0,247;    1,227
531,082; 1670,973;    1,065;    1,591
531,666; 1935,983;    0,520;    0,773
532,250; 2262,019;    0,428;    2,682
532,833; 2749,963;    0,610;    2,773
533,417; 2971,120;    1,247;    0,864
534,001; 3316,352;    0,429;   -0,318
534,584; 4018,796;    1,974;    0,500
535,168; 4328,130;    3,247;    1,409
535,751; 4916,306;    4,520;    0,045
536,334; 4980,443;    4,520;   -0,409
536,918; 5906,978;    1,974;    1,591
537,501; 6335,463;    1,520;    1,318
538,085; 6830,478;    1,702;    1,045
538,668; 7361,018;    0,883;    2,409
539,251; 8120,832;    3,156;    3,773
539,834; 8649,135;    0,156;    0,773
540,418; 9063,867;    3,247;    4,318
541,001; 9546,528;    2,702;    1,773
541,584; 9957,478;    1,429;    2,227
542,167;10077,690;    0,702;    2,955
542,750;10559,225;    0,793;   -0,773
543,333;10506,326;    1,429;    2,136
543,916;11559,665;   -0,298;    2,500
544,499;12338,872;    2,520;    0,227
545,082;12700,700;    0,248;    3,591
545,665;13157,614;   -0,207;    1,500
546,248;13733,781;    0,520;   -0,318
546,830;13711,033;   -1,752;    1,955
547,413;14361,346;    0,157;   -0,773
547,996;15091,599;    0,157;    0,500
548,579;15080,003;   -0,843;    0,955
549,161;15151,104;    0,884;    2,682
549,744;15143,144;    0,612;    0,409
550,326;15855,265;    0,885;   -1,136
550,909;15812,897;    2,339;    0,591
551,492;16370,447;    0,521;    0,227
552,074;16370,508;   -0,024;   -1,318
552,657;17054,306;    2,430;    0,045
553,239;17000,836;   -3,024;   -0,773
553,821;17074,533;   -1,570;    1,045
554,404;16639,255;   -0,024;    1,136
554,986;17153,255;    2,248;    1,045
555,568;17888,149;    0,430;   -0,955
556,151;17192,871;    4,067;   -0,227
556,733;17448,907;   -1,388;   -0,864
557,315;18068,119;    4,703;    0,500
557,897;17979,386;    0,521;   -0,500
558,479;18228,997;    1,703;    1,318
559,061;18431,997;    1,067;   -0,864
559,643;18850,204;   -0,297;    0,045
560,225;19228,614;   -0,388;    2,864
560,807;19383,023;    0,340;    0,318
561,389;18969,351;   -1,206;    2,318
561,971;19726,017;   -0,660;    2,136
562,553;19617,775;    0,613;    1,591
563,135;19845,129;    1,249;    1,136
563,717;19544,260;    3,158;    1,136
564,298;20316,992;    3,976;   -0,045
564,880;20066,245;    0,340;   -1,409
565,462;20325,245;    1,977;    1,318
566,043;21618,326;   -0,933;    2,318
566,625;21167,038;    4,067;    1,227
567,207;21072,583;    0,704;    1,682
567,788;22310,932;   -0,114;    1,500
568,370;23252,911;   -1,841;   -0,500
568,951;23106,911;   -0,569;    0,227
569,533;24113,760;    0,977;   -0,500
570,114;24722,497;   -0,296;    0,682
570,695;25257,724;   -0,478;   -1,318
571,277;25896,815;   -0,205;   -1,682
571,858;26728,063;    2,704;   -1,136
572,439;27764,740;    0,795;   -1,045
573,021;27992,214;    0,432;   -2,773
573,602;28606,835;    1,795;    0,318
574,183;29593,270;   -0,114;    2,227
574,764;29838,007;    2,068;    0,409
575,345;30510,719;    0,250;   -0,136
575,926;31241,886;    2,704;    0,136
576,507;31315,638;    2,704;   -0,227
577,088;32544,058;    1,704;    1,682
577,669;32558,946;    1,704;    1,955
578,250;33446,361;   -0,750;   -1,045
578,831;34252,477;   -0,841;   -2,227
579,412;34597,032;   -1,205;    0,955
579,993;35657,406;    1,432;    0,227
580,573;36003,820;   -0,023;   -0,955
581,154;34948,361;    1,613;   -0,591
581,735;35894,623;    0,341;    0,773
582,315;35418,805;    0,523;    2,136
582,896;35817,280;   -1,750;    1,227
583,477;35275,461;    0,614;    1,227
584,057;35462,552;    1,159;    0,955
584,638;35729,951;   -2,750;    2,318
585,218;35773,886;    2,886;    2,682
585,799;36019,073;    1,977;   -0,227
586,379;35993,603;    1,250;    1,591
586,959;34751,977;    2,613;    0,318
587,540;33982,780;    0,432;    2,227
588,120;33432,603;   -1,113;   -0,045
588,700;32365,017;    2,977;    2,136
589,281;32717,477;    1,250;   -0,955
589,861;32667,239;   -0,296;   -1,682
590,441;32522,325;   -1,477;   -2,682
591,021;31445,845;    1,432;   -2,591
591,601;31677,805;    0,431;    0,500
592,181;31615,507;   -1,296;   -0,773
592,761;30903,487;    2,250;    1,409
593,341;30794,472;    1,522;    0,045
593,921;30783,295;   -0,569;    1,591
594,501;30600,467;    1,250;    1,318
595,081;30496,936;    0,522;   -0,318
595,661;30909,159;    1,068;    0,955
596,240;31503,477;   -1,023;    0,136
596,820;31047,770;    2,613;    1,955
597,400;31364,876;    1,977;    0,773
597,980;31666,755;   -0,750;    1,045
598,559;31666,376;    0,341;   -0,227
599,139;31360,285;   -0,750;   -1,227
599,718;31304,376;    0,795;   -0,409
600,298;31512,411;   -2,387;    0,682
600,877;31755,982;    4,795;    1,409
601,457;32096,638;    0,340;    1,136
602,036;32028,608;    1,795;    2,045
602,616;32283,376;    2,250;    1,682
603,195;32643,714;    0,431;    3,500
603,774;32147,406;   -0,296;    2,045
604,354;32115,219;    2,522;   -0,500
604,933;31546,578;    0,250;    1,864
605,512;31678,502;    2,340;    0,591
606,091;31758,573;    1,886;    3,773
606,671;32562,164;    0,249;    0,773
607,250;31603,194;    1,431;    3,136
607,829;31868,300;    1,158;    3,227
608,408;31777,780;    4,613;    2,591
608,987;30757,583;    2,704;    3,409
609,566;31076,719;    0,341;   -2,500
610,145;31161,063;    2,885;    0,682
610,723;31624,432;    1,613;    6,864
611,302;30800,265;    1,067;    1,682
611,881;30225,750;    5,158;   11,227
612,460;31151,033;    0,795;    3,955
613,039;31586,220;    1,703;    2,045
613,617;30256,396;    0,886;    4,773
614,196;30528,977;    1,613;    1,227
614,775;30855,336;    1,249;    2,409
615,353;30823,952;   -1,660;    0,864
615,932;30468,235;    0,249;    2,409
616,510;31116,866;    0,158;    0,591
617,089;30578,881;    8,794;   17,591
617,667;30315,250;    4,885;    6,136
618,246;30156,376;   -1,115;    1,318
618,824;30310,583;    1,612;   -0,955
619,402;29878,871;    0,431;   -1,773
619,981;30434,583;    1,067;   -1,045
620,559;30297,230;    0,794;    1,682
621,137;29745,285;    3,067;    1,864
621,715;29770,290;    3,703;   -0,682
622,293;29663,780;    1,885;   -0,773
622,871;30195,210;    0,340;    0,500
623,450;29752,952;    0,430;   -0,864
624,028;29603,159;   -0,388;   -0,955
624,606;29181,573;    2,339;    1,682
625,183;29611,326;   -0,661;   -1,136
625,761;29216,674;    1,885;    1,136
626,339;29551,977;    2,339;    2,591
626,917;29972,811;    0,339;   -0,045
627,495;30010,164;    2,794;    1,318
628,073;29430,154;    5,248;    2,864
628,650;29117,210;    3,067;    2,136
629,228;29573,563;    1,248;    4,409
629,806;28890,422;   -0,024;    1,136
630,383;29172,856;    0,066;   -0,318
630,961;28856,003;   -2,206;   -0,955
631,539;28592,700;   -2,479;    0,227
632,116;27796,094;   12,703;   15,409
632,694;28549,159;    4,885;    6,500
633,271;28853,346;    1,975;    2,682
633,848;28767,286;    1,430;    2,045
634,426;28879,341;    1,521;    1,773
635,003;27946,033;   -0,207;   -0,409
635,580;28202,336;    1,884;    3,682
636,158;28826,362;    3,793;    1,227
636,735;28761,563;    3,339;   -0,500
637,312;28940,417;    0,521;   -0,682
637,889;29047,685;    2,248;   -0,682
638,466;28554,882;    0,066;   -0,409
639,043;28536,296;    1,702;   -1,136
639,620;28870,609;    0,611;   -0,955
640,197;29192,761;    1,612;    1,682
640,774;29379,571;    1,430;    1,136
641,351;29780,109;    0,612;    1,136
641,928;29159,737;    2,794;    1,409
642,505;28781,911;    0,794;   -0,500
643,082;28914,904;    1,885;    1,227
643,658;27845,987;    1,157;    1,500
644,235;28691,615;   -2,479;    2,500
644,812;29000,698;    1,794;    0,773
645,388;28696,418;    1,612;    1,409
645,965;28739,501;    1,521;    1,682
646,542;28871,675;    3,430;   -0,227
647,118;28906,758;    3,703;   -0,955
647,695;29196,568;    0,339;    1,136
648,271;29137,924;   -2,115;    0,500
648,848;29436,552;    0,248;    2,227
649,424;29230,726;    0,976;    1,318
650,000;29023,264;   -0,388;   -1,045
650,577;28907,620;    0,158;   -0,955
651,153;29376,521;   -1,115;    0,955
651,729;30410,058;    0,521;    0,864
652,305;30751,687;    1,339;    2,773
652,881;36056,679;   -1,297;    1,136
653,458;44170,126;    0,249;    0,227
654,034;48831,573;    0,703;    1,591
654,610;50681,019;    0,339;    0,773
655,186;52210,102;    1,612;    3,045
655,762;51884,731;   -1,842;    0,409
656,338;51935,814;    0,703;    0,136
656,913;53072,988;   -0,297;    0,409
657,489;52350,162;    0,249;   -0,318
658,065;52281,336;    0,794;   -1,591
658,641;52841,146;    2,158;   -0,864
659,217;52005,411;    2,067;    0,409
659,792;51317,858;   -1,751;   -0,409
660,368;51634,486;   -0,388;   -0,682
660,944;51207,751;    1,794;    1,227
661,519;45852,379;    0,522;    0,409
662,095;38611,826;   -0,206;    0,591
662,670;33106,818;   -0,206;   -0,136
663,246;31600,356;   -0,660;   -0,409
663,821;30780,257;    0,431;    1,682
664,396;30275,795;    0,613;    1,864
664,972;30554,878;   -0,660;   -0,500
665,547;30893,870;    3,794;    0,136
666,122;30904,862;    1,340;    0,318
666,698;31219,036;    2,431;    0,318
667,273;30533,756;    0,885;    0,136
667,848;31379,020;    0,340;    1,500
668,423;31176,831;    1,795;    2,318
668,998;31769,550;    0,976;   -0,682
669,573;32353,088;    2,067;   -1,500
670,148;32191,353;    1,885;   -0,682
670,723;32021,163;   -0,024;    0,318
671,298;32474,973;   -1,296;    1,045
671,873;32605,693;   -0,296;   -0,136
672,448;32522,321;    1,704;    0,136
673,023;32899,222;    0,249;   -0,227
673,597;33213,033;    2,704;    2,318
674,172;32948,843;    2,431;    0,318
674,747;32441,199;   -0,205;   -1,045
675,321;32369,918;   -0,933;    3,318
675,896;31911,001;    2,158;    1,045
676,471;32916,357;    2,522;    1,591
677,045;32710,986;   -0,296;    0,682
677,620;32715,251;    2,158;    1,136
678,194;33099,424;    0,249;    1,136
678,769;32566,962;    0,886;   -0,318
679,343;32806,500;   -0,023;    1,773
679,917;32669,855;    0,340;    1,955
680,492;32808,939;    0,249;    3,227
681,066;33015,022;    0,613;    0,409
681,640;33044,377;    1,795;   -0,318
682,214;33893,188;    2,340;    0,500
682,788;33379,725;    0,613;   -0,773
683,363;33382,808;    1,977;    1,682
683,937;33066,710;    0,886;   -0,318
684,511;33878,611;   -1,023;   -0,591
685,085;33529,058;   -1,478;    0,318
685,659;33344,413;    1,431;    0,864
686,232;33558,587;    1,159;   -0,318
686,806;33249,852;    2,159;    0,409
687,380;33977,935;   -1,932;    0,591
687,954;34181,746;    2,432;    1,136
688,528;33833,647;    2,613;    1,955
689,101;34691,548;    0,432;    1,045
689,675;34307,267;    0,886;   -0,136
690,249;33605,078;    3,432;    0,409
690,822;33892,070;    1,159;    0,318
691,396;33978,517;    2,068;    1,227
691,969;33429,691;    2,523;    0,136
692,543;33952,501;   -0,568;   -1,955
693,116;33542,766;   -0,659;   -1,409
693,690;33373,394;   -0,296;    0,500
694,263;33989,477;    2,341;    2,955
694,836;34060,015;    2,795;    3,591
695,410;32599,462;    1,159;    1,773
695,983;33085,636;    1,614;    0,591
696,556;33043,991;   -0,750;   -1,045
697,129;33482,529;   -1,114;    1,409
697,703;33089,339;    1,341;    1,955
698,276;33123,422;    1,705;   -0,773
698,849;32848,415;   -1,023;    1,409
699,422;33255,861;    1,250;    0,591
699,995;32909,399;   -0,659;    0,136
700,568;33453,664;   -0,204;    3,045
701,140;33443,110;   -1,841;    1,682
701,713;33137,193;    0,341;    2,409
702,286;32817,276;    0,796;    0,864
702,859;32716,996;    0,614;   -0,591
703,432;31870,988;   -0,841;    0,682
704,004;32409,435;    1,978;    0,318
704,577;32225,245;    1,068;    0,136
705,150;32795,146;    0,887;    2,500
705,722;32665,866;    1,523;   -3,227
706,295;32447,040;    1,432;   -0,591
706,867;32263,668;    0,250;    1,955
707,440;32464,751;   -0,113;   -0,409
708,012;32711,380;   -0,022;    0,591
708,584;32613,736;    2,705;    0,227
709,157;32944,728;    1,160;   -0,591
709,729;32584,265;    1,069;    2,045
710,301;33515,439;   -1,204;    0,045
710,874;33548,977;    0,341;   -0,227
711,446;32361,242;   -0,295;    0,864
712,018;32210,143;   -3,022;    0,500
712,590;31920,681;   -0,204;    1,682
713,162;32481,127;   -0,477;    1,318
713,734;32723,574;    1,796;   -2,045
714,306;32605,384;    0,342;   -0,409
714,878;31219,649;   -0,295;    0,864
715,450;32099,460;   -0,113;    0,864
716,022;32373,906;    2,433;    1,318
716,593;32509,444;    0,978;    0,591
717,165;32467,891;    1,796;   -1,227
717,737;32126,428;    0,796;    0,409
718,309;31787,602;    1,160;   -0,045
718,880;31705,503;   -1,295;   -1,409
719,452;31989,950;    0,887;   -1,591
720,024;31494,760;    1,705;   -0,591
720,595;32086,571;    2,978;    0,955
721,167;31577,199;    1,160;   -2,045
721,738;31062,373;    2,069;   -1,045
722,309;30955,274;    1,251;   -1,227
722,881;30764,812;    2,705;    0,773
723,452;31484,168;    1,251;    2,864
724,023;31686,433;    1,524;    2,682
724,595;31419,879;    2,342;    0,682
725,166;31136,599;    1,524;   -0,409
725,737;30734,045;    1,887;    0,227
726,308;30859,765;    0,797;    0,318
726,879;31293,939;    1,069;    1,227
727,450;31164,476;   -2,022;   -0,045
728,021;31160,105;    1,069;    0,682
728,592;30953,006;    1,160;    0,500
729,163;31286,089;    1,433;   -0,136
729,734;31305,081;    2,160;   -0,227
730,305;31670,074;    0,615;    0,136
730,876;32014,520;    0,888;    2,955
731,447;31679,421;    0,797;    2,682
732,017;31841,595;   -0,840;    1,864
732,588;31316,678;   -0,021;    1,227
733,159;31524,852;    3,615;   -1,045
733,729;31296,845;    1,251;    0,409
734,300;30533,291;    0,160;    0,864
734,870;30990,102;   -1,385;    0,591
735,441;31639,094;    0,888;   -0,591
736,011;31312,086;    1,070;   -1,591
736,582;31261,260;    1,251;    0,045
737,152;30685,888;    0,979;   -2,045
737,722;31175,244;    1,070;   -0,682
738,293;30913,236;   -2,021;    1,318
738,863;30830,228;    1,797;    2,318
739,433;30597,130;    4,524;    0,318
740,003;31281,213;    1,524;   -0,682
740,573;30565,114;    2,252;   -1,591
741,143;30545,652;    3,615;    0,318
741,713;31289,462;    0,252;   -0,500
742,283;30955,090;    1,706;    1,591
742,853;30633,537;    0,524;    1,591
743,423;30126,257;    0,161;    0,045
743,993;30233,340;    1,070;    1,500
744,563;29586,604;    2,524;   -0,864
745,133;29496,506;   -0,112;   -0,864
745,702;30252,225;    2,797;    1,773
746,272;29404,490;    0,434;    0,591
746,842;29173,028;   -0,748;   -0,591
747,411;29632,202;   -0,839;   -0,318
747,981;29885,830;   -0,930;    0,500
748,551;29927,186;   -0,021;   -1,045
749,120;29737,814;   -0,112;   -0,227
749,690;30101,170;    2,161;    2,409
750,259;30405,253;    0,979;    2,955
750,828;30342,336;    4,070;   -1,955
751,398;30571,783;   -0,112;   -0,045
751,967;30061,775;    2,888;    0,409
752,536;30310,767;    1,161;   -0,227
753,105;30763,032;   -1,384;    0,227
753,675;30542,206;   -0,112;    1,773
754,244;30536,016;    0,888;    3,591
754,813;30591,009;    0,979;    1,227
755,382;30179,637;    0,798;    0,955
755,951;30724,447;   -0,112;    3,682
756,520;30255,349;    2,525;    1,864
757,089;30846,704;    1,888;    0,500
757,658;31051,878;    2,434;    1,227
758,227;31034,507;   -1,111;    0,318
758,795;31358,226;   -1,021;    1,136
759,364;31613,946;    0,525;   -0,591
759,933;30587,847;    1,343;   -0,045
760,501;30087,566;    0,252;   -1,318
761,070;30574,740;   -0,293;   -1,409
761,639;31252,460;    1,434;    1,318
762,207;30573,816;    0,889;   -0,955
762,776;30505,626;    2,889;    0,864
763,344;30407,618;    0,071;    0,591
763,913;29537,156;    1,616;    1,409
764,481;30269,330;    1,980;   -0,136
765,049;30021,594;    0,616;    1,409
765,618;29917,950;    1,434;    0,318
766,186;30035,761;    2,434;    0,136
766,754;30155,935;    1,798;    1,864
767,322;29105,745;    1,162;    0,409
767,890;29149,919;    0,525;   -1,773
768,459;29516,093;    2,616;   -0,318
769,027;29704,903;    2,525;    3,409
769,595;28662,986;    2,616;    2,591
770,163;29098,887;    3,344;    2,955
770,730;28787,243;    2,525;   -0,136
771,298;28649,508;    1,162;   -1,409
771,866;28735,682;    0,253;    4,955
772,434;29072,583;    1,162;   -1,864
773,002;29195,848;    2,616;    0,682
773,569;28804,386;    1,071;    1,682
774,137;28608,832;    0,889;   -0,045
774,705;29484,006;   -0,747;   -0,136
775,272;28916,090;    0,253;    0,682
775,840;28675,173;   -0,111;    2,682
776,407;28175,528;   -0,293;    1,955
776,975;27712,520;    1,162;    0,318
777,542;28788,694;    2,162;   -0,045
778,110;28673,868;    0,707;   -0,045
778,677;28325,679;    1,071;   -0,864
779,244;28060,216;   -1,020;    1,045
779,812;28190,118;    0,980;    0,864
780,379;28021,564;    2,435;    1,136
780,946;28229,466;    2,617;   -0,773
781,513;28622,549;   -0,565;    0,318
782,080;27840,177;    1,253;    2,864
782,647;28672,806;    1,708;    3,045
783,214;28256,889;   -0,201;    3,864
783,781;27824,335;    1,708;   -0,682
784,348;27724,509;    0,253;    1,500
784,915;28127,229;   -1,474;    0,318
785,482;27918,403;    2,708;    2,591
786,049;28350,577;    1,071;   -0,591
786,615;28483,569;    1,708;   -0,955
787,182;28246,106;   -3,201;   -0,682
787,749;27892,099;   -2,201;    1,409
788,315;27210,727;    0,253;   -0,409
788,882;27510,628;    0,981;   -1,227
789,448;28149,802;    1,435;   -0,955
790,015;28177,885;    1,799;    3,227
790,581;27728,605;    0,708;    0,227
791,148;27637,415;    1,344;    1,045
791,714;27883,225;   -1,019;    3,136
792,280;27539,763;    3,708;    1,591
792,847;27042,937;   -0,928;    2,500
793,413;27666,565;   -0,110;   -0,318
793,979;27149,103;    1,526;   -1,318
794,545;27209,277;    2,981;    2,682
795,111;26525,724;    2,435;    1,318
795,678;26721,716;    3,526;   -1,682
796,244;26331,435;    2,799;    0,136
796,810;27012,246;    0,799;    0,773
797,375;26681,420;   -0,292;   -2,136
797,941;26629,503;   -1,110;    0,591
798,507;26799,949;    0,254;   -0,955
799,073;26344,305;    2,708;    0,591
799,639;26429,388;    1,435;    3,136
800,205;26431,289;   -1,565;    2,682
800,770;25898,191;    1,345;    1,773
801,336;25990,274;    2,981;   -0,955
801,901;25631,993;    6,072;    3,136
802,467;26222,167;    0,526;    2,045
803,033;25511,159;   -0,019;    0,864
803,598;25706,697;    1,072;   -1,045
804,163;25736,325;    0,708;   -0,318
804,729;25716,590;   -0,110;    1,136
805,294;26169,673;    1,072;    2,227
805,859;25917,211;    0,890;   -0,409
806,425;25374,839;    3,890;    2,682
806,990;25038,559;    1,890;    4,318
807,555;25606,278;   -0,110;    2,591
808,120;25468,998;   -1,292;   -0,409
808,685;25494,717;    1,072;   -2,500
809,250;24951,164;    2,072;   -0,500
809,815;25342,701;   -0,201;    0,682
810,380;25871,057;    0,981;    1,591
810,945;26404,413;    2,890;    2,045
811,510;25571,223;   -0,200;    1,591
812,075;25220,215;    2,800;   -1,409
812,640;25284,208;    3,709;    1,409
813,204;25335,836;    2,163;   -0,227
813,769;25828,556;    0,254;   -0,045
814,334;25177,002;    0,527;    0,864
814,898;25202,813;    1,981;    0,591
815,463;25096,805;    0,981;   -0,773
816,027;25059,160;    1,345;   -2,318
816,592;25156,425;    2,163;   -2,045
817,156;24656,327;   -2,200;    1,136
817,721;24415,501;    0,982;    2,318
818,285;24365,493;    0,618;    1,500
818,849;25091,576;   -0,018;    1,682
819,414;25004,022;    0,073;    2,955
819,978;24553,651;   -0,291;    1,773
820,542;25118,825;    2,891;    0,500
821,106;24820,635;    2,800;    0,682
821,670;24905,536;    2,709;    2,591
822,234;24562,892;    1,073;    1,409
822,798;23931,248;   -0,836;    0,500
823,362;23905,513;    1,527;    4,227
823,926;23159,232;   -0,018;    1,136
824,490;23376,043;    3,527;   -0,682
825,054;23851,671;    2,527;   -1,136
825,618;23442,391;   -1,200;   -1,500
826,181;23386,746;    0,982;   -1,318
826,745;23247,648;   -0,745;   -1,045
827,309;23608,458;    2,255;    1,318
827,872;22960,905;    0,527;    0,955
828,436;23991,624;    1,982;   -0,773
828,999;24079,525;    2,436;    1,227
829,563;22846,699;   -0,654;    1,136
830,126;22676,964;   -0,018;   -0,591
830,690;22689,411;    0,709;    2,864
831,253;22135,494;   -0,473;    2,227
831,816;22245,486;   -0,018;    0,500
832,380;22160,296;    1,164;    0,864
832,943;22365,198;    3,073;   -0,500
833,506;21895,735;    0,255;   -1,227
834,069;22684,000;    2,164;   -0,955
834,632;22747,447;   -2,200;    1,318
835,195;22632,348;    1,346;    0,955
835,758;21840,704;    0,709;    1,955
836,321;21628,969;    1,073;   -1,045
836,884;21712,324;   -1,291;   -0,955
837,447;21725,498;    0,528;    1,773
838,010;21962,309;    1,800;    3,227
838,573;22331,574;    0,528;    0,773
839,135;22276,566;   -0,109;   -0,955
839,698;21671,467;    2,528;    0,409
840,261;21170,186;    0,255;   -0,227
840,823;21025,724;   -0,927;    0,864
841,386;21303,898;   -0,018;   -2,409
841,948;21101,072;    0,255;    1,773
842,511;20857,973;    0,255;    1,682
843,073;21020,511;    2,982;    0,227
843,636;20851,503;    0,619;   -0,227
844,198;20746,859;    1,255;    0,591
844,760;20885,760;    0,619;    1,955
845,322;20492,298;    0,164;    1,136
845,885;20954,108;   -0,290;    0,591
846,447;21367,827;    0,710;    0,227
847,009;20888,183;    3,983;   -0,682
847,571;21286,812;    1,346;   -2,045
848,133;21391,713;   -0,199;   -1,864
848,695;21206,069;    2,346;    1,409
849,257;20737,970;    1,346;   -1,682
849,819;20888,507;    2,983;   -0,409
850,381;20970,500;    1,801;   -0,864
850,942;21336,037;    1,892;   -0,591
851,504;21275,302;    0,983;    0,227
852,066;21285,385;    1,619;   -1,591
852,628;20793,468;    0,165;    1,955
853,189;20383,279;    0,256;    2,682
853,751;20478,271;   -0,654;    1,409
854,312;20331,990;    1,256;   -1,682
854,874;20903,891;   -0,108;   -0,773
855,435;21391,338;    0,528;   -1,682
855,997;21494,967;    3,983;   -0,136
856,558;20724,231;    0,801;    1,773
857,119;20888,496;   -0,744;    2,864
857,681;20518,670;   -0,108;    0,318
858,242;20560,935;    1,347;   -2,136
858,803;21032,564;    1,074;   -0,773
859,364;21610,829;    0,892;   -4,773
859,925;20878,912;   -0,290;   -0,955
860,486;20780,631;    0,529;   -0,955
861,047;20522,350;    0,165;   -1,227
861,608;20299,161;    0,165;   -0,773
862,169;20444,698;   -0,562;   -0,045
862,730;20213,327;   -0,290;    1,409
863,291;20455,683;    0,438;   -0,500
863,852;20817,129;   -0,926;    1,955
864,412;20267,303;   -1,835;   -0,864
864,973;18743,295;    1,892;    0,500
865,534;18569,015;    2,074;    0,227
866,094;20200,643;    2,620;    0,227
866,655;19784,272;    4,711;    3,318
867,215;20117,809;    0,074;    0,136
867,776;19962,529;   -1,199;   -0,136
868,336;19997,521;    1,529;    0,136
868,897;19437,695;    3,438;    1,682
869,457;19211,324;    3,256;    0,318
870,017;19437,861;    2,438;   -1,227
870,578;19991,308;    1,893;    0,773
871,138;19639,664;    2,620;   -0,955
871,698;19183,747;   -0,562;   -1,318
872,258;19039,557;    0,711;   -2,864
872,818;19386,367;    2,347;    0,045
873,378;19339,541;   -2,198;    1,045
873,938;18895,443;    4,984;    0,500
874,498;19205,707;    1,256;   -1,955
875,058;19087,245;    4,347;    1,773
875,618;18991,692;    1,438;   -2,682
876,177;18912,229;   -0,471;    0,136
876,737;18433,131;   -0,289;    1,955
877,297;18402,395;    2,711;    1,955
877,856;18447,115;    2,529;    0,318
878,416;18397,471;    2,438;   -0,136
878,976;18665,645;    3,438;    0,409
879,535;18853,819;    4,529;    3,136
880,095;18575,902;    1,347;    0,045
880,654;18678,348;    0,347;    1,318
881,213;18770,613;    2,347;    1,500
881,773;18424,333;    1,984;    2,682
882,332;18791,143;    6,075;    5,136
882,891;18624,862;    0,711;    2,136
883,451;19084,127;   -2,016;    1,682
884,010;18531,574;   -1,107;   -0,409
884,569;18640,384;   -2,289;   -0,045
885,128;18759,195;   -0,743;   -1,864
885,687;18817,550;   -0,743;    0,682
886,246;18455,452;    2,620;    2,136
886,805;18190,716;    1,620;    2,045
887,364;18533,072;    1,166;   -0,500
887,922;18891,883;   -0,016;    0,045
888,481;18357,238;    1,530;    0,591
889,040;18736,231;    3,711;    2,136
889,599;19463,223;    2,166;    1,409
890,157;19599,033;    2,166;    2,409
890,716;19179,116;    2,166;    0,227
891,274;18961,745;    0,075;   -1,136
891,833;19477,555;    1,166;    0,864
892,391;19343,002;    1,802;    0,500
892,950;19374,357;    0,166;   -0,773
893,508;19742,440;    0,984;   -0,409
894,067;19075,523;   -0,379;    0,136
894,625;19019,879;   -1,016;   -1,500
895,183;19219,326;   -0,198;   -0,682
895,741;19111,136;    2,257;   -1,773
896,299;18953,583;    1,621;   -2,409
896,858;19160,393;    1,530;   -1,591
897,416;19272,204;    0,166;   -1,318
897,974;19005,287;   -2,197;    0,318
898,532;19126,552;    6,530;    2,682
899,089;19038,816;    0,621;   -0,682
899,647;19097,809;    0,530;    1,318
900,205;18793,346;    0,257;    1,045
900,763;18970,884;    2,166;    0,227
901,321;18958,512;    3,530;   -1,409
901,878;18367,050;    3,257;   -0,773
902,436;18221,678;    0,257;    1,318
902,994;18597,216;    6,712;    3,682
903,551;17991,390;    1,439;    0,409
904,109;18434,564;    1,530;   -1,409
904,666;17990,283;    1,439;    1,045
905,224;17794,821;    3,894;   -0,409
905,781;17504,995;   -0,470;   -0,318
906,338;17589,805;    0,167;    1,045
906,895;17557,343;    1,894;    2,045
907,453;17450,244;    2,348;    1,136
908,010;17448,782;    3,348;    0,409
908,567;17101,592;   -0,561;    0,591
909,124;16600,948;    2,439;   -1,500
909,681;16645,394;   -1,288;    0,682
910,238;16798,478;   -0,106;   -1,318
910,795;17111,652;   -1,561;   -1,136
911,352;16758,742;   -0,379;   -2,682
911,909;16093,470;    2,803;   -0,864
912,466;16616,288;    1,985;    1,500
913,022;16151,924;   -0,924;    0,500
913,579;16495,833;   -0,470;    2,045
914,136;16173,288;   -2,561;    0,955
914,692;16511,288;    1,530;   -1,227
915,249;16104,470;    0,530;    0,409
915,806;16301,742;    1,803;    1,955
916,362;15994,561;    0,894;    1,864
916,918;15544,742;    2,439;    1,045
917,475;15512,379;    1,621;    0,955
918,031;15625,379;    0,076;   -0,045
918,587;15074,742;    0,621;   -0,318
919,144;15294,742;   -0,379;    0,227
919,700;15627,924;    0,167;    0,773
920,256;15156,197;    0,439;    0,045
920,812;14725,742;    1,439;   -1,045
921,368;14728,470;    1,348;   -1,045
921,924;14379,379;    0,439;   -0,136
922,480;13903,742;    0,076;    1,227
923,036;14486,379;   -0,652;    1,955
923,592;14468,106;    0,621;    0,318
924,148;14355,197;    1,894;   -0,955
924,704;13612,379;    0,258;   -0,409
925,259;13889,106;   -0,561;    0,591
925,815;13597,197;    3,803;    0,500
926,371;13162,288;    3,530;    1,409
926,926;13003,924;    1,621;    0,591
927,482;12573,833;    1,621;    0,773
928,037;12455,197;   -0,833;    2,045
928,593;12770,742;    0,258;    1,045
929,148;12559,924;    1,167;   -1,500
929,704;12103,924;    2,439;   -0,500
930,259;12278,288;    0,894;   -0,136
930,814;11299,197;    1,803;    1,955
931,369;10943,742;    0,258;   -0,773
931,925;10810,470;   -1,924;    0,136
932,480;10676,288;    3,076;   -2,591
933,035;10583,561;    3,985;   -0,318
933,590;10310,106;   -1,742;   -1,773
934,145; 9929,015;   -1,288;   -0,318
934,700;10309,015;    0,348;   -0,591
935,255;10056,561;    4,803;    0,045
935,809; 9267,652;    6,258;    0,864
936,364; 8349,288;    2,167;   -0,136
936,919; 8275,652;    2,348;   -1,773
937,474; 8160,924;    1,348;    0,136
938,028; 7904,197;    3,076;    1,136
938,583; 7266,924;    6,348;    4,682
939,138; 7597,288;    0,167;    2,136
939,692; 7013,652;   -1,015;   -1,136
940,247; 6657,288;    1,167;   -1,045
940,801; 6149,288;    0,621;    0,227
941,355; 6038,015;    0,439;    2,591
941,910; 5694,197;    0,712;   -2,136
942,464; 5796,015;    2,712;   -0,318
943,018; 5536,924;    3,258;   -0,227
943,572; 5468,379;    2,803;   -0,682
944,126; 4806,015;   -0,924;   -0,409
944,681; 4692,924;    0,712;    0,227
945,235; 4714,106;    2,167;   -0,591
945,789; 4640,015;    1,258;   -1,864
946,342; 4713,470;   -0,561;   -0,591
946,896; 4529,742;    0,348;    0,955
947,450; 4278,924;   -0,561;   -0,227
948,004; 4437,924;    1,076;   -0,045
948,558; 4473,197;    1,258;   -0,864
949,111; 4371,288;   -1,197;   -0,318
949,665; 4372,652;   -0,106;   -0,682
950,219; 4262,561;    0,621;   -1,045
950,772; 4359,379;    0,258;    1,864
951,326; 4270,379;   -1,106;   -0,955
951,879; 4365,833;    1,076;   -2,318
952,433; 4370,652;    1,348;    2,227
952,986; 4231,288;    0,348;    0,682
953,539; 4174,197;    1,530;    0,591
954,093; 4114,379;    0,985;   -1,318
954,646; 4246,742;   -0,288;    1,318
955,199; 4041,833;    1,258;   -0,500
955,752; 3876,015;    1,985;    1,773
956,305; 3831,106;    0,894;    2,955
956,858; 4023,742;    0,621;   -0,318
957,411; 4216,652;    3,621;    2,136
957,964; 4006,470;    2,076;    2,136
958,517; 4012,470;    0,985;    3,136
959,070; 3850,470;   -1,197;    1,955
959,623; 3878,924;    1,076;    1,500
960,176; 3650,379;    0,712;    2,045
960,728; 3612,561;    1,712;    0,773
961,281; 3688,652;    2,258;    0,500
961,834; 3740,833;   -0,833;    0,864
962,386; 3649,106;    1,258;    1,045
962,939; 3574,288;    3,439;   -0,318
963,491; 3725,742;    2,621;    1,136
964,043; 3594,470;    0,076;    2,409
964,596; 3715,106;    1,712;    2,227
965,148; 3534,197;   -0,379;    1,773
965,700; 3472,106;   -0,015;   -0,227
966,253; 3632,924;   -0,833;    0,318
966,805; 3437,379;    1,894;    0,773
967,357; 3501,106;    0,439;   -1,500
967,909; 3422,652;    1,167;   -1,227
968,461; 3566,379;    0,894;    3,136
969,013; 3475,470;   -1,561;   -0,864
969,565; 3556,561;    1,803;   -1,136
970,117; 3600,924;    3,803;    1,045
970,669; 3465,561;    3,258;   -0,136
971,220; 3328,197;    2,167;   -1,500
971,772; 3235,742;    1,348;   -0,318
972,324; 3343,106;   -1,197;   -0,500
972,876; 3311,742;    0,167;   -0,045
973,427; 3433,106;   -1,197;   -1,045
973,979; 3397,833;    0,076;   -2,500
974,530; 3457,833;    0,803;    1,318
975,082; 3480,652;    2,167;    1,682
975,633; 3362,833;    2,894;    1,682
976,184; 3521,742;    2,076;    0,773
976,736; 3285,561;    0,348;    0,227
977,287; 3036,924;    0,258;   -0,500
977,838; 3245,470;   -0,924;   -0,318
978,389; 3308,652;    0,803;   -0,500
978,940; 3193,379;    1,258;   -0,409
979,491; 3228,742;    2,258;   -0,500
980,042; 3131,197;   -0,652;    3,045
980,593; 3237,833;    1,894;    0,227
981,144; 3281,379;    3,530;   -0,500
981,695; 3209,015;   -0,470;    1,500
982,246; 3179,379;   -1,833;    1,045
982,797; 3368,288;   -0,561;    0,682
983,347; 3502,652;    2,167;    0,591
983,898; 3637,833;    4,167;    0,409
984,449; 3432,652;    2,530;    0,773
984,999; 3372,470;    1,894;   -1,136
985,550; 3121,379;    3,167;   -0,318
986,100; 3201,561;    0,712;   -0,318
986,651; 3227,833;    0,258;    0,045
987,201; 3187,470;    0,894;   -0,591
987,751; 3275,833;   -0,288;    2,864
988,302; 3260,015;   -0,379;    1,500
988,852; 3282,379;    1,985;   -1,136
989,402; 3300,470;    0,985;    0,682
989,952; 3217,197;    1,621;    0,864
990,502; 3346,197;    1,076;    0,682
991,052; 3312,379;   -0,106;    0,045
991,602; 3157,288;    1,167;    1,318
992,152; 3161,652;    2,803;    0,682
992,702; 3134,470;    1,167;   -0,045
993,252; 3047,197;    0,076;   -0,500
993,802; 3122,015;    1,167;    1,318
994,352; 3397,197;   -0,742;    1,136
994,901; 3514,379;    1,076;    3,227
995,451; 3428,652;   -1,197;    0,318
996,000; 3514,106;    1,076;    0,318
996,550; 3174,833;    2,894;    0,227
997,100; 3196,561;   -0,561;   -0,045
997,649; 3496,106;   -0,197;    0,955
998,198; 3095,015;   -0,288;   -1,500
998,748; 3269,742;    0,348;   -2,318
999,297; 3198,924;    0,985;   -0,409
999,846; 3262,833;    1,894;   -0,773
1000,395; 3333,652;    1,530;    0,500
1000,945; 3252,833;    1,076;   -0,773
1001,494; 3336,470;    0,167;    0,682
1002,043; 3345,561;    0,712;    0,864
1002,592; 3182,470;    3,439;    1,955
1003,141; 3360,470;    2,439;   -0,682
1003,690; 3177,924;    1,258;    0,500
1004,238; 3263,288;   -0,106;   -0,045
1004,787; 2875,470;   -1,288;    1,227
1005,336; 3099,197;    1,621;    0,682
1005,885; 3274,833;   -0,197;   -2,773
1006,433; 3442,470;   -0,470;    0,955
1006,982; 3462,652;    2,167;    1,682
1007,531; 3395,924;    2,712;   -0,227
1008,079; 3361,833;    0,258;    0,500
1008,627; 3517,197;    1,621;    0,409
1009,176; 3229,742;    0,076;   -1,955
1009,724; 3278,288;   -2,742;    0,864
1010,273; 3299,015;    1,076;    0,500
1010,821; 3472,833;    1,076;    1,409
1011,369; 3176,833;    0,076;    1,318
1011,917; 3149,470;   -0,833;   -0,591
1012,465; 3452,470;    2,530;   -1,591
1013,013; 3586,924;    0,439;   -1,682
1013,561; 3413,288;   -1,288;   -0,773
1014,109; 3440,288;   -0,833;    1,682
1014,657; 3325,015;    1,348;    0,591
1015,205; 3465,742;    0,894;   -0,955
1015,753; 3520,106;    0,258;   -1,409
1016,301; 3562,106;    2,621;    3,045
1016,848; 3571,742;    2,167;    0,409
1017,396; 3600,470;    1,621;    0,045
1017,944; 3717,924;    2,621;    1,864
1018,491; 3467,742;   -0,197;    1,409
1019,039; 3582,924;   -0,652;    0,591
1019,586; 3541,652;    0,076;    1,682
1020,134; 3658,652;    0,712;    1,500
1020,681; 3686,197;    2,894;   -1,136
1021,228; 3703,470;   -0,561;   -2,227
1021,776; 3539,742;   -0,833;   -1,136
1022,323; 3698,197;    0,803;    0,773
1022,870; 3659,470;   -0,470;   -0,045
1023,417; 3530,379;    2,076;    1,864
1023,964; 3722,197;    0,621;    1,227
1024,511; 3536,742;   -0,652;    0,773
1025,058; 3307,652;    0,439;   -0,045
1025,605; 3380,106;   -1,742;    3,136
1026,152; 3580,652;   -0,106;   -0,591
1026,699; 3317,379;    0,167;    1,318
1027,245; 3504,015;    2,439;    0,318
1027,792; 3741,652;    0,712;    1,409
1028,339; 3577,379;    4,076;   -0,045
1028,885; 3429,561;    3,621;   -0,227
1029,432; 3381,015;   -0,106;    0,227
1029,978; 3438,833;    1,348;   -1,591
1030,525; 3334,652;    1,621;    0,409
1031,071; 3631,742;    0,348;    1,136
1031,618; 3677,561;    1,258;    1,682
1032,164; 3477,379;    2,076;    3,045
1032,710; 3530,470;    0,076;   -1,500
1033,256; 3456,833;    0,712;   -0,136
1033,803; 3460,379;   -0,288;    1,500
1034,349; 3160,742;    1,803;    0,136
1034,895; 3327,106;    2,621;   -0,318
1035,441; 3283,015;    0,439;    0,318
1035,987; 3289,015;   -2,288;   -0,682
1036,533; 3258,015;   -0,197;   -0,955
1037,078; 3474,742;    4,712;    1,682
1037,624; 3285,288;    2,439;   -0,955
1038,170; 3339,833;    1,712;   -0,318
1038,716; 3214,652;    2,167;   -0,409
1039,261; 3141,197;    2,167;   -0,773
1039,807; 3060,742;   -0,015;    3,409
1040,352; 3104,288;   -1,288;   -0,318
1040,898; 3166,015;    0,167;   -0,682
1041,443; 3103,652;    0,803;   -2,591
1041,989; 3065,924;    3,621;    1,591
1042,534; 2967,833;    0,985;    2,591
1043,079; 3136,833;    1,985;    0,955
1043,625; 2877,470;    0,258;    0,500
1044,170; 2911,924;    2,439;    1,045
1044,715; 3165,288;    0,167;    0,955
1045,260; 2981,924;   -0,833;   -0,955
1045,805; 3040,015;    0,258;   -0,591
1046,350; 3001,924;    0,530;   -0,409
1046,895; 2910,924;    0,803;    1,591
1047,440; 2864,833;    1,530;    0,409
1047,985; 2770,015;   -1,197;   -0,955
1048,530; 2688,924;    1,348;    1,227
1049,074; 2748,833;    2,803;    0,318
1049,619; 2739,833;   -0,924;    1,955
1050,164; 2517,833;    1,076;    0,227
1050,708; 2577,379;    2,621;    0,045
1051,253; 2920,924;    3,258;   -2,227
1051,797; 2646,197;   -0,197;   -1,318
1052,342; 2693,015;    1,348;    1,045
1052,886; 2647,652;    1,803;   -1,409
1053,430; 2539,833;    2,167;    0,136
1053,975; 2560,561;    0,894;   -0,318
1054,519; 2518,015;    1,803;    3,227
1055,063; 2506,015;    3,621;    1,318
1055,607; 2377,197;    1,348;    0,227
1056,151; 2417,015;    0,530;    1,682
1056,695; 2355,561;   -1,833;   -1,136
1057,239; 2419,742;   -1,197;   -0,682
1057,783; 2395,379;    2,258;   -1,500
1058,327; 2344,470;    3,076;    1,409
1058,871; 2569,652;    3,985;    1,318
1059,415; 2259,742;   -0,561;   -0,045
1059,958; 2496,833;    2,985;    2,591
1060,502; 2253,470;    1,348;   -0,773
1061,046; 2164,561;    1,712;   -0,955
1061,589; 2135,288;    2,803;   -1,136
1062,133; 1998,833;    0,985;    1,864
1062,676; 1943,015;    1,439;    0,864
1063,220; 1936,470;    0,985;    0,500
1063,763; 1954,015;    2,985;    1,136
1064,306; 2036,833;    0,985;    1,864
1064,849; 1927,106;    2,076;    0,591
1065,393; 1928,652;    2,894;   -1,500
1065,936; 2054,197;    2,530;   -0,409
1066,479; 1943,833;    2,621;    1,318
1067,022; 1971,379;    1,894;   -0,227
1067,565; 1867,561;   -1,197;   -1,318
1068,108; 1895,288;    1,258;   -0,591
1068,651; 1867,652;   -2,470;    1,409
1069,194; 1785,379;   -1,106;   -1,682
1069,736; 1767,288;    3,803;    0,955
1070,279; 1751,106;   -1,652;   -0,500
1070,822; 1792,379;    1,530;   -0,318
1071,364; 1850,742;    0,530;    1,318
1071,907; 1699,015;    0,348;    3,227
1072,450; 1635,652;    0,258;   -0,045
1072,992; 1601,288;   -0,561;    3,136
1073,535; 1723,197;    0,167;    2,136
1074,077; 1538,742;    2,985;    2,045
1074,619; 1489,470;    0,985;    0,591
1075,161; 1505,924;   -0,561;    1,500
1075,704; 1682,015;    0,258;    1,227
1076,246; 1496,470;    1,530;    0,682
1076,788; 1430,197;   -1,015;    1,773
1077,330; 1523,106;   -2,106;    2,136
1077,872; 1455,833;   -1,924;    0,955
1078,414; 1662,015;    3,712;    0,773
1078,956; 1412,742;    0,167;   -0,227
1079,498; 1656,197;    0,439;    0,318
1080,040; 1352,833;    0,985;   -1,318
1080,581; 1311,742;    0,621;   -0,318
1081,123; 1252,561;   -0,106;   -0,773
1081,665; 1304,833;    3,803;   -0,955
1082,206; 1572,561;    3,258;   -0,500
1082,748; 1442,561;    3,258;    2,045
1083,289; 1331,379;    0,167;    1,318
1083,831; 1227,561;    0,258;    0,227
1084,372; 1250,015;    0,894;    0,591
1084,913; 1240,470;    3,348;    0,864
1085,455; 1222,742;    1,530;   -2,045
1085,996; 1185,742;    0,530;    0,136
1086,537; 1200,015;    0,985;    0,864
1087,078; 1230,106;    0,439;   -2,136
1087,619; 1278,106;   -1,652;    0,227
1088,160; 1205,106;    1,439;    1,318
1088,701; 1191,379;   -0,742;    0,682
1089,242; 1132,561;   -0,561;   -2,227
1089,783; 1210,561;   -0,561;    1,409
1090,324; 1186,652;   -0,833;    0,682
1090,865; 1060,561;   -1,924;   -0,409
1091,405; 1053,197;   -0,561;    2,227
1091,946; 1072,742;   -0,197;   -0,955
1092,487; 1004,015;   -1,288;   -1,409
1093,027; 1152,924;    1,803;   -1,500
1093,568; 1001,197;    2,258;    1,227
1094,108; 1077,015;    0,621;    1,773
1094,649; 1030,106;   -0,470;    0,136
1095,189;  980,379;    1,167;   -0,682
1095,729;  908,197;    0,712;    0,955
1096,269;  931,015;    1,258;   -0,955
1096,810; 1239,742;   -0,197;    0,500
1097,350; 1046,288;   -0,561;   -0,773
1097,890;  969,652;    2,985;    1,227
1098,430; 1208,470;    4,985;    2,864
1098,970; 1071,470;    1,894;    1,682
1099,510;  956,470;   -0,833;   -2,318
1100,050;  885,288;    0,258;   -1,591
1100,589;  837,015;    0,076;   -0,318
1101,129;  954,197;    0,894;   -0,955
1101,669; 1091,015;    2,803;    2,136
1102,209;  928,379;    1,530;    2,227
1102,748;  886,379;    3,439;    0,955
1103,288;  858,742;    0,712;   -1,227
1103,827;  886,379;    3,530;   -2,227
1104,367;  771,197;    1,712;   -2,409
1104,906;  740,924;   -1,015;   -1,136
1105,445;  812,106;    0,985;   -1,136
1105,985;  745,197;   -0,652;    1,500
1106,524;  788,924;    1,530;   -0,682
1107,063;  772,742;    1,167;    1,409
1107,602;  752,015;    1,894;   -1,500
1108,141;  663,015;    1,621;    1,500
1108,680;  760,015;    3,985;   -0,591
1109,219;  707,197;    0,167;   -0,500
1109,758;  713,379;    4,167;    0,682
1110,297;  674,742;   -1,106;   -0,682
1110,836;  621,833;    1,439;    0,955
1111,375;  781,924;    0,348;    0,409
1111,913;  798,197;    0,985;    0,773
1112,452;  731,015;    0,894;    0,136
1112,991;  631,833;    1,076;    1,955
1113,529;  582,924;    0,167;   -0,045
1114,068;  635,288;    0,439;    2,955
1114,606;  539,015;   -0,561;   -0,955
1115,144;  693,288;    1,530;    1,045
1115,683;  634,924;    1,985;    0,318
1116,221;  688,652;    2,076;   -0,864
1116,759;  605,652;    1,621;   -0,864
1117,297;  787,833;    1,621;    1,864
1117,836;  598,742;    1,985;   -1,227
1118,374;  599,106;    0,258;   -0,682
1118,912;  550,015;    0,439;    2,682
1119,450;  547,561;    0,985;    0,864
1119,988;  586,742;    3,348;    2,136
1120,525; 1032,924;    7,258;    3,318
1121,063;  737,742;    0,530;    1,864
1121,601;  542,197;    1,076;   -1,227
1122,139;  497,106;    1,076;   -2,045
1122,676;  692,197;   -1,652;    2,773
1123,214;  627,561;    0,712;    4,409
1123,751;  445,015;    0,621;    2,227
1124,289;  578,379;    0,894;   -0,409
1124,826;  442,924;   -0,379;    0,227
1125,364;  367,833;    0,712;   -0,955
1125,901;  546,106;    6,258;    1,227
1126,438;  651,470;    3,530;    0,955
1126,975;  393,197;    2,985;   -0,773
1127,513;  454,924;    2,621;    2,136
1128,050;  363,379;   -0,561;   -0,682
1128,587;  455,288;    1,348;   -0,227
1129,124;  497,652;   -0,015;    1,318
1129,661;  380,015;   -1,924;    0,227
1130,198;  529,470;    2,439;    0,773
1130,734;  475,288;   -0,379;    1,409
1131,271;  335,015;   -1,197;    0,864
1131,808;  506,652;    1,621;    3,045
1132,345;  378,924;    4,530;    0,318
1132,881;  265,197;   -0,561;   -1,864
1133,418;  394,197;    0,348;   -1,136
1133,954;  335,106;    0,712;   -2,682
1134,491;  400,015;    1,712;   -0,773
1135,027;  307,924;    2,167;    0,864
1135,564;  388,833;    1,439;    2,955
1136,100;  376,924;   -0,742;    2,136
1136,636;  269,742;   -1,015;   -1,045
1137,172;  347,924;    0,894;   -1,045
1137,708;  281,652;   -1,561;   -1,045
1138,245;  284,197;    0,803;   -1,227
1138,781;  244,833;    1,803;   -3,318
1139,317;  304,015;    1,894;   -1,409
1139,852;  298,379;    3,076;    0,136
1140,388;  412,470;    2,076;   -0,409
1140,924;  288,379;    1,076;   -2,227
1141,460;  234,652;   -0,288;    0,136
1141,996;  176,197;   -0,652;    2,682
1142,531;  212,288;    1,076;    3,318
1143,067;  423,652;    1,167;    1,045
1143,602;  473,288;    3,439;   -0,318
1144,138;  321,561;    0,803;    1,045
1144,673;  202,379;    1,621;    1,409
1145,209;  262,561;    2,894;   -0,318
1145,744;  183,742;    0,803;    0,864
1146,279;  308,015;    1,530;   -0,136
1146,815;  238,561;    1,530;   -2,682
1147,350;  275,197;   -0,924;    0,045
1147,885;  187,470;   -1,924;   -1,318
1148,420;  187,470;    2,439;    0,773
1148,955;  167,015;   -1,470;    1,864
1149,490;  192,379;   -1,106;   -1,591
1150,025;  175,470;   -1,106;   -1,773
1150,560;  284,924;   -0,288;   -0,955
1151,094;  248,924;    0,258;   -0,591
1151,629;  253,106;   -3,742;    0,864
1152,164;  176,924;   -1,288;    1,318
1152,698;  155,015;    1,258;   -0,136
1153,233;  110,833;   -1,379;   -0,682
1153,767;  158,288;   -0,288;   -2,318
1154,302;  199,833;   -0,379;    1,773
1154,836;  207,833;    0,803;   -2,136
1155,371;  247,561;    2,258;    3,682
1155,905;  198,470;    1,985;    1,682
1156,439;  170,288;    0,530;   -0,500
1156,973;  199,742;    0,439;    0,318
1157,507;  144,379;   -1,742;    0,682
1158,042;  167,197;   -0,652;    1,045
1158,576;  203,470;   -0,561;    1,773
1159,110;  200,924;    0,076;    2,409
1159,643;  182,106;   -2,470;   -0,045
1160,177;  119,015;   -2,015;    1,500

