
Integration time [ms]:   0,050
Averaging Nr. [scans]: 11
Smoothing Nr. [pixels]: 0
Data measured with spectrometer [name]: 7318044SP
Wave   ;Sample   ;Dark     ;Reference
[nm]   ;[counts] ;[counts] ;[counts] 

186,757;   -3,981;   38,161;    1,318
187,357;   25,383;   26,706;    0,955
187,958;   14,953;   17,252;   -1,591
188,558;   65,444;   12,979;   -1,227
189,159;   30,609;   10,070;   -4,500
189,759;   -0,350;    5,797;   -3,591
190,360;    1,890;    6,797;   -2,136
190,960;   38,772;    5,706;   -4,136
191,560;   54,816;    2,614;   -6,591
192,161;  300,752;    5,885;   -3,500
192,761;  140,466;    5,520;   -3,227
193,361;   94,857;    3,065;   -3,773
193,962;  155,060;    1,612;   -2,682
194,562;   75,689;   -0,114;   -3,955
195,162;  111,198;   -0,567;   -2,227
195,762;  275,831;    2,433;   -0,045
196,362;  225,281;    1,706;   -2,500
196,963;   94,112;    1,706;   -0,864
197,563;  157,550;    1,252;   -0,955
198,163;  106,283;   -0,111;   -0,682
198,763;  128,431;   -0,020;   -0,500
199,363;  236,986;    3,616;   -0,500
199,963;  205,185;    2,162;    0,409
200,563;  177,594;    6,344;   -1,409
201,163;  157,137;    5,435;   -0,227
201,763;  249,973;    1,435;    0,318
202,363;  197,889;    0,980;    1,500
202,963;  305,195;    1,526;    1,045
203,563;  417,432;    0,344;    0,500
204,162;  264,854;    1,889;   -1,864
204,762;  255,488;    2,071;    0,591
205,362;  233,839;    0,708;    1,955
205,962;  333,577;    3,435;    1,955
206,562;  335,923;    1,889;    2,318
207,161;  307,343;    1,708;    0,318
207,761;  452,322;    4,435;    2,409
208,361;  335,247;    1,889;    1,409
208,960;  439,829;    2,889;    1,500
209,560;  524,714;    0,435;    1,591
210,160;  498,872;    5,071;    1,864
210,759;  485,759;    0,708;    1,227
211,359;  482,572;   -0,474;    1,045
211,958;  756,916;    3,526;    2,045
212,558;  843,827;    0,799;    1,864
213,157;  680,565;   -0,929;    1,500
213,757; 1149,479;    5,617;   -0,227
214,356;  850,369;    1,708;   -0,409
214,956; 1195,997;    3,526;    0,409
215,555;  817,916;    0,617;    2,136
216,154;  745,770;   -0,292;   -0,591
216,754;  782,831;    1,253;    0,773
217,353;  936,850;   -0,383;   -1,045
217,952;  799,372;    2,072;    0,318
218,552; 1013,751;    0,254;   -0,773
219,151;  942,236;   -1,110;    0,955
219,750;  952,314;    0,890;   -0,227
220,349; 1141,608;   -2,292;    1,045
220,948; 1159,450;    1,163;    1,136
221,548; 1250,571;    0,617;    1,227
222,147; 1378,897;   -1,292;   -0,409
222,746; 1677,770;    1,254;   -0,955
223,345; 1568,480;   -1,019;    0,500
223,944; 1608,983;    1,163;    0,773
224,543; 1825,064;    4,072;   -1,409
225,142; 1937,649;    1,345;    0,136
225,741; 1864,596;    1,163;    1,045
226,340; 1895,796;    1,254;   -0,955
226,939; 2402,231;    2,708;   -0,136
227,538; 2495,496;    1,163;   -0,773
228,137; 2625,077;    0,435;    0,864
228,735; 2883,517;    0,435;    1,227
229,334; 2562,033;   -0,474;   -0,227
229,933; 2955,770;    0,799;    0,591
230,532; 3113,502;   -1,201;   -0,409
231,131; 3178,419;    1,253;    0,318
231,729; 3412,332;    1,163;   -2,318
232,328; 3636,071;    0,435;   -1,500
232,927; 3748,022;    4,526;   -0,500
233,525; 3922,950;    0,981;    0,045
234,124; 4186,921;    1,890;   -1,591
234,723; 4257,403;    1,617;   -1,045
235,321; 4451,512;    1,163;    0,136
235,920; 4785,801;    2,526;   -1,227
236,518; 5102,184;    1,072;    0,318
237,117; 5377,369;    2,890;   -0,227
237,715; 5545,740;    1,163;   -0,500
238,314; 5618,728;    1,708;   -2,318
238,912; 5709,036;    0,526;   -1,409
239,510; 5816,522;    1,162;   -1,227
240,109; 6029,485;   -0,474;    3,773
240,707; 6111,524;   -0,474;    1,227
241,305; 6607,844;   -0,383;    0,136
241,904; 6875,844;   -0,292;   -2,045
242,502; 6809,070;    3,253;   -0,227
243,100; 6805,347;    3,344;   -0,955
243,698; 7102,990;    2,799;    1,682
244,297; 7320,503;   -0,656;    0,682
244,895; 7126,301;   -0,474;   -2,318
245,493; 7523,504;    2,981;   -0,591
246,091; 7607,865;    5,163;   -1,318
246,689; 7639,759;    2,163;    0,591
247,287; 7825,527;   -0,019;   -1,136
247,885; 8216,277;   -1,019;    1,227
248,483; 8333,114;   -0,201;   -0,500
249,081; 8477,885;    0,981;    1,591
249,679; 8671,952;   -1,019;    1,682
250,277; 9044,628;   -2,292;    0,864
250,875; 9021,271;    0,617;   -1,045
251,473; 9106,874;   -0,019;    0,500
252,071; 9289,023;   -0,383;    1,045
252,669; 9471,710;   -1,565;    0,318
253,267; 9825,757;    1,618;    0,773
253,864; 9812,436;    0,617;    0,682
254,462; 9594,596;    1,526;    1,591
255,060; 9646,704;    0,072;    1,318
255,658;10064,710;   -3,292;   -0,136
256,255;10506,876;   -0,201;   -2,045
256,853;10365,913;    2,345;    1,409
257,451;10400,202;    1,981;    1,864
258,048;10644,492;    2,072;    1,864
258,646;10431,127;    0,436;   -1,045
259,243;10672,004;    2,981;    2,227
259,841;10732,144;    1,799;    0,318
260,438;10588,529;    0,254;    0,864
261,036;11467,552;    0,617;    1,409
261,633;11376,012;    1,526;    2,227
262,231;11131,155;   -0,110;   -0,045
262,828;11213,540;   -0,383;    1,136
263,425;11288,008;   -1,928;   -0,591
264,023;11571,613;    1,436;    0,045
264,620;11100,915;    1,526;   -0,318
265,217;11496,179;    2,890;    3,136
265,815;11664,401;    2,527;    2,136
266,412;11390,209;    0,072;    0,136
267,009;11445,005;    0,526;    0,773
267,606;11304,945;    0,345;   -0,955
268,203;11322,738;   -0,383;   -0,591
268,801;11659,276;   -0,474;    0,591
269,398;12035,538;   -0,564;    2,500
269,995;12009,540;    0,890;    1,591
270,592;11755,523;    0,799;   -0,500
271,189;12052,391;    1,981;    0,409
271,786;12183,422;    2,072;    1,227
272,383;11980,673;   -0,383;    0,227
272,980;12214,454;    1,617;    0,318
273,577;12756,801;    2,162;    1,227
274,174;12306,258;    1,435;    2,591
274,771;12264,619;    1,890;   -0,773
275,367;12388,695;    3,253;    1,409
275,964;12384,488;   -0,565;   -0,500
276,561;12564,027;   -2,474;   -1,045
277,158;12845,589;    1,799;   -1,773
277,755;12938,613;   -0,110;    0,409
278,351;12217,930;    0,436;   -1,500
278,948;12611,472;   -0,201;    0,045
279,545;12685,057;    0,527;    2,318
280,141;13327,961;    1,254;   -2,045
280,738;13238,408;    2,435;   -0,136
281,334;13557,811;   -0,383;    0,591
281,931;12879,626;    2,890;   -1,318
282,528;13006,405;    4,072;   -0,500
283,124;13865,323;    3,345;   -0,500
283,721;13796,840;    0,709;    1,409
284,317;13558,529;    0,163;    2,500
284,913;14142,288;   -0,110;    0,591
285,510;14380,561;    2,890;   -0,318
286,106;14438,334;    2,345;   -0,955
286,703;14002,665;    0,072;    1,955
287,299;14240,053;    1,254;   -0,591
287,895;14524,587;    0,890;   -1,045
288,491;15192,083;    0,163;    2,136
289,088;14856,090;    0,163;    2,409
289,684;14907,437;    2,890;    1,500
290,280;14945,735;    1,890;    0,682
290,876;15039,865;    0,163;    5,500
291,472;14913,715;    2,163;    2,227
292,068;15039,455;    1,254;    0,227
292,665;14720,508;   -0,564;    0,773
293,261;14230,239;   -1,292;    2,136
293,857;14657,433;    4,072;    2,136
294,453;14670,209;   -0,928;    0,955
295,049;14527,650;    0,253;    1,955
295,644;14540,574;   -1,292;    0,136
296,240;14431,197;    0,162;   -0,136
296,836;14515,054;   -0,747;    0,318
297,432;14817,642;    2,980;   -0,500
298,028;14835,803;    0,435;    0,773
298,624;15308,007;    0,889;    1,864
299,220;15672,839;    0,435;    0,591
299,815;15272,996;    0,526;   -0,409
300,411;15064,559;    0,435;    1,773
301,007;15127,759;    1,889;    0,227
301,602;15195,048;    2,071;   -2,318
302,198;15329,157;    1,435;   -0,773
302,794;15709,033;    1,526;   -0,500
303,389;15884,713;    1,071;    1,045
303,985;15960,722;    1,253;    1,409
304,580;15882,473;    0,889;    1,591
305,176;15931,797;    0,344;    0,136
305,771;15904,965;   -0,929;   -1,227
306,367;15660,488;    3,071;    0,136
306,962;16082,867;    2,889;    1,500
307,558;15777,160;    2,435;    0,136
308,153;15771,903;   -0,383;   -1,136
308,748;15994,324;    0,162;    1,682
309,344;15971,159;    0,253;   -1,318
309,939;16076,789;    2,071;   -1,318
310,534;16442,338;   -2,020;   -1,682
311,130;16398,410;   -0,656;   -2,500
311,725;16132,164;    0,526;   -0,500
312,320;16434,406;    1,253;    0,045
312,915;16289,807;    2,890;   -1,045
313,510;16345,214;    0,526;   -0,500
314,105;16928,364;   -3,565;    1,409
314,700;16291,027;   -1,656;   -1,045
315,295;15841,927;   -0,020;    0,045
315,890;15325,746;   -0,292;    0,864
316,485;15710,103;    0,253;   -0,318
317,080;15846,169;   -0,929;    1,591
317,675;16464,694;    3,071;   -0,682
318,270;15707,413;    6,889;    3,318
318,865;15765,671;    2,435;    3,045
319,460;15589,468;   -1,565;    0,591
320,055;15913,775;   -2,565;   -1,227
320,650;15529,485;   -1,838;   -0,591
321,244;15566,304;    0,889;   -1,409
321,839;16608,799;    0,980;   -0,227
322,434;16514,497;   -0,111;   -1,591
323,029;16080,613;   -0,474;    1,591
323,623;15880,688;    0,798;    0,773
324,218;15589,055;    2,707;    1,409
324,812;15512,775;    0,889;    1,591
325,407;15273,740;   -0,929;    2,045
326,002;15174,553;    0,526;   -0,409
326,596;15533,346;   -0,656;    1,318
327,191;15813,206;   -0,383;   -1,045
327,785;15296,892;   -0,747;   -0,227
328,379;15560,514;   -0,383;    0,136
328,974;15362,368;    1,798;   -3,955
329,568;15549,916;    2,889;   -2,409
330,163;15393,495;    2,435;    1,045
330,757;15775,475;    0,253;    1,591
331,351;15020,803;   -0,292;    0,682
331,945;15342,745;   -0,383;    1,409
332,540;14827,454;    1,617;   -0,591
333,134;14971,742;    3,344;    0,773
333,728;15210,691;    2,799;    0,318
334,322;15632,247;    0,889;   -0,864
334,916;14838,506;    0,344;    0,955
335,510;15213,808;   -0,111;   -0,136
336,105;15494,297;   -0,929;    1,591
336,699;15103,316;   -1,292;    0,591
337,293;15012,623;    1,071;    0,318
337,887;15232,714;    0,071;    1,955
338,481;15348,202;    2,980;    0,591
339,074;15455,673;    2,071;    2,682
339,668;15208,655;   -0,110;    1,227
340,262;15504,701;    7,708;    3,227
340,856;14984,527;    1,708;   -0,682
341,450;14232,534;    0,708;    1,864
342,044;15252,532;    1,799;    0,136
342,637;15001,031;    1,162;   -2,136
343,231;14830,545;   -1,474;    0,682
343,825;14762,756;   -0,747;   -0,591
344,419;14711,652;   -0,474;    0,500
345,012;14384,100;    2,889;    4,045
345,606;14388,158;   -0,656;    1,591
346,199;14221,456;   -0,111;   -0,227
346,793;13692,438;    2,525;    2,045
347,386;13893,361;    0,889;   -1,136
347,980;13873,296;   -0,838;   -0,045
348,573;13655,207;   -1,748;    0,409
349,167;13201,452;    6,161;    4,773
349,760;13584,516;    2,252;    2,682
350,354;13607,949;    1,616;    1,136
350,947;13269,658;    2,798;    1,682
351,540;12908,391;    0,616;   -1,409
352,134;12862,915;   -1,111;    1,136
352,727;12919,495;   -0,657;    1,136
353,320;12672,842;    2,343;    0,591
353,913;12516,784;   -1,929;    1,864
354,507;12665,312;    0,434;   -1,227
355,100;12694,406;    0,071;    0,864
355,693;11719,133;    4,798;    2,409
356,286;11780,082;    0,980;    2,773
356,879;12206,909;   -0,475;    1,227
357,472;11731,807;    0,980;    1,500
358,065;11936,172;    3,161;    2,500
358,658;11888,713;    0,798;    2,318
359,251;11453,379;    0,252;   -0,591
359,844;10794,764;    0,343;   -1,136
360,437;10967,673;    0,252;    0,045
361,030;11300,162;    0,525;   -0,682
361,623;10807,981;    0,434;    0,318
362,215;10850,163;    0,979;    2,045
362,808;10688,524;   -2,293;   -1,682
363,401;10874,645;    0,798;    0,136
363,994;10553,478;    3,252;   -1,500
364,586;10475,994;    0,888;   -1,500
365,179;10701,037;   -0,203;   -1,136
365,772;10087,913;   -0,930;    2,045
366,364;10438,856;    1,524;   -3,227
366,957;10674,450;    1,342;   -0,045
367,549;10694,672;   -0,203;   -0,864
368,142;10247,576;    0,978;   -1,500
368,734;10464,146;    2,523;   -2,136
369,327;10436,593;    2,341;   -0,500
369,919;10328,617;   -1,659;    0,409
370,512;10047,762;   -1,023;   -0,500
371,104; 9766,641;    2,704;    1,591
371,696; 9931,990;    1,703;   -0,955
372,289;10083,389;    0,157;    1,136
372,881;10231,142;    1,156;    1,318
373,473;10180,770;    4,064;    1,136
374,066; 9888,840;    1,336;    0,500
374,658; 9743,841;    0,879;    1,136
375,250;10150,550;   -1,668;   -1,409
375,842; 9982,922;   -0,124;   -0,045
376,434; 9836,934;   -2,762;   -0,409
377,026;10523,648;   -1,855;   -2,500
377,618;10400,377;    0,779;   -0,682
378,210;10247,260;    3,141;   -1,955
378,802;10085,153;    3,412;   -0,591
379,394; 9962,074;    3,411;    0,682
379,986;10677,139;    1,138;   -0,955
380,578;10821,146;    1,410;    0,773
381,170; 9990,066;    0,320;    0,045
381,762; 9987,968;   -0,224;    1,409
382,354;10243,289;   -0,223;   -1,318
382,945;10371,416;    0,870;    0,318
383,537;10533,531;    1,144;   -1,955
384,129;10536,556;    0,963;   -1,136
384,721;10750,453;    0,418;    0,955
385,312;10689,881;   -1,399;   -0,955
385,904;10730,767;   -0,945;    1,591
386,496;10021,266;    0,691;    1,045
387,087;10190,366;    0,418;    2,500
387,679;10260,938;   -0,401;    0,045
388,270;10407,508;   -2,401;    2,045
388,862;10546,325;   -0,401;   -0,318
389,453;10435,268;    1,054;    1,045
390,045;10733,960;    3,236;   -2,682
390,636;10675,436;    0,144;   -0,591
391,227;10536,028;    2,054;   -0,045
391,819;10605,734;    0,781;    0,773
392,410;10696,325;    0,600;    0,045
393,001;10615,317;    1,600;   -1,591
393,593;10954,755;    0,600;   -0,045
394,184;10758,528;    0,873;   -0,409
394,775;10715,487;    1,146;    2,136
395,366;10929,648;    1,782;    0,773
395,957;10976,754;   -2,400;    0,136
396,548;11318,592;    1,054;    2,682
397,139;11687,547;    2,236;    0,591
397,730;11347,947;    0,873;    0,955
398,321;11406,119;    0,509;    0,955
398,912;11450,272;   -0,764;    0,136
399,503;11548,733;   -1,945;   -1,409
400,094;10909,731;   -1,582;    1,682
400,685;10768,368;    3,600;    0,045
401,276;10856,159;   -0,400;   -0,955
401,867;11184,712;   -1,127;    0,773
402,458;11323,004;    1,509;   -2,318
403,048;11281,815;    0,146;    0,591
403,639;10860,358;    1,509;    0,864
404,230;11062,880;    0,691;    0,318
404,821;10982,824;   -0,127;    0,045
405,411;11116,488;   -0,763;   -2,591
406,002;10652,426;    3,237;   -1,136
406,592;10444,522;    2,691;    0,045
407,183;10801,316;    0,328;   -1,500
407,774;10695,089;    1,419;   -0,136
408,364;11094,376;    2,600;    0,409
408,954;10624,230;   -0,036;    1,227
409,545;10686,368;    1,873;    1,045
410,135;10133,144;   -1,581;    0,500
410,726;10340,281;    0,783;    0,318
411,316;10777,896;    2,237;    0,773
411,906;10446,256;    0,146;   -0,409
412,497; 9830,746;   -0,490;   -0,045
413,087;10531,664;    0,783;   -0,227
413,677;10976,043;   -2,490;    3,864
414,267;10751,313;   -1,035;    1,409
414,857;10793,947;    0,419;    4,227
415,448;11125,045;   -0,763;    0,500
416,038;10767,882;   -2,945;   -0,591
416,628;10710,908;    0,965;    0,409
417,218;10072,079;   -1,762;    3,318
417,808;10386,895;    0,965;   -0,409
418,398;10980,581;   -1,035;    2,682
418,988;11022,438;   -2,217;    0,591
419,578;11301,005;    3,601;    1,409
420,168;11702,467;    0,692;   -0,955
420,757;11189,171;    0,964;   -1,500
421,347;10849,035;    1,601;   -0,227
421,937;11030,753;    3,329;    1,409
422,527;10926,491;    2,602;   -0,773
423,116;10703,784;    2,692;   -0,045
423,706;11195,122;    2,965;    0,318
424,296;11179,002;    1,601;    0,682
424,885;11620,820;    1,510;   -3,045
425,475;11954,496;    1,147;   -2,864
426,065;11897,592;   -1,489;   -0,318
426,654;11459,722;    0,329;   -0,318
427,244;11552,135;    1,147;    1,409
427,833;10927,941;    1,056;   -0,500
428,423;11516,979;    0,147;    1,136
429,012;12387,468;    2,420;   -1,136
429,601;11798,346;    2,057;    0,136
430,191;12071,816;    2,511;    4,318
430,780;11658,337;   -1,671;   -0,409
431,369;11542,906;    1,329;   -0,045
431,959;12266,015;    1,693;    0,500
432,548;12025,640;   -1,398;   -0,045
433,137;12258,090;    0,329;   -1,318
433,726;12830,866;    0,148;    0,500
434,315;12080,691;    0,148;    2,409
434,905;12182,225;    0,693;    1,409
435,494;12087,056;    3,148;    0,955
436,083;12618,723;    1,420;   -0,955
436,672;12439,991;    1,148;    0,500
437,261;11925,916;    0,512;   -1,955
437,850;12022,188;   -1,125;    0,682
438,439;11994,426;    2,239;    1,955
439,027;11805,271;    3,421;    1,773
439,616;12228,602;    2,239;    1,227
440,205;12150,922;    0,057;   -2,136
440,794;12232,039;   -0,306;   -0,045
441,383;12522,463;    1,603;   -0,591
441,971;12383,768;   -0,306;    0,591
442,560;12225,339;    0,603;   -1,773
443,149;12000,533;    3,060;   -1,318
443,737;12173,040;    0,968;   -2,318
444,326;12398,747;    0,331;    0,318
444,915;12518,526;   -1,851;    0,864
445,503;12959,455;    0,058;   -0,318
446,092;12141,664;    7,876;    2,136
446,680;12742,613;    1,876;    0,318
447,269;12977,983;   -1,487;   -0,318
447,857;12682,823;    2,240;   -1,773
448,445;12817,780;    2,149;    1,318
449,034;13065,636;    0,876;   -1,136
449,622;13194,741;    1,240;    3,500
450,210;12232,012;    3,149;    2,227
450,799;12852,115;    2,604;   -0,591
451,387;12804,177;    1,786;   -0,591
451,975;12367,652;   -1,305;    0,864
452,563;12479,987;    0,422;    2,318
453,151;12543,688;   -1,032;   -1,227
453,739;12472,803;   -1,577;    0,136
454,328;12234,030;    0,604;   -2,136
454,916;11915,574;    1,150;   -0,136
455,504;12114,843;    3,513;    1,227
456,092;12330,232;    2,150;   -1,591
456,679;12329,059;    0,604;    0,682
457,267;12137,354;    3,604;    1,045
457,855;12410,586;    3,241;    1,409
458,443;12207,031;   -0,304;    1,682
459,031;12260,537;    1,332;    2,409
459,619;12789,038;   -3,577;    2,864
460,206;13011,569;   -0,759;    2,045
460,794;13100,538;   -0,668;   -0,227
461,382;13368,834;    0,878;   -0,864
461,970;12892,491;    0,605;    1,864
462,557;12908,406;    0,878;   -0,682
463,145;13129,481;   -0,304;   -1,682
463,732;13308,680;    2,514;   -1,045
464,320;13227,251;    1,514;   -3,045
464,907;12834,174;    0,423;   -0,773
465,495;12694,210;    2,696;   -1,227
466,082;12853,424;    2,060;   -0,045
466,670;12823,392;    2,605;    1,227
467,257;13250,267;    0,060;    2,045
467,844;13405,253;    1,514;    0,045
468,432;13434,984;   -0,031;    3,500
469,019;12860,725;    1,606;   -1,773
469,606;13340,272;    0,969;    3,682
470,193;13138,859;    2,151;    0,227
470,780;12632,032;    0,333;    0,864
471,368;13057,515;   -1,212;   -0,773
471,955;12797,654;    1,060;   -0,682
472,542;12356,346;   -0,303;   -1,136
473,129;12643,799;   -0,485;    0,136
473,716;12374,297;    0,060;    0,591
474,303;12612,144;    1,333;   -0,864
474,890;12929,327;    2,333;   -0,500
475,477;12918,938;   -0,576;    0,409
476,064;12843,821;    0,697;   -1,591
476,650;12751,710;    2,152;    0,318
477,237;12608,346;    1,879;    0,955
477,824;12815,470;    3,879;    0,864
478,411;12873,229;    0,606;   -0,318
478,997;13067,750;    0,606;   -0,773
479,584;13155,612;   -0,666;   -0,409
480,171;13912,435;    1,243;   -0,773
480,757;13559,777;   -0,848;    0,773
481,344;13924,429;    0,334;    0,409
481,931;13397,952;   -0,393;    1,045
482,517;14525,905;    0,425;    0,318
483,104;15282,486;    1,334;    2,864
483,690;15715,712;    0,243;    0,045
484,276;16204,526;    0,698;    0,227
484,863;15910,516;    2,152;    1,136
485,449;16589,155;    0,152;    0,318
486,035;16620,795;   -0,666;   -0,136
486,622;17079,212;   -2,393;    0,045
487,208;17003,838;    1,334;    1,500
487,794;16856,881;    0,971;    0,318
488,380;16954,999;    0,698;   -1,409
488,967;17025,301;   -1,120;   -0,409
489,553;17072,646;   -1,029;   -1,409
490,139;17262,004;    0,971;    0,773
490,725;16640,259;    0,789;   -0,227
491,311;16059,332;    1,516;    3,045
491,897;15181,377;   -0,665;    1,500
492,483;14918,439;    0,426;    1,227
493,069;14549,673;    5,426;    0,864
493,655;14576,443;    1,789;    0,682
494,241;14483,880;    1,517;   -0,955
494,826;14968,540;    0,335;   -1,045
495,412;14335,576;    0,335;   -0,682
495,998;14502,691;    0,971;   -0,318
496,584;14693,808;    2,244;    1,045
497,169;14665,480;    2,335;   -0,682
497,755;14580,339;    1,244;    1,227
498,341;15211,556;    2,153;    0,318
498,926;14725,666;    2,881;    1,955
499,512;14968,594;   -0,028;    2,955
500,097;15176,638;   -0,574;   -0,318
500,683;15089,370;   -0,028;    2,136
501,268;15469,798;    1,881;   -0,955
501,854;15187,667;   -0,119;    1,227
502,439;15058,626;   -0,573;   -1,773
503,024;15312,659;    1,608;    0,500
503,610;15387,741;    1,335;   -0,682
504,195;15390,484;    1,245;    1,955
504,780;15482,584;    2,335;    1,227
505,366;15240,678;    4,063;    2,864
505,951;14971,232;   -1,119;    1,045
506,536;15014,633;    1,427;   -3,682
507,121;14985,037;    1,699;   -0,318
507,706;15537,899;   -0,392;    1,045
508,291;15978,792;   -2,937;    1,136
508,876;15397,548;   -0,482;    2,591
509,461;14811,511;    1,427;   -0,773
510,046;15289,305;   -0,391;    0,318
510,631;15514,054;   -0,119;   -0,773
511,216;15149,862;   -0,664;   -0,500
511,801;15560,915;   -0,755;    2,591
512,386;15879,955;    0,972;    0,500
512,971;15814,823;    0,427;    0,955
513,555;15313,871;    1,154;   -1,500
514,140;16180,646;    1,336;   -3,136
514,725;16190,082;    1,791;   -1,136
515,309;16351,085;    1,064;    0,318
515,894;15730,035;   -0,300;   -2,227
516,479;16177,637;    1,973;   -0,955
517,063;16028,686;    0,882;    1,227
517,648;16227,290;    0,155;   -1,136
518,232;15830,776;   -1,300;   -1,409
518,817;16132,952;    1,337;    1,682
519,401;16356,010;    0,700;    0,591
519,985;15850,892;    2,700;    1,136
520,570;15746,193;   -0,118;   -1,955
521,154;16056,182;    0,064;    0,591
521,738;16249,777;    1,064;    2,409
522,323;16880,366;   -0,390;    1,682
522,907;16602,061;    2,428;   -0,136
523,491;16233,651;    1,155;    0,955
524,075;16239,554;    0,428;    0,591
524,659;16365,520;    0,973;    0,591
525,243;15760,705;    0,883;    0,409
525,827;16056,534;    0,883;   -0,045
526,411;16973,702;    1,155;   -0,136
526,995;17195,178;    0,337;    1,409
527,579;16748,542;    1,974;   -1,045
528,163;17068,177;    0,428;   -1,500
528,747;17016,558;    1,065;   -0,773
529,331;17362,974;    0,883;   -1,409
529,915;17595,241;    2,338;    0,955
530,499;17526,752;    0,247;    1,227
531,082;17200,512;    1,065;    1,591
531,666;16587,504;    0,520;    0,773
532,250;17364,552;    0,428;    2,682
532,833;17716,214;    0,610;    2,773
533,417;17577,915;    1,247;    0,864
534,001;17557,321;    0,429;   -0,318
534,584;18334,393;    1,974;    0,500
535,168;18152,455;    3,247;    1,409
535,751;18225,100;    4,520;    0,045
536,334;17615,505;    4,520;   -0,409
536,918;18289,496;    1,974;    1,591
537,501;18423,703;    1,520;    1,318
538,085;18376,170;    1,702;    1,045
538,668;18586,255;    0,883;    2,409
539,251;18957,976;    3,156;    3,773
539,834;18955,827;    0,156;    0,773
540,418;18860,547;    3,247;    4,318
541,001;19006,122;    2,702;    1,773
541,584;19063,507;    1,429;    2,227
542,167;18746,187;    0,702;    2,955
542,750;18890,991;    0,793;   -0,773
543,333;18454,988;    1,429;    2,136
543,916;19285,790;   -0,298;    2,500
544,499;19991,175;    2,520;    0,227
545,082;20006,548;    0,248;    3,591
545,665;20170,101;   -0,207;    1,500
546,248;20535,352;    0,520;   -0,318
546,830;20180,061;   -1,752;    1,955
547,413;20640,638;    0,157;   -0,773
547,996;21213,522;    0,157;    0,500
548,579;20941,919;   -0,843;    0,955
549,161;20811,837;    0,884;    2,682
549,744;20639,416;    0,612;    0,409
550,326;21138,719;    0,885;   -1,136
550,909;20838,981;    2,339;    0,591
551,492;21282,448;    0,521;    0,227
552,074;21083,770;   -0,024;   -1,318
552,657;21654,204;    2,430;    0,045
553,239;21430,460;   -3,024;   -0,773
553,821;21351,256;   -1,570;    1,045
554,404;20785,609;   -0,024;    1,136
554,986;21194,968;    2,248;    1,045
555,568;21858,132;    0,430;   -0,955
556,151;20949,399;    4,067;   -0,227
556,733;21148,258;   -1,388;   -0,864
557,315;21732,184;    4,703;    0,500
557,897;21537,999;    0,521;   -0,500
558,479;21693,700;    1,703;    1,318
559,061;21811,052;    1,067;   -0,864
559,643;22215,719;   -0,297;    0,045
560,225;22590,869;   -0,388;    2,864
560,807;22637,174;    0,340;    0,318
561,389;22086,863;   -1,206;    2,318
561,971;22870,696;   -0,660;    2,136
562,553;22722,829;    0,613;    1,591
563,135;22845,729;    1,249;    1,136
563,717;22445,406;    3,158;    1,136
564,298;23237,498;    3,976;   -0,045
564,880;22936,733;    0,340;   -1,409
565,462;23160,097;    1,977;    1,318
566,043;24414,464;   -0,933;    2,318
566,625;23929,903;    4,067;    1,227
567,207;23809,078;    0,704;    1,682
567,788;25082,243;   -0,114;    1,500
568,370;26046,576;   -1,841;   -0,500
568,951;25912,674;   -0,569;    0,227
569,533;26912,146;    0,977;   -0,500
570,114;27465,086;   -0,296;    0,682
570,695;28068,025;   -0,478;   -1,318
571,277;28778,384;   -0,205;   -1,682
571,858;29622,362;    2,704;   -1,136
572,439;30637,772;    0,795;   -1,045
573,021;30857,589;    0,432;   -2,773
573,602;31494,033;    1,795;    0,318
574,183;32566,644;   -0,114;    2,227
574,764;32849,292;    2,068;    0,409
575,345;33494,364;    0,250;   -0,136
575,926;34208,177;    2,704;    0,136
576,507;34255,837;    2,704;   -0,227
577,088;35437,347;    1,704;    1,682
577,669;35479,319;    1,704;    1,955
578,250;36287,372;   -0,750;   -1,045
578,831;37075,656;   -0,841;   -2,227
579,412;37453,405;   -1,205;    0,955
579,993;38513,686;    1,432;    0,227
580,573;38863,736;   -0,023;   -0,955
581,154;37790,097;    1,613;   -0,591
581,735;38714,088;    0,341;    0,773
582,315;38163,906;    0,523;    2,136
582,896;38505,565;   -1,750;    1,227
583,477;37891,373;    0,614;    1,227
584,057;38051,560;    1,159;    0,955
584,638;38329,686;   -2,750;    2,318
585,218;38352,349;    2,886;    2,682
585,799;38597,357;    1,977;   -0,227
586,379;38473,438;    1,250;    1,591
586,959;37051,079;    2,613;    0,318
587,540;36239,234;    0,432;    2,227
588,120;35641,045;   -1,113;   -0,045
588,700;34471,287;    2,977;    2,136
589,281;34747,120;    1,250;   -0,955
589,861;34726,699;   -0,296;   -1,682
590,441;34535,695;   -1,477;   -2,682
591,021;33364,035;    1,432;   -2,591
591,601;33568,006;    0,431;    0,500
592,181;33482,255;   -1,296;   -0,773
592,761;32719,481;    2,250;    1,409
593,341;32596,483;    1,522;    0,045
593,921;32536,857;   -0,569;    1,591
594,501;32378,750;    1,250;    1,318
595,081;32260,227;    0,522;   -0,318
595,661;32588,445;    1,068;    0,955
596,240;33171,860;   -1,023;    0,136
596,820;32776,160;    2,613;    1,955
597,400;33076,890;    1,977;    0,773
597,980;33285,868;   -0,750;    1,045
598,559;33271,664;    0,341;   -0,227
599,139;32926,662;   -0,750;   -1,227
599,718;32826,207;    0,795;   -0,409
600,298;33061,517;   -2,387;    0,682
600,877;33287,185;    4,795;    1,409
601,457;33586,667;    0,340;    1,136
602,036;33515,446;    1,795;    2,045
602,616;33783,489;    2,250;    1,682
603,195;34079,107;    0,431;    3,500
603,774;33621,615;   -0,296;    2,045
604,354;33489,427;    2,522;   -0,500
604,933;32943,780;    0,250;    1,864
605,512;33084,527;    2,340;    0,591
606,091;33097,605;    1,886;    3,773
606,671;33945,192;    0,249;    0,773
607,250;32938,040;    1,431;    3,136
607,829;33205,610;    1,158;    3,227
608,408;33044,722;    4,613;    2,591
608,987;31948,719;    2,704;    3,409
609,566;32221,459;    0,341;   -2,500
610,145;32327,379;    2,885;    0,682
610,723;32831,565;    1,613;    6,864
611,302;31998,314;    1,067;    1,682
611,881;31398,068;    5,158;   11,227
612,460;32235,168;    0,795;    3,955
613,039;32731,817;    1,703;    2,045
613,617;31354,795;    0,886;    4,773
614,196;31544,021;    1,613;    1,227
614,775;31904,025;    1,249;    2,409
615,353;31860,464;   -1,660;    0,864
615,932;31483,746;    0,249;    2,409
616,510;32062,647;    0,158;    0,591
617,089;31519,028;    8,794;   17,591
617,667;31185,579;    4,885;    6,136
618,246;31013,983;   -1,115;    1,318
618,824;31210,188;    1,612;   -0,955
619,402;30752,930;    0,431;   -1,773
619,981;31306,648;    1,067;   -1,045
620,559;31099,389;    0,794;    1,682
621,137;30623,260;    3,067;    1,864
621,715;30565,809;    3,703;   -0,682
622,293;30473,119;    1,885;   -0,773
622,871;30940,639;    0,340;    0,500
623,450;30462,754;    0,430;   -0,864
624,028;30367,227;   -0,388;   -0,955
624,606;29956,646;    2,339;    1,682
625,183;30390,950;   -0,661;   -1,136
625,761;29913,662;    1,885;    1,136
626,339;30222,048;    2,339;    2,591
626,917;30634,352;    0,339;   -0,045
627,495;30666,341;    2,794;    1,318
628,073;30050,610;    5,248;    2,864
628,650;29713,474;    3,067;    2,136
629,228;30181,094;    1,248;    4,409
629,806;29469,049;   -0,024;    1,136
630,383;29810,854;    0,066;   -0,318
630,961;29575,811;   -2,206;   -0,955
631,539;29318,334;   -2,479;    0,227
632,116;28431,266;   12,703;   15,409
632,694;29107,974;    4,885;    6,500
633,271;29457,992;    1,975;    2,682
633,848;29353,107;    1,430;    2,045
634,426;29414,173;    1,521;    1,773
635,003;28467,243;   -0,207;   -0,409
635,580;28823,093;    1,884;    3,682
636,158;29336,653;    3,793;    1,227
636,735;29354,209;    3,339;   -0,500
637,312;29489,601;    0,521;   -0,682
637,889;29558,518;    2,248;   -0,682
638,466;29017,096;    0,066;   -0,409
639,043;29034,976;    1,702;   -1,136
639,620;29330,926;    0,611;   -0,955
640,197;29653,585;    1,612;    1,682
640,774;29843,849;    1,430;    1,136
641,351;30263,840;    0,612;    1,136
641,928;29583,831;    2,794;    1,409
642,505;29231,549;    0,794;   -0,500
643,082;29388,813;    1,885;    1,227
643,658;28288,259;    1,157;    1,500
644,235;29080,886;   -2,479;    2,500
644,812;29398,514;    1,794;    0,773
645,388;29106,505;    1,612;    1,409
645,965;29195,314;    1,521;    1,682
646,542;29305,760;    3,430;   -0,227
647,118;29312,751;    3,703;   -0,955
647,695;29629,015;    0,339;    1,136
648,271;29517,825;   -2,115;    0,500
648,848;29826,361;    0,248;    2,227
649,424;29638,261;    0,976;    1,318
650,000;29396,162;   -0,388;   -1,045
650,577;29212,062;    0,158;   -0,955
651,153;29722,417;   -1,115;    0,955
651,729;30752,771;    0,521;    0,864
652,305;31132,853;    1,339;    2,773
652,881;36494,663;   -1,297;    1,136
653,458;44652,109;    0,249;    0,227
654,034;49337,100;    0,703;    1,591
654,610;51221,545;    0,339;    0,773
655,186;52709,537;    1,612;    3,045
655,762;52358,528;   -1,842;    0,409
656,338;52516,155;    0,703;    0,136
656,913;53650,874;   -0,297;    0,409
657,489;52918,592;    0,249;   -0,318
658,065;52838,310;    0,794;   -1,591
658,641;53389,120;    2,158;   -0,864
659,217;52540,565;    2,067;    0,409
659,792;51917,193;   -1,751;   -0,409
660,368;52182,366;   -0,388;   -0,682
660,944;51678,630;    1,794;    1,227
661,519;46293,530;    0,522;    0,409
662,095;38982,703;   -0,206;    0,591
662,670;33343,331;   -0,206;   -0,136
663,246;31899,413;   -0,660;   -0,409
663,821;31058,586;    0,431;    1,682
664,396;30525,304;    0,613;    1,864
664,972;30813,932;   -0,660;   -0,500
665,547;31106,741;    3,794;    0,136
666,122;31093,732;    1,340;    0,318
666,698;31421,087;    2,431;    0,318
667,273;30723,805;    0,885;    0,136
667,848;31569,978;    0,340;    1,500
668,423;31330,788;    1,795;    2,318
668,998;31995,688;    0,976;   -0,682
669,573;32575,497;    2,067;   -1,500
670,148;32375,670;    1,885;   -0,682
670,723;32211,843;   -0,024;    0,318
671,298;32657,743;   -1,296;    1,045
671,873;32786,553;   -0,296;   -0,136
672,448;32735,635;    1,704;    0,136
673,023;33124,535;    0,249;   -0,227
673,597;33445,162;    2,704;    2,318
674,172;33166,517;    2,431;    0,318
674,747;32668,599;   -0,205;   -1,045
675,321;32532,863;   -0,933;    3,318
675,896;32071,218;    2,158;    1,045
676,471;33091,755;    2,522;    1,591
677,045;32856,018;   -0,296;    0,682
677,620;32873,373;    2,158;    1,136
678,194;33223,728;    0,249;    1,136
678,769;32757,719;    0,886;   -0,318
679,343;32932,983;   -0,023;    1,773
679,917;32816,701;    0,340;    1,955
680,492;32933,329;    0,249;    3,227
681,066;33131,138;    0,613;    0,409
681,640;33150,493;    1,795;   -0,318
682,214;33975,212;    2,340;    0,500
682,788;33490,748;    0,613;   -0,773
683,363;33444,103;    1,977;    1,682
683,937;33168,094;    0,886;   -0,318
684,511;34049,631;   -1,023;   -0,591
685,085;33733,076;   -1,478;    0,318
685,659;33441,158;    1,431;    0,864
686,232;33690,968;    1,159;   -0,318
686,806;33468,868;    2,159;    0,409
687,380;34095,495;   -1,932;    0,591
687,954;34332,487;    2,432;    1,136
688,528;33999,841;    2,613;    1,955
689,101;34771,014;    0,432;    1,045
689,675;34367,642;    0,886;   -0,136
690,249;33736,633;    3,432;    0,409
690,822;34058,079;    1,159;    0,318
691,396;34155,434;    2,068;    1,227
691,969;33511,061;    2,523;    0,136
692,543;33976,325;   -0,568;   -1,955
693,116;33618,407;   -0,659;   -1,409
693,690;33494,671;   -0,296;    0,500
694,263;34052,662;    2,341;    2,955
694,836;34126,108;    2,795;    3,591
695,410;32689,372;    1,159;    1,773
695,983;33166,545;    1,614;    0,591
696,556;33120,899;   -0,750;   -1,045
697,129;33502,800;   -1,114;    1,409
697,703;33086,609;    1,341;    1,955
698,276;33111,146;    1,705;   -0,773
698,849;32887,591;   -1,023;    1,409
699,422;33287,764;    1,250;    0,591
699,995;32966,210;   -0,659;    0,136
700,568;33456,565;   -0,204;    3,045
701,140;33470,829;   -1,841;    1,682
701,713;33204,638;    0,341;    2,409
702,286;32925,629;    0,796;    0,864
702,859;32810,620;    0,614;   -0,591
703,432;31924,611;   -0,841;    0,682
704,004;32484,148;    1,978;    0,318
704,577;32314,685;    1,068;    0,136
705,150;32918,494;    0,887;    2,500
705,722;32679,394;    1,523;   -3,227
706,295;32481,749;    1,432;   -0,591
706,867;32262,013;    0,250;    1,955
707,440;32462,549;   -0,113;   -0,409
708,012;32763,268;   -0,022;    0,591
708,584;32634,350;    2,705;    0,227
709,157;32987,977;    1,160;   -0,591
709,729;32663,787;    1,069;    2,045
710,301;33505,960;   -1,204;    0,045
710,874;33487,042;    0,341;   -0,227
711,446;32324,578;   -0,295;    0,864
712,018;32254,115;   -3,022;    0,500
712,590;32007,924;   -0,204;    1,682
713,162;32583,279;   -0,477;    1,318
713,734;32823,179;    1,796;   -2,045
714,306;32666,352;    0,342;   -0,409
714,878;31293,707;   -0,295;    0,864
715,450;32102,062;   -0,113;    0,864
716,022;32375,053;    2,433;    1,318
716,593;32559,499;    0,978;    0,591
717,165;32489,854;    1,796;   -1,227
717,737;32148,663;    0,796;    0,409
718,309;31778,745;    1,160;   -0,045
718,880;31734,827;   -1,295;   -1,409
719,452;31959,091;    0,887;   -1,591
720,024;31478,446;    1,705;   -0,591
720,595;32003,164;    2,978;    0,955
721,167;31543,973;    1,160;   -2,045
721,738;31012,783;    2,069;   -1,045
722,309;30943,865;    1,251;   -1,227
722,881;30728,492;    2,705;    0,773
723,452;31469,756;    1,251;    2,864
724,023;31661,020;    1,524;    2,682
724,595;31398,738;    2,342;    0,682
725,166;31147,821;    1,524;   -0,409
725,737;30765,721;    1,887;    0,227
726,308;30882,348;    0,797;    0,318
726,879;31312,249;    1,069;    1,227
727,450;31170,331;   -2,022;   -0,045
728,021;31081,049;    1,069;    0,682
728,592;30941,858;    1,160;    0,500
729,163;31279,395;    1,433;   -0,136
729,734;31209,932;    2,160;   -0,227
730,305;31605,559;    0,615;    0,136
730,876;31981,459;    0,888;    2,955
731,447;31706,087;    0,797;    2,682
732,017;31872,533;   -0,840;    1,864
732,588;31320,342;   -0,021;    1,227
733,159;31516,697;    3,615;   -1,045
733,729;31273,051;    1,251;    0,409
734,300;30526,224;    0,160;    0,864
734,870;31003,216;   -1,385;    0,591
735,441;31601,389;    0,888;   -0,591
736,011;31317,471;    1,070;   -1,591
736,582;31247,553;    1,251;    0,045
737,152;30688,180;    0,979;   -2,045
737,722;31144,444;    1,070;   -0,682
738,293;30885,526;   -2,021;    1,318
738,863;30764,790;    1,797;    2,318
739,433;30512,690;    4,524;    0,318
740,003;31123,045;    1,524;   -0,682
740,573;30447,673;    2,252;   -1,591
741,143;30450,845;    3,615;    0,318
741,713;31181,837;    0,252;   -0,500
742,283;30880,282;    1,706;    1,591
742,853;30596,364;    0,524;    1,591
743,423;30051,810;    0,161;    0,045
743,993;30195,438;    1,070;    1,500
744,563;29511,156;    2,524;   -0,864
745,133;29472,511;   -0,112;   -0,864
745,702;30175,957;    2,797;    1,773
746,272;29318,584;    0,434;    0,591
746,842;29094,121;   -0,748;   -0,591
747,411;29562,748;   -0,839;   -0,318
747,981;29837,103;   -0,930;    0,500
748,551;29862,094;   -0,021;   -1,045
749,120;29700,085;   -0,112;   -0,227
749,690;30176,531;    2,161;    2,409
750,259;30451,613;    0,979;    2,955
750,828;30341,150;    4,070;   -1,955
751,398;30555,141;   -0,112;   -0,045
751,967;30000,314;    2,888;    0,409
752,536;30237,850;    1,161;   -0,227
753,105;30657,569;   -1,384;    0,227
753,675;30509,196;   -0,112;    1,773
754,244;30452,824;    0,888;    3,591
754,813;30524,179;    0,979;    1,227
755,382;30183,806;    0,798;    0,955
755,951;30707,070;   -0,112;    3,682
756,520;30178,970;    2,525;    1,864
757,089;30807,234;    1,888;    0,500
757,658;30984,862;    2,434;    1,227
758,227;30968,307;   -1,111;    0,318
758,795;31301,117;   -1,021;    1,136
759,364;31556,835;    0,525;   -0,591
759,933;30489,826;    1,343;   -0,045
760,501;30048,454;    0,252;   -1,318
761,070;30523,627;   -0,293;   -1,409
761,639;31243,436;    1,434;    1,318
762,207;30502,427;    0,889;   -0,955
762,776;30432,964;    2,889;    0,864
763,344;30340,500;    0,071;    0,591
763,913;29440,492;    1,616;    1,409
764,481;30173,755;    1,980;   -0,136
765,049;29986,474;    0,616;    1,409
765,618;29842,920;    1,434;    0,318
766,186;29940,547;    2,434;    0,136
766,754;30127,902;    1,798;    1,864
767,322;29038,347;    1,162;    0,409
767,890;29075,702;    0,525;   -1,773
768,459;29467,239;    2,616;   -0,318
769,027;29668,412;    2,525;    3,409
769,595;28579,948;    2,616;    2,591
770,163;29004,485;    3,344;    2,955
770,730;28656,658;    2,525;   -0,136
771,298;28498,013;    1,162;   -1,409
771,866;28651,186;    0,253;    4,955
772,434;28992,086;    1,162;   -1,864
773,002;29117,623;    2,616;    0,682
773,569;28721,068;    1,071;    1,682
774,137;28565,241;    0,889;   -0,045
774,705;29354,505;   -0,747;   -0,136
775,272;28758,769;    0,253;    0,682
775,840;28590,760;   -0,111;    2,682
776,407;28077,479;   -0,293;    1,955
776,975;27608,833;    1,162;    0,318
777,542;28700,915;    2,162;   -0,045
778,110;28532,725;    0,707;   -0,045
778,677;28147,898;    1,071;   -0,864
779,244;27920,162;   -1,020;    1,045
779,812;28047,698;    0,980;    0,864
780,379;27867,780;    2,435;    1,136
780,946;28116,317;    2,617;   -0,773
781,513;28478,763;   -0,565;    0,318
782,080;27761,481;    1,253;    2,864
782,647;28524,745;    1,708;    3,045
783,214;28080,372;   -0,201;    3,864
783,781;27650,455;    1,708;   -0,682
784,348;27533,718;    0,253;    1,500
784,915;28041,528;   -1,474;    0,318
785,482;27775,428;    2,708;    2,591
786,049;28254,783;    1,071;   -0,591
786,615;28316,228;    1,708;   -0,955
787,182;28103,310;   -3,201;   -0,682
787,749;27773,756;   -2,201;    1,409
788,315;27052,929;    0,253;   -0,409
788,882;27310,102;    0,981;   -1,227
789,448;28061,002;    1,435;   -0,955
790,015;28039,357;    1,799;    3,227
790,581;27576,257;    0,708;    0,227
791,148;27470,703;    1,344;    1,045
791,714;27723,967;   -1,019;    3,136
792,280;27402,594;    3,708;    1,591
792,847;26972,586;   -0,928;    2,500
793,413;27550,213;   -0,110;   -0,318
793,979;27018,386;    1,526;   -1,318
794,545;27087,741;    2,981;    2,682
795,111;26474,914;    2,435;    1,318
795,678;26637,814;    3,526;   -1,682
796,244;26294,623;    2,799;    0,136
796,810;26832,615;    0,799;    0,773
797,375;26501,878;   -0,292;   -2,136
797,941;26629,779;   -1,110;    0,591
798,507;26770,588;    0,254;   -0,955
799,073;26284,579;    2,708;    0,591
799,639;26343,661;    1,435;    3,136
800,205;26342,471;   -1,565;    2,682
800,770;25848,734;    1,345;    1,773
801,336;25863,907;    2,981;   -0,955
801,901;25542,444;    6,072;    3,136
802,467;26119,708;    0,526;    2,045
803,033;25447,517;   -0,019;    0,864
803,598;25593,781;    1,072;   -1,045
804,163;25660,954;    0,708;   -0,318
804,729;25638,309;   -0,110;    1,136
805,294;26070,027;    1,072;    2,227
805,859;25796,109;    0,890;   -0,409
806,425;25282,919;    3,890;    2,682
806,990;24974,092;    1,890;    4,318
807,555;25488,083;   -0,110;    2,591
808,120;25319,256;   -1,292;   -0,409
808,685;25379,792;    1,072;   -2,500
809,250;24891,602;    2,072;   -0,500
809,815;25197,957;   -0,201;    0,682
810,380;25741,493;    0,981;    1,591
810,945;26331,212;    2,890;    2,045
811,510;25485,475;   -0,200;    1,591
812,075;25186,103;    2,800;   -1,409
812,640;25182,640;    3,709;    1,409
813,204;25164,358;    2,163;   -0,227
813,769;25707,531;    0,254;   -0,045
814,334;25073,158;    0,527;    0,864
814,898;25104,513;    1,981;    0,591
815,463;24931,504;    0,981;   -0,773
816,027;24914,586;    1,345;   -2,318
816,592;25004,123;    2,163;   -2,045
817,156;24454,205;   -2,200;    1,136
817,721;24213,469;    0,982;    2,318
818,285;24227,278;    0,618;    1,500
818,849;24934,542;   -0,018;    1,682
819,414;24815,170;    0,073;    2,955
819,978;24394,343;   -0,291;    1,773
820,542;25026,607;    2,891;    0,500
821,106;24654,052;    2,800;    0,682
821,670;24731,316;    2,709;    2,591
822,234;24457,853;    1,073;    1,409
822,798;23803,389;   -0,836;    0,500
823,362;23748,926;    1,527;    4,227
823,926;22975,190;   -0,018;    1,136
824,490;23271,181;    3,527;   -0,682
825,054;23768,718;    2,527;   -1,136
825,618;23357,163;   -1,200;   -1,500
826,181;23261,700;    0,982;   -1,318
826,745;23090,509;   -0,745;   -1,045
827,309;23490,500;    2,255;    1,318
827,872;22832,492;    0,527;    0,955
828,436;23866,028;    1,982;   -0,773
828,999;23902,292;    2,436;    1,227
829,563;22687,374;   -0,654;    1,136
830,126;22520,820;   -0,018;   -0,591
830,690;22481,538;    0,709;    2,864
831,253;21973,620;   -0,473;    2,227
831,816;22152,975;   -0,018;    0,500
832,380;22036,784;    1,164;    0,864
832,943;22231,594;    3,073;   -0,500
833,506;21747,130;    0,255;   -1,227
834,069;22575,031;    2,164;   -0,955
834,632;22573,567;   -2,200;    1,318
835,195;22456,831;    1,346;    0,955
835,758;21620,913;    0,709;    1,955
836,321;21452,086;    1,073;   -1,045
836,884;21523,623;   -1,291;   -0,955
837,447;21551,341;    0,528;    1,773
838,010;21822,150;    1,800;    3,227
838,573;22124,596;    0,528;    0,773
839,135;22082,042;   -0,109;   -0,955
839,698;21530,033;    2,528;    0,409
840,261;21086,297;    0,255;   -0,227
840,823;20920,197;   -0,927;    0,864
841,386;21185,097;   -0,018;   -2,409
841,948;21050,270;    0,255;    1,773
842,511;20770,625;    0,255;    1,682
843,073;20926,344;    2,982;    0,227
843,636;20718,516;    0,619;   -0,227
844,198;20599,235;    1,255;    0,591
844,760;20737,499;    0,619;    1,955
845,322;20341,944;    0,164;    1,136
845,885;20824,936;   -0,290;    0,591
846,447;21292,109;    0,710;    0,227
847,009;20775,463;    3,983;   -0,682
847,571;21196,909;    1,346;   -2,045
848,133;21289,355;   -0,199;   -1,864
848,695;21061,891;    2,346;    1,409
849,257;20569,973;    1,346;   -1,682
849,819;20748,783;    2,983;   -0,409
850,381;20808,410;    1,801;   -0,864
850,942;21236,583;    1,892;   -0,591
851,504;21125,938;    0,983;    0,227
852,066;21186,202;    1,619;   -1,591
852,628;20687,829;    0,165;    1,955
853,189;20250,457;    0,256;    2,682
853,751;20387,448;   -0,654;    1,409
854,312;20237,894;    1,256;   -1,682
854,874;20731,430;   -0,108;   -0,773
855,435;21228,694;    0,528;   -1,682
855,997;21409,958;    3,983;   -0,136
856,558;20625,222;    0,801;    1,773
857,119;20749,395;   -0,744;    2,864
857,681;20433,386;   -0,108;    0,318
858,242;20466,650;    1,347;   -2,136
858,803;20943,823;    1,074;   -0,773
859,364;21518,632;    0,892;   -4,773
859,925;20815,987;   -0,290;   -0,955
860,486;20748,796;    0,529;   -0,955
861,047;20425,515;    0,165;   -1,227
861,608;20240,415;    0,165;   -0,773
862,169;20377,952;   -0,562;   -0,045
862,730;20098,125;   -0,290;    1,409
863,291;20346,934;    0,438;   -0,500
863,852;20657,198;   -0,926;    1,955
864,412;20097,734;   -1,835;   -0,864
864,973;18643,089;    1,892;    0,500
865,534;18482,808;    2,074;    0,227
866,094;20041,526;    2,620;    0,227
866,655;19675,881;    4,711;    3,318
867,215;19975,145;    0,074;    0,136
867,776;19787,045;   -1,199;   -0,136
868,336;19900,218;    1,529;    0,136
868,897;19320,391;    3,438;    1,682
869,457;19081,837;    3,256;    0,318
870,017;19298,555;    2,438;   -1,227
870,578;19870,910;    1,893;    0,773
871,138;19499,537;    2,620;   -0,955
871,698;19024,983;   -0,562;   -1,318
872,258;18855,247;    0,711;   -2,864
872,818;19227,056;    2,347;    0,045
873,378;19160,138;   -2,198;    1,045
873,938;18753,857;    4,984;    0,500
874,498;19065,575;    1,256;   -1,955
875,058;18937,112;    4,347;    1,773
875,618;18784,285;    1,438;   -2,682
876,177;18762,367;   -0,471;    0,136
876,737;18325,903;   -0,289;    1,955
877,297;18301,986;    2,711;    1,955
877,856;18320,613;    2,529;    0,318
878,416;18253,695;    2,438;   -0,136
878,976;18573,141;    3,438;    0,409
879,535;18704,132;    4,529;    3,136
880,095;18426,941;    1,347;    0,045
880,654;18561,205;    0,347;    1,318
881,213;18612,105;    2,347;    1,500
881,773;18310,824;    1,984;    2,682
882,332;18634,633;    6,075;    5,136
882,891;18506,988;    0,711;    2,136
883,451;19019,434;   -2,016;    1,682
884,010;18395,788;   -1,107;   -0,409
884,569;18436,143;   -2,289;   -0,045
885,128;18588,771;   -0,743;   -1,864
885,687;18669,580;   -0,743;    0,682
886,246;18357,208;    2,620;    2,136
886,805;18132,381;    1,620;    2,045
887,364;18516,917;    1,166;   -0,500
887,922;18819,999;   -0,016;    0,045
888,481;18246,899;    1,530;    0,591
889,040;18597,436;    3,711;    2,136
889,599;19320,791;    2,166;    1,409
890,157;19422,146;    2,166;    2,409
890,716;19103,319;    2,166;    0,227
891,274;18835,582;    0,075;   -1,136
891,833;19244,665;    1,166;    0,864
892,391;19155,019;    1,802;    0,500
892,950;19314,101;    0,166;   -0,773
893,508;19674,820;    0,984;   -0,409
894,067;19000,265;   -0,379;    0,136
894,625;18881,984;   -1,016;   -1,500
895,183;19096,793;   -0,198;   -0,682
895,741;18997,421;    2,257;   -1,773
896,299;18856,776;    1,621;   -2,409
896,858;19046,312;    1,530;   -1,591
897,416;19140,303;    0,166;   -1,318
897,974;18846,113;   -2,197;    0,318
898,532;18948,831;    6,530;    2,682
899,089;18878,459;    0,621;   -0,682
899,647;18916,813;    0,530;    1,318
900,205;18665,168;    0,257;    1,045
900,763;18859,887;    2,166;    0,227
901,321;18821,060;    3,530;   -1,409
901,878;18277,687;    3,257;   -0,773
902,436;18131,496;    0,257;    1,318
902,994;18507,488;    6,712;    3,682
903,551;17943,479;    1,439;    0,409
904,109;18318,106;    1,530;   -1,409
904,666;17875,006;    1,439;    1,045
905,224;17682,543;    3,894;   -0,409
905,781;17397,625;   -0,470;   -0,318
906,338;17459,071;    0,167;    1,045
906,895;17397,607;    1,894;    2,045
907,453;17317,053;    2,348;    1,136
908,010;17355,135;    3,348;    0,409
908,567;16926,490;   -0,561;    0,591
909,124;16454,572;    2,439;   -1,500
909,681;16524,200;   -1,288;    0,682
910,238;16667,009;   -0,106;   -1,318
910,795;16994,545;   -1,561;   -1,136
911,352;16645,182;   -0,379;   -2,682
911,909;16028,545;    2,803;   -0,864
912,466;16501,273;    1,985;    1,500
913,022;16012,545;   -0,924;    0,500
913,579;16376,727;   -0,470;    2,045
914,136;16034,545;   -2,561;    0,955
914,692;16384,364;    1,530;   -1,227
915,249;15922,545;    0,530;    0,409
915,806;16181,818;    1,803;    1,955
916,362;15862,091;    0,894;    1,864
916,918;15423,636;    2,439;    1,045
917,475;15382,273;    1,621;    0,955
918,031;15528,364;    0,076;   -0,045
918,587;14963,636;    0,621;   -0,318
919,144;15175,545;   -0,379;    0,227
919,700;15526,000;    0,167;    0,773
920,256;15052,818;    0,439;    0,045
920,812;14643,273;    1,439;   -1,045
921,368;14629,636;    1,348;   -1,045
921,924;14220,818;    0,439;   -0,136
922,480;13791,182;    0,076;    1,227
923,036;14445,000;   -0,652;    1,955
923,592;14390,545;    0,621;    0,318
924,148;14264,273;    1,894;   -0,955
924,704;13576,182;    0,258;   -0,409
925,259;13832,455;   -0,561;    0,591
925,815;13581,818;    3,803;    0,500
926,371;13066,818;    3,530;    1,409
926,926;12911,636;    1,621;    0,591
927,482;12487,182;    1,621;    0,773
928,037;12374,727;   -0,833;    2,045
928,593;12702,000;    0,258;    1,045
929,148;12507,818;    1,167;   -1,500
929,704;12014,182;    2,439;   -0,500
930,259;12199,636;    0,894;   -0,136
930,814;11216,818;    1,803;    1,955
931,369;10904,909;    0,258;   -0,773
931,925;10767,364;   -1,924;    0,136
932,480;10631,818;    3,076;   -2,591
933,035;10463,273;    3,985;   -0,318
933,590;10216,000;   -1,742;   -1,773
934,145; 9845,909;   -1,288;   -0,318
934,700;10210,545;    0,348;   -0,591
935,255; 9992,273;    4,803;    0,045
935,809; 9194,182;    6,258;    0,864
936,364; 8283,273;    2,167;   -0,136
936,919; 8225,636;    2,348;   -1,773
937,474; 8115,364;    1,348;    0,136
938,028; 7853,091;    3,076;    1,136
938,583; 7260,636;    6,348;    4,682
939,138; 7555,364;    0,167;    2,136
939,692; 6977,727;   -1,015;   -1,136
940,247; 6607,091;    1,167;   -1,045
940,801; 6100,000;    0,621;    0,227
941,355; 6002,000;    0,439;    2,591
941,910; 5648,091;    0,712;   -2,136
942,464; 5740,455;    2,712;   -0,318
943,018; 5478,455;    3,258;   -0,227
943,572; 5450,364;    2,803;   -0,682
944,126; 4794,545;   -0,924;   -0,409
944,681; 4662,455;    0,712;    0,227
945,235; 4650,818;    2,167;   -0,591
945,789; 4623,636;    1,258;   -1,864
946,342; 4669,091;   -0,561;   -0,591
946,896; 4506,818;    0,348;    0,955
947,450; 4260,727;   -0,561;   -0,227
948,004; 4400,364;    1,076;   -0,045
948,558; 4445,364;    1,258;   -0,864
949,111; 4362,273;   -1,197;   -0,318
949,665; 4358,273;   -0,106;   -0,682
950,219; 4209,636;    0,621;   -1,045
950,772; 4318,182;    0,258;    1,864
951,326; 4228,727;   -1,106;   -0,955
951,879; 4335,091;    1,076;   -2,318
952,433; 4335,636;    1,348;    2,227
952,986; 4188,000;    0,348;    0,682
953,539; 4102,636;    1,530;    0,591
954,093; 4057,545;    0,985;   -1,318
954,646; 4203,636;   -0,288;    1,318
955,199; 4007,091;    1,258;   -0,500
955,752; 3860,091;    1,985;    1,773
956,305; 3821,727;    0,894;    2,955
956,858; 4004,182;    0,621;   -0,318
957,411; 4187,636;    3,621;    2,136
957,964; 4002,455;    2,076;    2,136
958,517; 3982,727;    0,985;    3,136
959,070; 3800,455;   -1,197;    1,955
959,623; 3852,000;    1,076;    1,500
960,176; 3640,909;    0,712;    2,045
960,728; 3612,545;    1,712;    0,773
961,281; 3686,727;    2,258;    0,500
961,834; 3726,000;   -0,833;    0,864
962,386; 3635,909;    1,258;    1,045
962,939; 3534,636;    3,439;   -0,318
963,491; 3711,273;    2,621;    1,136
964,043; 3563,182;    0,076;    2,409
964,596; 3696,000;    1,712;    2,227
965,148; 3502,364;   -0,379;    1,773
965,700; 3446,455;   -0,015;   -0,227
966,253; 3587,455;   -0,833;    0,318
966,805; 3421,727;    1,894;    0,773
967,357; 3484,545;    0,439;   -1,500
967,909; 3407,909;    1,167;   -1,227
968,461; 3553,000;    0,894;    3,136
969,013; 3473,818;   -1,561;   -0,864
969,565; 3557,091;    1,803;   -1,136
970,117; 3580,364;    3,803;    1,045
970,669; 3420,727;    3,258;   -0,136
971,220; 3290,818;    2,167;   -1,500
971,772; 3233,545;    1,348;   -0,318
972,324; 3345,545;   -1,197;   -0,500
972,876; 3305,455;    0,167;   -0,045
973,427; 3419,455;   -1,197;   -1,045
973,979; 3382,091;    0,076;   -2,500
974,530; 3435,455;    0,803;    1,318
975,082; 3462,545;    2,167;    1,682
975,633; 3326,818;    2,894;    1,682
976,184; 3484,545;    2,076;    0,773
976,736; 3261,273;    0,348;    0,227
977,287; 3034,455;    0,258;   -0,500
977,838; 3229,545;   -0,924;   -0,318
978,389; 3292,636;    0,803;   -0,500
978,940; 3166,273;    1,258;   -0,409
979,491; 3194,091;    2,258;   -0,500
980,042; 3119,364;   -0,652;    3,045
980,593; 3198,000;    1,894;    0,227
981,144; 3253,273;    3,530;   -0,500
981,695; 3203,273;   -0,470;    1,500
982,246; 3170,273;   -1,833;    1,045
982,797; 3343,273;   -0,561;    0,682
983,347; 3463,636;    2,167;    0,591
983,898; 3618,000;    4,167;    0,409
984,449; 3408,545;    2,530;    0,773
984,999; 3354,091;    1,894;   -1,136
985,550; 3086,818;    3,167;   -0,318
986,100; 3164,273;    0,712;   -0,318
986,651; 3208,455;    0,258;    0,045
987,201; 3170,455;    0,894;   -0,591
987,751; 3258,455;   -0,288;    2,864
988,302; 3223,000;   -0,379;    1,500
988,852; 3258,909;    1,985;   -1,136
989,402; 3293,818;    0,985;    0,682
989,952; 3207,636;    1,621;    0,864
990,502; 3319,273;    1,076;    0,682
991,052; 3310,273;   -0,106;    0,045
991,602; 3145,636;    1,167;    1,318
992,152; 3133,909;    2,803;    0,682
992,702; 3103,545;    1,167;   -0,045
993,252; 3031,273;    0,076;   -0,500
993,802; 3100,818;    1,167;    1,318
994,352; 3387,182;   -0,742;    1,136
994,901; 3502,364;    1,076;    3,227
995,451; 3394,636;   -1,197;    0,318
996,000; 3478,273;    1,076;    0,318
996,550; 3154,364;    2,894;    0,227
997,100; 3166,636;   -0,561;   -0,045
997,649; 3458,000;   -0,197;    0,955
998,198; 3076,636;   -0,288;   -1,500
998,748; 3271,909;    0,348;   -2,318
999,297; 3195,091;    0,985;   -0,409
999,846; 3253,273;    1,894;   -0,773
1000,395; 3312,273;    1,530;    0,500
1000,945; 3229,091;    1,076;   -0,773
1001,494; 3298,545;    0,167;    0,682
1002,043; 3304,182;    0,712;    0,864
1002,592; 3138,182;    3,439;    1,955
1003,141; 3302,636;    2,439;   -0,682
1003,690; 3124,364;    1,258;    0,500
1004,238; 3224,182;   -0,106;   -0,045
1004,787; 2839,636;   -1,288;    1,227
1005,336; 3047,182;    1,621;    0,682
1005,885; 3241,818;   -0,197;   -2,773
1006,433; 3396,818;   -0,470;    0,955
1006,982; 3421,818;    2,167;    1,682
1007,531; 3373,727;    2,712;   -0,227
1008,079; 3335,727;    0,258;    0,500
1008,627; 3509,909;    1,621;    0,409
1009,176; 3201,364;    0,076;   -1,955
1009,724; 3241,182;   -2,742;    0,864
1010,273; 3269,000;    1,076;    0,500
1010,821; 3434,000;    1,076;    1,409
1011,369; 3152,818;    0,076;    1,318
1011,917; 3119,182;   -0,833;   -0,591
1012,465; 3419,273;    2,530;   -1,591
1013,013; 3548,545;    0,439;   -1,682
1013,561; 3378,273;   -1,288;   -0,773
1014,109; 3429,091;   -0,833;    1,682
1014,657; 3315,455;    1,348;    0,591
1015,205; 3463,545;    0,894;   -0,955
1015,753; 3509,545;    0,258;   -1,409
1016,301; 3526,545;    2,621;    3,045
1016,848; 3541,636;    2,167;    0,409
1017,396; 3575,636;    1,621;    0,045
1017,944; 3711,545;    2,621;    1,864
1018,491; 3475,727;   -0,197;    1,409
1019,039; 3585,091;   -0,652;    0,591
1019,586; 3543,727;    0,076;    1,682
1020,134; 3647,182;    0,712;    1,500
1020,681; 3663,364;    2,894;   -1,136
1021,228; 3697,545;   -0,561;   -2,227
1021,776; 3512,727;   -0,833;   -1,136
1022,323; 3705,364;    0,803;    0,773
1022,870; 3653,364;   -0,470;   -0,045
1023,417; 3521,636;    2,076;    1,864
1023,964; 3695,909;    0,621;    1,227
1024,511; 3509,909;   -0,652;    0,773
1025,058; 3289,636;    0,439;   -0,045
1025,605; 3355,545;   -1,742;    3,136
1026,152; 3560,182;   -0,106;   -0,591
1026,699; 3287,909;    0,167;    1,318
1027,245; 3482,909;    2,439;    0,318
1027,792; 3737,727;    0,712;    1,409
1028,339; 3558,364;    4,076;   -0,045
1028,885; 3403,273;    3,621;   -0,227
1029,432; 3352,000;   -0,106;    0,227
1029,978; 3412,545;    1,348;   -1,591
1030,525; 3300,545;    1,621;    0,409
1031,071; 3589,727;    0,348;    1,136
1031,618; 3669,545;    1,258;    1,682
1032,164; 3450,273;    2,076;    3,045
1032,710; 3494,273;    0,076;   -1,500
1033,256; 3420,091;    0,712;   -0,136
1033,803; 3426,455;   -0,288;    1,500
1034,349; 3152,273;    1,803;    0,136
1034,895; 3309,364;    2,621;   -0,318
1035,441; 3272,727;    0,439;    0,318
1035,987; 3267,636;   -2,288;   -0,682
1036,533; 3258,364;   -0,197;   -0,955
1037,078; 3441,727;    4,712;    1,682
1037,624; 3266,091;    2,439;   -0,955
1038,170; 3324,636;    1,712;   -0,318
1038,716; 3186,091;    2,167;   -0,409
1039,261; 3105,091;    2,167;   -0,773
1039,807; 3030,364;   -0,015;    3,409
1040,352; 3106,364;   -1,288;   -0,318
1040,898; 3167,545;    0,167;   -0,682
1041,443; 3078,545;    0,803;   -2,591
1041,989; 3066,545;    3,621;    1,591
1042,534; 2963,636;    0,985;    2,591
1043,079; 3123,455;    1,985;    0,955
1043,625; 2854,182;    0,258;    0,500
1044,170; 2883,000;    2,439;    1,045
1044,715; 3146,000;    0,167;    0,955
1045,260; 2964,182;   -0,833;   -0,955
1045,805; 3032,727;    0,258;   -0,591
1046,350; 2967,727;    0,530;   -0,409
1046,895; 2918,818;    0,803;    1,591
1047,440; 2844,091;    1,530;    0,409
1047,985; 2762,091;   -1,197;   -0,955
1048,530; 2675,364;    1,348;    1,227
1049,074; 2738,909;    2,803;    0,318
1049,619; 2709,364;   -0,924;    1,955
1050,164; 2499,091;    1,076;    0,227
1050,708; 2562,273;    2,621;    0,045
1051,253; 2907,909;    3,258;   -2,227
1051,797; 2624,000;   -0,197;   -1,318
1052,342; 2656,909;    1,348;    1,045
1052,886; 2632,000;    1,803;   -1,409
1053,430; 2527,727;    2,167;    0,136
1053,975; 2547,091;    0,894;   -0,318
1054,519; 2510,273;    1,803;    3,227
1055,063; 2510,000;    3,621;    1,318
1055,607; 2379,091;    1,348;    0,227
1056,151; 2392,818;    0,530;    1,682
1056,695; 2325,455;   -1,833;   -1,136
1057,239; 2387,455;   -1,197;   -0,682
1057,783; 2386,818;    2,258;   -1,500
1058,327; 2324,727;    3,076;    1,409
1058,871; 2557,182;    3,985;    1,318
1059,415; 2259,545;   -0,561;   -0,045
1059,958; 2500,273;    2,985;    2,591
1060,502; 2242,273;    1,348;   -0,773
1061,046; 2147,273;    1,712;   -0,955
1061,589; 2150,000;    2,803;   -1,136
1062,133; 2008,727;    0,985;    1,864
1062,676; 1939,545;    1,439;    0,864
1063,220; 1935,000;    0,985;    0,500
1063,763; 1952,909;    2,985;    1,136
1064,306; 2017,455;    0,985;    1,864
1064,849; 1900,091;    2,076;    0,591
1065,393; 1902,818;    2,894;   -1,500
1065,936; 2042,636;    2,530;   -0,409
1066,479; 1938,364;    2,621;    1,318
1067,022; 1965,273;    1,894;   -0,227
1067,565; 1840,000;   -1,197;   -1,318
1068,108; 1876,273;    1,258;   -0,591
1068,651; 1866,727;   -2,470;    1,409
1069,194; 1786,182;   -1,106;   -1,682
1069,736; 1765,000;    3,803;    0,955
1070,279; 1762,000;   -1,652;   -0,500
1070,822; 1789,909;    1,530;   -0,318
1071,364; 1848,091;    0,530;    1,318
1071,907; 1687,455;    0,348;    3,227
1072,450; 1624,818;    0,258;   -0,045
1072,992; 1603,000;   -0,561;    3,136
1073,535; 1724,909;    0,167;    2,136
1074,077; 1503,091;    2,985;    2,045
1074,619; 1477,364;    0,985;    0,591
1075,161; 1489,636;   -0,561;    1,500
1075,704; 1675,364;    0,258;    1,227
1076,246; 1497,818;    1,530;    0,682
1076,788; 1424,273;   -1,015;    1,773
1077,330; 1512,000;   -2,106;    2,136
1077,872; 1457,636;   -1,924;    0,955
1078,414; 1678,545;    3,712;    0,773
1078,956; 1404,364;    0,167;   -0,227
1079,498; 1644,273;    0,439;    0,318
1080,040; 1340,364;    0,985;   -1,318
1080,581; 1300,818;    0,621;   -0,318
1081,123; 1243,727;   -0,106;   -0,773
1081,665; 1286,727;    3,803;   -0,955
1082,206; 1553,636;    3,258;   -0,500
1082,748; 1434,091;    3,258;    2,045
1083,289; 1321,182;    0,167;    1,318
1083,831; 1223,455;    0,258;    0,227
1084,372; 1238,000;    0,894;    0,591
1084,913; 1241,091;    3,348;    0,864
1085,455; 1230,545;    1,530;   -2,045
1085,996; 1184,727;    0,530;    0,136
1086,537; 1203,000;    0,985;    0,864
1087,078; 1244,364;    0,439;   -2,136
1087,619; 1287,273;   -1,652;    0,227
1088,160; 1200,182;    1,439;    1,318
1088,701; 1181,364;   -0,742;    0,682
1089,242; 1129,273;   -0,561;   -2,227
1089,783; 1199,909;   -0,561;    1,409
1090,324; 1177,909;   -0,833;    0,682
1090,865; 1057,727;   -1,924;   -0,409
1091,405; 1045,818;   -0,561;    2,227
1091,946; 1066,091;   -0,197;   -0,955
1092,487;  990,364;   -1,288;   -1,409
1093,027; 1134,636;    1,803;   -1,500
1093,568;  989,545;    2,258;    1,227
1094,108; 1068,727;    0,621;    1,773
1094,649; 1034,545;   -0,470;    0,136
1095,189;  966,364;    1,167;   -0,682
1095,729;  906,545;    0,712;    0,955
1096,269;  939,273;    1,258;   -0,955
1096,810; 1234,364;   -0,197;    0,500
1097,350; 1057,818;   -0,561;   -0,773
1097,890;  958,000;    2,985;    1,227
1098,430; 1208,545;    4,985;    2,864
1098,970; 1074,909;    1,894;    1,682
1099,510;  961,182;   -0,833;   -2,318
1100,050;  887,273;    0,258;   -1,591
1100,589;  839,273;    0,076;   -0,318
1101,129;  964,273;    0,894;   -0,955
1101,669; 1095,909;    2,803;    2,136
1102,209;  930,000;    1,530;    2,227
1102,748;  876,909;    3,439;    0,955
1103,288;  863,364;    0,712;   -1,227
1103,827;  889,636;    3,530;   -2,227
1104,367;  772,364;    1,712;   -2,409
1104,906;  736,545;   -1,015;   -1,136
1105,445;  808,364;    0,985;   -1,136
1105,985;  740,273;   -0,652;    1,500
1106,524;  789,364;    1,530;   -0,682
1107,063;  770,364;    1,167;    1,409
1107,602;  753,091;    1,894;   -1,500
1108,141;  674,091;    1,621;    1,500
1108,680;  765,545;    3,985;   -0,591
1109,219;  702,545;    0,167;   -0,500
1109,758;  710,636;    4,167;    0,682
1110,297;  680,364;   -1,106;   -0,682
1110,836;  618,727;    1,439;    0,955
1111,375;  779,636;    0,348;    0,409
1111,913;  781,818;    0,985;    0,773
1112,452;  728,455;    0,894;    0,136
1112,991;  625,091;    1,076;    1,955
1113,529;  575,182;    0,167;   -0,045
1114,068;  640,000;    0,439;    2,955
1114,606;  535,818;   -0,561;   -0,955
1115,144;  689,636;    1,530;    1,045
1115,683;  635,182;    1,985;    0,318
1116,221;  689,545;    2,076;   -0,864
1116,759;  598,091;    1,621;   -0,864
1117,297;  781,545;    1,621;    1,864
1117,836;  595,545;    1,985;   -1,227
1118,374;  596,818;    0,258;   -0,682
1118,912;  550,273;    0,439;    2,682
1119,450;  533,273;    0,985;    0,864
1119,988;  581,273;    3,348;    2,136
1120,525; 1040,545;    7,258;    3,318
1121,063;  727,000;    0,530;    1,864
1121,601;  543,182;    1,076;   -1,227
1122,139;  504,182;    1,076;   -2,045
1122,676;  691,636;   -1,652;    2,773
1123,214;  626,909;    0,712;    4,409
1123,751;  443,273;    0,621;    2,227
1124,289;  569,091;    0,894;   -0,409
1124,826;  434,273;   -0,379;    0,227
1125,364;  379,364;    0,712;   -0,955
1125,901;  552,727;    6,258;    1,227
1126,438;  646,000;    3,530;    0,955
1126,975;  392,545;    2,985;   -0,773
1127,513;  445,818;    2,621;    2,136
1128,050;  364,364;   -0,561;   -0,682
1128,587;  471,091;    1,348;   -0,227
1129,124;  499,636;   -0,015;    1,318
1129,661;  376,455;   -1,924;    0,227
1130,198;  538,091;    2,439;    0,773
1130,734;  485,455;   -0,379;    1,409
1131,271;  350,000;   -1,197;    0,864
1131,808;  513,364;    1,621;    3,045
1132,345;  374,000;    4,530;    0,318
1132,881;  258,000;   -0,561;   -1,864
1133,418;  391,545;    0,348;   -1,136
1133,954;  337,000;    0,712;   -2,682
1134,491;  407,455;    1,712;   -0,773
1135,027;  314,909;    2,167;    0,864
1135,564;  386,000;    1,439;    2,955
1136,100;  364,727;   -0,742;    2,136
1136,636;  274,273;   -1,015;   -1,045
1137,172;  356,182;    0,894;   -1,045
1137,708;  283,091;   -1,561;   -1,045
1138,245;  289,727;    0,803;   -1,227
1138,781;  250,545;    1,803;   -3,318
1139,317;  308,909;    1,894;   -1,409
1139,852;  294,818;    3,076;    0,136
1140,388;  410,727;    2,076;   -0,409
1140,924;  299,000;    1,076;   -2,227
1141,460;  230,182;   -0,288;    0,136
1141,996;  176,364;   -0,652;    2,682
1142,531;  222,182;    1,076;    3,318
1143,067;  424,182;    1,167;    1,045
1143,602;  470,000;    3,439;   -0,318
1144,138;  327,545;    0,803;    1,045
1144,673;  202,364;    1,621;    1,409
1145,209;  274,182;    2,894;   -0,318
1145,744;  193,182;    0,803;    0,864
1146,279;  313,818;    1,530;   -0,136
1146,815;  234,091;    1,530;   -2,682
1147,350;  268,545;   -0,924;    0,045
1147,885;  188,455;   -1,924;   -1,318
1148,420;  188,273;    2,439;    0,773
1148,955;  173,455;   -1,470;    1,864
1149,490;  201,909;   -1,106;   -1,591
1150,025;  180,091;   -1,106;   -1,773
1150,560;  278,000;   -0,288;   -0,955
1151,094;  245,545;    0,258;   -0,591
1151,629;  254,273;   -3,742;    0,864
1152,164;  189,727;   -1,288;    1,318
1152,698;  145,091;    1,258;   -0,136
1153,233;  108,091;   -1,379;   -0,682
1153,767;  156,455;   -0,288;   -2,318
1154,302;  198,000;   -0,379;    1,773
1154,836;  201,364;    0,803;   -2,136
1155,371;  243,636;    2,258;    3,682
1155,905;  200,545;    1,985;    1,682
1156,439;  175,000;    0,530;   -0,500
1156,973;  200,273;    0,439;    0,318
1157,507;  141,909;   -1,742;    0,682
1158,042;  171,364;   -0,652;    1,045
1158,576;  211,727;   -0,561;    1,773
1159,110;  193,818;    0,076;    2,409
1159,643;  173,273;   -2,470;   -0,045
1160,177;  116,545;   -2,015;    1,500

