
Integration time [ms]:   0,050
Averaging Nr. [scans]: 11
Smoothing Nr. [pixels]: 0
Data measured with spectrometer [name]: 7318044SP
Wave   ;Sample   ;Dark     ;Reference
[nm]   ;[counts] ;[counts] ;[counts] 

186,757;  -27,935;   38,161;    1,318
187,357;  -10,986;   26,706;    0,955
187,958;  -24,253;   17,252;   -1,591
188,558;   16,409;   12,979;   -1,227
189,159;   -0,593;   10,070;   -4,500
189,759;  -20,818;    5,797;   -3,591
190,360;  -24,549;    6,797;   -2,136
190,960;   -0,994;    5,706;   -4,136
191,560;    5,890;    2,614;   -6,591
192,161;  188,998;    5,885;   -3,500
192,761;   70,101;    5,520;   -3,227
193,361;   15,038;    3,065;   -3,773
193,962;   54,249;    1,612;   -2,682
194,562;   -2,824;   -0,114;   -3,955
195,162;    2,976;   -0,567;   -2,227
195,762;  109,957;    2,433;   -0,045
196,362;   71,802;    1,706;   -2,500
196,963;  -11,087;    1,706;   -0,864
197,563;   35,237;    1,252;   -0,955
198,163;  -11,474;   -0,111;   -0,682
198,763;    1,391;   -0,020;   -0,500
199,363;   37,024;    3,616;   -0,500
199,963;   17,067;    2,162;    0,409
200,563;    5,320;    6,344;   -1,409
201,163;   -9,579;    5,435;   -0,227
201,763;   16,008;    1,435;    0,318
202,363;  -11,573;    0,980;    1,500
202,963;   18,198;    1,526;    1,045
203,563;   69,395;    0,344;    0,500
204,162;   13,889;    1,889;   -1,864
204,762;    7,678;    2,071;    0,591
205,362;   -7,160;    0,708;    1,955
205,962;    9,411;    3,435;    1,955
206,562;   -0,488;    1,889;    2,318
207,161;   -6,065;    1,708;    0,318
207,761;   66,818;    4,435;    2,409
208,361;   -0,091;    1,889;    1,409
208,960;   25,075;    2,889;    1,500
209,560;   17,798;    0,435;    1,591
210,160;   30,024;    5,071;    1,864
210,759;    6,504;    0,708;    1,227
211,359;   -4,235;   -0,474;    1,045
211,958;   88,053;    3,526;    2,045
212,558;   93,176;    0,799;    1,864
213,157;   29,395;   -0,929;    1,500
213,757;  159,460;    5,617;   -0,227
214,356;   54,972;    1,708;   -0,409
214,956;  130,016;    3,526;    0,409
215,555;   24,510;    0,617;    2,136
216,154;   -2,911;   -0,292;   -0,591
216,754;    4,160;    1,253;    0,773
217,353;   18,828;   -0,383;   -1,045
217,952;  -20,589;    2,072;    0,318
218,552;   34,057;    0,254;   -0,773
219,151;   -1,336;   -1,110;    0,955
219,750;   -6,172;    0,890;   -0,227
220,349;  -12,472;   -2,292;    1,045
220,948;   40,757;    1,163;    1,136
221,548;    1,089;    0,617;    1,227
222,147;    4,982;   -1,292;   -0,409
222,746;   71,909;    1,254;   -0,955
223,345;   21,867;   -1,019;    0,500
223,944;   19,101;    1,163;    0,773
224,543;   24,245;    4,072;   -1,409
225,142;   15,213;    1,345;    0,136
225,741;   15,500;    1,163;    1,045
226,340;   14,492;    1,254;   -0,955
226,939;   52,508;    2,708;   -0,136
227,538;    6,413;    1,163;   -0,773
228,137;   60,213;    0,435;    0,864
228,735;   36,658;    0,435;    1,227
229,334;  -13,725;   -0,474;   -0,227
229,933;   67,998;    0,799;    0,591
230,532;   62,152;   -1,201;   -0,409
231,131;   92,743;    1,253;    0,318
231,729;   27,039;    1,163;   -2,318
232,328;    2,885;    0,435;   -1,500
232,927;    9,559;    4,526;   -0,500
233,525;   10,099;    0,981;    0,045
234,124;   21,391;    1,890;   -1,591
234,723;   -0,712;    1,617;   -1,045
235,321;   -8,769;    1,163;    0,136
235,920;    1,231;    2,526;   -1,227
236,518;   62,901;    1,072;    0,318
237,117;   -5,480;    2,890;   -0,227
237,715;    8,251;    1,163;   -0,500
238,314;   17,091;    1,708;   -2,318
238,912;   52,215;    0,526;   -1,409
239,510;   18,903;    1,162;   -1,227
240,109;   73,786;   -0,474;    3,773
240,707;   55,530;   -0,474;    1,227
241,305;   -3,368;   -0,383;    0,136
241,904;   23,632;   -0,292;   -2,045
242,502;   81,389;    3,253;   -0,227
243,100;   25,958;    3,344;   -0,955
243,698;   -5,947;    2,799;    1,682
244,297;   22,466;   -0,656;    0,682
244,895;   15,302;   -0,474;   -2,318
245,493;   83,913;    2,981;   -0,591
246,091;   88,022;    5,163;   -1,318
246,689;   41,194;    2,163;    0,591
247,287;   31,696;   -0,019;   -1,136
247,885;    9,893;   -1,019;    1,227
248,483;   -4,984;   -0,201;   -0,500
249,081;   37,775;    0,981;    1,591
249,679;   43,041;   -1,019;    1,682
250,277;    2,460;   -2,292;    0,864
250,875;   41,786;    0,617;   -1,045
251,473;    3,927;   -0,019;    0,500
252,071;   34,288;   -0,383;    1,045
252,669;    7,101;   -1,565;    0,318
253,267;   -5,018;    1,618;    0,773
253,864;    3,968;    0,617;    0,682
254,462;   54,773;    1,526;    1,591
255,060;    0,723;    0,072;    1,318
255,658;   -4,172;   -3,292;   -0,136
256,255;    9,777;   -0,201;   -2,045
256,853;   34,711;    2,345;    1,409
257,451;    8,530;    1,981;    1,864
258,048;  157,389;    2,072;    1,864
258,646;   61,399;    0,436;   -1,045
259,243;   95,075;    2,981;    2,227
259,841;   45,804;    1,799;    0,318
260,438;   -3,494;    0,254;    0,864
261,036;   35,510;    0,617;    1,409
261,633;    6,848;    1,526;    2,227
262,231;   -6,259;   -0,110;   -0,045
262,828;  -11,832;   -0,383;    1,136
263,425;   -3,449;   -1,928;   -0,591
264,023;    4,269;    1,436;    0,045
264,620;   43,743;    1,526;   -0,318
265,217;   79,383;    2,890;    3,136
265,815;   12,209;    2,527;    2,136
266,412;   26,767;    0,072;    0,136
267,009;   22,429;    0,526;    0,773
267,606;   61,126;    0,345;   -0,955
268,203;    6,401;   -0,383;   -0,591
268,801;    2,579;   -0,474;    0,591
269,398;   -3,589;   -0,564;    2,500
269,995;   30,804;    0,890;    1,591
270,592;   17,490;    0,799;   -0,500
271,189;   -3,919;    1,981;    0,409
271,786;  -16,951;    2,072;    1,227
272,383;   44,348;   -0,383;    0,227
272,980;    5,051;    1,617;    0,318
273,577;   -3,447;    2,162;    1,227
274,174;   -7,828;    1,435;    2,591
274,771;   28,373;    1,890;   -0,773
275,367;  172,907;    3,253;    1,409
275,964;   78,638;   -0,565;   -0,500
276,561;   18,130;   -2,474;   -1,045
277,158;  -13,231;    1,799;   -1,773
277,755;   61,956;   -0,110;    0,409
278,351;   32,298;    0,436;   -1,500
278,948;   50,731;   -0,201;    0,045
279,545;   33,373;    0,527;    2,318
280,141;   67,035;    1,254;   -2,045
280,738;   80,445;    2,435;   -0,136
281,334;   15,593;   -0,383;    0,591
281,931;   -7,569;    2,890;   -1,318
282,528;   40,960;    4,072;   -0,500
283,124;   64,682;    3,345;   -0,500
283,721;   58,300;    0,709;    1,409
284,317;   16,871;    0,163;    2,500
284,913;   66,105;   -0,110;    0,591
285,510;  115,195;    2,890;   -0,318
286,106;   62,124;    2,345;   -0,955
286,703;   25,759;    0,072;    1,955
287,299;    3,622;    1,254;   -0,591
287,895;    5,504;    0,890;   -1,045
288,491;    2,138;    0,163;    2,136
289,088;   28,648;    0,163;    2,409
289,684;   26,101;    2,890;    1,500
290,280;   87,097;    1,890;    0,682
290,876;   68,245;    0,163;    5,500
291,472;   56,348;    2,163;    2,227
292,068;   55,871;    1,254;    0,227
292,665;   24,531;   -0,564;    0,773
293,261;    1,010;   -1,292;    2,136
293,857;   41,531;    4,072;    2,136
294,453;   18,261;   -0,928;    0,955
295,049;   94,330;    0,253;    1,955
295,644;   27,573;   -1,292;    0,136
296,240;  -12,174;    0,162;   -0,136
296,836;   19,245;   -0,747;    0,318
297,432;   58,555;    2,980;   -0,500
298,028;   58,441;    0,435;    0,773
298,624;   27,366;    0,889;    1,864
299,220;   26,425;    0,435;    0,591
299,815;   20,974;    0,526;   -0,409
300,411;   53,057;    0,435;    1,773
301,007;   62,229;    1,889;    0,227
301,602;   12,686;    2,071;   -2,318
302,198;   82,494;    1,435;   -0,773
302,794;   30,453;    1,526;   -0,500
303,389;    0,755;    1,071;    1,045
303,985;   11,205;    1,253;    1,409
304,580;   78,443;    0,889;    1,591
305,176;   32,478;    0,344;    0,136
305,771;  -18,854;   -0,929;   -1,227
306,367;  148,182;    3,071;    0,136
306,962;   56,049;    2,889;    1,500
307,558;   84,800;    2,435;    0,136
308,153;   63,034;   -0,383;   -1,136
308,748;   13,122;    0,162;    1,682
309,344;  144,852;    0,253;   -1,318
309,939;  128,796;    2,071;   -1,318
310,534;   25,051;   -2,020;   -1,682
311,130;   18,472;   -0,656;   -2,500
311,725;   10,551;    0,526;   -0,500
312,320;   27,036;    1,253;    0,045
312,915;   60,698;    2,890;   -1,045
313,510;  142,595;    0,526;   -0,500
314,105;   30,451;   -3,565;    1,409
314,700;   -9,107;   -1,656;   -1,045
315,295;    9,079;   -0,020;    0,045
315,890;   -8,607;   -0,292;    0,864
316,485;   35,662;    0,253;   -0,318
317,080;    7,251;   -0,929;    1,591
317,675;  122,409;    3,071;   -0,682
318,270;  226,816;    6,889;    3,318
318,865;  146,534;    2,435;    3,045
319,460;   80,107;   -1,565;    0,591
320,055;   16,502;   -2,565;   -1,227
320,650;   16,692;   -1,838;   -0,591
321,244;   14,279;    0,889;   -1,409
321,839;   10,468;    0,980;   -0,227
322,434;   19,308;   -0,111;   -1,591
323,029;    3,172;   -0,474;    1,591
323,623;    3,941;    0,798;    0,773
324,218;   91,557;    2,707;    1,409
324,812;   48,371;    0,889;    1,591
325,407;   37,652;   -0,929;    2,045
326,002;  102,729;    0,526;   -0,409
326,596;   71,409;   -0,656;    1,318
327,191;   16,043;   -0,383;   -1,045
327,785;   18,045;   -0,747;   -0,227
328,379;   10,895;   -0,383;    0,136
328,974;   25,838;    1,798;   -3,955
329,568;   39,960;    2,889;   -2,409
330,163;   77,771;    2,435;    1,045
330,757;   15,294;    0,253;    1,591
331,351;   -6,508;   -0,292;    0,682
331,945;   -2,739;   -0,383;    1,409
332,540;   38,956;    1,617;   -0,591
333,134;   38,371;    3,344;    0,773
333,728;   50,559;    2,799;    0,318
334,322;    9,182;    0,889;   -0,864
334,916;    7,174;    0,344;    0,955
335,510;   81,597;   -0,111;   -0,136
336,105;   71,589;   -0,929;    1,591
336,699;   24,986;   -1,292;    0,591
337,293;   56,393;    1,071;    0,318
337,887;   34,342;    0,071;    1,955
338,481;  104,071;    2,980;    0,591
339,074;  175,982;    2,071;    2,682
339,668;  173,172;   -0,110;    1,227
340,262;  548,142;    7,708;    3,227
340,856;  292,784;    1,708;   -0,682
341,450;  116,567;    0,708;    1,864
342,044;  170,302;    1,799;    0,136
342,637;  274,968;    1,162;   -2,136
343,231;  244,597;   -1,474;    0,682
343,825;  207,703;   -0,747;   -0,591
344,419;  215,138;   -0,474;    0,500
345,012;  679,901;    2,889;    4,045
345,606;  520,990;   -0,656;    1,591
346,199;  287,532;   -0,111;   -0,227
346,793;  413,085;    2,525;    2,045
347,386;  274,146;    0,889;   -1,136
347,980;  207,909;   -0,838;   -0,045
348,573;  316,081;   -1,748;    0,409
349,167;  611,415;    6,161;    4,773
349,760;  520,196;    2,252;    2,682
350,354;  493,583;    1,616;    1,136
350,947;  551,370;    2,798;    1,682
351,540;  427,293;    0,616;   -1,409
352,134;  315,320;   -1,111;    1,136
352,727;  363,314;   -0,657;    1,136
353,320;  402,040;    2,343;    0,591
353,913;  342,314;   -1,929;    1,864
354,507;  550,273;    0,434;   -1,227
355,100;  437,304;    0,071;    0,864
355,693;  854,030;    4,798;    2,409
356,286;  610,947;    0,980;    2,773
356,879;  463,034;   -0,475;    1,227
357,472;  439,733;    0,980;    1,500
358,065;  497,451;    3,161;    2,500
358,658;  355,387;    0,798;    2,318
359,251;  307,134;    0,252;   -0,591
359,844;  485,785;    0,343;   -1,136
360,437;  576,654;    0,252;    0,045
361,030;  403,919;    0,525;   -0,682
361,623;  394,231;    0,434;    0,318
362,215;  621,909;    0,979;    2,045
362,808;  467,787;   -2,293;   -1,682
363,401;  381,937;    0,798;    0,136
363,994;  595,087;    3,252;   -1,500
364,586;  372,925;    0,888;   -1,500
365,179;  309,872;   -0,203;   -1,136
365,772;  168,510;   -0,930;    2,045
366,364;  309,822;    1,524;   -3,227
366,957;  373,459;    1,342;   -0,045
367,549;  313,465;   -0,203;   -0,864
368,142;  314,581;    0,978;   -1,500
368,734;  273,757;    2,523;   -2,136
369,327;  201,388;    2,341;   -0,500
369,919;  231,664;   -1,659;    0,409
370,512;  245,769;   -1,023;   -0,500
371,104;  487,977;    2,704;    1,591
371,696;  521,639;    1,703;   -0,955
372,289;  367,983;    0,157;    1,136
372,881;  305,923;    1,156;    1,318
373,473;  196,186;    4,064;    1,136
374,066;  281,467;    1,336;    0,500
374,658;  238,124;    0,879;    1,136
375,250;  166,979;   -1,668;   -1,409
375,842;  208,003;   -0,124;   -0,045
376,434;  156,780;   -2,762;   -0,409
377,026;  157,788;   -1,855;   -2,500
377,618;  188,302;    0,779;   -0,682
378,210;  108,285;    3,141;   -1,955
378,802;   78,589;    3,412;   -0,591
379,394;  483,328;    3,411;    0,682
379,986;  234,418;    1,138;   -0,955
380,578;  129,016;    1,410;    0,773
381,170;  392,190;    0,320;    0,045
381,762;  280,374;   -0,224;    1,409
382,354;  246,081;   -0,223;   -1,318
382,945;  164,488;    0,870;    0,318
383,537;  121,968;    1,144;   -1,955
384,129;  135,842;    0,963;   -1,136
384,721;  256,644;    0,418;    0,955
385,312;  180,517;   -1,399;   -0,955
385,904;  265,551;   -0,945;    1,591
386,496;  170,306;    0,691;    1,045
387,087;  313,885;    0,418;    2,500
387,679;  243,417;   -0,401;    0,045
388,270;  217,462;   -2,401;    2,045
388,862;  189,836;   -0,401;   -0,318
389,453;  156,646;    1,054;    1,045
390,045;  177,067;    3,236;   -2,682
390,636;   73,403;    0,144;   -0,591
391,227;  132,103;    2,054;   -0,045
391,819;  104,998;    0,781;    0,773
392,410;  369,020;    0,600;    0,045
393,001;  182,846;    1,600;   -1,591
393,593;  248,936;    0,600;   -0,045
394,184;  301,138;    0,873;   -0,409
394,775;  155,909;    1,146;    2,136
395,366;   84,701;    1,782;    0,773
395,957;  274,618;   -2,400;    0,136
396,548;  163,966;    1,054;    2,682
397,139;  283,844;    2,236;    0,591
397,730;  190,921;    0,873;    0,955
398,321;  197,703;    0,509;    0,955
398,912;  141,907;   -0,764;    0,136
399,503;  133,193;   -1,945;   -1,409
400,094;  180,658;   -1,582;    1,682
400,685;  165,788;    3,600;    0,045
401,276;  106,800;   -0,400;   -0,955
401,867;   96,170;   -1,127;    0,773
402,458;   54,474;    1,509;   -2,318
403,048;  205,602;    0,146;    0,591
403,639;  141,023;    1,509;    0,864
404,230;  266,656;    0,691;    0,318
404,821;  311,739;   -0,127;    0,045
405,411;  214,223;   -0,763;   -2,591
406,002;  109,383;    3,237;   -1,136
406,592;  337,357;    2,691;    0,045
407,183;  187,444;    0,328;   -1,500
407,774;  157,737;    1,419;   -0,136
408,364;  116,523;    2,600;    0,409
408,954;  224,053;   -0,036;    1,227
409,545;  212,932;    1,873;    1,045
410,135;  160,664;   -1,581;    0,500
410,726;  114,646;    0,783;    0,318
411,316;  286,075;    2,237;    0,773
411,906;  113,053;    0,146;   -0,409
412,497;  128,357;   -0,490;   -0,045
413,087;   59,899;    0,783;   -0,227
413,677;    9,043;   -2,490;    3,864
414,267;   -7,848;   -1,035;    1,409
414,857;  -30,698;    0,419;    4,227
415,448;  -37,018;   -0,763;    0,500
416,038;   -6,299;   -2,945;   -0,591
416,628;   27,195;    0,965;    0,409
417,218;   72,664;   -1,762;    3,318
417,808;  205,268;    0,965;   -0,409
418,398;   89,948;   -1,035;    2,682
418,988;  -19,309;   -2,217;    0,591
419,578;   56,251;    3,601;    1,409
420,168;   -9,473;    0,692;   -0,955
420,757;  115,834;    0,964;   -1,500
421,347;   14,363;    1,601;   -0,227
421,937;  -16,815;    3,329;    1,409
422,527;  101,496;    2,602;   -0,773
423,116;  222,245;    2,692;   -0,045
423,706;  -16,206;    2,965;    0,318
424,296;  -65,226;    1,601;    0,682
424,885;   48,683;    1,510;   -3,045
425,475;   10,741;    1,147;   -2,864
426,065;  -61,609;   -1,489;   -0,318
426,654;  -76,500;    0,329;   -0,318
427,244;  145,541;    1,147;    1,409
427,833;  105,836;    1,056;   -0,500
428,423;    6,084;    0,147;    1,136
429,012;    7,351;    2,420;   -1,136
429,601;  116,614;    2,057;    0,136
430,191;    9,118;    2,511;    4,318
430,780;  -65,293;   -1,671;   -0,409
431,369;  100,079;    1,329;   -0,045
431,959;    3,434;    1,693;    0,500
432,548;  -49,957;   -1,398;   -0,045
433,137;  -94,111;    0,329;   -1,318
433,726;  -34,746;    0,148;    0,500
434,315;  -20,872;    0,148;    2,409
434,905;   75,829;    0,693;    1,409
435,494;   58,938;    3,148;    0,955
436,083;  -39,548;    1,420;   -0,955
436,672;   38,571;    1,148;    0,500
437,261;    1,845;    0,512;   -1,955
437,850;  191,167;   -1,125;    0,682
438,439;  238,590;    2,239;    1,955
439,027;  343,760;    3,421;    1,773
439,616;  266,173;    2,239;    1,227
440,205;   63,679;    0,057;   -2,136
440,794;   17,405;   -0,306;   -0,045
441,383;  -35,928;    1,603;   -0,591
441,971;  -61,967;   -0,306;    0,591
442,560;  -55,878;    0,603;   -1,773
443,149; -119,876;    3,060;   -1,318
443,737;  -95,185;    0,968;   -2,318
444,326;  -64,212;    0,331;    0,318
444,915;  -23,046;   -1,851;    0,864
445,503;  -19,973;    0,058;   -0,318
446,092;  220,742;    7,876;    2,136
446,680;  149,527;    1,876;    0,318
447,269;   64,946;   -1,487;   -0,318
447,857;   58,962;    2,240;   -1,773
448,445;   14,519;    2,149;    1,318
449,034;  -36,870;    0,876;   -1,136
449,622;  -17,042;    1,240;    3,500
450,210;  214,655;    3,149;    2,227
450,799;  138,270;    2,604;   -0,591
451,387;  104,292;    1,786;   -0,591
451,975;   85,547;   -1,305;    0,864
452,563;  153,063;    0,422;    2,318
453,151;    6,531;   -1,032;   -1,227
453,739;   37,175;   -1,577;    0,136
454,328;  134,468;    0,604;   -2,136
454,916;   75,659;    1,150;   -0,136
455,504;   91,272;    3,513;    1,227
456,092;   -0,823;    2,150;   -1,591
456,679;  -33,372;    0,604;    0,682
457,267;  347,007;    3,604;    1,045
457,855;   54,092;    3,241;    1,409
458,443;  -72,489;   -0,304;    1,682
459,031;   52,545;    1,332;    2,409
459,619;   25,110;   -3,577;    2,864
460,206;  -54,404;   -0,759;    2,045
460,794;  -53,777;   -0,668;   -0,227
461,382;  -13,993;    0,878;   -0,864
461,970;  -16,878;    0,605;    1,864
462,557;  -70,864;    0,878;   -0,682
463,145;   31,084;   -0,304;   -1,682
463,732;  249,673;    2,514;   -1,045
464,320;   50,489;    1,514;   -3,045
464,907;  160,367;    0,423;   -0,773
465,495;   86,807;    2,696;   -1,227
466,082;   15,675;    2,060;   -0,045
466,670;   36,715;    2,605;    1,227
467,257;  -44,459;    0,060;    2,045
467,844;   42,118;    1,514;    0,045
468,432;   16,282;   -0,031;    3,500
469,019;  -11,566;    1,606;   -1,773
469,606;   61,515;    0,969;    3,682
470,193;   75,019;    2,151;    0,227
470,780;   34,426;    0,333;    0,864
471,368;  -24,544;   -1,212;   -0,773
471,955;   79,276;    1,060;   -0,682
472,542;   37,657;   -0,303;   -1,136
473,129;  -57,789;   -0,485;    0,136
473,716;  -54,892;    0,060;    0,591
474,303;  -23,691;    1,333;   -0,864
474,890;  -17,102;    2,333;   -0,500
475,477;   72,720;   -0,576;    0,409
476,064;   -6,720;    0,697;   -1,591
476,650;   92,659;    2,152;    0,318
477,237;   15,205;    1,879;    0,955
477,824;    4,207;    3,879;    0,864
478,411;  -63,560;    0,606;   -0,318
478,997;  -77,788;    0,606;   -0,773
479,584; -119,252;   -0,666;   -0,409
480,171;   29,629;    1,243;   -0,773
480,757;   72,021;   -0,848;    0,773
481,344;  -14,566;    0,334;    0,409
481,931;  -89,072;   -0,393;    1,045
482,517;   15,955;    0,425;    0,318
483,104;   97,805;    1,334;    2,864
483,690;  -26,165;    0,243;    0,045
484,276;  -36,823;    0,698;    0,227
484,863;  146,594;    2,152;    1,136
485,449;    8,900;    0,152;    0,318
486,035;  -29,299;   -0,666;   -0,136
486,622;   49,675;   -2,393;    0,045
487,208;  -28,493;    1,334;    1,500
487,794;  -91,817;    0,971;    0,318
488,380;  -76,738;    0,698;   -1,409
488,967;  -82,807;   -1,120;   -0,409
489,553;  -73,114;   -1,029;   -1,409
490,139;    6,145;    0,971;    0,773
490,725;  -52,987;    0,789;   -0,227
491,311;  -20,707;    1,516;    3,045
491,897;  -46,677;   -0,665;    1,500
492,483;  -30,746;    0,426;    1,227
493,069;  375,693;    5,426;    0,864
493,655;  102,187;    1,789;    0,682
494,241;  -14,624;    1,517;   -0,955
494,826;   -5,669;    0,335;   -1,045
495,412;   51,910;    0,335;   -0,682
495,998;  -21,041;    0,971;   -0,318
496,584;   17,501;    2,244;    1,045
497,169;   39,394;    2,335;   -0,682
497,755;  -15,829;    1,244;    1,227
498,341;   90,475;    2,153;    0,318
498,926;  205,691;    2,881;    1,955
499,512;  -21,404;   -0,028;    2,955
500,097;  -22,104;   -0,574;   -0,318
500,683;    4,777;   -0,028;    2,136
501,268;  -47,533;    1,881;   -0,955
501,854;  -17,993;   -0,119;    1,227
502,439;  -22,717;   -0,573;   -1,773
503,024;  -14,402;    1,608;    0,500
503,610;    4,511;    1,335;   -0,682
504,195;  -37,438;    1,245;    1,955
504,780;   50,052;    2,335;    1,227
505,366;  117,811;    4,063;    2,864
505,951;   57,315;   -1,119;    1,045
506,536;  -17,529;    1,427;   -3,682
507,121;   26,386;    1,699;   -0,318
507,706;   -3,584;   -0,392;    1,045
508,291;  -41,948;   -2,937;    1,136
508,876;  -43,007;   -0,482;    2,591
509,461;  -12,306;    1,427;   -0,773
510,046;   24,688;   -0,391;    0,318
510,631;   35,975;   -0,119;   -0,773
511,216;  -32,829;   -0,664;   -0,500
511,801;   19,194;   -0,755;    2,591
512,386;   30,293;    0,972;    0,500
512,971;   45,843;    0,427;    0,955
513,555;   76,076;    1,154;   -1,500
514,140;   30,088;    1,336;   -3,136
514,725;  151,007;    1,791;   -1,136
515,309;   80,129;    1,064;    0,318
515,894;    9,813;   -0,300;   -2,227
516,479;   45,548;    1,973;   -0,955
517,063;   72,732;    0,882;    1,227
517,648;   55,862;    0,155;   -1,136
518,232;   62,380;   -1,300;   -1,409
518,817;  190,730;    1,337;    1,682
519,401;  373,637;    0,700;    0,591
519,985;  386,103;    2,700;    1,136
520,570;  297,497;   -0,118;   -1,955
521,154;  527,511;    0,064;    0,591
521,738;  882,696;    1,064;    2,409
522,323;  829,633;   -0,390;    1,682
522,907;  936,542;    2,428;   -0,136
523,491;  991,663;    1,155;    0,955
524,075; 1137,194;    0,428;    0,591
524,659; 1555,878;    0,973;    0,591
525,243; 1659,588;    0,883;    0,409
525,827; 1914,352;    0,883;   -0,045
526,411; 2455,969;    1,155;   -0,136
526,995; 3074,307;    0,337;    1,409
527,579; 3302,854;    1,974;   -1,045
528,163; 3799,046;    0,428;   -1,500
528,747; 4343,360;    1,065;   -0,773
529,331; 4898,617;    0,883;   -1,409
529,915; 5345,009;    2,338;    0,955
530,499; 5865,611;    0,247;    1,227
531,082; 6175,653;    1,065;    1,591
531,666; 6341,246;    0,520;    0,773
532,250; 7250,528;    0,428;    2,682
532,833; 7919,981;    0,610;    2,773
533,417; 8267,852;    1,247;    0,864
534,001; 8629,074;    0,429;   -0,318
534,584; 9659,133;    1,974;    0,500
535,168; 9888,204;    3,247;    1,409
535,751;10367,016;    4,520;    0,045
536,334;10210,105;    4,520;   -0,409
536,918;11144,291;    1,974;    1,591
537,501;11534,793;    1,520;    1,318
538,085;11845,680;    1,702;    1,045
538,668;12226,394;    0,883;    2,409
539,251;12844,016;    3,156;    3,773
539,834;13160,250;    0,156;    0,773
540,418;13328,923;    3,247;    4,318
541,001;13672,356;    2,702;    1,773
541,584;13906,878;    1,429;    2,227
542,167;13790,542;    0,702;    2,955
542,750;14115,210;    0,793;   -0,773
543,333;13870,593;    1,429;    2,136
543,916;14806,046;   -0,298;    2,500
544,499;15536,384;    2,520;    0,227
545,082;15681,107;    0,248;    3,591
545,665;15979,062;   -0,207;    1,500
546,248;16443,412;    0,520;   -0,318
546,830;16225,056;   -1,752;    1,955
547,413;16745,068;    0,157;   -0,773
547,996;17387,890;    0,157;    0,500
548,579;17255,479;   -0,843;    0,955
549,161;17149,929;    0,884;    2,682
549,744;17056,700;    0,612;    0,409
550,326;17658,720;    0,885;   -1,136
550,909;17484,097;    2,339;    0,591
551,492;17965,842;    0,521;    0,227
552,074;17802,937;   -0,024;   -1,318
552,657;18454,550;    2,430;    0,045
553,239;18279,872;   -3,024;   -0,773
553,821;18245,856;   -1,570;    1,045
554,404;17778,870;   -0,024;    1,136
554,986;18205,261;    2,248;    1,045
555,568;18872,492;    0,430;   -0,955
556,151;18108,024;    4,067;   -0,227
556,733;18357,576;   -1,388;   -0,864
557,315;18896,437;    4,703;    0,500
557,897;18735,455;    0,521;   -0,500
558,479;18937,872;    1,703;    1,318
559,061;19026,077;    1,067;   -0,864
559,643;19409,269;   -0,297;    0,045
560,225;19832,034;   -0,388;    2,864
560,807;19930,178;    0,340;    0,318
561,389;19434,840;   -1,206;    2,318
561,971;20159,670;   -0,660;    2,136
562,553;20041,757;    0,613;    1,591
563,135;20214,489;    1,249;    1,136
563,717;19860,718;    3,158;    1,136
564,298;20611,759;    3,976;   -0,045
564,880;20349,241;    0,340;   -1,409
565,462;20525,332;    1,977;    1,318
566,043;21739,222;   -0,933;    2,318
566,625;21363,485;    4,067;    1,227
567,207;21261,662;    0,704;    1,682
567,788;22454,712;   -0,114;    1,500
568,370;23357,743;   -1,841;   -0,500
568,951;23240,293;   -0,569;    0,227
569,533;24153,791;    0,977;   -0,500
570,114;24713,890;   -0,296;    0,682
570,695;25241,548;   -0,478;   -1,318
571,277;25896,939;   -0,205;   -1,682
571,858;26742,056;    2,704;   -1,136
572,439;27728,712;    0,795;   -1,045
573,021;27934,087;    0,432;   -2,773
573,602;28467,868;    1,795;    0,318
574,183;29567,145;   -0,114;    2,227
574,764;29771,899;    2,068;    0,409
575,345;30408,826;    0,250;   -0,136
575,926;31063,307;    2,704;    0,136
576,507;31096,676;    2,704;   -0,227
577,088;32249,279;    1,704;    1,682
577,669;32368,797;    1,704;    1,955
578,250;33138,326;   -0,750;   -1,045
578,831;33868,174;   -0,841;   -2,227
579,412;34224,692;   -1,205;    0,955
579,993;35223,324;    1,432;    0,227
580,573;35612,368;   -0,023;   -0,955
581,154;34581,658;    1,613;   -0,591
581,735;35482,571;    0,341;    0,773
582,315;35025,935;    0,523;    2,136
582,896;35353,809;   -1,750;    1,227
583,477;34774,046;    0,614;    1,227
584,057;34918,473;    1,159;    0,955
584,638;35248,597;   -2,750;    2,318
585,218;35233,998;    2,886;    2,682
585,799;35433,498;    1,977;   -0,227
586,379;35448,733;    1,250;    1,591
586,959;34095,484;    2,613;    0,318
587,540;33373,953;    0,432;    2,227
588,120;32835,990;   -1,113;   -0,045
588,700;31783,069;    2,977;    2,136
589,281;32089,028;    1,250;   -0,955
589,861;32009,030;   -0,296;   -1,682
590,441;31829,684;   -1,477;   -2,682
591,021;30712,224;    1,432;   -2,591
591,601;30912,607;    0,431;    0,500
592,181;30929,328;   -1,296;   -0,773
592,761;30212,684;    2,250;    1,409
593,341;30050,168;    1,522;    0,045
593,921;29985,882;   -0,569;    1,591
594,501;29903,427;    1,250;    1,318
595,081;29745,986;    0,522;   -0,318
595,661;30174,971;    1,068;    0,955
596,240;30698,277;   -1,023;    0,136
596,820;30302,850;    2,613;    1,955
597,400;30523,793;    1,977;    0,773
597,980;30757,232;   -0,750;    1,045
598,559;30767,036;    0,341;   -0,227
599,139;30491,004;   -0,750;   -1,227
599,718;30453,004;    0,795;   -0,409
600,298;30712,433;   -2,387;    0,682
600,877;30926,079;    4,795;    1,409
601,457;31246,198;    0,340;    1,136
602,036;31183,324;    1,795;    2,045
602,616;31375,676;    2,250;    1,682
603,195;31700,824;    0,431;    3,500
603,774;31237,123;   -0,296;    2,045
604,354;31113,654;    2,522;   -0,500
604,933;30552,396;    0,250;    1,864
605,512;30732,014;    2,340;    0,591
606,091;30784,903;    1,886;    3,773
606,671;31580,901;    0,249;    0,773
607,250;30643,012;    1,431;    3,136
607,829;30917,967;    1,158;    3,227
608,408;30719,668;    4,613;    2,591
608,987;29777,362;    2,704;    3,409
609,566;30049,526;    0,341;   -2,500
610,145;30088,822;    2,885;    0,682
610,723;30579,350;    1,613;    6,864
611,302;29768,909;    1,067;    1,682
611,881;29210,261;    5,158;   11,227
612,460;30097,075;    0,795;    3,955
613,039;30522,275;    1,703;    2,045
613,617;29220,403;    0,886;    4,773
614,196;29430,291;    1,613;    1,227
614,775;29720,131;    1,249;    2,409
615,353;29727,534;   -1,660;    0,864
615,932;29406,439;    0,249;    2,409
616,510;30041,303;    0,158;    0,591
617,089;29504,526;    8,794;   17,591
617,667;29247,813;    4,885;    6,136
618,246;29002,546;   -1,115;    1,318
618,824;29226,188;    1,612;   -0,955
619,402;28798,380;    0,431;   -1,773
619,981;29285,342;    1,067;   -1,045
620,559;29136,038;    0,794;    1,682
621,137;28685,609;    3,067;    1,864
621,715;28627,682;    3,703;   -0,682
622,293;28515,384;    1,885;   -0,773
622,871;28999,074;    0,340;    0,500
623,450;28555,755;    0,430;   -0,864
624,028;28453,516;   -0,388;   -0,955
624,606;28045,168;    2,339;    1,682
625,183;28444,542;   -0,661;   -1,136
625,761;28087,441;    1,885;    1,136
626,339;28333,639;    2,339;    2,591
626,917;28744,143;    0,339;   -0,045
627,495;28815,479;    2,794;    1,318
628,073;28224,637;    5,248;    2,864
628,650;27944,568;    3,067;    2,136
629,228;28353,477;    1,248;    4,409
629,806;27675,042;   -0,024;    1,136
630,383;27940,204;    0,066;   -0,318
630,961;27702,257;   -2,206;   -0,955
631,539;27448,878;   -2,479;    0,227
632,116;26677,803;   12,703;   15,409
632,694;27319,769;    4,885;    6,500
633,271;27634,668;    1,975;    2,682
633,848;27490,989;    1,430;    2,045
634,426;27599,445;    1,521;    1,773
635,003;26694,056;   -0,207;   -0,409
635,580;26989,834;    1,884;    3,682
636,158;27563,441;    3,793;    1,227
636,735;27499,702;    3,339;   -0,500
637,312;27638,277;    0,521;   -0,682
637,889;27839,544;    2,248;   -0,682
638,466;27293,684;    0,066;   -0,409
639,043;27250,340;    1,702;   -1,136
639,620;27594,024;    0,611;   -0,955
640,197;27905,672;    1,612;    1,682
640,774;28060,014;    1,430;    1,136
641,351;28513,903;    0,612;    1,136
641,928;27869,063;    2,794;    1,409
642,505;27502,224;    0,794;   -0,500
643,082;27621,294;    1,885;    1,227
643,658;26560,637;    1,157;    1,500
644,235;27371,616;   -2,479;    2,500
644,812;27658,049;    1,794;    0,773
645,388;27428,028;    1,612;    1,409
645,965;27502,280;    1,521;    1,682
646,542;27586,986;    3,430;   -0,227
647,118;27634,783;    3,703;   -0,955
647,695;27934,944;    0,339;    1,136
648,271;27785,650;   -2,115;    0,500
648,848;28077,993;    0,248;    2,227
649,424;27928,063;    0,976;    1,318
650,000;27731,678;   -0,388;   -1,045
650,577;27506,566;    0,158;   -0,955
651,153;28027,364;   -1,115;    0,955
651,729;29014,706;    0,521;    0,864
652,305;29338,049;    1,339;    2,773
652,881;34468,573;   -1,297;    1,136
653,458;42289,007;    0,249;    0,227
654,034;46737,713;    0,703;    1,591
654,610;48588,783;    0,339;    0,773
655,186;50066,853;    1,612;    3,045
655,762;49734,014;   -1,842;    0,409
656,338;49868,356;    0,703;    0,136
656,913;50948,244;   -0,297;    0,409
657,489;50240,860;    0,249;   -0,318
658,065;50228,748;    0,794;   -1,591
658,641;50706,818;    2,158;   -0,864
659,217;49922,251;    2,067;    0,409
659,792;49309,321;   -1,751;   -0,409
660,368;49547,118;   -0,388;   -0,682
660,944;49126,370;    1,794;    1,227
661,519;43941,895;    0,522;    0,409
662,095;36880,692;   -0,206;    0,591
662,670;31554,580;   -0,206;   -0,136
663,246;30232,013;   -0,660;   -0,409
663,821;29373,538;    0,431;    1,682
664,396;28870,790;    0,613;    1,864
664,972;29136,859;   -0,660;   -0,500
665,547;29468,384;    3,794;    0,136
666,122;29432,636;    1,340;    0,318
666,698;29773,705;    2,431;    0,318
667,273;29087,230;    0,885;    0,136
667,848;29888,300;    0,340;    1,500
668,423;29629,279;    1,795;    2,318
668,998;30276,894;    0,976;   -0,682
669,573;30849,146;    2,067;   -1,500
670,148;30639,489;    1,885;   -0,682
670,723;30459,195;   -0,024;    0,318
671,298;30979,447;   -1,296;    1,045
671,873;31100,516;   -0,296;   -0,136
672,448;30992,041;    1,704;    0,136
673,023;31317,202;    0,249;   -0,227
673,597;31668,999;    2,704;    2,318
674,172;31448,341;    2,431;    0,318
674,747;30935,502;   -0,205;   -1,045
675,321;30805,027;   -0,933;    3,318
675,896;30342,642;    2,158;    1,045
676,471;31315,985;    2,522;    1,591
677,045;31091,055;   -0,296;    0,682
677,620;31168,761;    2,158;    1,136
678,194;31493,376;    0,249;    1,136
678,769;31048,355;    0,886;   -0,318
679,343;31241,880;   -0,023;    1,773
679,917;31103,404;    0,340;    1,955
680,492;31208,838;    0,249;    3,227
681,066;31440,089;    0,613;    0,409
681,640;31439,977;    1,795;   -0,318
682,214;32263,593;    2,340;    0,500
682,788;31751,935;    0,613;   -0,773
683,363;31731,733;    1,977;    1,682
683,937;31457,984;    0,886;   -0,318
684,511;32295,963;   -1,023;   -0,591
685,085;31993,488;   -1,478;    0,318
685,659;31731,558;    1,431;    0,864
686,232;31933,900;    1,159;   -0,318
686,806;31667,788;    2,159;    0,409
687,380;32382,586;   -1,932;    0,591
687,954;32594,383;    2,432;    1,136
688,528;32239,180;    2,613;    1,955
689,101;33107,523;    0,432;    1,045
689,675;32636,138;    0,886;   -0,136
690,249;31955,299;    3,432;    0,409
690,822;32272,550;    1,159;    0,318
691,396;32353,439;    2,068;    1,227
691,969;31826,781;    2,523;    0,136
692,543;32315,487;   -0,568;   -1,955
693,116;31949,194;   -0,659;   -1,409
693,690;31759,627;   -0,296;    0,500
694,263;32333,788;    2,341;    2,955
694,836;32384,676;    2,795;    3,591
695,410;30964,201;    1,159;    1,773
695,983;31498,361;    1,614;    0,591
696,556;31406,340;   -0,750;   -1,045
697,129;31792,683;   -1,114;    1,409
697,703;31392,117;    1,341;    1,955
698,276;31437,096;    1,705;   -0,773
698,849;31219,256;   -1,023;    1,409
699,422;31570,417;    1,250;    0,591
699,995;31262,396;   -0,659;    0,136
700,568;31782,466;   -0,204;    3,045
701,140;31764,536;   -1,841;    1,682
701,713;31494,515;    0,341;    2,409
702,286;31259,585;    0,796;    0,864
702,859;31142,200;    0,614;   -0,591
703,432;30291,361;   -0,841;    0,682
704,004;30822,795;    1,978;    0,318
704,577;30650,864;    1,068;    0,136
705,150;31245,753;    0,887;    2,500
705,722;31052,732;    1,523;   -3,227
706,295;30821,074;    1,432;   -0,591
706,867;30676,871;    0,250;    1,955
707,440;30906,487;   -0,113;   -0,409
708,012;31136,466;   -0,022;    0,591
708,584;31027,445;    2,705;    0,227
709,157;31369,333;    1,160;   -0,591
709,729;31000,948;    1,069;    2,045
710,301;31873,836;   -1,204;    0,045
710,874;31871,815;    0,341;   -0,227
711,446;30734,067;   -0,295;    0,864
712,018;30648,137;   -3,022;    0,500
712,590;30404,479;   -0,204;    1,682
713,162;30929,549;   -0,477;    1,318
713,734;31179,528;    1,796;   -2,045
714,306;30997,326;    0,342;   -0,409
714,878;29656,214;   -0,295;    0,864
715,450;30525,374;   -0,113;    0,864
716,022;30821,172;    2,433;    1,318
716,593;30943,969;    0,978;    0,591
717,165;30867,766;    1,796;   -1,227
717,737;30610,745;    0,796;    0,409
718,309;30266,360;    1,160;   -0,045
718,880;30215,885;   -1,295;   -1,409
719,452;30473,864;    0,887;   -1,591
720,024;29947,025;    1,705;   -0,591
720,595;30461,185;    2,978;    0,955
721,167;29972,437;    1,160;   -2,045
721,738;29498,052;    2,069;   -1,045
722,309;29415,759;    1,251;   -1,227
722,881;29231,556;    2,705;    0,773
723,452;29911,717;    1,251;    2,864
724,023;30092,968;    1,524;    2,682
724,595;29839,675;    2,342;    0,682
725,166;29583,290;    1,524;   -0,409
725,737;29217,269;    1,887;    0,227
726,308;29318,339;    0,797;    0,318
726,879;29770,409;    1,069;    1,227
727,450;29638,024;   -2,022;   -0,045
728,021;29589,185;    1,069;    0,682
728,592;29434,891;    1,160;    0,500
729,163;29772,688;    1,433;   -0,136
729,734;29740,758;    2,160;   -0,227
730,305;30060,828;    0,615;    0,136
730,876;30462,171;    0,888;    2,955
731,447;30186,332;    0,797;    2,682
732,017;30293,493;   -0,840;    1,864
732,588;29803,199;   -0,021;    1,227
733,159;29959,269;    3,615;   -1,045
733,729;29742,429;    1,251;    0,409
734,300;29021,681;    0,160;    0,864
734,870;29475,478;   -1,385;    0,591
735,441;30078,185;    0,888;   -0,591
736,011;29818,255;    1,070;   -1,591
736,582;29753,052;    1,251;    0,045
737,152;29149,031;    0,979;   -2,045
737,722;29646,646;    1,070;   -0,682
738,293;29365,716;   -2,021;    1,318
738,863;29255,786;    1,797;    2,318
739,433;29069,129;    4,524;    0,318
740,003;29711,744;    1,524;   -0,682
740,573;29117,905;    2,252;   -1,591
741,143;29027,793;    3,615;    0,318
741,713;29797,954;    0,252;   -0,500
742,283;29418,660;    1,706;    1,591
742,853;29157,093;    0,524;    1,591
743,423;28644,891;    0,161;    0,045
743,993;28787,688;    1,070;    1,500
744,563;28112,939;    2,524;   -0,864
745,133;28006,646;   -0,112;   -0,864
745,702;28788,352;    2,797;    1,773
746,272;27974,149;    0,434;    0,591
746,842;27752,128;   -0,748;   -0,591
747,411;28173,925;   -0,839;   -0,318
747,981;28356,541;   -0,930;    0,500
748,551;28437,792;   -0,021;   -1,045
749,120;28267,771;   -0,112;   -0,227
749,690;28640,387;    2,161;    2,409
750,259;28964,457;    0,979;    2,955
750,828;28844,708;    4,070;   -1,955
751,398;29160,051;   -0,112;   -0,045
751,967;28600,848;    2,888;    0,409
752,536;28825,827;    1,161;   -0,227
753,105;29275,533;   -1,384;    0,227
753,675;29113,058;   -0,112;    1,773
754,244;29072,219;    0,888;    3,591
754,813;29108,925;    0,979;    1,227
755,382;28688,904;    0,798;    0,955
755,951;29219,974;   -0,112;    3,682
756,520;28750,135;    2,525;    1,864
757,089;29361,114;    1,888;    0,500
757,658;29522,093;    2,434;    1,227
758,227;29530,435;   -1,111;    0,318
758,795;29833,051;   -1,021;    1,136
759,364;30096,121;    0,525;   -0,591
759,933;29060,554;    1,343;   -0,045
760,501;28617,806;    0,252;   -1,318
761,070;29034,967;   -0,293;   -1,409
761,639;29805,855;    1,434;    1,318
762,207;29069,197;    0,889;   -0,955
762,776;29048,267;    2,889;    0,864
763,344;28985,610;    0,071;    0,591
763,913;28090,134;    1,616;    1,409
764,481;28798,750;    1,980;   -0,136
765,049;28607,001;    0,616;    1,409
765,618;28492,889;    1,434;    0,318
766,186;28569,323;    2,434;    0,136
766,754;28709,302;    1,798;    1,864
767,322;27669,736;    1,162;    0,409
767,890;27688,896;    0,525;   -1,773
768,459;28057,694;    2,616;   -0,318
769,027;28227,491;    2,525;    3,409
769,595;27192,197;    2,616;    2,591
770,163;27629,358;    3,344;    2,955
770,730;27364,428;    2,525;   -0,136
771,298;27287,498;    1,162;   -1,409
771,866;27365,295;    0,253;    4,955
772,434;27626,365;    1,162;   -1,864
773,002;27785,525;    2,616;    0,682
773,569;27412,868;    1,071;    1,682
774,137;27241,029;    0,889;   -0,045
774,705;28039,372;   -0,747;   -0,136
775,272;27516,169;    0,253;    0,682
775,840;27271,966;   -0,111;    2,682
776,407;26716,945;   -0,293;    1,955
776,975;26323,742;    1,162;    0,318
777,542;27355,085;    2,162;   -0,045
778,110;27237,791;    0,707;   -0,045
778,677;26901,497;    1,071;   -0,864
779,244;26631,840;   -1,020;    1,045
779,812;26766,910;    0,980;    0,864
780,379;26604,161;    2,435;    1,136
780,946;26868,504;    2,617;   -0,773
781,513;27213,301;   -0,565;    0,318
782,080;26495,917;    1,253;    2,864
782,647;27263,350;    1,708;    3,045
783,214;26812,966;   -0,201;    3,864
783,781;26377,217;    1,708;   -0,682
784,348;26332,560;    0,253;    1,500
784,915;26810,812;   -1,474;    0,318
785,482;26569,700;    2,708;    2,591
786,049;27019,133;    1,071;   -0,591
786,615;27084,385;    1,708;   -0,955
787,182;26816,455;   -3,201;   -0,682
787,749;26497,979;   -2,201;    1,409
788,315;25797,231;    0,253;   -0,409
788,882;26105,119;    0,981;   -1,227
789,448;26793,371;    1,435;   -0,955
790,015;26830,895;    1,799;    3,227
790,581;26375,147;    0,708;    0,227
791,148;26294,217;    1,344;    1,045
791,714;26546,287;   -1,019;    3,136
792,280;26243,084;    3,708;    1,591
792,847;25765,972;   -0,928;    2,500
793,413;26324,042;   -0,110;   -0,318
793,979;25789,839;    1,526;   -1,318
794,545;25866,909;    2,981;    2,682
795,111;25246,979;    2,435;    1,318
795,678;25403,231;    3,526;   -1,682
796,244;25092,028;    2,799;    0,136
796,810;25678,370;    0,799;    0,773
797,375;25359,622;   -0,292;   -2,136
797,941;25359,328;   -1,110;    0,591
798,507;25499,671;    0,254;   -0,955
799,073;25059,014;    2,708;    0,591
799,639;25093,993;    1,435;    3,136
800,205;25125,608;   -1,565;    2,682
800,770;24600,496;    1,345;    1,773
801,336;24668,111;    2,981;   -0,955
801,901;24348,818;    6,072;    3,136
802,467;24952,524;    0,526;    2,045
803,033;24280,230;   -0,019;    0,864
803,598;24449,118;    1,072;   -1,045
804,163;24523,552;    0,708;   -0,318
804,729;24456,622;   -0,110;    1,136
805,294;24826,874;    1,072;    2,227
805,859;24637,125;    0,890;   -0,409
806,425;24103,286;    3,890;    2,682
806,990;23743,447;    1,890;    4,318
807,555;24280,062;   -0,110;    2,591
808,120;24142,041;   -1,292;   -0,409
808,685;24183,111;    1,072;   -2,500
809,250;23688,908;    2,072;   -0,500
809,815;24016,342;   -0,201;    0,682
810,380;24555,321;    0,981;    1,591
810,945;25057,573;    2,890;    2,045
811,510;24265,733;   -0,200;    1,591
812,075;23919,803;    2,800;   -1,409
812,640;23980,691;    3,709;    1,409
813,204;24042,034;    2,163;   -0,227
813,769;24543,013;    0,254;   -0,045
814,334;23893,174;    0,527;    0,864
814,898;23934,516;    1,981;    0,591
815,463;23846,405;    0,981;   -0,773
816,027;23800,111;    1,345;   -2,318
816,592;23926,908;    2,163;   -2,045
817,156;23387,069;   -2,200;    1,136
817,721;23168,593;    0,982;    2,318
818,285;23189,118;    0,618;    1,500
818,849;23895,188;   -0,018;    1,682
819,414;23737,076;    0,073;    2,955
819,978;23238,782;   -0,291;    1,773
820,542;23877,215;    2,891;    0,500
821,106;23589,285;    2,800;    0,682
821,670;23663,992;    2,709;    2,591
822,234;23358,971;    1,073;    1,409
822,798;22687,404;   -0,836;    0,500
823,362;22703,656;    1,527;    4,227
823,926;21954,453;   -0,018;    1,136
824,490;22151,432;    3,527;   -0,682
825,054;22649,775;    2,527;   -1,136
825,618;22260,026;   -1,200;   -1,500
826,181;22210,733;    0,982;   -1,318
826,745;22063,530;   -0,745;   -1,045
827,309;22419,691;    2,255;    1,318
827,872;21794,579;    0,527;    0,955
828,436;22840,103;    1,982;   -0,773
828,999;22920,991;    2,436;    1,227
829,563;21697,698;   -0,654;    1,136
830,126;21494,949;   -0,018;   -0,591
830,690;21508,837;    0,709;    2,864
831,253;21014,544;   -0,473;    2,227
831,816;21176,795;   -0,018;    0,500
832,380;21051,047;    1,164;    0,864
832,943;21252,935;    3,073;   -0,500
833,506;20719,732;    0,255;   -1,227
834,069;21596,257;    2,164;   -0,955
834,632;21622,327;   -2,200;    1,318
835,195;21464,942;    1,346;    0,955
835,758;20684,921;    0,709;    1,955
836,321;20510,627;    1,073;   -1,045
836,884;20599,334;   -1,291;   -0,955
837,447;20648,858;    0,528;    1,773
838,010;20904,655;    1,800;    3,227
838,573;21265,361;    0,528;    0,773
839,135;21204,431;   -0,109;   -0,955
839,698;20593,138;    2,528;    0,409
840,261;20074,298;    0,255;   -0,227
840,823;19932,732;   -0,927;    0,864
841,386;20229,438;   -0,018;   -2,409
841,948;20064,781;    0,255;    1,773
842,511;19788,760;    0,255;    1,682
843,073;19965,284;    2,982;    0,227
843,636;19748,172;    0,619;   -0,227
844,198;19628,424;    1,255;    0,591
844,760;19815,312;    0,619;    1,955
845,322;19471,382;    0,164;    1,136
845,885;19888,543;   -0,290;    0,591
846,447;20290,522;    0,710;    0,227
847,009;19808,319;    3,983;   -0,682
847,571;20190,298;    1,346;   -2,045
848,133;20276,822;   -0,199;   -1,864
848,695;20146,074;    2,346;    1,409
849,257;19613,326;    1,346;   -1,682
849,819;19819,214;    2,983;   -0,409
850,381;19851,920;    1,801;   -0,864
850,942;20239,990;    1,892;   -0,591
851,504;20151,424;    0,983;    0,227
852,066;20236,948;    1,619;   -1,591
852,628;19740,473;    0,165;    1,955
853,189;19316,633;    0,256;    2,682
853,751;19433,249;   -0,654;    1,409
854,312;19311,137;    1,256;   -1,682
854,874;19824,570;   -0,108;   -0,773
855,435;20316,549;    0,528;   -1,682
855,997;20459,892;    3,983;   -0,136
856,558;19701,235;    0,801;    1,773
857,119;19855,214;   -0,744;    2,864
857,681;19516,011;   -0,108;    0,318
858,242;19525,717;    1,347;   -2,136
858,803;19981,242;    1,074;   -0,773
859,364;20539,584;    0,892;   -4,773
859,925;19862,472;   -0,290;   -0,955
860,486;19776,542;    0,529;   -0,955
861,047;19486,248;    0,165;   -1,227
861,608;19248,955;    0,165;   -0,773
862,169;19408,297;   -0,562;   -0,045
862,730;19182,276;   -0,290;    1,409
863,291;19416,073;    0,438;   -0,500
863,852;19760,052;   -0,926;    1,955
864,412;19208,395;   -1,835;   -0,864
864,973;17752,738;    1,892;    0,500
865,534;17579,808;    2,074;    0,227
866,094;19133,423;    2,620;    0,227
866,655;18776,857;    4,711;    3,318
867,215;19059,563;    0,074;    0,136
867,776;18904,724;   -1,199;   -0,136
868,336;19014,975;    1,529;    0,136
868,897;18408,136;    3,438;    1,682
869,457;18218,933;    3,256;    0,318
870,017;18452,367;    2,438;   -1,227
870,578;19004,164;    1,893;    0,773
871,138;18618,507;    2,620;   -0,955
871,698;18186,486;   -0,562;   -1,318
872,258;18045,374;    0,711;   -2,864
872,818;18407,807;    2,347;    0,045
873,378;18391,241;   -2,198;    1,045
873,938;17933,402;    4,984;    0,500
874,498;18234,381;    1,256;   -1,955
875,058;18118,451;    4,347;    1,773
875,618;18005,975;    1,438;   -2,682
876,177;17954,499;   -0,471;    0,136
876,737;17512,478;   -0,289;    1,955
877,297;17508,912;    2,711;    1,955
877,856;17490,073;    2,529;    0,318
878,416;17419,870;    2,438;   -0,136
878,976;17692,485;    3,438;    0,409
879,535;17908,373;    4,529;    3,136
880,095;17630,989;    1,347;    0,045
880,654;17700,695;    0,347;    1,318
881,213;17818,856;    2,347;    1,500
881,773;17465,289;    1,984;    2,682
882,332;17820,359;    6,075;    5,136
882,891;17701,975;    0,711;    2,136
883,451;18123,226;   -2,016;    1,682
884,010;17592,023;   -1,107;   -0,409
884,569;17657,548;   -2,289;   -0,045
885,128;17793,709;   -0,743;   -1,864
885,687;17872,597;   -0,743;    0,682
886,246;17529,121;    2,620;    2,136
886,805;17227,009;    1,620;    2,045
887,364;17639,534;    1,166;   -0,500
887,922;17993,331;   -0,016;    0,045
888,481;17444,401;    1,530;    0,591
889,040;17754,107;    3,711;    2,136
889,599;18473,632;    2,166;    1,409
890,157;18536,974;    2,166;    2,409
890,716;18201,044;    2,166;    0,227
891,274;18033,841;    0,075;   -1,136
891,833;18457,275;    1,166;    0,864
892,391;18320,254;    1,802;    0,500
892,950;18440,233;    0,166;   -0,773
893,508;18783,939;    0,984;   -0,409
894,067;18120,282;   -0,379;    0,136
894,625;18048,352;   -1,016;   -1,500
895,183;18253,058;   -0,198;   -0,682
895,741;18205,128;    2,257;   -1,773
896,299;17997,289;    1,621;   -2,409
896,858;18184,904;    1,530;   -1,591
897,416;18308,610;    0,166;   -1,318
897,974;18018,407;   -2,197;    0,318
898,532;18145,386;    6,530;    2,682
899,089;18006,365;    0,621;   -0,682
899,647;18109,163;    0,530;    1,318
900,205;17800,869;    0,257;    1,045
900,763;18022,666;    2,166;    0,227
901,321;18001,281;    3,530;   -1,409
901,878;17410,351;    3,257;   -0,773
902,436;17263,967;    0,257;    1,318
902,994;17661,764;    6,712;    3,682
903,551;17080,470;    1,439;    0,409
904,109;17498,995;    1,530;   -1,409
904,666;17083,246;    1,439;    1,045
905,224;16873,680;    3,894;   -0,409
905,781;16622,750;   -0,470;   -0,318
906,338;16740,456;    0,167;    1,045
906,895;16629,344;    1,894;    2,045
907,453;16561,050;    2,348;    1,136
908,010;16574,302;    3,348;    0,409
908,567;16182,826;   -0,561;    0,591
909,124;15750,987;    2,439;   -1,500
909,681;15820,966;   -1,288;    0,682
910,238;15933,854;   -0,106;   -1,318
910,795;16228,470;   -1,561;   -1,136
911,352;15894,470;   -0,379;   -2,682
911,909;15296,561;    2,803;   -0,864
912,466;15789,288;    1,985;    1,500
913,022;15299,470;   -0,924;    0,500
913,579;15660,742;   -0,470;    2,045
914,136;15352,924;   -2,561;    0,955
914,692;15723,833;    1,530;   -1,227
915,249;15273,288;    0,530;    0,409
915,806;15477,470;    1,803;    1,955
916,362;15198,742;    0,894;    1,864
916,918;14752,561;    2,439;    1,045
917,475;14760,470;    1,621;    0,955
918,031;14862,470;    0,076;   -0,045
918,587;14310,288;    0,621;   -0,318
919,144;14511,015;   -0,379;    0,227
919,700;14831,379;    0,167;    0,773
920,256;14404,379;    0,439;    0,045
920,812;13991,924;    1,439;   -1,045
921,368;13958,197;    1,348;   -1,045
921,924;13594,833;    0,439;   -0,136
922,480;13171,742;    0,076;    1,227
923,036;13796,288;   -0,652;    1,955
923,592;13737,561;    0,621;    0,318
924,148;13648,288;    1,894;   -0,955
924,704;12953,742;    0,258;   -0,409
925,259;13211,288;   -0,561;    0,591
925,815;12913,379;    3,803;    0,500
926,371;12474,470;    3,530;    1,409
926,926;12320,379;    1,621;    0,591
927,482;11943,015;    1,621;    0,773
928,037;11840,742;   -0,833;    2,045
928,593;12145,470;    0,258;    1,045
929,148;11917,288;    1,167;   -1,500
929,704;11468,924;    2,439;   -0,500
930,259;11626,288;    0,894;   -0,136
930,814;10676,652;    1,803;    1,955
931,369;10363,924;    0,258;   -0,773
931,925;10236,288;   -1,924;    0,136
932,480;10115,197;    3,076;   -2,591
933,035; 9981,015;    3,985;   -0,318
933,590; 9737,742;   -1,742;   -1,773
934,145; 9393,197;   -1,288;   -0,318
934,700; 9782,924;    0,348;   -0,591
935,255; 9564,288;    4,803;    0,045
935,809; 8783,561;    6,258;    0,864
936,364; 7885,288;    2,167;   -0,136
936,919; 7836,833;    2,348;   -1,773
937,474; 7751,015;    1,348;    0,136
938,028; 7480,470;    3,076;    1,136
938,583; 6890,470;    6,348;    4,682
939,138; 7203,379;    0,167;    2,136
939,692; 6646,833;   -1,015;   -1,136
940,247; 6289,379;    1,167;   -1,045
940,801; 5822,561;    0,621;    0,227
941,355; 5741,742;    0,439;    2,591
941,910; 5385,742;    0,712;   -2,136
942,464; 5481,197;    2,712;   -0,318
943,018; 5236,833;    3,258;   -0,227
943,572; 5208,652;    2,803;   -0,682
944,126; 4573,561;   -0,924;   -0,409
944,681; 4459,833;    0,712;    0,227
945,235; 4446,924;    2,167;   -0,591
945,789; 4381,652;    1,258;   -1,864
946,342; 4456,833;   -0,561;   -0,591
946,896; 4275,106;    0,348;    0,955
947,450; 4016,197;   -0,561;   -0,227
948,004; 4194,106;    1,076;   -0,045
948,558; 4215,924;    1,258;   -0,864
949,111; 4158,470;   -1,197;   -0,318
949,665; 4182,379;   -0,106;   -0,682
950,219; 4026,197;    0,621;   -1,045
950,772; 4123,742;    0,258;    1,864
951,326; 4061,106;   -1,106;   -0,955
951,879; 4161,924;    1,076;   -2,318
952,433; 4176,833;    1,348;    2,227
952,986; 3998,652;    0,348;    0,682
953,539; 3947,742;    1,530;    0,591
954,093; 3896,288;    0,985;   -1,318
954,646; 4023,652;   -0,288;    1,318
955,199; 3830,288;    1,258;   -0,500
955,752; 3690,561;    1,985;    1,773
956,305; 3639,924;    0,894;    2,955
956,858; 3828,015;    0,621;   -0,318
957,411; 4013,288;    3,621;    2,136
957,964; 3829,833;    2,076;    2,136
958,517; 3818,652;    0,985;    3,136
959,070; 3639,197;   -1,197;    1,955
959,623; 3690,470;    1,076;    1,500
960,176; 3461,379;    0,712;    2,045
960,728; 3424,470;    1,712;    0,773
961,281; 3495,924;    2,258;    0,500
961,834; 3542,652;   -0,833;    0,864
962,386; 3475,106;    1,258;    1,045
962,939; 3383,742;    3,439;   -0,318
963,491; 3530,833;    2,621;    1,136
964,043; 3400,288;    0,076;    2,409
964,596; 3521,288;    1,712;    2,227
965,148; 3363,924;   -0,379;    1,773
965,700; 3302,015;   -0,015;   -0,227
966,253; 3459,924;   -0,833;    0,318
966,805; 3271,561;    1,894;    0,773
967,357; 3340,470;    0,439;   -1,500
967,909; 3245,015;    1,167;   -1,227
968,461; 3390,470;    0,894;    3,136
969,013; 3330,924;   -1,561;   -0,864
969,565; 3393,288;    1,803;   -1,136
970,117; 3442,742;    3,803;    1,045
970,669; 3290,833;    3,258;   -0,136
971,220; 3165,197;    2,167;   -1,500
971,772; 3063,652;    1,348;   -0,318
972,324; 3188,833;   -1,197;   -0,500
972,876; 3158,470;    0,167;   -0,045
973,427; 3275,015;   -1,197;   -1,045
973,979; 3253,288;    0,076;   -2,500
974,530; 3290,288;    0,803;    1,318
975,082; 3283,561;    2,167;    1,682
975,633; 3165,652;    2,894;    1,682
976,184; 3343,470;    2,076;    0,773
976,736; 3120,833;    0,348;    0,227
977,287; 2897,742;    0,258;   -0,500
977,838; 3089,924;   -0,924;   -0,318
978,389; 3147,742;    0,803;   -0,500
978,940; 3036,470;    1,258;   -0,409
979,491; 3049,652;    2,258;   -0,500
980,042; 2996,833;   -0,652;    3,045
980,593; 3075,470;    1,894;    0,227
981,144; 3119,833;    3,530;   -0,500
981,695; 3064,924;   -0,470;    1,500
982,246; 3013,833;   -1,833;    1,045
982,797; 3198,652;   -0,561;    0,682
983,347; 3321,106;    2,167;    0,591
983,898; 3477,652;    4,167;    0,409
984,449; 3275,288;    2,530;    0,773
984,999; 3199,015;    1,894;   -1,136
985,550; 2952,470;    3,167;   -0,318
986,100; 3038,288;    0,712;   -0,318
986,651; 3035,470;    0,258;    0,045
987,201; 3023,106;    0,894;   -0,591
987,751; 3113,652;   -0,288;    2,864
988,302; 3082,379;   -0,379;    1,500
988,852; 3100,561;    1,985;   -1,136
989,402; 3160,561;    0,985;    0,682
989,952; 3060,288;    1,621;    0,864
990,502; 3157,924;    1,076;    0,682
991,052; 3140,742;   -0,106;    0,045
991,602; 3000,561;    1,167;    1,318
992,152; 2980,288;    2,803;    0,682
992,702; 2962,288;    1,167;   -0,045
993,252; 2889,833;    0,076;   -0,500
993,802; 2970,015;    1,167;    1,318
994,352; 3222,106;   -0,742;    1,136
994,901; 3344,470;    1,076;    3,227
995,451; 3249,652;   -1,197;    0,318
996,000; 3324,288;    1,076;    0,318
996,550; 3021,288;    2,894;    0,227
997,100; 3025,924;   -0,561;   -0,045
997,649; 3319,924;   -0,197;    0,955
998,198; 2933,742;   -0,288;   -1,500
998,748; 3105,924;    0,348;   -2,318
999,297; 3034,106;    0,985;   -0,409
999,846; 3109,106;    1,894;   -0,773
1000,395; 3161,015;    1,530;    0,500
1000,945; 3100,833;    1,076;   -0,773
1001,494; 3171,470;    0,167;    0,682
1002,043; 3172,288;    0,712;    0,864
1002,592; 3029,197;    3,439;    1,955
1003,141; 3172,561;    2,439;   -0,682
1003,690; 3006,924;    1,258;    0,500
1004,238; 3086,652;   -0,106;   -0,045
1004,787; 2692,470;   -1,288;    1,227
1005,336; 2931,288;    1,621;    0,682
1005,885; 3111,197;   -0,197;   -2,773
1006,433; 3277,833;   -0,470;    0,955
1006,982; 3314,015;    2,167;    1,682
1007,531; 3222,742;    2,712;   -0,227
1008,079; 3188,742;    0,258;    0,500
1008,627; 3346,015;    1,621;    0,409
1009,176; 3071,742;    0,076;   -1,955
1009,724; 3115,288;   -2,742;    0,864
1010,273; 3154,833;    1,076;    0,500
1010,821; 3286,470;    1,076;    1,409
1011,369; 3019,561;    0,076;    1,318
1011,917; 2989,652;   -0,833;   -0,591
1012,465; 3270,924;    2,530;   -1,591
1013,013; 3406,379;    0,439;   -1,682
1013,561; 3257,197;   -1,288;   -0,773
1014,109; 3281,833;   -0,833;    1,682
1014,657; 3164,833;    1,348;    0,591
1015,205; 3303,652;    0,894;   -0,955
1015,753; 3360,379;    0,258;   -1,409
1016,301; 3399,924;    2,621;    3,045
1016,848; 3380,379;    2,167;    0,409
1017,396; 3409,106;    1,621;    0,045
1017,944; 3551,742;    2,621;    1,864
1018,491; 3311,015;   -0,197;    1,409
1019,039; 3453,833;   -0,652;    0,591
1019,586; 3379,742;    0,076;    1,682
1020,134; 3482,924;    0,712;    1,500
1020,681; 3490,379;    2,894;   -1,136
1021,228; 3518,379;   -0,561;   -2,227
1021,776; 3353,561;   -0,833;   -1,136
1022,323; 3538,470;    0,803;    0,773
1022,870; 3484,288;   -0,470;   -0,045
1023,417; 3369,015;    2,076;    1,864
1023,964; 3543,833;    0,621;    1,227
1024,511; 3358,561;   -0,652;    0,773
1025,058; 3160,742;    0,439;   -0,045
1025,605; 3212,379;   -1,742;    3,136
1026,152; 3411,288;   -0,106;   -0,591
1026,699; 3154,561;    0,167;    1,318
1027,245; 3324,833;    2,439;    0,318
1027,792; 3573,288;    0,712;    1,409
1028,339; 3427,924;    4,076;   -0,045
1028,885; 3280,561;    3,621;   -0,227
1029,432; 3226,379;   -0,106;    0,227
1029,978; 3272,924;    1,348;   -1,591
1030,525; 3160,197;    1,621;    0,409
1031,071; 3438,924;    0,348;    1,136
1031,618; 3518,015;    1,258;    1,682
1032,164; 3319,015;    2,076;    3,045
1032,710; 3362,197;    0,076;   -1,500
1033,256; 3282,379;    0,712;   -0,136
1033,803; 3274,015;   -0,288;    1,500
1034,349; 3011,106;    1,803;    0,136
1034,895; 3160,197;    2,621;   -0,318
1035,441; 3129,833;    0,439;    0,318
1035,987; 3135,742;   -2,288;   -0,682
1036,533; 3121,197;   -0,197;   -0,955
1037,078; 3324,288;    4,712;    1,682
1037,624; 3141,106;    2,439;   -0,955
1038,170; 3170,742;    1,712;   -0,318
1038,716; 3048,106;    2,167;   -0,409
1039,261; 2979,742;    2,167;   -0,773
1039,807; 2912,833;   -0,015;    3,409
1040,352; 2974,742;   -1,288;   -0,318
1040,898; 3021,742;    0,167;   -0,682
1041,443; 2930,015;    0,803;   -2,591
1041,989; 2928,833;    3,621;    1,591
1042,534; 2831,288;    0,985;    2,591
1043,079; 2978,197;    1,985;    0,955
1043,625; 2731,197;    0,258;    0,500
1044,170; 2782,379;    2,439;    1,045
1044,715; 3035,742;    0,167;    0,955
1045,260; 2846,015;   -0,833;   -0,955
1045,805; 2896,742;    0,258;   -0,591
1046,350; 2847,015;    0,530;   -0,409
1046,895; 2785,924;    0,803;    1,591
1047,440; 2715,106;    1,530;    0,409
1047,985; 2638,833;   -1,197;   -0,955
1048,530; 2552,924;    1,348;    1,227
1049,074; 2613,379;    2,803;    0,318
1049,619; 2596,833;   -0,924;    1,955
1050,164; 2395,015;    1,076;    0,227
1050,708; 2442,379;    2,621;    0,045
1051,253; 2805,015;    3,258;   -2,227
1051,797; 2530,379;   -0,197;   -1,318
1052,342; 2550,288;    1,348;    1,045
1052,886; 2515,742;    1,803;   -1,409
1053,430; 2416,197;    2,167;    0,136
1053,975; 2424,379;    0,894;   -0,318
1054,519; 2407,742;    1,803;    3,227
1055,063; 2406,015;    3,621;    1,318
1055,607; 2289,288;    1,348;    0,227
1056,151; 2310,561;    0,530;    1,682
1056,695; 2245,833;   -1,833;   -1,136
1057,239; 2316,561;   -1,197;   -0,682
1057,783; 2297,833;    2,258;   -1,500
1058,327; 2247,379;    3,076;    1,409
1058,871; 2466,379;    3,985;    1,318
1059,415; 2169,106;   -0,561;   -0,045
1059,958; 2406,833;    2,985;    2,591
1060,502; 2157,288;    1,348;   -0,773
1061,046; 2063,742;    1,712;   -0,955
1061,589; 2042,015;    2,803;   -1,136
1062,133; 1918,197;    0,985;    1,864
1062,676; 1849,379;    1,439;    0,864
1063,220; 1860,924;    0,985;    0,500
1063,763; 1865,561;    2,985;    1,136
1064,306; 1940,652;    0,985;    1,864
1064,849; 1839,379;    2,076;    0,591
1065,393; 1836,652;    2,894;   -1,500
1065,936; 1977,288;    2,530;   -0,409
1066,479; 1855,561;    2,621;    1,318
1067,022; 1871,924;    1,894;   -0,227
1067,565; 1767,106;   -1,197;   -1,318
1068,108; 1817,924;    1,258;   -0,591
1068,651; 1784,015;   -2,470;    1,409
1069,194; 1695,197;   -1,106;   -1,682
1069,736; 1694,652;    3,803;    0,955
1070,279; 1680,833;   -1,652;   -0,500
1070,822; 1728,561;    1,530;   -0,318
1071,364; 1791,106;    0,530;    1,318
1071,907; 1620,833;    0,348;    3,227
1072,450; 1553,924;    0,258;   -0,045
1072,992; 1530,015;   -0,561;    3,136
1073,535; 1648,470;    0,167;    2,136
1074,077; 1464,379;    2,985;    2,045
1074,619; 1424,561;    0,985;    0,591
1075,161; 1451,470;   -0,561;    1,500
1075,704; 1630,470;    0,258;    1,227
1076,246; 1436,833;    1,530;    0,682
1076,788; 1359,197;   -1,015;    1,773
1077,330; 1444,288;   -2,106;    2,136
1077,872; 1404,561;   -1,924;    0,955
1078,414; 1626,833;    3,712;    0,773
1078,956; 1354,106;    0,167;   -0,227
1079,498; 1589,652;    0,439;    0,318
1080,040; 1293,015;    0,985;   -1,318
1080,581; 1254,470;    0,621;   -0,318
1081,123; 1192,833;   -0,106;   -0,773
1081,665; 1238,470;    3,803;   -0,955
1082,206; 1519,379;    3,258;   -0,500
1082,748; 1382,924;    3,258;    2,045
1083,289; 1269,106;    0,167;    1,318
1083,831; 1163,470;    0,258;    0,227
1084,372; 1185,197;    0,894;    0,591
1084,913; 1187,742;    3,348;    0,864
1085,455; 1175,833;    1,530;   -2,045
1085,996; 1142,015;    0,530;    0,136
1086,537; 1166,470;    0,985;    0,864
1087,078; 1197,470;    0,439;   -2,136
1087,619; 1241,742;   -1,652;    0,227
1088,160; 1147,106;    1,439;    1,318
1088,701; 1142,924;   -0,742;    0,682
1089,242; 1079,197;   -0,561;   -2,227
1089,783; 1168,288;   -0,561;    1,409
1090,324; 1138,015;   -0,833;    0,682
1090,865; 1023,924;   -1,924;   -0,409
1091,405;  999,470;   -0,561;    2,227
1091,946; 1027,379;   -0,197;   -0,955
1092,487;  969,742;   -1,288;   -1,409
1093,027; 1115,833;    1,803;   -1,500
1093,568;  972,288;    2,258;    1,227
1094,108; 1035,924;    0,621;    1,773
1094,649;  982,379;   -0,470;    0,136
1095,189;  934,379;    1,167;   -0,682
1095,729;  876,652;    0,712;    0,955
1096,269;  888,470;    1,258;   -0,955
1096,810; 1192,015;   -0,197;    0,500
1097,350; 1014,833;   -0,561;   -0,773
1097,890;  919,106;    2,985;    1,227
1098,430; 1167,015;    4,985;    2,864
1098,970; 1047,470;    1,894;    1,682
1099,510;  922,924;   -0,833;   -2,318
1100,050;  841,288;    0,258;   -1,591
1100,589;  811,288;    0,076;   -0,318
1101,129;  925,379;    0,894;   -0,955
1101,669; 1051,288;    2,803;    2,136
1102,209;  891,288;    1,530;    2,227
1102,748;  850,470;    3,439;    0,955
1103,288;  837,742;    0,712;   -1,227
1103,827;  871,379;    3,530;   -2,227
1104,367;  754,015;    1,712;   -2,409
1104,906;  710,197;   -1,015;   -1,136
1105,445;  772,470;    0,985;   -1,136
1105,985;  721,379;   -0,652;    1,500
1106,524;  769,288;    1,530;   -0,682
1107,063;  751,197;    1,167;    1,409
1107,602;  714,015;    1,894;   -1,500
1108,141;  649,106;    1,621;    1,500
1108,680;  727,197;    3,985;   -0,591
1109,219;  675,833;    0,167;   -0,500
1109,758;  690,015;    4,167;    0,682
1110,297;  656,742;   -1,106;   -0,682
1110,836;  588,470;    1,439;    0,955
1111,375;  759,015;    0,348;    0,409
1111,913;  766,015;    0,985;    0,773
1112,452;  720,379;    0,894;    0,136
1112,991;  600,652;    1,076;    1,955
1113,529;  558,379;    0,167;   -0,045
1114,068;  619,197;    0,439;    2,955
1114,606;  520,924;   -0,561;   -0,955
1115,144;  679,833;    1,530;    1,045
1115,683;  613,106;    1,985;    0,318
1116,221;  669,833;    2,076;   -0,864
1116,759;  576,470;    1,621;   -0,864
1117,297;  750,106;    1,621;    1,864
1117,836;  570,379;    1,985;   -1,227
1118,374;  568,470;    0,258;   -0,682
1118,912;  524,470;    0,439;    2,682
1119,450;  511,561;    0,985;    0,864
1119,988;  568,197;    3,348;    2,136
1120,525; 1023,015;    7,258;    3,318
1121,063;  709,379;    0,530;    1,864
1121,601;  515,742;    1,076;   -1,227
1122,139;  481,742;    1,076;   -2,045
1122,676;  666,015;   -1,652;    2,773
1123,214;  610,924;    0,712;    4,409
1123,751;  425,106;    0,621;    2,227
1124,289;  553,924;    0,894;   -0,409
1124,826;  427,742;   -0,379;    0,227
1125,364;  358,833;    0,712;   -0,955
1125,901;  529,652;    6,258;    1,227
1126,438;  628,288;    3,530;    0,955
1126,975;  370,470;    2,985;   -0,773
1127,513;  440,561;    2,621;    2,136
1128,050;  359,379;   -0,561;   -0,682
1128,587;  444,470;    1,348;   -0,227
1129,124;  481,833;   -0,015;    1,318
1129,661;  361,015;   -1,924;    0,227
1130,198;  516,924;    2,439;    0,773
1130,734;  456,379;   -0,379;    1,409
1131,271;  319,106;   -1,197;    0,864
1131,808;  490,015;    1,621;    3,045
1132,345;  371,106;    4,530;    0,318
1132,881;  249,924;   -0,561;   -1,864
1133,418;  378,015;    0,348;   -1,136
1133,954;  330,924;    0,712;   -2,682
1134,491;  396,106;    1,712;   -0,773
1135,027;  291,379;    2,167;    0,864
1135,564;  372,561;    1,439;    2,955
1136,100;  348,652;   -0,742;    2,136
1136,636;  261,742;   -1,015;   -1,045
1137,172;  339,470;    0,894;   -1,045
1137,708;  275,015;   -1,561;   -1,045
1138,245;  275,652;    0,803;   -1,227
1138,781;  234,015;    1,803;   -3,318
1139,317;  289,561;    1,894;   -1,409
1139,852;  285,742;    3,076;    0,136
1140,388;  391,470;    2,076;   -0,409
1140,924;  279,652;    1,076;   -2,227
1141,460;  222,652;   -0,288;    0,136
1141,996;  167,652;   -0,652;    2,682
1142,531;  206,379;    1,076;    3,318
1143,067;  406,197;    1,167;    1,045
1143,602;  460,561;    3,439;   -0,318
1144,138;  307,470;    0,803;    1,045
1144,673;  188,833;    1,621;    1,409
1145,209;  250,470;    2,894;   -0,318
1145,744;  180,015;    0,803;    0,864
1146,279;  289,197;    1,530;   -0,136
1146,815;  220,288;    1,530;   -2,682
1147,350;  267,379;   -0,924;    0,045
1147,885;  183,015;   -1,924;   -1,318
1148,420;  186,015;    2,439;    0,773
1148,955;  166,742;   -1,470;    1,864
1149,490;  189,742;   -1,106;   -1,591
1150,025;  171,470;   -1,106;   -1,773
1150,560;  279,197;   -0,288;   -0,955
1151,094;  239,106;    0,258;   -0,591
1151,629;  243,288;   -3,742;    0,864
1152,164;  172,106;   -1,288;    1,318
1152,698;  142,379;    1,258;   -0,136
1153,233;  104,288;   -1,379;   -0,682
1153,767;  145,833;   -0,288;   -2,318
1154,302;  180,924;   -0,379;    1,773
1154,836;  185,379;    0,803;   -2,136
1155,371;  239,015;    2,258;    3,682
1155,905;  196,561;    1,985;    1,682
1156,439;  162,561;    0,530;   -0,500
1156,973;  196,379;    0,439;    0,318
1157,507;  137,742;   -1,742;    0,682
1158,042;  167,197;   -0,652;    1,045
1158,576;  201,833;   -0,561;    1,773
1159,110;  193,197;    0,076;    2,409
1159,643;  168,288;   -2,470;   -0,045
1160,177;  110,470;   -2,015;    1,500

