
Integration time [ms]:   0,050
Averaging Nr. [scans]: 11
Smoothing Nr. [pixels]: 0
Data measured with spectrometer [name]: 7318044SP
Wave   ;Sample   ;Dark     ;Reference
[nm]   ;[counts] ;[counts] ;[counts] 

186,757;  -16,269;   38,161;    1,318
187,357;   17,457;   26,706;    0,955
187,958;   -7,428;   17,252;   -1,591
188,558;   41,702;   12,979;   -1,227
189,159;    8,956;   10,070;   -4,500
189,759;   -9,731;    5,797;   -3,591
190,360;  -10,041;    6,797;   -2,136
190,960;   20,654;    5,706;   -4,136
191,560;   27,416;    2,614;   -6,591
192,161;  244,148;    5,885;   -3,500
192,761;   98,479;    5,520;   -3,227
193,361;   51,959;    3,065;   -3,773
193,962;  102,810;    1,612;   -2,682
194,562;   30,193;   -0,114;   -3,955
195,162;   43,079;   -0,567;   -2,227
195,762;  175,900;    2,433;   -0,045
196,362;  139,987;    1,706;   -2,500
196,963;   33,366;    1,706;   -0,864
197,563;   92,080;    1,252;   -0,955
198,163;   39,999;   -0,111;   -0,682
198,763;   54,327;   -0,020;   -0,500
199,363;  121,336;    3,616;   -0,500
199,963;   94,994;    2,162;    0,409
200,563;   77,222;    6,344;   -1,409
201,163;   56,404;    5,435;   -0,227
201,763;  126,602;    1,435;    0,318
202,363;   75,246;    0,980;    1,500
202,963;  138,463;    1,526;    1,045
203,563;  224,517;    0,344;    0,500
204,162;  120,213;    1,889;   -1,864
204,762;  110,579;    2,071;    0,591
205,362;   87,291;    0,708;    1,955
205,962;  152,389;    3,435;    1,955
206,562;  149,920;    1,889;    2,318
207,161;  121,798;    1,708;    0,318
207,761;  255,319;    4,435;    2,409
208,361;  141,970;    1,889;    1,409
208,960;  216,643;    2,889;    1,500
209,560;  257,169;    0,435;    1,591
210,160;  258,415;    5,071;    1,864
210,759;  229,302;    0,708;    1,227
211,359;  222,937;   -0,474;    1,045
211,958;  441,551;    3,526;    2,045
212,558;  498,007;    0,799;    1,864
213,157;  359,928;   -0,929;    1,500
213,757;  717,481;    5,617;   -0,227
214,356;  468,006;    1,708;   -0,409
214,956;  734,449;    3,526;    0,409
215,555;  425,919;    0,617;    2,136
216,154;  373,681;   -0,292;   -0,591
216,754;  361,924;    1,253;    0,773
217,353;  468,304;   -0,383;   -1,045
217,952;  351,741;    2,072;    0,318
218,552;  542,847;    0,254;   -0,773
219,151;  446,787;   -1,110;    0,955
219,750;  459,231;    0,890;   -0,227
220,349;  496,795;   -2,292;    1,045
220,948;  605,003;    1,163;    1,136
221,548;  542,848;    0,617;    1,227
222,147;  645,627;   -1,292;   -0,409
222,746;  902,049;    1,254;   -0,955
223,345;  741,760;   -1,019;    0,500
223,944;  737,715;    1,163;    0,773
224,543;  835,704;    4,072;   -1,409
225,142;  934,294;    1,345;    0,136
225,741;  828,602;    1,163;    1,045
226,340;  828,257;    1,254;   -0,955
226,939; 1143,416;    2,708;   -0,136
227,538;  971,592;    1,163;   -0,773
228,137; 1164,080;    0,435;    0,864
228,735; 1144,883;    0,435;    1,227
229,334;  922,672;   -0,474;   -0,227
229,933; 1268,590;    0,799;    0,591
230,532; 1342,776;   -1,201;   -0,409
231,131; 1399,510;    1,253;    0,318
231,729; 1306,698;    1,163;   -2,318
232,328; 1256,982;    0,435;   -1,500
232,927; 1259,477;    4,526;   -0,500
233,525; 1256,136;    0,981;    0,045
234,124; 1373,559;    1,890;   -1,591
234,723; 1302,223;    1,617;   -1,045
235,321; 1327,243;    1,163;    0,136
235,920; 1416,349;    2,526;   -1,227
236,518; 1653,824;    1,072;    0,318
237,117; 1548,646;    2,890;   -0,227
237,715; 1597,106;    1,163;   -0,500
238,314; 1652,911;    1,708;   -2,318
238,912; 1834,855;    0,526;   -1,409
239,510; 1702,523;    1,162;   -1,227
240,109; 1870,575;   -0,474;    3,773
240,707; 1849,614;   -0,474;    1,227
241,305; 1903,753;   -0,383;    0,136
241,904; 2069,117;   -0,292;   -2,045
242,502; 2146,525;    3,253;   -0,227
243,100; 2107,985;    3,344;   -0,955
243,698; 2255,173;    2,799;    1,682
244,297; 2376,959;   -0,656;    0,682
244,895; 2359,759;   -0,474;   -2,318
245,493; 2681,236;    2,981;   -0,591
246,091; 2711,778;    5,163;   -1,318
246,689; 2714,308;    2,163;    0,591
247,287; 2835,258;   -0,019;   -1,136
247,885; 3131,828;   -1,019;    1,227
248,483; 3226,390;   -0,201;   -0,500
249,081; 3392,166;    0,981;    1,591
249,679; 3602,142;   -1,019;    1,682
250,277; 3853,815;   -2,292;    0,864
250,875; 3884,000;    0,617;   -1,045
251,473; 3954,423;   -0,019;    0,500
252,071; 4185,754;   -0,383;    1,045
252,669; 4343,988;   -1,565;    0,318
253,267; 4599,765;    1,618;    0,773
253,864; 4564,440;    0,617;    0,682
254,462; 4609,965;    1,526;    1,591
255,060; 4597,709;    0,072;    1,318
255,658; 4861,897;   -3,292;   -0,136
256,255; 5281,243;   -0,201;   -2,045
256,853; 5212,919;    2,345;    1,409
257,451; 5243,115;    1,981;    1,864
258,048; 5635,859;    2,072;    1,864
258,646; 5359,223;    0,436;   -1,045
259,243; 5580,555;    2,981;    2,227
259,841; 5648,149;    1,799;    0,318
260,438; 5594,353;    0,254;    0,864
261,036; 6223,373;    0,617;    1,409
261,633; 6222,108;    1,526;    2,227
262,231; 6077,615;   -0,110;   -0,045
262,828; 6210,269;   -0,383;    1,136
263,425; 6257,648;   -1,928;   -0,591
264,023; 6551,800;    1,436;    0,045
264,620; 6188,921;    1,526;   -0,318
265,217; 6533,093;    2,890;    3,136
265,815; 6677,954;    2,527;    2,136
266,412; 6584,396;    0,072;    0,136
267,009; 6634,555;    0,526;    0,773
267,606; 6624,587;    0,345;   -0,955
268,203; 6619,104;   -0,383;   -0,591
268,801; 6882,553;   -0,474;    0,591
269,398; 7168,817;   -0,564;    2,500
269,995; 7201,269;    0,890;    1,591
270,592; 7004,889;    0,799;   -0,500
271,189; 7210,670;    1,981;    0,409
271,786; 7346,789;    2,072;    1,227
272,383; 7239,312;   -0,383;    0,227
272,980; 7389,186;    1,617;    0,318
273,577; 7825,620;    2,162;    1,227
274,174; 7375,078;    1,435;    2,591
274,771; 7361,078;    1,890;   -0,773
275,367; 7534,150;    3,253;    1,409
275,964; 7474,854;   -0,565;   -0,500
276,561; 7589,305;   -2,474;   -1,045
277,158; 7748,869;    1,799;   -1,773
277,755; 7864,984;   -0,110;    0,409
278,351; 7241,936;    0,436;   -1,500
278,948; 7545,570;   -0,201;    0,045
279,545; 7537,791;    0,527;    2,318
280,141; 8142,056;    1,254;   -2,045
280,738; 7951,503;    2,435;   -0,136
281,334; 8117,272;   -0,383;    0,591
281,931; 7601,999;    2,890;   -1,318
282,528; 7717,596;    4,072;   -0,500
283,124; 8357,874;    3,345;   -0,500
283,721; 8247,031;    0,709;    1,409
284,317; 8082,812;    0,163;    2,500
284,913; 8620,025;   -0,110;    0,591
285,510; 8845,298;    2,890;   -0,318
286,106; 8891,433;    2,345;   -0,955
286,703; 8456,763;    0,072;    1,955
287,299; 8707,694;    1,254;   -0,591
287,895; 8942,411;    0,890;   -1,045
288,491; 9574,362;    0,163;    2,136
289,088; 9366,552;    0,163;    2,409
289,684; 9505,351;    2,890;    1,500
290,280; 9583,284;    1,890;    0,682
290,876; 9727,598;    0,163;    5,500
291,472; 9711,632;    2,163;    2,227
292,068; 9887,826;    1,254;    0,227
292,665; 9665,694;   -0,564;    0,773
293,261; 9434,246;   -1,292;    2,136
293,857; 9892,982;    4,072;    2,136
294,453; 9944,575;   -0,928;    0,955
295,049; 9944,920;    0,253;    1,955
295,644;10079,210;   -1,292;    0,136
296,240;10077,740;    0,162;   -0,136
296,836;10198,686;   -0,747;    0,318
297,432;10613,272;    2,980;   -0,500
298,028;10716,070;    0,435;    0,773
298,624;11177,367;    0,889;    1,864
299,220;11560,744;    0,435;    0,591
299,815;11288,265;    0,526;   -0,409
300,411;11148,375;    0,435;    1,773
301,007;11255,116;    1,889;    0,227
301,602;11381,862;    2,071;   -2,318
302,198;11608,422;    1,435;   -0,773
302,794;12008,482;    1,526;   -0,500
303,389;12216,890;    1,071;    1,045
303,985;12289,445;    1,253;    1,409
304,580;12267,831;    0,889;    1,591
305,176;12315,248;    0,344;    0,136
305,771;12292,872;   -0,929;   -1,227
306,367;12129,213;    3,071;    0,136
306,962;12535,953;    2,889;    1,500
307,558;12243,337;    2,435;    0,136
308,153;12220,627;   -0,383;   -1,136
308,748;12453,412;    0,162;    1,682
309,344;12417,249;    0,253;   -1,318
309,939;12484,514;    2,071;   -1,318
310,534;12774,517;   -2,020;   -1,682
311,130;12706,497;   -0,656;   -2,500
311,725;12379,525;    0,526;   -0,500
312,320;12678,857;    1,253;    0,045
312,915;12539,805;    2,890;   -1,045
313,510;12554,575;    0,526;   -0,500
314,105;13033,358;   -3,565;    1,409
314,700;12363,931;   -1,656;   -1,045
315,295;11947,922;   -0,020;    0,045
315,890;11446,378;   -0,292;    0,864
316,485;11733,918;    0,253;   -0,318
317,080;11790,619;   -0,929;    1,591
317,675;12304,872;    3,071;   -0,682
318,270;11612,951;    6,889;    3,318
318,865;11626,118;    2,435;    3,045
319,460;11431,463;   -1,565;    0,591
320,055;11620,858;   -2,565;   -1,227
320,650;11226,658;   -1,838;   -0,591
321,244;11247,569;    0,889;   -1,409
321,839;12155,521;    0,980;   -0,227
322,434;12001,675;   -0,111;   -1,591
323,029;11641,606;   -0,474;    1,591
323,623;11483,957;    0,798;    0,773
324,218;11263,502;    2,707;    1,409
324,812;11187,133;    0,889;    1,591
325,407;11021,463;   -0,929;    2,045
326,002;10932,185;    0,526;   -0,409
326,596;11267,068;   -0,656;    1,318
327,191;11541,020;   -0,383;   -1,045
327,785;11120,432;   -0,747;   -0,227
328,379;11433,964;   -0,383;    0,136
328,974;11251,000;    1,798;   -3,955
329,568;11548,001;    2,889;   -2,409
330,163;11421,762;    2,435;    1,045
330,757;11823,473;    0,253;    1,591
331,351;11229,890;   -0,292;    0,682
331,945;11596,649;   -0,383;    1,409
332,540;11214,814;    1,617;   -0,591
333,134;11425,558;    3,344;    0,773
333,728;11739,143;    2,799;    0,318
334,322;12206,606;    0,889;   -0,864
334,916;11519,232;    0,344;    0,955
335,510;11925,623;   -0,111;   -0,136
336,105;12268,838;   -0,929;    1,591
336,699;12007,313;   -1,292;    0,591
337,293;12050,894;    1,071;    0,318
337,887;12263,892;    0,071;    1,955
338,481;12439,653;    2,980;    0,591
339,074;12674,490;    2,071;    2,682
339,668;12534,653;   -0,110;    1,227
340,262;12865,881;    7,708;    3,227
340,856;12451,527;    1,708;   -0,682
341,450;11847,080;    0,708;    1,864
342,044;12884,349;    1,799;    0,136
342,637;12679,121;    1,162;   -2,136
343,231;12583,913;   -1,474;    0,682
343,825;12597,753;   -0,747;   -0,591
344,419;12621,102;   -0,474;    0,500
345,012;12398,458;    2,889;    4,045
345,606;12489,152;   -0,656;    1,591
346,199;12369,903;   -0,111;   -0,227
346,793;11905,339;    2,525;    2,045
347,386;12152,265;    0,889;   -1,136
347,980;12183,923;   -0,838;   -0,045
348,573;11991,832;   -1,748;    0,409
349,167;11612,438;    6,161;    4,773
349,760;12054,958;    2,252;    2,682
350,354;12077,477;    1,616;    1,136
350,947;11802,188;    2,798;    1,682
351,540;11481,921;    0,616;   -1,409
352,134;11428,993;   -1,111;    1,136
352,727;11522,394;   -0,657;    1,136
353,320;11327,466;    2,343;    0,591
353,913;11224,136;   -1,929;    1,864
354,507;11349,847;    0,434;   -1,227
355,100;11384,212;    0,071;    0,864
355,693;10493,117;    4,798;    2,409
356,286;10516,524;    0,980;    2,773
356,879;10965,715;   -0,475;    1,227
357,472;10505,431;    0,980;    1,500
358,065;10710,976;    3,161;    2,500
358,658;10672,246;    0,798;    2,318
359,251;10227,184;    0,252;   -0,591
359,844; 9654,841;    0,343;   -1,136
360,437; 9833,843;    0,252;    0,045
361,030;10135,876;    0,525;   -0,682
361,623; 9660,147;    0,434;    0,318
362,215; 9668,785;    0,979;    2,045
362,808; 9526,238;   -2,293;   -1,682
363,401; 9748,538;    0,798;    0,136
363,994; 9414,642;    3,252;   -1,500
364,586; 9330,156;    0,888;   -1,500
365,179; 9553,833;   -0,203;   -1,136
365,772; 8981,808;   -0,930;    2,045
366,364; 9285,198;    1,524;   -3,227
366,957; 9465,061;    1,342;   -0,045
367,549; 9486,190;   -0,203;   -0,864
368,142; 9088,455;    0,978;   -1,500
368,734; 9289,475;    2,523;   -2,136
369,327; 9256,466;    2,341;   -0,500
369,919; 9159,031;   -1,659;    0,409
370,512; 8875,081;   -1,023;   -0,500
371,104; 8585,950;    2,704;    1,591
371,696; 8773,743;    1,703;   -0,955
372,289; 8863,863;    0,157;    1,136
372,881; 9006,513;    1,156;    1,318
373,473; 8949,769;    4,064;    1,136
374,066; 8686,548;    1,336;    0,500
374,658; 8517,434;    0,879;    1,136
375,250; 8912,211;   -1,668;   -1,409
375,842; 8752,467;   -0,124;   -0,045
376,434; 8589,096;   -2,762;   -0,409
377,026; 9211,418;   -1,855;   -2,500
377,618; 9099,484;    0,779;   -0,682
378,210; 8956,253;    3,141;   -1,955
378,802; 8769,675;    3,412;   -0,591
379,394; 8670,855;    3,411;    0,682
379,986; 9341,092;    1,138;   -0,955
380,578; 9477,913;    1,410;    0,773
381,170; 8710,208;    0,320;    0,045
381,762; 8674,669;   -0,224;    1,409
382,354; 8932,918;   -0,223;   -1,318
382,945; 9024,064;    0,870;    0,318
383,537; 9191,563;    1,144;   -1,955
384,129; 9162,697;    0,963;   -1,136
384,721; 9377,053;    0,418;    0,955
385,312; 9299,668;   -1,399;   -0,955
385,904; 9390,642;   -0,945;    1,591
386,496; 8686,500;    0,691;    1,045
387,087; 8855,231;    0,418;    2,500
387,679; 8892,982;   -0,401;    0,045
388,270; 9025,367;   -2,401;    2,045
388,862; 9164,731;   -0,401;   -0,318
389,453; 9039,855;    1,054;    1,045
390,045; 9335,638;    3,236;   -2,682
390,636; 9341,202;    0,144;   -0,591
391,227; 9156,253;    2,054;   -0,045
391,819; 9235,141;    0,781;    0,773
392,410; 9325,281;    0,600;    0,045
393,001; 9218,098;    1,600;   -1,591
393,593; 9518,356;    0,600;   -0,045
394,184; 9343,946;    0,873;   -0,409
394,775; 9297,269;    1,146;    2,136
395,366; 9527,608;    1,782;    0,773
395,957; 9516,800;   -2,400;    0,136
396,548; 9876,368;    1,054;    2,682
397,139;10180,047;    2,236;    0,591
397,730; 9866,815;    0,873;    0,955
398,321; 9934,172;    0,509;    0,955
398,912; 9963,508;   -0,764;    0,136
399,503;10070,604;   -1,945;   -1,409
400,094; 9470,150;   -1,582;    1,682
400,685; 9323,966;    3,600;    0,045
401,276; 9399,483;   -0,400;   -0,955
401,867; 9713,857;   -1,127;    0,773
402,458; 9824,964;    1,509;   -2,318
403,048; 9772,597;    0,146;    0,591
403,639; 9361,227;    1,509;    0,864
404,230; 9586,207;    0,691;    0,318
404,821; 9529,150;   -0,127;    0,045
405,411; 9646,725;   -0,763;   -2,591
406,002; 9185,025;    3,237;   -1,136
406,592; 8975,670;    2,691;    0,045
407,183; 9276,013;    0,328;   -1,500
407,774; 9179,330;    1,419;   -0,136
408,364; 9544,525;    2,600;    0,409
408,954; 9081,926;   -0,036;    1,227
409,545; 9113,063;    1,873;    1,045
410,135; 8576,570;   -1,581;    0,500
410,726; 8765,711;    0,783;    0,318
411,316; 9112,050;    2,237;    0,773
411,906; 8740,049;    0,146;   -0,409
412,497; 8142,535;   -0,490;   -0,045
413,087; 8793,635;    0,783;   -0,227
413,677; 9189,292;   -2,490;    3,864
414,267; 8978,652;   -1,035;    1,409
414,857; 8943,105;    0,419;    4,227
415,448; 9192,199;   -0,763;    0,500
416,038; 8831,036;   -2,945;   -0,591
416,628; 8744,157;    0,965;    0,409
417,218; 8144,329;   -1,762;    3,318
417,808; 8376,146;    0,965;   -0,409
418,398; 8819,468;   -1,035;    2,682
418,988; 8769,144;   -2,217;    0,591
419,578; 8979,255;    3,601;    1,409
420,168; 9250,442;    0,692;   -0,955
420,757; 8759,961;    0,964;   -1,500
421,347; 8381,743;    1,601;   -0,227
421,937; 8541,825;    3,329;    1,409
422,527; 8394,382;    2,602;   -0,773
423,116; 8154,762;    2,692;   -0,045
423,706; 8497,829;    2,965;    0,318
424,296; 8393,253;    1,601;    0,682
424,885; 8754,253;    1,510;   -3,045
425,475; 9004,112;    1,147;   -2,864
426,065; 8822,027;   -1,489;   -0,318
426,654; 8417,888;    0,329;   -0,318
427,244; 8450,298;    1,147;    1,409
427,833; 7803,376;    1,056;   -0,500
428,423; 8186,326;    0,147;    1,136
429,012; 8884,636;    2,420;   -1,136
429,601; 8336,152;    2,057;    0,136
430,191; 8504,801;    2,511;    4,318
430,780; 8039,411;   -1,671;   -0,409
431,369; 7918,803;    1,329;   -0,045
431,959; 8456,186;    1,693;    0,500
432,548; 8195,265;   -1,398;   -0,045
433,137; 8231,625;    0,329;   -1,318
433,726; 8662,401;    0,148;    0,500
434,315; 8011,408;    0,148;    2,409
434,905; 8022,947;    0,693;    1,409
435,494; 7870,049;    3,148;    0,955
436,083; 8194,076;    1,420;   -0,955
436,672; 7936,164;    1,148;    0,500
437,261; 7519,091;    0,512;   -1,955
437,850; 7569,726;   -1,125;    0,682
438,439; 7450,967;    2,239;    1,955
439,027; 7202,995;    3,421;    1,773
439,616; 7451,509;    2,239;    1,227
440,205; 7201,010;    0,057;   -2,136
440,794; 7076,947;   -0,306;   -0,045
441,383; 7205,011;    1,603;   -0,591
441,971; 6954,588;   -0,306;    0,591
442,560; 6706,343;    0,603;   -1,773
443,149; 6403,657;    3,060;   -1,318
443,737; 6459,507;    0,968;   -2,318
444,326; 6592,115;    0,331;    0,318
444,915; 6452,348;   -1,851;    0,864
445,503; 6632,731;    0,058;   -0,318
446,092; 6004,758;    7,876;    2,136
446,680; 6347,254;    1,876;    0,318
447,269; 6372,625;   -1,487;   -0,318
447,857; 6030,740;    2,240;   -1,773
448,445; 6040,698;    2,149;    1,318
449,034; 6101,644;    0,876;   -1,136
449,622; 6033,295;    1,240;    3,500
450,210; 5483,116;    3,149;    2,227
450,799; 5759,765;    2,604;   -0,591
451,387; 5511,283;    1,786;   -0,591
451,975; 5184,665;   -1,305;    0,864
452,563; 5269,453;    0,422;    2,318
453,151; 5126,066;   -1,032;   -1,227
453,739; 4946,821;   -1,577;    0,136
454,328; 4847,775;    0,604;   -2,136
454,916; 4536,957;    1,150;   -0,136
455,504; 4541,314;    3,513;    1,227
456,092; 4573,157;    2,150;   -1,591
456,679; 4426,530;    0,604;    0,682
457,267; 4568,281;    3,604;    1,045
457,855; 4395,515;    3,241;    1,409
458,443; 4042,144;   -0,304;    1,682
459,031; 4238,467;    1,332;    2,409
459,619; 4354,148;   -3,577;    2,864
460,206; 4253,226;   -0,759;    2,045
460,794; 4284,651;   -0,668;   -0,227
461,382; 4360,222;    0,878;   -0,864
461,970; 4023,607;    0,605;    1,864
462,557; 4013,703;    0,878;   -0,682
463,145; 4151,777;   -0,304;   -1,682
463,732; 4206,707;    2,514;   -1,045
464,320; 3955,644;    1,514;   -3,045
464,907; 3858,566;    0,423;   -0,773
465,495; 3693,335;    2,696;   -1,227
466,082; 3644,180;    2,060;   -0,045
466,670; 3471,331;    2,605;    1,227
467,257; 3673,570;    0,060;    2,045
467,844; 3816,103;    1,514;    0,045
468,432; 3782,743;   -0,031;    3,500
469,019; 3481,123;    1,606;   -1,773
469,606; 3617,669;    0,969;    3,682
470,193; 3500,804;    2,151;    0,227
470,780; 3312,429;    0,333;    0,864
471,368; 3373,459;   -1,212;   -0,773
471,955; 3234,416;    1,060;   -0,682
472,542; 2952,292;   -0,303;   -1,136
473,129; 2926,743;   -0,485;    0,136
473,716; 2756,786;    0,060;    0,591
474,303; 2742,088;    1,333;   -0,864
474,890; 2799,458;    2,333;   -0,500
475,477; 2822,615;   -0,576;    0,409
476,064; 2639,228;    0,697;   -1,591
476,650; 2577,024;    2,152;    0,318
477,237; 2410,115;    1,879;    0,955
477,824; 2370,603;    3,879;    0,864
478,411; 2222,907;    0,606;   -0,318
478,997; 2194,703;    0,606;   -0,773
479,584; 2085,022;   -0,666;   -0,409
480,171; 2450,390;    1,243;   -0,773
480,757; 2378,553;   -0,848;    0,773
481,344; 2241,384;    0,334;    0,409
481,931; 1890,915;   -0,393;    1,045
482,517; 2213,956;    0,425;    0,318
483,104; 2293,714;    1,334;    2,864
483,690; 2137,577;    0,243;    0,045
484,276; 2070,030;    0,698;    0,227
484,863; 2264,473;    2,152;    1,136
485,449; 2110,297;    0,152;    0,318
486,035; 1959,483;   -0,666;   -0,136
486,622; 2147,080;   -2,393;    0,045
487,208; 1987,616;    1,334;    1,500
487,794; 1889,298;    0,971;    0,318
488,380; 1924,507;    0,698;   -1,409
488,967; 1873,632;   -1,120;   -0,409
489,553; 1897,066;   -1,029;   -1,409
490,139; 2004,879;    0,971;    0,773
490,725; 1811,407;    0,789;   -0,227
491,311; 1778,843;    1,516;    3,045
491,897; 1572,797;   -0,665;    1,500
492,483; 1663,769;    0,426;    1,227
493,069; 2424,912;    5,426;    0,864
493,655; 1929,229;    1,789;    0,682
494,241; 1790,211;    1,517;   -0,955
494,826; 1944,960;    0,335;   -1,045
495,412; 1922,541;    0,335;   -0,682
495,998; 1923,571;    0,971;   -0,318
496,584; 2000,231;    2,244;    1,045
497,169; 1981,905;    2,335;   -0,682
497,755; 1967,404;    1,244;    1,227
498,341; 2489,527;    2,153;    0,318
498,926; 2572,547;    2,881;    1,955
499,512; 2485,574;   -0,028;    2,955
500,097; 2481,705;   -0,574;   -0,318
500,683; 2663,891;   -0,028;    2,136
501,268; 2970,865;    1,881;   -0,955
501,854; 3107,553;   -0,119;    1,227
502,439; 3216,333;   -0,573;   -1,773
503,024; 3469,546;    1,608;    0,500
503,610; 3741,082;    1,335;   -0,682
504,195; 3908,099;    1,245;    1,955
504,780; 4309,924;    2,335;    1,227
505,366; 4574,108;    4,063;    2,864
505,951; 4660,123;   -1,119;    1,045
506,536; 4998,433;    1,427;   -3,682
507,121; 5268,654;    1,699;   -0,318
507,706; 5956,153;   -0,392;    1,045
508,291; 6479,684;   -2,937;    1,136
508,876; 6469,899;   -0,482;    2,591
509,461; 6475,860;    1,427;   -0,773
510,046; 7201,381;   -0,391;    0,318
510,631; 7772,493;   -0,119;   -0,773
511,216; 7896,029;   -0,664;   -0,500
511,801; 8640,806;   -0,755;    2,591
512,386; 9248,849;    0,972;    0,500
512,971; 9528,447;    0,427;    0,955
513,555; 9537,220;    1,154;   -1,500
514,140;10633,541;    1,336;   -3,136
514,725;10941,527;    1,791;   -1,136
515,309;11447,528;    1,064;    0,318
515,894;11283,205;   -0,300;   -2,227
516,479;12037,899;    1,973;   -0,955
517,063;12159,311;    0,882;    1,227
517,648;12595,643;    0,155;   -1,136
518,232;12478,406;   -1,300;   -1,409
518,817;13077,037;    1,337;    1,682
519,401;13559,731;    0,700;    0,591
519,985;13280,794;    2,700;    1,136
520,570;13386,006;   -0,118;   -1,955
521,154;13861,906;    0,064;    0,591
521,738;14238,231;    1,064;    2,409
522,323;15005,089;   -0,390;    1,682
522,907;14912,333;    2,428;   -0,136
523,491;14747,741;    1,155;    0,955
524,075;14869,099;    0,428;    0,591
524,659;15078,427;    0,973;    0,591
525,243;14575,704;    0,883;    0,409
525,827;14943,169;    0,883;   -0,045
526,411;15961,154;    1,155;   -0,136
526,995;16284,359;    0,337;    1,409
527,579;15918,090;    1,974;   -1,045
528,163;16340,636;    0,428;   -1,500
528,747;16321,743;    1,065;   -0,773
529,331;16718,886;    0,883;   -1,409
529,915;16968,700;    2,338;    0,955
530,499;16975,302;    0,247;    1,227
531,082;16676,333;    1,065;    1,591
531,666;16115,784;    0,520;    0,773
532,250;16931,374;    0,428;    2,682
532,833;17342,220;    0,610;    2,773
533,417;17215,012;    1,247;    0,864
534,001;17213,875;    0,429;   -0,318
534,584;18044,313;    1,974;    0,500
535,168;17875,011;    3,247;    1,409
535,751;17971,107;    4,520;    0,045
536,334;17401,150;    4,520;   -0,409
536,918;18081,595;    1,974;    1,591
537,501;18232,894;    1,520;    1,318
538,085;18205,180;    1,702;    1,045
538,668;18399,810;    0,883;    2,409
539,251;18767,078;    3,156;    3,773
539,834;18753,109;    0,156;    0,773
540,418;18653,288;    3,247;    4,318
541,001;18834,861;    2,702;    1,773
541,584;18911,887;    1,429;    2,227
542,167;18580,109;    0,702;    2,955
542,750;18763,824;    0,793;   -0,773
543,333;18349,279;    1,429;    2,136
543,916;19192,805;   -0,298;    2,500
544,499;19891,373;    2,520;    0,227
545,082;19887,110;    0,248;    3,591
545,665;20052,481;   -0,207;    1,500
546,248;20452,461;    0,520;   -0,318
546,830;20150,169;   -1,752;    1,955
547,413;20535,112;    0,157;   -0,773
547,996;21135,815;    0,157;    0,500
548,579;20909,214;   -0,843;    0,955
549,161;20718,587;    0,884;    2,682
549,744;20499,350;    0,612;    0,409
550,326;21066,198;    0,885;   -1,136
550,909;20799,280;    2,339;    0,591
551,492;21240,109;    0,521;    0,227
552,074;20974,979;   -0,024;   -1,318
552,657;21612,140;    2,430;    0,045
553,239;21338,942;   -3,024;   -0,773
553,821;21247,281;   -1,570;    1,045
554,404;20716,181;   -0,024;    1,136
554,986;21080,814;    2,248;    1,045
555,568;21811,070;    0,430;   -0,955
556,151;20959,610;    4,067;   -0,227
556,733;21132,013;   -1,388;   -0,864
557,315;21639,942;    4,703;    0,500
557,897;21425,120;    0,521;   -0,500
558,479;21608,549;    1,703;    1,318
559,061;21795,176;    1,067;   -0,864
559,643;22123,842;   -0,297;    0,045
560,225;22496,989;   -0,388;    2,864
560,807;22580,297;    0,340;    0,318
561,389;22057,260;   -1,206;    2,318
561,971;22829,370;   -0,660;    2,136
562,553;22625,136;    0,613;    1,591
563,135;22775,581;    1,249;    1,136
563,717;22384,349;    3,158;    1,136
564,298;23163,533;    3,976;   -0,045
564,880;22891,045;    0,340;   -1,409
565,462;23075,863;    1,977;    1,318
566,043;24332,408;   -0,933;    2,318
566,625;23912,757;    4,067;    1,227
567,207;23806,388;    0,704;    1,682
567,788;25049,190;   -0,114;    1,500
568,370;26017,799;   -1,841;   -0,500
568,951;25877,713;   -0,569;    0,227
569,533;26873,916;    0,977;   -0,500
570,114;27411,123;   -0,296;    0,682
570,695;28007,975;   -0,478;   -1,318
571,277;28698,153;   -0,205;   -1,682
571,858;29579,494;    2,704;   -1,136
572,439;30626,175;    0,795;   -1,045
573,021;30796,816;    0,432;   -2,773
573,602;31432,623;    1,795;    0,318
574,183;32478,053;   -0,114;    2,227
574,764;32775,973;    2,068;    0,409
575,345;33417,591;    0,250;   -0,136
575,926;34171,311;    2,704;    0,136
576,507;34203,062;    2,704;   -0,227
577,088;35340,482;    1,704;    1,682
577,669;35373,183;    1,704;    1,955
578,250;36237,780;   -0,750;   -1,045
578,831;37073,796;   -0,841;   -2,227
579,412;37436,178;   -1,205;    0,955
579,993;38478,460;    1,432;    0,227
580,573;38854,782;   -0,023;   -0,955
581,154;37725,870;    1,613;   -0,591
581,735;38640,133;    0,341;    0,773
582,315;38156,769;    0,523;    2,136
582,896;38510,701;   -1,750;    1,227
583,477;37957,603;    0,614;    1,227
584,057;38073,424;    1,159;    0,955
584,638;38321,914;   -2,750;    2,318
585,218;38339,031;    2,886;    2,682
585,799;38491,038;    1,977;   -0,227
586,379;38405,300;    1,250;    1,591
586,959;37078,942;    2,613;    0,318
587,540;36231,554;    0,432;    2,227
588,120;35594,278;   -1,113;   -0,045
588,700;34444,063;    2,977;    2,136
589,281;34747,166;    1,250;   -0,955
589,861;34710,654;   -0,296;   -1,682
590,441;34493,287;   -1,477;   -2,682
591,021;33341,536;    1,432;   -2,591
591,601;33510,413;    0,431;    0,500
592,181;33498,480;   -1,296;   -0,773
592,761;32746,258;    2,250;    1,409
593,341;32567,437;    1,522;    0,045
593,921;32474,355;   -0,569;    1,591
594,501;32334,795;    1,250;    1,318
595,081;32193,906;    0,522;   -0,318
595,661;32592,580;    1,068;    0,955
596,240;33127,448;   -1,023;    0,136
596,820;32711,292;    2,613;    1,955
597,400;33024,389;    1,977;    0,773
597,980;33279,819;   -0,750;    1,045
598,559;33300,617;    0,341;   -0,227
599,139;32943,433;   -0,750;   -1,227
599,718;32883,433;    0,795;   -0,409
600,298;33096,107;   -2,387;    0,682
600,877;33337,500;    4,795;    1,409
601,457;33625,799;    0,340;    1,136
602,036;33529,307;    1,795;    2,045
602,616;33753,622;    2,250;    1,682
603,195;34067,511;    0,431;    3,500
603,774;33578,201;   -0,296;    2,045
604,354;33440,014;    2,522;   -0,500
604,933;32899,096;    0,250;    1,864
605,512;33047,205;    2,340;    0,591
606,091;33034,644;    1,886;    3,773
606,671;33864,415;    0,249;    0,773
607,250;32825,990;    1,431;    3,136
607,829;33180,375;    1,158;    3,227
608,408;32996,943;    4,613;    2,591
608,987;31947,210;    2,704;    3,409
609,566;32249,504;    0,341;   -2,500
610,145;32272,507;    2,885;    0,682
610,723;32703,147;    1,613;    6,864
611,302;31936,167;    1,067;    1,682
611,881;31394,559;    5,158;   11,227
612,460;32264,932;    0,795;    3,955
613,039;32698,034;    1,703;    2,045
613,617;31333,561;    0,886;    4,773
614,196;31549,240;    1,613;    1,227
614,775;31890,332;    1,249;    2,409
615,353;31867,406;   -1,660;    0,864
615,932;31455,688;    0,249;    2,409
616,510;32073,590;    0,158;    0,591
617,089;31533,698;    8,794;   17,591
617,667;31231,703;    4,885;    6,136
618,246;31074,378;   -1,115;    1,318
618,824;31228,766;    1,612;   -0,955
619,402;30758,236;    0,431;   -1,773
619,981;31296,224;    1,067;   -1,045
620,559;31151,874;    0,794;    1,682
621,137;30660,564;    3,067;    1,864
621,715;30564,568;    3,703;   -0,682
622,293;30472,241;    1,885;   -0,773
622,871;30957,215;    0,340;    0,500
623,450;30479,146;    0,430;   -0,864
624,028;30364,349;   -0,388;   -0,955
624,606;29977,039;    2,339;    1,682
625,183;30361,068;   -0,661;   -1,136
625,761;29955,872;    1,885;    1,136
626,339;30220,987;    2,339;    2,591
626,917;30593,560;    0,339;   -0,045
627,495;30687,458;    2,794;    1,318
628,073;30112,997;    5,248;    2,864
628,650;29782,137;    3,067;    2,136
629,228;30185,395;    1,248;    4,409
629,806;29510,348;   -0,024;    1,136
630,383;29817,515;    0,066;   -0,318
630,961;29550,020;   -2,206;   -0,955
631,539;29270,723;   -2,479;    0,227
632,116;28467,838;   12,703;   15,409
632,694;29121,636;    4,885;    6,500
633,271;29460,287;    1,975;    2,682
633,848;29351,585;    1,430;    2,045
634,426;29351,739;    1,521;    1,773
635,003;28451,624;   -0,207;   -0,409
635,580;28768,746;    1,884;    3,682
636,158;29351,309;    3,793;    1,227
636,735;29330,140;    3,339;   -0,500
637,312;29478,715;    0,521;   -0,682
637,889;29625,721;    2,248;   -0,682
638,466;29050,748;    0,066;   -0,409
639,043;29009,534;    1,702;   -1,136
639,620;29419,484;    0,611;   -0,955
640,197;29731,880;    1,612;    1,682
640,774;29814,599;    1,430;    1,136
641,351;30238,136;    0,612;    1,136
641,928;29652,946;    2,794;    1,409
642,505;29253,301;    0,794;   -0,500
643,082;29386,019;    1,885;    1,227
643,658;28367,192;    1,157;    1,500
644,235;29130,729;   -2,479;    2,500
644,812;29437,175;    1,794;    0,773
645,388;29181,349;    1,612;    1,409
645,965;29204,340;    1,521;    1,682
646,542;29265,059;    3,430;   -0,227
647,118;29263,414;    3,703;   -0,955
647,695;29601,951;    0,339;    1,136
648,271;29504,760;   -2,115;    0,500
648,848;29890,661;    0,248;    2,227
649,424;29655,107;    0,976;    1,318
650,000;29436,916;   -0,388;   -1,045
650,577;29223,998;    0,158;   -0,955
651,153;29686,535;   -1,115;    0,955
651,729;30788,345;    0,521;    0,864
652,305;31167,427;    1,339;    2,773
652,881;36505,146;   -1,297;    1,136
653,458;44695,501;    0,249;    0,227
654,034;49386,583;    0,703;    1,591
654,610;51268,666;    0,339;    0,773
655,186;52729,021;    1,612;    3,045
655,762;52478,012;   -1,842;    0,409
656,338;52509,276;    0,703;    0,136
656,913;53611,540;   -0,297;    0,409
657,489;52844,441;    0,249;   -0,318
658,065;52855,887;    0,794;   -1,591
658,641;53396,969;    2,158;   -0,864
659,217;52513,415;    2,067;    0,409
659,792;51890,952;   -1,751;   -0,409
660,368;52150,943;   -0,388;   -0,682
660,944;51695,207;    1,794;    1,227
661,519;46346,199;    0,522;    0,409
662,095;38979,281;   -0,206;    0,591
662,670;33385,727;   -0,206;   -0,136
663,246;31932,173;   -0,660;   -0,409
663,821;31074,165;    0,431;    1,682
664,396;30561,520;    0,613;    1,864
664,972;30777,147;   -0,660;   -0,500
665,547;31118,502;    3,794;    0,136
666,122;31139,585;    1,340;    0,318
666,698;31457,940;    2,431;    0,318
667,273;30742,658;    0,885;    0,136
667,848;31646,014;    0,340;    1,500
668,423;31400,096;    1,795;    2,318
668,998;31989,178;    0,976;   -0,682
669,573;32587,988;    2,067;   -1,500
670,148;32390,797;    1,885;   -0,682
670,723;32211,516;   -0,024;    0,318
671,298;32726,507;   -1,296;    1,045
671,873;32895,135;   -0,296;   -0,136
672,448;32755,945;    1,704;    0,136
673,023;33137,391;    0,249;   -0,227
673,597;33406,019;    2,704;    2,318
674,172;33172,646;    2,431;    0,318
674,747;32711,092;   -0,205;   -1,045
675,321;32573,538;   -0,933;    3,318
675,896;32087,802;    2,158;    1,045
676,471;33096,612;    2,522;    1,591
677,045;32890,058;   -0,296;    0,682
677,620;32965,867;    2,158;    1,136
678,194;33301,495;    0,249;    1,136
678,769;32800,578;    0,886;   -0,318
679,343;33020,205;   -0,023;    1,773
679,917;32890,015;    0,340;    1,955
680,492;33017,370;    0,249;    3,227
681,066;33211,816;    0,613;    0,409
681,640;33237,171;    1,795;   -0,318
682,214;34047,708;    2,340;    0,500
682,788;33525,063;    0,613;   -0,773
683,363;33493,872;    1,977;    1,682
683,937;33154,409;    0,886;   -0,318
684,511;34036,310;   -1,023;   -0,591
685,085;33736,392;   -1,478;    0,318
685,659;33448,565;    1,431;    0,864
686,232;33669,830;    1,159;   -0,318
686,806;33392,639;    2,159;    0,409
687,380;34075,721;   -1,932;    0,591
687,954;34311,986;    2,432;    1,136
688,528;34000,886;    2,613;    1,955
689,101;34801,968;    0,432;    1,045
689,675;34389,051;    0,886;   -0,136
690,249;33715,678;    3,432;    0,409
690,822;34019,579;    1,159;    0,318
691,396;34165,934;    2,068;    1,227
691,969;33534,653;    2,523;    0,136
692,543;34003,917;   -0,568;   -1,955
693,116;33633,090;   -0,659;   -1,409
693,690;33508,627;   -0,296;    0,500
694,263;34108,800;    2,341;    2,955
694,836;34100,246;    2,795;    3,591
695,410;32711,601;    1,159;    1,773
695,983;33141,411;    1,614;    0,591
696,556;33110,402;   -0,750;   -1,045
697,129;33516,575;   -1,114;    1,409
697,703;33098,930;    1,341;    1,955
698,276;33128,922;    1,705;   -0,773
698,849;32867,641;   -1,023;    1,409
699,422;33241,268;    1,250;    0,591
699,995;32994,805;   -0,659;    0,136
700,568;33529,251;   -0,204;    3,045
701,140;33553,788;   -1,841;    1,682
701,713;33195,961;    0,341;    2,409
702,286;32935,044;    0,796;    0,864
702,859;32820,126;    0,614;   -0,591
703,432;31854,935;   -0,841;    0,682
704,004;32413,745;    1,978;    0,318
704,577;32315,555;    1,068;    0,136
705,150;32902,819;    0,887;    2,500
705,722;32704,174;    1,523;   -3,227
706,295;32492,802;    1,432;   -0,591
706,867;32296,702;    0,250;    1,955
707,440;32552,421;   -0,113;   -0,409
708,012;32813,503;   -0,022;    0,591
708,584;32637,767;    2,705;    0,227
709,157;32953,668;    1,160;   -0,591
709,729;32656,205;    1,069;    2,045
710,301;33553,469;   -1,204;    0,045
710,874;33552,642;    0,341;   -0,227
711,446;32373,179;   -0,295;    0,864
712,018;32255,625;   -3,022;    0,500
712,590;31931,162;   -0,204;    1,682
713,162;32518,426;   -0,477;    1,318
713,734;32801,054;    1,796;   -2,045
714,306;32675,863;    0,342;   -0,409
714,878;31299,764;   -0,295;    0,864
715,450;32112,482;   -0,113;    0,864
716,022;32399,201;    2,433;    1,318
716,593;32518,556;    0,978;    0,591
717,165;32482,366;    1,796;   -1,227
717,737;32145,357;    0,796;    0,409
718,309;31844,712;    1,160;   -0,045
718,880;31797,340;   -1,295;   -1,409
719,452;31989,513;    0,887;   -1,591
720,024;31531,595;    1,705;   -0,591
720,595;32097,587;    2,978;    0,955
721,167;31607,760;    1,160;   -2,045
721,738;31056,206;    2,069;   -1,045
722,309;30913,561;    1,251;   -1,227
722,881;30735,462;    2,705;    0,773
723,452;31421,362;    1,251;    2,864
724,023;31656,990;    1,524;    2,682
724,595;31428,163;    2,342;    0,682
725,166;31161,791;    1,524;   -0,409
725,737;30741,419;    1,887;    0,227
726,308;30808,319;    0,797;    0,318
726,879;31289,311;    1,069;    1,227
727,450;31140,847;   -2,022;   -0,045
728,021;31108,293;    1,069;    0,682
728,592;30958,739;    1,160;    0,500
729,163;31294,731;    1,433;   -0,136
729,734;31297,722;    2,160;   -0,227
730,305;31632,714;    0,615;    0,136
730,876;31988,250;    0,888;    2,955
731,447;31694,333;    0,797;    2,682
732,017;31828,779;   -0,840;    1,864
732,588;31352,225;   -0,021;    1,227
733,159;31562,943;    3,615;   -1,045
733,729;31373,117;    1,251;    0,409
734,300;30583,472;    0,160;    0,864
734,870;30965,736;   -1,385;    0,591
735,441;31553,091;    0,888;   -0,591
736,011;31299,537;    1,070;   -1,591
736,582;31284,255;    1,251;    0,045
737,152;30710,610;    0,979;   -2,045
737,722;31129,784;    1,070;   -0,682
738,293;30875,411;   -2,021;    1,318
738,863;30753,130;    1,797;    2,318
739,433;30563,212;    4,524;    0,318
740,003;31216,386;    1,524;   -0,682
740,573;30529,104;    2,252;   -1,591
741,143;30457,096;    3,615;    0,318
741,713;31268,996;    0,252;   -0,500
742,283;30931,533;    1,706;    1,591
742,853;30644,797;    0,524;    1,591
743,423;30070,880;    0,161;    0,045
743,993;30228,416;    1,070;    1,500
744,563;29554,772;    2,524;   -0,864
745,133;29537,036;   -0,112;   -0,864
745,702;30260,209;    2,797;    1,773
746,272;29436,655;    0,434;    0,591
746,842;29132,192;   -0,748;   -0,591
747,411;29572,547;   -0,839;   -0,318
747,981;29751,447;   -0,930;    0,500
748,551;29810,348;   -0,021;   -1,045
749,120;29670,157;   -0,112;   -0,227
749,690;30101,421;    2,161;    2,409
750,259;30389,958;    0,979;    2,955
750,828;30273,495;    4,070;   -1,955
751,398;30563,214;   -0,112;   -0,045
751,967;30027,114;    2,888;    0,409
752,536;30266,742;    1,161;   -0,227
753,105;30698,097;   -1,384;    0,227
753,675;30535,180;   -0,112;    1,773
754,244;30481,989;    0,888;    3,591
754,813;30541,253;    0,979;    1,227
755,382;30177,790;    0,798;    0,955
755,951;30730,872;   -0,112;    3,682
756,520;30203,046;    2,525;    1,864
757,089;30843,219;    1,888;    0,500
757,658;31024,574;    2,434;    1,227
758,227;31008,020;   -1,111;    0,318
758,795;31310,829;   -1,021;    1,136
759,364;31555,275;    0,525;   -0,591
759,933;30511,630;    1,343;   -0,045
760,501;30024,440;    0,252;   -1,318
761,070;30484,795;   -0,293;   -1,409
761,639;31221,332;    1,434;    1,318
762,207;30490,596;    0,889;   -0,955
762,776;30385,224;    2,889;    0,864
763,344;30345,488;    0,071;    0,591
763,913;29455,207;    1,616;    1,409
764,481;30277,471;    1,980;   -0,136
765,049;30015,553;    0,616;    1,409
765,618;29841,272;    1,434;    0,318
766,186;29935,354;    2,434;    0,136
766,754;30115,436;    1,798;    1,864
767,322;29057,701;    1,162;    0,409
767,890;29137,965;    0,525;   -1,773
768,459;29504,865;    2,616;   -0,318
769,027;29676,675;    2,525;    3,409
769,595;28646,575;    2,616;    2,591
770,163;29040,658;    3,344;    2,955
770,730;28751,558;    2,525;   -0,136
771,298;28574,277;    1,162;   -1,409
771,866;28677,632;    0,253;    4,955
772,434;28967,805;    1,162;   -1,864
773,002;29177,251;    2,616;    0,682
773,569;28750,970;    1,071;    1,682
774,137;28586,507;    0,889;   -0,045
774,705;29404,316;   -0,747;   -0,136
775,272;28844,671;    0,253;    0,682
775,840;28643,026;   -0,111;    2,682
776,407;28112,836;   -0,293;    1,955
776,975;27626,282;    1,162;    0,318
777,542;28709,182;    2,162;   -0,045
778,110;28609,537;    0,707;   -0,045
778,677;28224,256;    1,071;   -0,864
779,244;27930,247;   -1,020;    1,045
779,812;28048,875;    0,980;    0,864
780,379;27890,139;    2,435;    1,136
780,946;28087,131;    2,617;   -0,773
781,513;28444,213;   -0,565;    0,318
782,080;27771,841;    1,253;    2,864
782,647;28584,378;    1,708;    3,045
783,214;28112,369;   -0,201;    3,864
783,781;27699,906;    1,708;   -0,682
784,348;27593,261;    0,253;    1,500
784,915;28059,616;   -1,474;    0,318
785,482;27798,880;    2,708;    2,591
786,049;28273,872;    1,071;   -0,591
786,615;28383,045;    1,708;   -0,955
787,182;28120,218;   -3,201;   -0,682
787,749;27798,846;   -2,201;    1,409
788,315;27071,656;    0,253;   -0,409
788,882;27365,829;    0,981;   -1,227
789,448;28046,184;    1,435;   -0,955
790,015;28150,266;    1,799;    3,227
790,581;27648,348;    0,708;    0,227
791,148;27541,249;    1,344;    1,045
791,714;27808,877;   -1,019;    3,136
792,280;27459,777;    3,708;    1,591
792,847;26992,314;   -0,928;    2,500
793,413;27569,215;   -0,110;   -0,318
793,979;27043,115;    1,526;   -1,318
794,545;27143,470;    2,981;    2,682
795,111;26477,371;    2,435;    1,318
795,678;26702,635;    3,526;   -1,682
796,244;26368,172;    2,799;    0,136
796,810;26891,436;    0,799;    0,773
797,375;26569,245;   -0,292;   -2,136
797,941;26623,419;   -1,110;    0,591
798,507;26744,319;    0,254;   -0,955
799,073;26277,674;    2,708;    0,591
799,639;26344,938;    1,435;    3,136
800,205;26329,384;   -1,565;    2,682
800,770;25841,376;    1,345;    1,773
801,336;25895,640;    2,981;   -0,955
801,901;25592,086;    6,072;    3,136
802,467;26174,441;    0,526;    2,045
803,033;25413,523;   -0,019;    0,864
803,598;25656,696;    1,072;   -1,045
804,163;25744,051;    0,708;   -0,318
804,729;25638,134;   -0,110;    1,136
805,294;26044,125;    1,072;    2,227
805,859;25880,662;    0,890;   -0,409
806,425;25284,381;    3,890;    2,682
806,990;24951,099;    1,890;    4,318
807,555;25483,273;   -0,110;    2,591
808,120;25325,991;   -1,292;   -0,409
808,685;25408,528;    1,072;   -2,500
809,250;24846,610;    2,072;   -0,500
809,815;25197,056;   -0,201;    0,682
810,380;25724,230;    0,981;    1,591
810,945;26296,130;    2,890;    2,045
811,510;25475,212;   -0,200;    1,591
812,075;25138,295;    2,800;   -1,409
812,640;25102,832;    3,709;    1,409
813,204;25171,368;    2,163;   -0,227
813,769;25698,905;    0,254;   -0,045
814,334;25065,169;    0,527;    0,864
814,898;25141,161;    1,981;    0,591
815,463;25004,152;    0,981;   -0,773
816,027;24977,144;    1,345;   -2,318
816,592;25052,953;    2,163;   -2,045
817,156;24519,126;   -2,200;    1,136
817,721;24315,482;    0,982;    2,318
818,285;24294,291;    0,618;    1,500
818,849;24978,373;   -0,018;    1,682
819,414;24846,728;    0,073;    2,955
819,978;24382,902;   -0,291;    1,773
820,542;25028,166;    2,891;    0,500
821,106;24721,885;    2,800;    0,682
821,670;24816,512;    2,709;    2,591
822,234;24492,595;    1,073;    1,409
822,798;23811,313;   -0,836;    0,500
823,362;23747,123;    1,527;    4,227
823,926;23038,569;   -0,018;    1,136
824,490;23283,197;    3,527;   -0,682
825,054;23751,279;    2,527;   -1,136
825,618;23347,089;   -1,200;   -1,500
826,181;23238,625;    0,982;   -1,318
826,745;23134,890;   -0,745;   -1,045
827,309;23484,790;    2,255;    1,318
827,872;22815,054;    0,527;    0,955
828,436;23901,773;    1,982;   -0,773
828,999;23978,946;    2,436;    1,227
829,563;22720,119;   -0,654;    1,136
830,126;22564,383;   -0,018;   -0,591
830,690;22555,284;    0,709;    2,864
831,253;22060,275;   -0,473;    2,227
831,816;22163,630;   -0,018;    0,500
832,380;22079,531;    1,164;    0,864
832,943;22302,886;    3,073;   -0,500
833,506;21777,968;    0,255;   -1,227
834,069;22620,778;    2,164;   -0,955
834,632;22642,042;   -2,200;    1,318
835,195;22556,033;    1,346;    0,955
835,758;21723,116;    0,709;    1,955
836,321;21528,107;    1,073;   -1,045
836,884;21626,280;   -1,291;   -0,955
837,447;21647,454;    0,528;    1,773
838,010;21858,172;    1,800;    3,227
838,573;22265,164;    0,528;    0,773
839,135;22178,246;   -0,109;   -0,955
839,698;21560,783;    2,528;    0,409
840,261;21068,320;    0,255;   -0,227
840,823;20961,493;   -0,927;    0,864
841,386;21199,030;   -0,018;   -2,409
841,948;21056,658;    0,255;    1,773
842,511;20807,558;    0,255;    1,682
843,073;20958,368;    2,982;    0,227
843,636;20730,177;    0,619;   -0,227
844,198;20618,169;    1,255;    0,591
844,760;20771,524;    0,619;    1,955
845,322;20399,061;    0,164;    1,136
845,885;20861,597;   -0,290;    0,591
846,447;21298,043;    0,710;    0,227
847,009;20776,671;    3,983;   -0,682
847,571;21196,935;    1,346;   -2,045
848,133;21259,109;   -0,199;   -1,864
848,695;21109,736;    2,346;    1,409
849,257;20606,637;    1,346;   -1,682
849,819;20738,719;    2,983;   -0,409
850,381;20854,529;    1,801;   -0,864
850,942;21239,338;    1,892;   -0,591
851,504;21123,602;    0,983;    0,227
852,066;21197,139;    1,619;   -1,591
852,628;20725,403;    0,165;    1,955
853,189;20264,486;    0,256;    2,682
853,751;20424,568;   -0,654;    1,409
854,312;20268,560;    1,256;   -1,682
854,874;20803,096;   -0,108;   -0,773
855,435;21300,088;    0,528;   -1,682
855,997;21406,170;    3,983;   -0,136
856,558;20644,162;    0,801;    1,773
857,119;20808,517;   -0,744;    2,864
857,681;20458,963;   -0,108;    0,318
858,242;20445,590;    1,347;   -2,136
858,803;20892,400;    1,074;   -0,773
859,364;21502,846;    0,892;   -4,773
859,925;20795,837;   -0,290;   -0,955
860,486;20670,738;    0,529;   -0,955
861,047;20387,638;    0,165;   -1,227
861,608;20151,448;    0,165;   -0,773
862,169;20358,894;   -0,562;   -0,045
862,730;20117,794;   -0,290;    1,409
863,291;20350,786;    0,438;   -0,500
863,852;20689,777;   -0,926;    1,955
864,412;20143,405;   -1,835;   -0,864
864,973;18614,124;    1,892;    0,500
865,534;18437,570;    2,074;    0,227
866,094;20085,834;    2,620;    0,227
866,655;19729,552;    4,711;    3,318
867,215;20018,271;    0,074;    0,136
867,776;19852,262;   -1,199;   -0,136
868,336;19956,163;    1,529;    0,136
868,897;19332,063;    3,438;    1,682
869,457;19079,964;    3,256;    0,318
870,017;19340,046;    2,438;   -1,227
870,578;19920,038;    1,893;    0,773
871,138;19524,393;    2,620;   -0,955
871,698;19041,657;   -0,562;   -1,318
872,258;18915,830;    0,711;   -2,864
872,818;19333,822;    2,347;    0,045
873,378;19269,267;   -2,198;    1,045
873,938;18859,259;    4,984;    0,500
874,498;19159,341;    1,256;   -1,955
875,058;19017,151;    4,347;    1,773
875,618;18862,051;    1,438;   -2,682
876,177;18813,952;   -0,471;    0,136
876,737;18382,398;   -0,289;    1,955
877,297;18370,389;    2,711;    1,955
877,856;18392,653;    2,529;    0,318
878,416;18347,008;    2,438;   -0,136
878,976;18559,545;    3,438;    0,409
879,535;18751,718;    4,529;    3,136
880,095;18429,710;    1,347;    0,045
880,654;18571,247;    0,347;    1,318
881,213;18685,511;    2,347;    1,500
881,773;18301,320;    1,984;    2,682
882,332;18648,039;    6,075;    5,136
882,891;18497,576;    0,711;    2,136
883,451;19008,295;   -2,016;    1,682
884,010;18458,013;   -1,107;   -0,409
884,569;18597,823;   -2,289;   -0,045
885,128;18647,451;   -0,743;   -1,864
885,687;18724,442;   -0,743;    0,682
886,246;18392,524;    2,620;    2,136
886,805;18083,607;    1,620;    2,045
887,364;18452,962;    1,166;   -0,500
887,922;18843,680;   -0,016;    0,045
888,481;18291,126;    1,530;    0,591
889,040;18632,572;    3,711;    2,136
889,599;19335,837;    2,166;    1,409
890,157;19461,282;    2,166;    2,409
890,716;19124,547;    2,166;    0,227
891,274;18879,993;    0,075;   -1,136
891,833;19302,711;    1,166;    0,864
892,391;19181,612;    1,802;    0,500
892,950;19313,421;    0,166;   -0,773
893,508;19696,685;    0,984;   -0,409
894,067;19031,586;   -0,379;    0,136
894,625;18927,123;   -1,016;   -1,500
895,183;19158,296;   -0,198;   -0,682
895,741;19080,833;    2,257;   -1,773
896,299;18881,552;    1,621;   -2,409
896,858;19095,998;    1,530;   -1,591
897,416;19147,262;    0,166;   -1,318
897,974;18841,526;   -2,197;    0,318
898,532;18973,790;    6,530;    2,682
899,089;18877,054;    0,621;   -0,682
899,647;18972,591;    0,530;    1,318
900,205;18657,764;    0,257;    1,045
900,763;18948,937;    2,166;    0,227
901,321;18890,202;    3,530;   -1,409
901,878;18265,466;    3,257;   -0,773
902,436;18108,184;    0,257;    1,318
902,994;18550,630;    6,712;    3,682
903,551;17895,622;    1,439;    0,409
904,109;18313,522;    1,530;   -1,409
904,666;17922,423;    1,439;    1,045
905,224;17717,505;    3,894;   -0,409
905,781;17397,587;   -0,470;   -0,318
906,338;17480,670;    0,167;    1,045
906,895;17424,116;    1,894;    2,045
907,453;17370,198;    2,348;    1,136
908,010;17366,008;    3,348;    0,409
908,567;17008,363;   -0,561;    0,591
909,124;16522,445;    2,439;   -1,500
909,681;16570,527;   -1,288;    0,682
910,238;16707,882;   -0,106;   -1,318
910,795;17011,419;   -1,561;   -1,136
911,352;16657,692;   -0,379;   -2,682
911,909;16001,146;    2,803;   -0,864
912,466;16516,692;    1,985;    1,500
913,022;16079,237;   -0,924;    0,500
913,579;16450,237;   -0,470;    2,045
914,136;16117,510;   -2,561;    0,955
914,692;16478,328;    1,530;   -1,227
915,249;16049,601;    0,530;    0,409
915,806;16287,601;    1,803;    1,955
916,362;15922,237;    0,894;    1,864
916,918;15446,601;    2,439;    1,045
917,475;15478,601;    1,621;    0,955
918,031;15575,419;    0,076;   -0,045
918,587;14987,783;    0,621;   -0,318
919,144;15143,965;   -0,379;    0,227
919,700;15548,146;    0,167;    0,773
920,256;15100,146;    0,439;    0,045
920,812;14641,056;    1,439;   -1,045
921,368;14600,328;    1,348;   -1,045
921,924;14283,056;    0,439;   -0,136
922,480;13846,783;    0,076;    1,227
923,036;14440,237;   -0,652;    1,955
923,592;14389,146;    0,621;    0,318
924,148;14272,328;    1,894;   -0,955
924,704;13574,328;    0,258;   -0,409
925,259;13793,419;   -0,561;    0,591
925,815;13550,783;    3,803;    0,500
926,371;13058,146;    3,530;    1,409
926,926;12937,056;    1,621;    0,591
927,482;12536,146;    1,621;    0,773
928,037;12407,419;   -0,833;    2,045
928,593;12706,419;    0,258;    1,045
929,148;12503,692;    1,167;   -1,500
929,704;12007,783;    2,439;   -0,500
930,259;12205,510;    0,894;   -0,136
930,814;11212,146;    1,803;    1,955
931,369;10913,692;    0,258;   -0,773
931,925;10791,237;   -1,924;    0,136
932,480;10671,056;    3,076;   -2,591
933,035;10514,328;    3,985;   -0,318
933,590;10220,874;   -1,742;   -1,773
934,145; 9855,692;   -1,288;   -0,318
934,700;10266,692;    0,348;   -0,591
935,255;10018,601;    4,803;    0,045
935,809; 9189,419;    6,258;    0,864
936,364; 8300,056;    2,167;   -0,136
936,919; 8267,874;    2,348;   -1,773
937,474; 8123,146;    1,348;    0,136
938,028; 7882,056;    3,076;    1,136
938,583; 7252,056;    6,348;    4,682
939,138; 7539,146;    0,167;    2,136
939,692; 6979,328;   -1,015;   -1,136
940,247; 6614,237;    1,167;   -1,045
940,801; 6131,874;    0,621;    0,227
941,355; 5998,419;    0,439;    2,591
941,910; 5640,328;    0,712;   -2,136
942,464; 5747,874;    2,712;   -0,318
943,018; 5489,692;    3,258;   -0,227
943,572; 5460,601;    2,803;   -0,682
944,126; 4782,692;   -0,924;   -0,409
944,681; 4668,601;    0,712;    0,227
945,235; 4680,056;    2,167;   -0,591
945,789; 4604,328;    1,258;   -1,864
946,342; 4669,146;   -0,561;   -0,591
946,896; 4496,056;    0,348;    0,955
947,450; 4259,056;   -0,561;   -0,227
948,004; 4427,419;    1,076;   -0,045
948,558; 4481,237;    1,258;   -0,864
949,111; 4376,692;   -1,197;   -0,318
949,665; 4383,783;   -0,106;   -0,682
950,219; 4232,692;    0,621;   -1,045
950,772; 4345,328;    0,258;    1,864
951,326; 4252,874;   -1,106;   -0,955
951,879; 4351,601;    1,076;   -2,318
952,433; 4370,419;    1,348;    2,227
952,986; 4213,965;    0,348;    0,682
953,539; 4140,146;    1,530;    0,591
954,093; 4083,965;    0,985;   -1,318
954,646; 4223,146;   -0,288;    1,318
955,199; 4023,783;    1,258;   -0,500
955,752; 3866,056;    1,985;    1,773
956,305; 3811,783;    0,894;    2,955
956,858; 4004,510;    0,621;   -0,318
957,411; 4197,965;    3,621;    2,136
957,964; 3999,146;    2,076;    2,136
958,517; 4005,965;    0,985;    3,136
959,070; 3820,601;   -1,197;    1,955
959,623; 3865,328;    1,076;    1,500
960,176; 3619,874;    0,712;    2,045
960,728; 3603,328;    1,712;    0,773
961,281; 3693,328;    2,258;    0,500
961,834; 3713,692;   -0,833;    0,864
962,386; 3638,056;    1,258;    1,045
962,939; 3537,692;    3,439;   -0,318
963,491; 3700,146;    2,621;    1,136
964,043; 3557,510;    0,076;    2,409
964,596; 3691,419;    1,712;    2,227
965,148; 3508,965;   -0,379;    1,773
965,700; 3444,419;   -0,015;   -0,227
966,253; 3588,692;   -0,833;    0,318
966,805; 3415,056;    1,894;    0,773
967,357; 3471,692;    0,439;   -1,500
967,909; 3421,056;    1,167;   -1,227
968,461; 3551,237;    0,894;    3,136
969,013; 3479,510;   -1,561;   -0,864
969,565; 3541,419;    1,803;   -1,136
970,117; 3563,783;    3,803;    1,045
970,669; 3444,601;    3,258;   -0,136
971,220; 3345,965;    2,167;   -1,500
971,772; 3240,419;    1,348;   -0,318
972,324; 3330,601;   -1,197;   -0,500
972,876; 3299,692;    0,167;   -0,045
973,427; 3417,146;   -1,197;   -1,045
973,979; 3394,419;    0,076;   -2,500
974,530; 3433,237;    0,803;    1,318
975,082; 3450,510;    2,167;    1,682
975,633; 3354,874;    2,894;    1,682
976,184; 3502,146;    2,076;    0,773
976,736; 3260,419;    0,348;    0,227
977,287; 3022,419;    0,258;   -0,500
977,838; 3232,056;   -0,924;   -0,318
978,389; 3281,874;    0,803;   -0,500
978,940; 3179,419;    1,258;   -0,409
979,491; 3204,965;    2,258;   -0,500
980,042; 3143,056;   -0,652;    3,045
980,593; 3203,783;    1,894;    0,227
981,144; 3256,328;    3,530;   -0,500
981,695; 3198,601;   -0,470;    1,500
982,246; 3168,601;   -1,833;    1,045
982,797; 3354,237;   -0,561;    0,682
983,347; 3475,237;    2,167;    0,591
983,898; 3631,874;    4,167;    0,409
984,449; 3428,874;    2,530;    0,773
984,999; 3362,601;    1,894;   -1,136
985,550; 3079,419;    3,167;   -0,318
986,100; 3157,601;    0,712;   -0,318
986,651; 3212,419;    0,258;    0,045
987,201; 3154,874;    0,894;   -0,591
987,751; 3251,419;   -0,288;    2,864
988,302; 3225,874;   -0,379;    1,500
988,852; 3261,783;    1,985;   -1,136
989,402; 3294,510;    0,985;    0,682
989,952; 3194,601;    1,621;    0,864
990,502; 3327,874;    1,076;    0,682
991,052; 3298,419;   -0,106;    0,045
991,602; 3124,965;    1,167;    1,318
992,152; 3122,965;    2,803;    0,682
992,702; 3121,328;    1,167;   -0,045
993,252; 3035,692;    0,076;   -0,500
993,802; 3114,056;    1,167;    1,318
994,352; 3392,601;   -0,742;    1,136
994,901; 3491,601;    1,076;    3,227
995,451; 3399,601;   -1,197;    0,318
996,000; 3495,510;    1,076;    0,318
996,550; 3168,510;    2,894;    0,227
997,100; 3180,601;   -0,561;   -0,045
997,649; 3466,328;   -0,197;    0,955
998,198; 3074,692;   -0,288;   -1,500
998,748; 3267,510;    0,348;   -2,318
999,297; 3174,510;    0,985;   -0,409
999,846; 3248,692;    1,894;   -0,773
1000,395; 3310,874;    1,530;    0,500
1000,945; 3237,328;    1,076;   -0,773
1001,494; 3324,328;    0,167;    0,682
1002,043; 3330,692;    0,712;    0,864
1002,592; 3173,874;    3,439;    1,955
1003,141; 3342,328;    2,439;   -0,682
1003,690; 3159,056;    1,258;    0,500
1004,238; 3250,601;   -0,106;   -0,045
1004,787; 2847,056;   -1,288;    1,227
1005,336; 3075,965;    1,621;    0,682
1005,885; 3250,056;   -0,197;   -2,773
1006,433; 3401,237;   -0,470;    0,955
1006,982; 3446,510;    2,167;    1,682
1007,531; 3393,965;    2,712;   -0,227
1008,079; 3351,237;    0,258;    0,500
1008,627; 3512,510;    1,621;    0,409
1009,176; 3202,328;    0,076;   -1,955
1009,724; 3264,056;   -2,742;    0,864
1010,273; 3290,419;    1,076;    0,500
1010,821; 3451,419;    1,076;    1,409
1011,369; 3167,601;    0,076;    1,318
1011,917; 3135,783;   -0,833;   -0,591
1012,465; 3426,692;    2,530;   -1,591
1013,013; 3567,328;    0,439;   -1,682
1013,561; 3386,601;   -1,288;   -0,773
1014,109; 3437,328;   -0,833;    1,682
1014,657; 3304,419;    1,348;    0,591
1015,205; 3457,146;    0,894;   -0,955
1015,753; 3501,692;    0,258;   -1,409
1016,301; 3548,419;    2,621;    3,045
1016,848; 3539,237;    2,167;    0,409
1017,396; 3572,692;    1,621;    0,045
1017,944; 3714,783;    2,621;    1,864
1018,491; 3474,056;   -0,197;    1,409
1019,039; 3601,874;   -0,652;    0,591
1019,586; 3533,237;    0,076;    1,682
1020,134; 3642,874;    0,712;    1,500
1020,681; 3650,965;    2,894;   -1,136
1021,228; 3680,601;   -0,561;   -2,227
1021,776; 3507,328;   -0,833;   -1,136
1022,323; 3710,328;    0,803;    0,773
1022,870; 3644,692;   -0,470;   -0,045
1023,417; 3528,601;    2,076;    1,864
1023,964; 3711,692;    0,621;    1,227
1024,511; 3522,692;   -0,652;    0,773
1025,058; 3292,783;    0,439;   -0,045
1025,605; 3351,056;   -1,742;    3,136
1026,152; 3544,965;   -0,106;   -0,591
1026,699; 3283,419;    0,167;    1,318
1027,245; 3476,783;    2,439;    0,318
1027,792; 3729,056;    0,712;    1,409
1028,339; 3565,783;    4,076;   -0,045
1028,885; 3421,692;    3,621;   -0,227
1029,432; 3352,783;   -0,106;    0,227
1029,978; 3400,510;    1,348;   -1,591
1030,525; 3299,510;    1,621;    0,409
1031,071; 3575,874;    0,348;    1,136
1031,618; 3661,328;    1,258;    1,682
1032,164; 3452,783;    2,076;    3,045
1032,710; 3503,601;    0,076;   -1,500
1033,256; 3435,874;    0,712;   -0,136
1033,803; 3432,874;   -0,288;    1,500
1034,349; 3147,874;    1,803;    0,136
1034,895; 3310,874;    2,621;   -0,318
1035,441; 3286,237;    0,439;    0,318
1035,987; 3265,328;   -2,288;   -0,682
1036,533; 3259,965;   -0,197;   -0,955
1037,078; 3437,601;    4,712;    1,682
1037,624; 3265,601;    2,439;   -0,955
1038,170; 3320,783;    1,712;   -0,318
1038,716; 3187,419;    2,167;   -0,409
1039,261; 3121,328;    2,167;   -0,773
1039,807; 3042,874;   -0,015;    3,409
1040,352; 3119,146;   -1,288;   -0,318
1040,898; 3166,692;    0,167;   -0,682
1041,443; 3072,783;    0,803;   -2,591
1041,989; 3062,146;    3,621;    1,591
1042,534; 2958,874;    0,985;    2,591
1043,079; 3107,237;    1,985;    0,955
1043,625; 2854,237;    0,258;    0,500
1044,170; 2893,419;    2,439;    1,045
1044,715; 3153,510;    0,167;    0,955
1045,260; 2974,328;   -0,833;   -0,955
1045,805; 3025,237;    0,258;   -0,591
1046,350; 2989,419;    0,530;   -0,409
1046,895; 2913,874;    0,803;    1,591
1047,440; 2842,056;    1,530;    0,409
1047,985; 2764,510;   -1,197;   -0,955
1048,530; 2668,056;    1,348;    1,227
1049,074; 2714,965;    2,803;    0,318
1049,619; 2714,237;   -0,924;    1,955
1050,164; 2497,783;    1,076;    0,227
1050,708; 2558,237;    2,621;    0,045
1051,253; 2904,601;    3,258;   -2,227
1051,797; 2632,237;   -0,197;   -1,318
1052,342; 2658,146;    1,348;    1,045
1052,886; 2631,601;    1,803;   -1,409
1053,430; 2529,965;    2,167;    0,136
1053,975; 2538,146;    0,894;   -0,318
1054,519; 2506,237;    1,803;    3,227
1055,063; 2485,601;    3,621;    1,318
1055,607; 2367,237;    1,348;    0,227
1056,151; 2405,783;    0,530;    1,682
1056,695; 2335,056;   -1,833;   -1,136
1057,239; 2388,510;   -1,197;   -0,682
1057,783; 2389,328;    2,258;   -1,500
1058,327; 2328,692;    3,076;    1,409
1058,871; 2551,510;    3,985;    1,318
1059,415; 2250,601;   -0,561;   -0,045
1059,958; 2491,419;    2,985;    2,591
1060,502; 2229,056;    1,348;   -0,773
1061,046; 2155,146;    1,712;   -0,955
1061,589; 2128,056;    2,803;   -1,136
1062,133; 2007,783;    0,985;    1,864
1062,676; 1936,601;    1,439;    0,864
1063,220; 1932,692;    0,985;    0,500
1063,763; 1949,601;    2,985;    1,136
1064,306; 2017,146;    0,985;    1,864
1064,849; 1901,328;    2,076;    0,591
1065,393; 1925,237;    2,894;   -1,500
1065,936; 2038,056;    2,530;   -0,409
1066,479; 1933,056;    2,621;    1,318
1067,022; 1948,237;    1,894;   -0,227
1067,565; 1830,965;   -1,197;   -1,318
1068,108; 1868,419;    1,258;   -0,591
1068,651; 1857,692;   -2,470;    1,409
1069,194; 1779,783;   -1,106;   -1,682
1069,736; 1774,056;    3,803;    0,955
1070,279; 1761,419;   -1,652;   -0,500
1070,822; 1794,874;    1,530;   -0,318
1071,364; 1838,419;    0,530;    1,318
1071,907; 1675,965;    0,348;    3,227
1072,450; 1619,874;    0,258;   -0,045
1072,992; 1598,510;   -0,561;    3,136
1073,535; 1727,510;    0,167;    2,136
1074,077; 1526,692;    2,985;    2,045
1074,619; 1474,510;    0,985;    0,591
1075,161; 1500,419;   -0,561;    1,500
1075,704; 1682,146;    0,258;    1,227
1076,246; 1504,146;    1,530;    0,682
1076,788; 1430,783;   -1,015;    1,773
1077,330; 1524,692;   -2,106;    2,136
1077,872; 1464,419;   -1,924;    0,955
1078,414; 1678,692;    3,712;    0,773
1078,956; 1399,783;    0,167;   -0,227
1079,498; 1652,783;    0,439;    0,318
1080,040; 1335,328;    0,985;   -1,318
1080,581; 1297,056;    0,621;   -0,318
1081,123; 1238,419;   -0,106;   -0,773
1081,665; 1293,419;    3,803;   -0,955
1082,206; 1569,419;    3,258;   -0,500
1082,748; 1437,783;    3,258;    2,045
1083,289; 1323,601;    0,167;    1,318
1083,831; 1217,510;    0,258;    0,227
1084,372; 1240,692;    0,894;    0,591
1084,913; 1234,146;    3,348;    0,864
1085,455; 1227,874;    1,530;   -2,045
1085,996; 1177,146;    0,530;    0,136
1086,537; 1203,237;    0,985;    0,864
1087,078; 1251,783;    0,439;   -2,136
1087,619; 1270,237;   -1,652;    0,227
1088,160; 1190,601;    1,439;    1,318
1088,701; 1176,328;   -0,742;    0,682
1089,242; 1118,874;   -0,561;   -2,227
1089,783; 1215,146;   -0,561;    1,409
1090,324; 1176,237;   -0,833;    0,682
1090,865; 1055,146;   -1,924;   -0,409
1091,405; 1034,965;   -0,561;    2,227
1091,946; 1067,874;   -0,197;   -0,955
1092,487;  996,237;   -1,288;   -1,409
1093,027; 1140,692;    1,803;   -1,500
1093,568; 1002,056;    2,258;    1,227
1094,108; 1075,056;    0,621;    1,773
1094,649; 1037,692;   -0,470;    0,136
1095,189;  970,510;    1,167;   -0,682
1095,729;  918,874;    0,712;    0,955
1096,269;  932,874;    1,258;   -0,955
1096,810; 1232,146;   -0,197;    0,500
1097,350; 1058,874;   -0,561;   -0,773
1097,890;  959,874;    2,985;    1,227
1098,430; 1192,419;    4,985;    2,864
1098,970; 1080,692;    1,894;    1,682
1099,510;  962,510;   -0,833;   -2,318
1100,050;  872,965;    0,258;   -1,591
1100,589;  844,237;    0,076;   -0,318
1101,129;  961,237;    0,894;   -0,955
1101,669; 1103,237;    2,803;    2,136
1102,209;  932,965;    1,530;    2,227
1102,748;  881,146;    3,439;    0,955
1103,288;  867,965;    0,712;   -1,227
1103,827;  886,237;    3,530;   -2,227
1104,367;  769,965;    1,712;   -2,409
1104,906;  738,692;   -1,015;   -1,136
1105,445;  815,419;    0,985;   -1,136
1105,985;  744,237;   -0,652;    1,500
1106,524;  787,419;    1,530;   -0,682
1107,063;  764,237;    1,167;    1,409
1107,602;  755,692;    1,894;   -1,500
1108,141;  673,419;    1,621;    1,500
1108,680;  760,056;    3,985;   -0,591
1109,219;  707,237;    0,167;   -0,500
1109,758;  715,601;    4,167;    0,682
1110,297;  685,237;   -1,106;   -0,682
1110,836;  624,874;    1,439;    0,955
1111,375;  779,783;    0,348;    0,409
1111,913;  787,874;    0,985;    0,773
1112,452;  725,146;    0,894;    0,136
1112,991;  623,056;    1,076;    1,955
1113,529;  570,874;    0,167;   -0,045
1114,068;  642,965;    0,439;    2,955
1114,606;  537,237;   -0,561;   -0,955
1115,144;  693,510;    1,530;    1,045
1115,683;  643,692;    1,985;    0,318
1116,221;  692,874;    2,076;   -0,864
1116,759;  600,328;    1,621;   -0,864
1117,297;  780,510;    1,621;    1,864
1117,836;  605,237;    1,985;   -1,227
1118,374;  599,874;    0,258;   -0,682
1118,912;  552,965;    0,439;    2,682
1119,450;  532,601;    0,985;    0,864
1119,988;  574,783;    3,348;    2,136
1120,525; 1030,601;    7,258;    3,318
1121,063;  732,965;    0,530;    1,864
1121,601;  538,601;    1,076;   -1,227
1122,139;  502,510;    1,076;   -2,045
1122,676;  691,874;   -1,652;    2,773
1123,214;  630,510;    0,712;    4,409
1123,751;  447,419;    0,621;    2,227
1124,289;  572,510;    0,894;   -0,409
1124,826;  456,328;   -0,379;    0,227
1125,364;  374,237;    0,712;   -0,955
1125,901;  552,965;    6,258;    1,227
1126,438;  644,510;    3,530;    0,955
1126,975;  388,874;    2,985;   -0,773
1127,513;  448,510;    2,621;    2,136
1128,050;  367,419;   -0,561;   -0,682
1128,587;  454,510;    1,348;   -0,227
1129,124;  499,237;   -0,015;    1,318
1129,661;  373,237;   -1,924;    0,227
1130,198;  542,510;    2,439;    0,773
1130,734;  482,601;   -0,379;    1,409
1131,271;  343,692;   -1,197;    0,864
1131,808;  504,692;    1,621;    3,045
1132,345;  375,874;    4,530;    0,318
1132,881;  275,965;   -0,561;   -1,864
1133,418;  401,237;    0,348;   -1,136
1133,954;  334,783;    0,712;   -2,682
1134,491;  396,328;    1,712;   -0,773
1135,027;  301,328;    2,167;    0,864
1135,564;  383,237;    1,439;    2,955
1136,100;  369,965;   -0,742;    2,136
1136,636;  278,056;   -1,015;   -1,045
1137,172;  351,601;    0,894;   -1,045
1137,708;  284,783;   -1,561;   -1,045
1138,245;  287,056;    0,803;   -1,227
1138,781;  244,601;    1,803;   -3,318
1139,317;  306,874;    1,894;   -1,409
1139,852;  296,419;    3,076;    0,136
1140,388;  405,965;    2,076;   -0,409
1140,924;  293,056;    1,076;   -2,227
1141,460;  227,783;   -0,288;    0,136
1141,996;  174,237;   -0,652;    2,682
1142,531;  214,874;    1,076;    3,318
1143,067;  420,874;    1,167;    1,045
1143,602;  477,510;    3,439;   -0,318
1144,138;  313,328;    0,803;    1,045
1144,673;  196,237;    1,621;    1,409
1145,209;  263,328;    2,894;   -0,318
1145,744;  186,874;    0,803;    0,864
1146,279;  303,601;    1,530;   -0,136
1146,815;  234,146;    1,530;   -2,682
1147,350;  273,783;   -0,924;    0,045
1147,885;  189,783;   -1,924;   -1,318
1148,420;  191,056;    2,439;    0,773
1148,955;  175,874;   -1,470;    1,864
1149,490;  196,874;   -1,106;   -1,591
1150,025;  181,328;   -1,106;   -1,773
1150,560;  287,237;   -0,288;   -0,955
1151,094;  252,965;    0,258;   -0,591
1151,629;  254,056;   -3,742;    0,864
1152,164;  183,783;   -1,288;    1,318
1152,698;  156,146;    1,258;   -0,136
1153,233;  111,692;   -1,379;   -0,682
1153,767;  149,783;   -0,288;   -2,318
1154,302;  198,237;   -0,379;    1,773
1154,836;  194,510;    0,803;   -2,136
1155,371;  238,510;    2,258;    3,682
1155,905;  201,510;    1,985;    1,682
1156,439;  167,601;    0,530;   -0,500
1156,973;  203,056;    0,439;    0,318
1157,507;  143,692;   -1,742;    0,682
1158,042;  165,146;   -0,652;    1,045
1158,576;  211,328;   -0,561;    1,773
1159,110;  202,510;    0,076;    2,409
1159,643;  176,237;   -2,470;   -0,045
1160,177;  120,056;   -2,015;    1,500

