
Integration time [ms]:   0,050
Averaging Nr. [scans]: 11
Smoothing Nr. [pixels]: 0
Data measured with spectrometer [name]: 7318044SP
Wave   ;Sample   ;Dark     ;Reference
[nm]   ;[counts] ;[counts] ;[counts] 

186,757;   -2,430;   38,161;    1,318
187,357;   31,546;   26,706;    0,955
187,958;   13,354;   17,252;   -1,591
188,558;   52,832;   12,979;   -1,227
189,159;   26,199;   10,070;   -4,500
189,759;   -1,203;    5,797;   -3,591
190,360;   -5,379;    6,797;   -2,136
190,960;   29,011;    5,706;   -4,136
191,560;   49,144;    2,614;   -6,591
192,161;  270,788;    5,885;   -3,500
192,761;  123,556;    5,520;   -3,227
193,361;   72,939;    3,065;   -3,773
193,962;  128,936;    1,612;   -2,682
194,562;   54,005;   -0,114;   -3,955
195,162;   88,699;   -0,567;   -2,227
195,762;  240,599;    2,433;   -0,045
196,362;  189,119;    1,706;   -2,500
196,963;   74,699;    1,706;   -0,864
197,563;  138,019;    1,252;   -0,955
198,163;   82,698;   -0,111;   -0,682
198,763;  106,909;   -0,020;   -0,500
199,363;  208,985;    3,616;   -0,500
199,963;  168,432;    2,162;    0,409
200,563;  144,626;    6,344;   -1,409
201,163;  120,201;    5,435;   -0,227
201,763;  215,900;    1,435;    0,318
202,363;  156,645;    0,980;    1,500
202,963;  256,160;    1,526;    1,045
203,563;  362,223;    0,344;    0,500
204,162;  214,609;    1,889;   -1,864
204,762;  218,480;    2,071;    0,591
205,362;  189,991;    0,708;    1,955
205,962;  277,741;    3,435;    1,955
206,562;  282,520;    1,889;    2,318
207,161;  252,054;    1,708;    0,318
207,761;  395,461;    4,435;    2,409
208,361;  274,620;    1,889;    1,409
208,960;  371,193;    2,889;    1,500
209,560;  442,678;    0,435;    1,591
210,160;  423,784;    5,071;    1,864
210,759;  396,306;    0,708;    1,227
211,359;  398,488;   -0,474;    1,045
211,958;  659,436;    3,526;    2,045
212,558;  747,131;    0,799;    1,864
213,157;  585,475;   -0,929;    1,500
213,757; 1016,975;    5,617;   -0,227
214,356;  726,192;    1,708;   -0,409
214,956; 1068,729;    3,526;    0,409
215,555;  704,002;    0,617;    2,136
216,154;  632,307;   -0,292;   -0,591
216,754;  657,933;    1,253;    0,773
217,353;  786,331;   -0,383;   -1,045
217,952;  646,358;    2,072;    0,318
218,552;  875,363;    0,254;   -0,773
219,151;  775,915;   -1,110;    0,955
219,750;  787,538;    0,890;   -0,227
220,349;  915,177;   -2,292;    1,045
220,948;  976,344;    1,163;    1,136
221,548; 1014,421;    0,617;    1,227
222,147; 1122,335;   -1,292;   -0,409
222,746; 1411,419;    1,254;   -0,955
223,345; 1263,446;   -1,019;    0,500
223,944; 1291,037;    1,163;    0,773
224,543; 1465,693;    4,072;   -1,409
225,142; 1585,887;    1,345;    0,136
225,741; 1504,861;    1,163;    1,045
226,340; 1509,830;    1,254;   -0,955
226,939; 1958,506;    2,708;   -0,136
227,538; 1930,150;    1,163;   -0,773
228,137; 2105,612;    0,435;    0,864
228,735; 2228,516;    0,435;    1,227
229,334; 1960,323;   -0,474;   -0,227
229,933; 2327,853;    0,799;    0,591
230,532; 2466,242;   -1,201;   -0,409
231,131; 2526,048;    1,253;    0,318
231,729; 2638,189;    1,163;   -2,318
232,328; 2746,777;    0,435;   -1,500
232,927; 2832,892;    4,526;   -0,500
233,525; 2958,609;    0,981;    0,045
234,124; 3176,028;    1,890;   -1,591
234,723; 3204,344;    1,617;   -1,045
235,321; 3360,490;    1,163;    0,136
235,920; 3582,285;    2,526;   -1,227
236,518; 3856,432;    1,072;    0,318
237,117; 4067,395;    2,890;   -0,227
237,715; 4231,205;    1,163;   -0,500
238,314; 4273,622;    1,708;   -2,318
238,912; 4382,472;    0,526;   -1,409
239,510; 4478,450;    1,162;   -1,227
240,109; 4661,790;   -0,474;    3,773
240,707; 4716,421;   -0,474;    1,227
241,305; 5147,764;   -0,383;    0,136
241,904; 5374,128;   -0,292;   -2,045
242,502; 5354,781;    3,253;   -0,227
243,100; 5351,649;    3,344;   -0,955
243,698; 5635,187;    2,799;    1,682
244,297; 5825,237;   -0,656;    0,682
244,895; 5665,207;   -0,474;   -2,318
245,493; 6040,593;    2,981;   -0,591
246,091; 6135,721;    5,163;   -1,318
246,689; 6117,352;    2,163;    0,591
247,287; 6334,678;   -0,019;   -1,136
247,885; 6691,787;   -1,019;    1,227
248,483; 6819,458;   -0,201;   -0,500
249,081; 6956,586;    0,981;    1,591
249,679; 7153,233;   -1,019;    1,682
250,277; 7455,476;   -2,292;    0,864
250,875; 7429,836;    0,617;   -1,045
251,473; 7513,432;   -0,019;    0,500
252,071; 7708,731;   -0,383;    1,045
252,669; 7864,764;   -1,565;    0,318
253,267; 8162,223;    1,618;    0,773
253,864; 8146,950;    0,617;    0,682
254,462; 7971,589;    1,526;    1,591
255,060; 8001,289;    0,072;    1,318
255,658; 8398,219;   -3,292;   -0,136
256,255; 8840,308;   -0,201;   -2,045
256,853; 8697,514;    2,345;    1,409
257,451; 8718,218;    1,981;    1,864
258,048; 8995,918;    2,072;    1,864
258,646; 8738,220;    0,436;   -1,045
259,243; 8934,787;    2,981;    2,227
259,841; 9033,465;    1,799;    0,318
260,438; 8898,124;    0,254;    0,864
261,036; 9701,730;    0,617;    1,409
261,633; 9643,684;    1,526;    2,227
262,231; 9389,962;   -0,110;   -0,045
262,828; 9486,419;   -0,383;    1,136
263,425; 9528,453;   -1,928;   -0,591
264,023; 9818,198;    1,436;    0,045
264,620; 9323,572;    1,526;   -0,318
265,217; 9717,679;    2,890;    3,136
265,815; 9845,848;    2,527;    2,136
266,412; 9598,417;    0,072;    0,136
267,009; 9627,213;    0,526;    0,773
267,606; 9540,492;    0,345;   -0,955
268,203; 9548,511;   -0,383;   -0,591
268,801; 9857,337;   -0,474;    0,591
269,398;10164,926;   -0,564;    2,500
269,995;10195,600;    0,890;    1,591
270,592; 9931,537;    0,799;   -0,500
271,189;10160,868;    1,981;    0,409
271,786;10345,399;    2,072;    1,227
272,383;10153,740;   -0,383;    0,227
272,980;10333,919;    1,617;    0,318
273,577;10855,380;    2,162;    1,227
274,174;10366,798;    1,435;    2,591
274,771;10336,855;    1,890;   -0,773
275,367;10516,284;    3,253;    1,409
275,964;10485,323;   -0,565;   -0,500
276,561;10615,235;   -2,474;   -1,045
277,158;10900,778;    1,799;   -1,773
277,755;10978,768;   -0,110;    0,409
278,351;10375,851;    0,436;   -1,500
278,948;10740,639;   -0,201;    0,045
279,545;10778,697;    0,527;    2,318
280,141;11432,833;    1,254;   -2,045
280,738;11306,299;    2,435;   -0,136
281,334;11560,290;   -0,383;    0,591
281,931;10945,711;    2,890;   -1,318
282,528;11079,807;    4,072;   -0,500
283,124;11908,043;    3,345;   -0,500
283,721;11795,144;    0,709;    1,409
284,317;11609,690;    0,163;    2,500
284,913;12213,668;   -0,110;    0,591
285,510;12451,032;    2,890;   -0,318
286,106;12487,838;    2,345;   -0,955
286,703;12068,136;    0,072;    1,955
287,299;12354,647;    1,254;   -0,591
287,895;12626,604;    0,890;   -1,045
288,491;13231,381;    0,163;    2,136
289,088;12943,762;    0,163;    2,409
289,684;13044,310;    2,890;    1,500
290,280;13047,089;    1,890;    0,682
290,876;13126,262;    0,163;    5,500
291,472;13018,174;    2,163;    2,227
292,068;13174,667;    1,254;    0,227
292,665;12898,738;   -0,564;    0,773
293,261;12427,424;   -1,292;    2,136
293,857;12875,078;    4,072;    2,136
294,453;12837,120;   -0,928;    0,955
295,049;12751,065;    0,253;    1,955
295,644;12759,368;   -1,292;    0,136
296,240;12697,879;    0,162;   -0,136
296,836;12807,668;   -0,747;    0,318
297,432;13099,602;    2,980;   -0,500
298,028;13114,121;    0,435;    0,773
298,624;13535,957;    0,889;    1,864
299,220;13883,785;    0,435;    0,591
299,815;13488,188;    0,526;   -0,409
300,411;13238,429;    0,435;    1,773
301,007;13271,286;    1,889;    0,227
301,602;13361,738;    2,071;   -2,318
302,198;13522,686;    1,435;   -0,773
302,794;13871,827;    1,526;   -0,500
303,389;14036,571;    1,071;    1,045
303,985;14099,919;    1,253;    1,409
304,580;14024,367;    0,889;    1,591
305,176;14025,760;    0,344;    0,136
305,771;13970,751;   -0,929;   -1,227
306,367;13766,848;    3,071;    0,136
306,962;14184,647;    2,889;    1,500
307,558;13913,674;    2,435;    0,136
308,153;13818,493;   -0,383;   -1,136
308,748;14075,792;    0,162;    1,682
309,344;14092,516;    0,253;   -1,318
309,939;14164,317;    2,071;   -1,318
310,534;14445,371;   -2,020;   -1,682
311,130;14420,771;   -0,656;   -2,500
311,725;14109,814;    0,526;   -0,500
312,320;14429,717;    1,253;    0,045
312,915;14224,559;    2,890;   -1,045
313,510;14292,670;    0,526;   -0,500
314,105;14901,126;   -3,565;    1,409
314,700;14207,170;   -1,656;   -1,045
315,295;13805,004;   -0,020;    0,045
315,890;13398,909;   -0,292;    0,864
316,485;13772,098;    0,253;   -0,318
317,080;13855,749;   -0,929;    1,591
317,675;14414,904;    3,071;   -0,682
318,270;13742,531;    6,889;    3,318
318,865;13747,890;    2,435;    3,045
319,460;13582,887;   -1,565;    0,591
320,055;13886,172;   -2,565;   -1,227
320,650;13537,385;   -1,838;   -0,591
321,244;13585,017;    0,889;   -1,409
321,839;14558,004;    0,980;   -0,227
322,434;14455,171;   -0,111;   -1,591
323,029;14042,864;   -0,474;    1,591
323,623;13881,428;    0,798;    0,773
324,218;13639,916;    2,707;    1,409
324,812;13581,651;    0,889;    1,591
325,407;13349,978;   -0,929;    2,045
326,002;13250,139;    0,526;   -0,409
326,596;13572,335;   -0,656;    1,318
327,191;13847,657;   -0,383;   -1,045
327,785;13386,517;   -0,747;   -0,227
328,379;13655,235;   -0,383;    0,136
328,974;13430,903;    1,798;   -3,955
329,568;13677,052;    2,889;   -2,409
330,163;13505,179;    2,435;    1,045
330,757;13908,991;    0,253;    1,591
331,351;13179,054;   -0,292;    0,682
331,945;13487,731;   -0,383;    1,409
332,540;13047,878;    1,617;   -0,591
333,134;13184,788;    3,344;    0,773
333,728;13447,119;    2,799;    0,318
334,322;13828,529;    0,889;   -0,864
334,916;13089,816;    0,344;    0,955
335,510;13430,348;   -0,111;   -0,136
336,105;13669,839;   -0,929;    1,591
336,699;13350,440;   -1,292;    0,591
337,293;13324,773;    1,071;    0,318
337,887;13473,294;    0,071;    1,955
338,481;13563,632;    2,980;    0,591
339,074;13705,902;    2,071;    2,682
339,668;13512,570;   -0,110;    1,227
340,262;13784,099;    7,708;    3,227
340,856;13298,203;    1,708;   -0,682
341,450;12582,492;    0,708;    1,864
342,044;13509,319;    1,799;    0,136
342,637;13298,972;    1,162;   -2,136
343,231;13116,646;   -1,474;    0,682
343,825;13061,889;   -0,747;   -0,591
344,419;13007,946;   -0,474;    0,500
345,012;12719,201;    2,889;    4,045
345,606;12734,591;   -0,656;    1,591
346,199;12599,188;   -0,111;   -0,227
346,793;12070,765;    2,525;    2,045
347,386;12276,704;    0,889;   -1,136
347,980;12228,186;   -0,838;   -0,045
348,573;12008,430;   -1,748;    0,409
349,167;11617,754;    6,161;    4,773
349,760;12021,797;    2,252;    2,682
350,354;12023,027;    1,616;    1,136
350,947;11695,719;    2,798;    1,682
351,540;11371,559;    0,616;   -1,409
352,134;11301,739;   -1,111;    1,136
352,727;11359,704;   -0,657;    1,136
353,320;11159,616;    2,343;    0,591
353,913;10987,227;   -1,929;    1,864
354,507;11144,436;    0,434;   -1,227
355,100;11187,494;    0,071;    0,864
355,693;10284,292;    4,798;    2,409
356,286;10383,642;    0,980;    2,773
356,879;10743,263;   -0,475;    1,227
357,472;10295,675;    0,980;    1,500
358,065;10505,464;    3,161;    2,500
358,658;10438,894;    0,798;    2,318
359,251;10040,723;    0,252;   -0,591
359,844; 9441,448;    0,343;   -1,136
360,437; 9625,109;    0,252;    0,045
361,030; 9911,054;    0,525;   -0,682
361,623; 9445,302;    0,434;    0,318
362,215; 9468,662;    0,979;    2,045
362,808; 9340,240;   -2,293;   -1,682
363,401; 9507,954;    0,798;    0,136
363,994; 9244,782;    3,252;   -1,500
364,586; 9178,110;    0,888;   -1,500
365,179; 9373,498;   -0,203;   -1,136
365,772; 8798,383;   -0,930;    2,045
366,364; 9130,858;    1,524;   -3,227
366,957; 9321,424;    1,342;   -0,045
367,549; 9333,027;   -0,203;   -0,864
368,142; 8937,618;    0,978;   -1,500
368,734; 9164,376;    2,523;   -2,136
369,327; 9121,454;    2,341;   -0,500
369,919; 9028,333;   -1,659;    0,409
370,512; 8764,375;   -1,023;   -0,500
371,104; 8478,964;    2,704;    1,591
371,696; 8633,893;    1,703;   -0,955
372,289; 8762,698;    0,157;    1,136
372,881; 8911,230;    1,156;    1,318
373,473; 8839,721;    4,064;    1,136
374,066; 8624,679;    1,336;    0,500
374,658; 8442,069;    0,879;    1,136
375,250; 8843,791;   -1,668;   -1,409
375,842; 8665,537;   -0,124;   -0,045
376,434; 8517,354;   -2,762;   -0,409
377,026; 9167,990;   -1,855;   -2,500
377,618; 9033,901;    0,779;   -0,682
378,210; 8882,334;    3,141;   -1,955
378,802; 8718,341;    3,412;   -0,591
379,394; 8657,293;    3,411;    0,682
379,986; 9307,544;    1,138;   -0,955
380,578; 9422,722;    1,410;    0,773
381,170; 8662,557;    0,320;    0,045
381,762; 8631,354;   -0,224;    1,409
382,354; 8868,349;   -0,223;   -1,318
382,945; 8989,665;    0,870;    0,318
383,537; 9140,513;    1,144;   -1,955
384,129; 9160,762;    0,963;   -1,136
384,721; 9362,224;    0,418;    0,955
385,312; 9278,833;   -1,399;   -0,955
385,904; 9349,182;   -0,945;    1,591
386,496; 8686,269;    0,691;    1,045
387,087; 8821,754;    0,418;    2,500
387,679; 8858,777;   -0,401;    0,045
388,270; 9000,106;   -2,401;    2,045
388,862; 9144,316;   -0,401;   -0,318
389,453; 9018,443;    1,054;    1,045
390,045; 9296,411;    3,236;   -2,682
390,636; 9240,959;    0,144;   -0,591
391,227; 9103,235;    2,054;   -0,045
391,819; 9184,328;    0,781;    0,773
392,410; 9257,064;    0,600;    0,045
393,001; 9170,848;    1,600;   -1,591
393,593; 9484,417;    0,600;   -0,045
394,184; 9307,404;    0,873;   -0,409
394,775; 9252,533;    1,146;    2,136
395,366; 9465,395;    1,782;    0,773
395,957; 9462,743;   -2,400;    0,136
396,548; 9819,704;    1,054;    2,682
397,139;10140,576;    2,236;    0,591
397,730; 9864,988;    0,873;    0,955
398,321; 9880,210;    0,509;    0,955
398,912; 9919,922;   -0,764;    0,136
399,503;10015,762;   -1,945;   -1,409
400,094; 9390,518;   -1,582;    1,682
400,685; 9250,857;    3,600;    0,045
401,276; 9332,358;   -0,400;   -0,955
401,867; 9678,644;   -1,127;    0,773
402,458; 9762,588;    1,509;   -2,318
403,048; 9752,682;    0,146;    0,591
403,639; 9325,967;    1,509;    0,864
404,230; 9570,362;    0,691;    0,318
404,821; 9487,671;   -0,127;    0,045
405,411; 9627,074;   -0,763;   -2,591
406,002; 9176,816;    3,237;   -1,136
406,592; 8986,317;    2,691;    0,045
407,183; 9318,620;    0,328;   -1,500
407,774; 9189,062;    1,419;   -0,136
408,364; 9602,617;    2,600;    0,409
408,954; 9152,100;   -0,036;    1,227
409,545; 9199,175;    1,873;    1,045
410,135; 8658,419;   -1,581;    0,500
410,726; 8835,815;    0,783;    0,318
411,316; 9260,404;    2,237;    0,773
411,906; 8884,284;    0,146;   -0,409
412,497; 8315,477;   -0,490;   -0,045
413,087; 9002,916;    0,783;   -0,227
413,677; 9389,665;   -2,490;    3,864
414,267; 9185,248;   -1,035;    1,409
414,857; 9165,553;    0,419;    4,227
415,448; 9456,248;   -0,763;    0,500
416,038; 9112,399;   -2,945;   -0,591
416,628; 9079,831;    0,965;    0,409
417,218; 8515,784;   -1,762;    3,318
417,808; 8788,272;    0,965;   -0,409
418,398; 9288,127;   -1,035;    2,682
418,988; 9271,850;   -2,217;    0,591
419,578; 9530,120;    3,601;    1,409
420,168; 9879,113;    0,692;   -0,955
420,757; 9432,826;    0,964;   -1,500
421,347; 9077,516;    1,601;   -0,227
421,937; 9238,077;    3,329;    1,409
422,527; 9139,511;    2,602;   -0,773
423,116; 8907,881;    2,692;   -0,045
423,706; 9331,557;    2,965;    0,318
424,296; 9260,546;    1,601;    0,682
424,885; 9702,182;    1,510;   -3,045
425,475;10003,537;    1,147;   -2,864
426,065; 9945,740;   -1,489;   -0,318
426,654; 9513,665;    0,329;   -0,318
427,244; 9583,136;    1,147;    1,409
427,833; 9001,916;    1,056;   -0,500
428,423; 9469,754;    0,147;    1,136
429,012;10299,084;    2,420;   -1,136
429,601; 9725,556;    2,057;    0,136
430,191; 9965,446;    2,511;    4,318
430,780; 9524,551;   -1,671;   -0,409
431,369; 9426,561;    1,329;   -0,045
431,959;10133,621;    1,693;    0,500
432,548; 9888,942;   -1,398;   -0,045
433,137;10031,189;    0,329;   -1,318
433,726;10536,868;    0,148;    0,500
434,315; 9876,248;    0,148;    2,409
434,905; 9947,226;    0,693;    1,409
435,494; 9829,604;    3,148;    0,955
436,083;10282,681;    1,420;   -0,955
436,672;10101,201;    1,148;    0,500
437,261; 9655,289;    0,512;   -1,955
437,850; 9736,384;   -1,125;    0,682
438,439; 9680,645;    2,239;    1,955
439,027; 9482,325;    3,421;    1,773
439,616; 9843,285;    2,239;    1,227
440,205; 9700,058;    0,057;   -2,136
440,794; 9753,131;   -0,306;   -0,045
441,383; 9998,144;    1,603;   -0,591
441,971; 9798,577;   -0,306;    0,591
442,560; 9659,104;    0,603;   -1,773
443,149; 9403,314;    3,060;   -1,318
443,737; 9510,733;    0,968;   -2,318
444,326; 9715,211;    0,331;    0,318
444,915; 9704,761;   -1,851;    0,864
445,503;10105,429;    0,058;   -0,318
446,092; 9363,472;    7,876;    2,136
446,680; 9889,100;    1,876;    0,318
447,269;10047,208;   -1,487;   -0,318
447,857; 9775,954;    2,240;   -1,773
448,445; 9880,206;    2,149;    1,318
449,034;10069,387;    0,876;   -1,136
449,622;10204,483;    1,240;    3,500
450,210; 9403,446;    3,149;    2,227
450,799; 9931,211;    2,604;   -0,591
451,387; 9824,923;    1,786;   -0,591
451,975; 9442,772;   -1,305;    0,864
452,563; 9546,642;    0,422;    2,318
453,151; 9567,528;   -1,032;   -1,227
453,739; 9478,992;   -1,577;    0,136
454,328; 9286,253;    0,604;   -2,136
454,916; 8976,554;    1,150;   -0,136
455,504; 9135,686;    3,513;    1,227
456,092; 9336,011;    2,150;   -1,591
456,679; 9299,450;    0,604;    0,682
457,267; 9181,832;    3,604;    1,045
457,855; 9359,138;    3,241;    1,409
458,443; 9091,360;   -0,304;    1,682
459,031; 9183,005;    1,332;    2,409
459,619; 9628,629;   -3,577;    2,864
460,206; 9772,074;   -0,759;    2,045
460,794; 9850,456;   -0,668;   -0,227
461,382;10065,652;    0,878;   -0,864
461,970; 9617,588;    0,605;    1,864
462,557; 9681,518;    0,878;   -0,682
463,145; 9861,426;   -0,304;   -1,682
463,732; 9971,692;    2,514;   -1,045
464,320; 9888,219;    1,514;   -3,045
464,907; 9546,774;    0,423;   -0,773
465,495; 9385,549;    2,696;   -1,227
466,082; 9506,234;    2,060;   -0,045
466,670; 9401,893;    2,605;    1,227
467,257; 9846,129;    0,060;    2,045
467,844;10005,574;    1,514;    0,045
468,432; 9999,537;   -0,031;    3,500
469,019; 9502,931;    1,606;   -1,773
469,606; 9935,720;    0,969;    3,682
470,193; 9726,521;    2,151;    0,227
470,780; 9293,785;    0,333;    0,864
471,368; 9623,370;   -1,212;   -0,773
471,955; 9370,867;    1,060;   -0,682
472,542; 8987,768;   -0,303;   -1,136
473,129; 9204,140;   -0,485;    0,136
473,716; 8975,070;    0,060;    0,591
474,303; 9096,262;    1,333;   -0,864
474,890; 9373,006;    2,333;   -0,500
475,477; 9366,318;   -0,576;    0,409
476,064; 9254,294;    0,697;   -1,591
476,650; 9123,152;    2,152;    0,318
477,237; 8973,243;    1,879;    0,955
477,824; 9092,854;    3,879;    0,864
478,411; 9091,286;    0,606;   -0,318
478,997; 9244,957;    0,606;   -0,773
479,584; 9259,180;   -0,666;   -0,409
480,171; 9913,842;    1,243;   -0,773
480,757; 9570,385;   -0,848;    0,773
481,344; 9823,002;    0,334;    0,409
481,931; 9298,595;   -0,393;    1,045
482,517;10190,046;    0,425;    0,318
483,104;10691,694;    1,334;    2,864
483,690;10902,619;    0,243;    0,045
484,276;11234,044;    0,698;    0,227
484,863;10953,519;    2,152;    1,136
485,449;11477,688;    0,152;    0,318
486,035;11446,197;   -0,666;   -0,136
486,622;11883,354;   -2,393;    0,045
487,208;11742,035;    1,334;    1,500
487,794;11660,535;    0,971;    0,318
488,380;11768,033;    0,698;   -1,409
488,967;11824,519;   -1,120;   -0,409
489,553;11867,009;   -1,029;   -1,409
490,139;12053,079;    0,971;    0,773
490,725;11609,470;    0,789;   -0,227
491,311;11210,501;    1,516;    3,045
491,897;10556,881;   -0,665;    1,500
492,483;10512,503;    0,426;    1,227
493,069;10401,871;    5,426;    0,864
493,655;10398,644;    1,789;    0,682
494,241;10377,766;    1,517;   -0,955
494,826;10792,367;    0,335;   -1,045
495,412;10299,490;    0,335;   -0,682
495,998;10548,951;    0,971;   -0,318
496,584;10725,367;    2,244;    1,045
497,169;10765,304;    2,335;   -0,682
497,755;10783,287;    1,244;    1,227
498,341;11427,571;    2,153;    0,318
498,926;11045,899;    2,881;    1,955
499,512;11325,272;   -0,028;    2,955
500,097;11513,086;   -0,574;   -0,318
500,683;11524,657;   -0,028;    2,136
501,268;12021,428;    1,881;   -0,955
501,854;11839,279;   -0,119;    1,227
502,439;11855,069;   -0,573;   -1,773
503,024;12088,473;    1,608;    0,500
503,610;12234,943;    1,335;   -0,682
504,195;12367,035;    1,245;    1,955
504,780;12549,813;    2,335;    1,227
505,366;12434,598;    4,063;    2,864
505,951;12268,082;   -1,119;    1,045
506,536;12379,354;    1,427;   -3,682
507,121;12426,775;    1,699;   -0,318
507,706;13024,701;   -0,392;    1,045
508,291;13462,088;   -2,937;    1,136
508,876;13018,330;   -0,482;    2,591
509,461;12530,942;    1,427;   -0,773
510,046;13017,952;   -0,391;    0,318
510,631;13306,223;   -0,119;   -0,773
511,216;13022,995;   -0,664;   -0,500
511,801;13484,611;   -0,755;    2,591
512,386;13843,780;    0,972;    0,500
512,971;13798,297;    0,427;    0,955
513,555;13371,070;    1,154;   -1,500
514,140;14263,504;    1,336;   -3,136
514,725;14306,283;    1,791;   -1,136
515,309;14455,796;    1,064;    0,318
515,894;13919,940;   -0,300;   -2,227
516,479;14407,995;    1,973;   -0,955
517,063;14255,400;    0,882;    1,227
517,648;14472,149;    0,155;   -1,136
518,232;14104,813;   -1,300;   -1,409
518,817;14431,974;    1,337;    1,682
519,401;14632,818;    0,700;    0,591
519,985;14155,228;    2,700;    1,136
520,570;14084,904;   -0,118;   -1,955
521,154;14435,313;    0,064;    0,591
521,738;14617,284;    1,064;    2,409
522,323;15207,825;   -0,390;    1,682
522,907;14977,963;    2,428;   -0,136
523,491;14693,070;    1,155;    0,955
524,075;14651,685;    0,428;    0,591
524,659;14743,988;    0,973;    0,591
525,243;14135,133;    0,883;    0,409
525,827;14444,658;    0,883;   -0,045
526,411;15330,352;    1,155;   -0,136
526,995;15591,920;    0,337;    1,409
527,579;15161,395;    1,974;   -1,045
528,163;15476,605;    0,428;   -1,500
528,747;15432,487;    1,065;   -0,773
529,331;15730,401;    0,883;   -1,409
529,915;15980,739;    2,338;    0,955
530,499;15950,252;    0,247;    1,227
531,082;15571,020;    1,065;    1,591
531,666;15034,597;    0,520;    0,773
532,250;15744,284;    0,428;    2,682
532,833;16096,447;    0,610;    2,773
533,417;15975,308;    1,247;    0,864
534,001;15916,172;    0,429;   -0,318
534,584;16671,319;    1,974;    0,500
535,168;16501,671;    3,247;    1,409
535,751;16537,544;    4,520;    0,045
536,334;15952,866;    4,520;   -0,409
536,918;16620,336;    1,974;    1,591
537,501;16733,504;    1,520;    1,318
538,085;16690,269;    1,702;    1,045
538,668;16870,248;    0,883;    2,409
539,251;17203,591;    3,156;    3,773
539,834;17217,932;    0,156;    0,773
540,418;17190,390;    3,247;    4,318
541,001;17304,587;    2,702;    1,773
541,584;17356,812;    1,429;    2,227
542,167;16971,081;    0,702;    2,955
542,750;17154,435;    0,793;   -0,773
543,333;16727,129;    1,429;    2,136
543,916;17549,768;   -0,298;    2,500
544,499;18195,154;    2,520;    0,227
545,082;18193,684;    0,248;    3,591
545,665;18360,399;   -0,207;    1,500
546,248;18678,401;    0,520;   -0,318
546,830;18330,160;   -1,752;    1,955
547,413;18785,708;    0,157;   -0,773
547,996;19319,565;    0,157;    0,500
548,579;19119,717;   -0,843;    0,955
549,161;18928,883;    0,884;    2,682
549,744;18714,217;    0,612;    0,409
550,326;19255,591;    0,885;   -1,136
550,909;18955,727;    2,339;    0,591
551,492;19357,195;    0,521;    0,227
552,074;19110,530;   -0,024;   -1,318
552,657;19765,503;    2,430;    0,045
553,239;19541,712;   -3,024;   -0,773
553,821;19436,785;   -1,570;    1,045
554,404;18920,375;   -0,024;    1,136
554,986;19291,440;    2,248;    1,045
555,568;19873,740;    0,430;   -0,955
556,151;19090,446;    4,067;   -0,227
556,733;19299,413;   -1,388;   -0,864
557,315;19766,406;    4,703;    0,500
557,897;19567,079;    0,521;   -0,500
558,479;19699,395;    1,703;    1,318
559,061;19854,105;    1,067;   -0,864
559,643;20221,723;   -0,297;    0,045
560,225;20531,724;   -0,388;    2,864
560,807;20601,905;    0,340;    0,318
561,389;20094,087;   -1,206;    2,318
561,971;20833,477;   -0,660;    2,136
562,553;20665,415;    0,613;    1,591
563,135;20863,158;    1,249;    1,136
563,717;20442,847;    3,158;    1,136
564,298;21166,025;    3,976;   -0,045
564,880;20810,410;    0,340;   -1,409
565,462;20992,865;    1,977;    1,318
566,043;22224,171;   -0,933;    2,318
566,625;21782,620;    4,067;    1,227
567,207;21611,536;    0,704;    1,682
567,788;22802,746;   -0,114;    1,500
568,370;23698,759;   -1,841;   -0,500
568,951;23467,843;   -0,569;    0,227
569,533;24388,109;    0,977;   -0,500
570,114;24892,888;   -0,296;    0,682
570,695;25416,284;   -0,478;   -1,318
571,277;26010,622;   -0,205;   -1,682
571,858;26760,781;    2,704;   -1,136
572,439;27745,223;    0,795;   -1,045
573,021;27953,727;    0,432;   -2,773
573,602;28489,292;    1,795;    0,318
574,183;29431,331;   -0,114;    2,227
574,764;29629,283;    2,068;    0,409
575,345;30210,707;    0,250;   -0,136
575,926;30830,206;    2,704;    0,136
576,507;30847,651;    2,704;   -0,227
577,088;31955,346;    1,704;    1,682
577,669;31982,599;    1,704;    1,955
578,250;32811,422;   -0,750;   -1,045
578,831;33501,485;   -0,841;   -2,227
579,412;33729,669;   -1,205;    0,955
579,993;34722,562;    1,432;    0,227
580,573;35062,873;   -0,023;   -0,955
581,154;33938,182;    1,613;   -0,591
581,735;34841,198;    0,341;    0,773
582,315;34331,471;    0,523;    2,136
582,896;34743,919;   -1,750;    1,227
583,477;34209,778;    0,614;    1,227
584,057;34312,439;    1,159;    0,955
584,638;34602,471;   -2,750;    2,318
585,218;34584,247;    2,886;    2,682
585,799;34730,599;    1,977;   -0,227
586,379;34714,618;    1,250;    1,591
586,959;33443,759;    2,613;    0,318
587,540;32761,100;    0,432;    2,227
588,120;32216,285;   -1,113;   -0,045
588,700;31132,009;    2,977;    2,136
589,281;31443,081;    1,250;   -0,955
589,861;31388,782;   -0,296;   -1,682
590,441;31157,001;   -1,477;   -2,682
591,021;30109,193;    1,432;   -2,591
591,601;30357,976;    0,431;    0,500
592,181;30343,804;   -1,296;   -0,773
592,761;29549,139;    2,250;    1,409
593,341;29488,722;    1,522;    0,045
593,921;29476,586;   -0,569;    1,591
594,501;29361,700;    1,250;    1,318
595,081;29192,608;    0,522;   -0,318
595,661;29536,454;    1,068;    0,955
596,240;30022,554;   -1,023;    0,136
596,820;29660,027;    2,613;    1,955
597,400;29906,469;    1,977;    0,773
597,980;30124,360;   -0,750;    1,045
598,559;30124,635;    0,341;   -0,227
599,139;29817,213;   -0,750;   -1,227
599,718;29690,122;    0,795;   -0,409
600,298;29890,849;   -2,387;    0,682
600,877;30153,376;    4,795;    1,409
601,457;30459,668;    0,340;    1,136
602,036;30361,698;    1,795;    2,045
602,616;30584,627;    2,250;    1,682
603,195;30893,572;    0,431;    3,500
603,774;30442,027;   -0,296;    2,045
604,354;30296,551;    2,522;   -0,500
604,933;29794,869;    0,250;    1,864
605,512;29911,808;    2,340;    0,591
606,091;29972,774;    1,886;    3,773
606,671;30792,551;    0,249;    0,773
607,250;29821,016;    1,431;    3,136
607,829;30115,254;    1,158;    3,227
608,408;29938,731;    4,613;    2,591
608,987;28919,562;    2,704;    3,409
609,566;29239,550;    0,341;   -2,500
610,145;29303,188;    2,885;    0,682
610,723;29810,606;    1,613;    6,864
611,302;28960,694;    1,067;    1,682
611,881;28406,829;    5,158;   11,227
612,460;29285,813;    0,795;    3,955
613,039;29813,645;    1,703;    2,045
613,617;28432,217;    0,886;    4,773
614,196;28621,209;    1,613;    1,227
614,775;28991,693;    1,249;    2,409
615,353;28932,873;   -1,660;    0,864
615,932;28586,585;    0,249;    2,409
616,510;29219,142;    0,158;    0,591
617,089;28695,751;    8,794;   17,591
617,667;28458,591;    4,885;    6,136
618,246;28220,102;   -1,115;    1,318
618,824;28365,456;    1,612;   -0,955
619,402;27943,734;    0,431;   -1,773
619,981;28465,208;    1,067;   -1,045
620,559;28362,491;    0,794;    1,682
621,137;27938,310;    3,067;    1,864
621,715;27844,909;    3,703;   -0,682
622,293;27771,817;    1,885;   -0,773
622,871;28227,679;    0,340;    0,500
623,450;27778,280;    0,430;   -0,864
624,028;27715,517;   -0,388;   -0,955
624,606;27298,671;    2,339;    1,682
625,183;27669,017;   -0,661;   -1,136
625,761;27291,012;    1,885;    1,136
626,339;27551,030;    2,339;    2,591
626,917;27947,624;    0,339;   -0,045
627,495;28010,400;    2,794;    1,318
628,073;27445,623;    5,248;    2,864
628,650;27120,995;    3,067;    2,136
629,228;27531,109;    1,248;    4,409
629,806;26924,369;   -0,024;    1,136
630,383;27199,880;    0,066;   -0,318
630,961;26956,583;   -2,206;   -0,955
631,539;26667,837;   -2,479;    0,227
632,116;25914,765;   12,703;   15,409
632,694;26569,164;    4,885;    6,500
633,271;26850,476;    1,975;    2,682
633,848;26767,098;    1,430;    2,045
634,426;26825,571;    1,521;    1,773
635,003;25935,160;   -0,207;   -0,409
635,580;26239,684;    1,884;    3,682
636,158;26829,986;    3,793;    1,227
636,735;26780,781;    3,339;   -0,500
637,312;26926,002;    0,521;   -0,682
637,889;27032,329;    2,248;   -0,682
638,466;26511,833;    0,066;   -0,409
639,043;26555,615;    1,702;   -1,136
639,620;26812,214;    0,611;   -0,955
640,197;27094,439;    1,612;    1,682
640,774;27314,407;    1,430;    1,136
641,351;27700,193;    0,612;    1,136
641,928;27109,434;    2,794;    1,409
642,505;26773,584;    0,794;   -0,500
643,082;26888,552;    1,885;    1,227
643,658;25837,247;    1,157;    1,500
644,235;26595,033;   -2,479;    2,500
644,812;26846,456;    1,794;    0,773
645,388;26616,151;    1,612;    1,409
645,965;26714,664;    1,521;    1,682
646,542;26796,814;    3,430;   -0,227
647,118;26821,055;    3,703;   -0,955
647,695;27085,932;    0,339;    1,136
648,271;26977,900;   -2,115;    0,500
648,848;27279,322;    0,248;    2,227
649,424;27093,745;    0,976;    1,318
650,000;26807,349;   -0,388;   -1,045
650,577;26640,135;    0,158;   -0,955
651,153;27150,285;   -1,115;    0,955
651,729;28149,708;    0,521;    0,864
652,305;28373,494;    1,339;    2,773
652,881;33072,462;   -1,297;    1,136
653,458;40274,975;    0,249;    0,227
654,034;44270,852;    0,703;    1,591
654,610;45899,548;    0,339;    0,773
655,186;47241,334;    1,612;    3,045
655,762;46980,393;   -1,842;    0,409
656,338;47123,997;    0,703;    0,136
656,913;48177,419;   -0,297;    0,409
657,489;47444,660;    0,249;   -0,318
658,065;47387,992;    0,794;   -1,591
658,641;47955,051;    2,158;   -0,864
659,217;47198,019;    2,067;    0,409
659,792;46525,441;   -1,751;   -0,409
660,368;46821,682;   -0,388;   -0,682
660,944;46523,650;    1,794;    1,227
661,519;41742,618;    0,522;    0,409
662,095;35244,586;   -0,206;    0,591
662,670;30367,463;   -0,206;   -0,136
663,246;29146,703;   -0,660;   -0,409
663,821;28381,853;    0,431;    1,682
664,396;27855,549;    0,613;    1,864
664,972;28117,516;   -0,660;   -0,500
665,547;28454,484;    3,794;    0,136
666,122;28453,089;    1,340;    0,318
666,698;28799,148;    2,431;    0,318
667,273;28068,297;    0,885;    0,136
667,848;28950,811;    0,340;    1,500
668,423;28728,688;    1,795;    2,318
668,998;29346,747;    0,976;   -0,682
669,573;29866,715;    2,067;   -1,500
670,148;29683,319;    1,885;   -0,682
670,723;29423,287;   -0,024;    0,318
671,298;29891,891;   -1,296;    1,045
671,873;29966,587;   -0,296;   -0,136
672,448;29913,373;    1,704;    0,136
673,023;30310,068;    0,249;   -0,227
673,597;30612,036;    2,704;    2,318
674,172;30372,368;    2,431;    0,318
674,747;29853,245;   -0,205;   -1,045
675,321;29684,667;   -0,933;    3,318
675,896;29242,453;    2,158;    1,045
676,471;30282,240;    2,522;    1,591
677,045;30044,662;   -0,296;    0,682
677,620;30086,175;    2,158;    1,136
678,194;30319,507;    0,249;    1,136
678,769;29887,475;    0,886;   -0,318
679,343;30125,807;   -0,023;    1,773
679,917;29975,593;    0,340;    1,955
680,492;30090,470;    0,249;    3,227
681,066;30302,074;    0,613;    0,409
681,640;30332,497;    1,795;   -0,318
682,214;31159,283;    2,340;    0,500
682,788;30637,614;    0,613;   -0,773
683,363;30612,401;    1,977;    1,682
683,937;30291,187;    0,886;   -0,318
684,511;31089,973;   -1,023;   -0,591
685,085;30781,577;   -1,478;    0,318
685,659;30512,454;    1,431;    0,864
686,232;30699,968;    1,159;   -0,318
686,806;30481,663;    2,159;    0,409
687,380;31085,540;   -1,932;    0,591
687,954;31355,144;    2,432;    1,136
688,528;31062,112;    2,613;    1,955
689,101;31850,808;    0,432;    1,045
689,675;31360,776;    0,886;   -0,136
690,249;30720,380;    3,432;    0,409
690,822;31024,075;    1,159;    0,318
691,396;31150,043;    2,068;    1,227
691,969;30653,284;    2,523;    0,136
692,543;31173,888;   -0,568;   -1,955
693,116;30798,674;   -0,659;   -1,409
693,690;30596,097;   -0,296;    0,500
694,263;31172,065;    2,341;    2,955
694,836;31137,124;    2,795;    3,591
695,410;29750,455;    1,159;    1,773
695,983;30290,969;    1,614;    0,591
696,556;30223,028;   -0,750;   -1,045
697,129;30643,632;   -1,114;    1,409
697,703;30247,327;    1,341;    1,955
698,276;30241,204;    1,705;   -0,773
698,849;30013,990;   -1,023;    1,409
699,422;30394,777;    1,250;    0,591
699,995;30105,745;   -0,659;    0,136
700,568;30574,622;   -0,204;    3,045
701,140;30583,044;   -1,841;    1,682
701,713;30282,194;    0,341;    2,409
702,286;30107,798;    0,796;    0,864
702,859;29993,312;    0,614;   -0,591
703,432;29106,825;   -0,841;    0,682
704,004;29639,884;    1,978;    0,318
704,577;29417,852;    1,068;    0,136
705,150;30035,729;    0,887;    2,500
705,722;29796,333;    1,523;   -3,227
706,295;29619,483;    1,432;   -0,591
706,867;29411,360;    0,250;    1,955
707,440;29631,692;   -0,113;   -0,409
708,012;29880,205;   -0,022;    0,591
708,584;29802,810;    2,705;    0,227
709,157;30160,323;    1,160;   -0,591
709,729;29813,018;    1,069;    2,045
710,301;30663,350;   -1,204;    0,045
710,874;30689,500;    0,341;   -0,227
711,446;29527,104;   -0,295;    0,864
712,018;29371,890;   -3,022;    0,500
712,590;29107,222;   -0,204;    1,682
713,162;29706,281;   -0,477;    1,318
713,734;29917,067;    1,796;   -2,045
714,306;29804,671;    0,342;   -0,409
714,878;28479,821;   -0,295;    0,864
715,450;29255,789;   -0,113;    0,864
716,022;29523,666;    2,433;    1,318
716,593;29724,998;    0,978;    0,591
717,165;29652,238;    1,796;   -1,227
717,737;29391,115;    0,796;    0,409
718,309;29039,538;    1,160;   -0,045
718,880;28952,051;   -1,295;   -1,409
719,452;29194,474;    0,887;   -1,591
720,024;28729,169;    1,705;   -0,591
720,595;29354,319;    2,978;    0,955
721,167;28832,105;    1,160;   -2,045
721,738;28317,982;    2,069;   -1,045
722,309;28216,677;    1,251;   -1,227
722,881;28061,191;    2,705;    0,773
723,452;28763,886;    1,251;    2,864
724,023;28957,036;    1,524;    2,682
724,595;28682,458;    2,342;    0,682
725,166;28410,790;    1,524;   -0,409
725,737;27999,849;    1,887;    0,227
726,308;28106,908;    0,797;    0,318
726,879;28506,148;    1,069;    1,227
727,450;28418,116;   -2,022;   -0,045
728,021;28375,266;    1,069;    0,682
728,592;28200,507;    1,160;    0,500
729,163;28565,566;    1,433;   -0,136
729,734;28511,625;    2,160;   -0,227
730,305;28888,956;    0,615;    0,136
730,876;29235,833;    0,888;    2,955
731,447;28895,892;    0,797;    2,682
732,017;29035,133;   -0,840;    1,864
732,588;28542,737;   -0,021;    1,227
733,159;28713,978;    3,615;   -1,045
733,729;28503,855;    1,251;    0,409
734,300;27829,277;    0,160;    0,864
734,870;28257,700;   -1,385;    0,591
735,441;28800,668;    0,888;   -0,591
736,011;28540,909;    1,070;   -1,591
736,582;28487,513;    1,251;    0,045
737,152;27877,663;    0,979;   -2,045
737,722;28375,085;    1,070;   -0,682
738,293;28098,871;   -2,021;    1,318
738,863;28005,294;    1,797;    2,318
739,433;27749,080;    4,524;    0,318
740,003;28418,139;    1,524;   -0,682
740,573;27798,925;    2,252;   -1,591
741,143;27778,802;    3,615;    0,318
741,713;28510,316;    0,252;   -0,500
742,283;28192,556;    1,706;    1,591
742,853;27973,161;    0,524;    1,591
743,423;27391,674;    0,161;    0,045
743,993;27534,278;    1,070;    1,500
744,563;26890,065;    2,524;   -0,864
745,133;26848,578;   -0,112;   -0,864
745,702;27556,637;    2,797;    1,773
746,272;26777,332;    0,434;    0,591
746,842;26551,936;   -0,748;   -0,591
747,411;26978,723;   -0,839;   -0,318
747,981;27150,327;   -0,930;    0,500
748,551;27186,113;   -0,021;   -1,045
749,120;27079,354;   -0,112;   -0,227
749,690;27424,231;    2,161;    2,409
750,259;27743,108;    0,979;    2,955
750,828;27633,439;    4,070;   -1,955
751,398;27885,407;   -0,112;   -0,045
751,967;27388,557;    2,888;    0,409
752,536;27589,434;    1,161;   -0,227
753,105;28070,584;   -1,384;    0,227
753,675;27861,370;   -0,112;    1,773
754,244;27804,793;    0,888;    3,591
754,813;27848,124;    0,979;    1,227
755,382;27424,638;    0,798;    0,955
755,951;27890,242;   -0,112;    3,682
756,520;27458,574;    2,525;    1,864
757,089;28077,451;    1,888;    0,500
757,658;28223,510;    2,434;    1,227
758,227;28219,296;   -1,111;    0,318
758,795;28526,355;   -1,021;    1,136
759,364;28762,505;    0,525;   -0,591
759,933;27715,382;    1,343;   -0,045
760,501;27242,077;    0,252;   -1,318
761,070;27733,954;   -0,293;   -1,409
761,639;28475,104;    1,434;    1,318
762,207;27757,253;    0,889;   -0,955
762,776;27689,676;    2,889;    0,864
763,344;27655,917;    0,071;    0,591
763,913;26779,976;    1,616;    1,409
764,481;27500,944;    1,980;   -0,136
765,049;27297,730;    0,616;    1,409
765,618;27195,334;    1,434;    0,318
766,186;27266,575;    2,434;    0,136
766,754;27409,725;    1,798;    1,864
767,322;26433,238;    1,162;    0,409
767,890;26474,933;    0,525;   -1,773
768,459;26810,538;    2,616;   -0,318
769,027;27009,142;    2,525;    3,409
769,595;26011,292;    2,616;    2,591
770,163;26479,987;    3,344;    2,955
770,730;26147,864;    2,525;   -0,136
771,298;26039,105;    1,162;   -1,409
771,866;26167,709;    0,253;    4,955
772,434;26398,859;    1,162;   -1,864
773,002;26555,736;    2,616;    0,682
773,569;26194,795;    1,071;    1,682
774,137;26036,490;    0,889;   -0,045
774,705;26810,003;   -0,747;   -0,136
775,272;26290,971;    0,253;    0,682
775,840;26035,212;   -0,111;    2,682
776,407;25521,544;   -0,293;    1,955
776,975;25127,603;    1,162;    0,318
777,542;26179,752;    2,162;   -0,045
778,110;26029,084;    0,707;   -0,045
778,677;25671,688;    1,071;   -0,864
779,244;25388,474;   -1,020;    1,045
779,812;25553,170;    0,980;    0,864
780,379;25424,229;    2,435;    1,136
780,946;25664,015;    2,617;   -0,773
781,513;25972,983;   -0,565;    0,318
782,080;25292,678;    1,253;    2,864
782,647;26068,010;    1,708;    3,045
783,214;25627,068;   -0,201;    3,864
783,781;25253,309;    1,708;   -0,682
784,348;25119,186;    0,253;    1,500
784,915;25587,791;   -1,474;    0,318
785,482;25332,122;    2,708;    2,591
786,049;25810,181;    1,071;   -0,591
786,615;25899,785;    1,708;   -0,955
787,182;25675,299;   -3,201;   -0,682
787,749;25332,176;   -2,201;    1,409
788,315;24638,962;    0,253;   -0,409
788,882;24957,475;    0,981;   -1,227
789,448;25613,262;    1,435;   -0,955
790,015;25605,684;    1,799;    3,227
790,581;25167,743;    0,708;    0,227
791,148;25066,438;    1,344;    1,045
791,714;25283,952;   -1,019;    3,136
792,280;24952,556;    3,708;    1,591
792,847;24546,615;   -0,928;    2,500
793,413;25072,492;   -0,110;   -0,318
793,979;24598,460;    1,526;   -1,318
794,545;24726,519;    2,981;    2,682
795,111;24083,396;    2,435;    1,318
795,678;24258,727;    3,526;   -1,682
796,244;23909,150;    2,799;    0,136
796,810;24447,572;    0,799;    0,773
797,375;24209,177;   -0,292;   -2,136
797,941;24243,054;   -1,110;    0,591
798,507;24335,840;    0,254;   -0,955
799,073;23885,808;    2,708;    0,591
799,639;23958,321;    1,435;    3,136
800,205;24005,289;   -1,565;    2,682
800,770;23552,621;    1,345;    1,773
801,336;23569,680;    2,981;   -0,955
801,901;23268,830;    6,072;    3,136
802,467;23903,889;    0,526;    2,045
803,033;23171,129;   -0,019;    0,864
803,598;23370,370;    1,072;   -1,045
804,163;23440,883;    0,708;   -0,318
804,729;23326,488;   -0,110;    1,136
805,294;23701,728;    1,072;    2,227
805,859;23564,605;    0,890;   -0,409
806,425;23045,028;    3,890;    2,682
806,990;22684,996;    1,890;    4,318
807,555;23196,055;   -0,110;    2,591
808,120;23074,114;   -1,292;   -0,409
808,685;23124,082;    1,072;   -2,500
809,250;22618,504;    2,072;   -0,500
809,815;22970,381;   -0,201;    0,682
810,380;23510,622;    0,981;    1,591
810,945;23999,408;    2,890;    2,045
811,510;23169,740;   -0,200;    1,591
812,075;22873,980;    2,800;   -1,409
812,640;22880,857;    3,709;    1,409
813,204;22950,189;    2,163;   -0,227
813,769;23460,066;    0,254;   -0,045
814,334;22859,307;    0,527;    0,864
814,898;22897,275;    1,981;    0,591
815,463;22729,243;    0,981;   -0,773
816,027;22741,393;    1,345;   -2,318
816,592;22828,179;    2,163;   -2,045
817,156;22324,510;   -2,200;    1,136
817,721;22109,660;    0,982;    2,318
818,285;22157,628;    0,618;    1,500
818,849;22792,778;   -0,018;    1,682
819,414;22696,473;    0,073;    2,955
819,978;22211,259;   -0,291;    1,773
820,542;22795,409;    2,891;    0,500
821,106;22513,832;    2,800;    0,682
821,670;22582,072;    2,709;    2,591
822,234;22309,495;    1,073;    1,409
822,798;21720,917;   -0,836;    0,500
823,362;21716,340;    1,527;    4,227
823,926;20974,944;   -0,018;    1,136
824,490;21174,094;    3,527;   -0,682
825,054;21675,426;    2,527;   -1,136
825,618;21279,848;   -1,200;   -1,500
826,181;21156,998;    0,982;   -1,318
826,745;21075,602;   -0,745;   -1,045
827,309;21467,297;    2,255;    1,318
827,872;20887,447;    0,527;    0,955
828,436;21862,688;    1,982;   -0,773
828,999;21933,383;    2,436;    1,227
829,563;20750,715;   -0,654;    1,136
830,126;20576,319;   -0,018;   -0,591
830,690;20541,196;    0,709;    2,864
831,253;20039,891;   -0,473;    2,227
831,816;20217,132;   -0,018;    0,500
832,380;20116,827;    1,164;    0,864
832,943;20342,523;    3,073;   -0,500
833,506;19834,218;    0,255;   -1,227
834,069;20640,459;    2,164;   -0,955
834,632;20689,245;   -2,200;    1,318
835,195;20598,213;    1,346;    0,955
835,758;19768,726;    0,709;    1,955
836,321;19579,785;    1,073;   -1,045
836,884;19745,571;   -1,291;   -0,955
837,447;19770,085;    0,528;    1,773
838,010;19978,780;    1,800;    3,227
838,573;20323,021;    0,528;    0,773
839,135;20287,989;   -0,109;   -0,955
839,698;19692,229;    2,528;    0,409
840,261;19192,379;    0,255;   -0,227
840,823;19071,529;   -0,927;    0,864
841,386;19331,133;   -0,018;   -2,409
841,948;19187,374;    0,255;    1,773
842,511;18925,433;    0,255;    1,682
843,073;19043,128;    2,982;    0,227
843,636;18841,278;    0,619;   -0,227
844,198;18742,246;    1,255;    0,591
844,760;18914,759;    0,619;    1,955
845,322;18546,727;    0,164;    1,136
845,885;18982,241;   -0,290;    0,591
846,447;19421,572;    0,710;    0,227
847,009;18973,995;    3,983;   -0,682
847,571;19327,144;    1,346;   -2,045
848,133;19429,385;   -0,199;   -1,864
848,695;19280,353;    2,346;    1,409
849,257;18816,230;    1,346;   -1,682
849,819;18971,471;    2,983;   -0,409
850,381;19020,348;    1,801;   -0,864
850,942;19391,680;    1,892;   -0,591
851,504;19249,102;    0,983;    0,227
852,066;19301,434;    1,619;   -1,591
852,628;18858,038;    0,165;    1,955
853,189;18395,370;    0,256;    2,682
853,751;18521,429;   -0,654;    1,409
854,312;18337,124;    1,256;   -1,682
854,874;18851,819;   -0,108;   -0,773
855,435;19351,605;    0,528;   -1,682
855,997;19524,846;    3,983;   -0,136
856,558;18810,632;    0,801;    1,773
857,119;18930,418;   -0,744;    2,864
857,681;18586,113;   -0,108;    0,318
858,242;18621,263;    1,347;   -2,136
858,803;19101,231;    1,074;   -0,773
859,364;19634,017;    0,892;   -4,773
859,925;18948,440;   -0,290;   -0,955
860,486;18884,862;    0,529;   -0,955
861,047;18595,830;    0,165;   -1,227
861,608;18369,889;    0,165;   -0,773
862,169;18546,494;   -0,562;   -0,045
862,730;18331,189;   -0,290;    1,409
863,291;18547,884;    0,438;   -0,500
863,852;18910,852;   -0,926;    1,955
864,412;18387,911;   -1,835;   -0,864
864,973;16960,515;    1,892;    0,500
865,534;16774,210;    2,074;    0,227
866,094;18326,269;    2,620;    0,227
866,655;17954,510;    4,711;    3,318
867,215;18237,114;    0,074;    0,136
867,776;18100,991;   -1,199;   -0,136
868,336;18177,869;    1,529;    0,136
868,897;17616,655;    3,438;    1,682
869,457;17350,986;    3,256;    0,318
870,017;17649,591;    2,438;   -1,227
870,578;18195,559;    1,893;    0,773
871,138;17842,799;    2,620;   -0,955
871,698;17317,313;   -0,562;   -1,318
872,258;17181,735;    0,711;   -2,864
872,818;17550,521;    2,347;    0,045
873,378;17537,671;   -2,198;    1,045
873,938;17079,366;    4,984;    0,500
874,498;17423,971;    1,256;   -1,955
875,058;17270,030;    4,347;    1,773
875,618;17176,634;    1,438;   -2,682
876,177;17110,602;   -0,471;    0,136
876,737;16656,570;   -0,289;    1,955
877,297;16650,356;    2,711;    1,955
877,856;16695,869;    2,529;    0,318
878,416;16638,474;    2,438;   -0,136
878,976;16897,624;    3,438;    0,409
879,535;17070,046;    4,529;    3,136
880,095;16806,923;    1,347;    0,045
880,654;16887,437;    0,347;    1,318
881,213;16986,314;    2,347;    1,500
881,773;16617,282;    1,984;    2,682
882,332;16976,431;    6,075;    5,136
882,891;16802,399;    0,711;    2,136
883,451;17287,276;   -2,016;    1,682
884,010;16742,063;   -1,107;   -0,409
884,569;16867,031;   -2,289;   -0,045
885,128;16956,999;   -0,743;   -1,864
885,687;17036,876;   -0,743;    0,682
886,246;16727,480;    2,620;    2,136
886,805;16467,357;    1,620;    2,045
887,364;16795,416;    1,166;   -0,500
887,922;17152,293;   -0,016;    0,045
888,481;16639,352;    1,530;    0,591
889,040;16974,593;    3,711;    2,136
889,599;17617,742;    2,166;    1,409
890,157;17693,438;    2,166;    2,409
890,716;17354,678;    2,166;    0,227
891,274;17122,283;    0,075;   -1,136
891,833;17551,796;    1,166;    0,864
892,391;17442,946;    1,802;    0,500
892,950;17567,641;    0,166;   -0,773
893,508;17919,064;    0,984;   -0,409
894,067;17262,304;   -0,379;    0,136
894,625;17170,181;   -1,016;   -1,500
895,183;17392,877;   -0,198;   -0,682
895,741;17341,208;    2,257;   -1,773
896,299;17109,903;    1,621;   -2,409
896,858;17307,508;    1,530;   -1,591
897,416;17415,658;    0,166;   -1,318
897,974;17174,080;   -2,197;    0,318
898,532;17325,230;    6,530;    2,682
899,089;17207,925;    0,621;   -0,682
899,647;17267,711;    0,530;    1,318
900,205;17025,861;    0,257;    1,045
900,763;17216,829;    2,166;    0,227
901,321;17221,706;    3,530;   -1,409
901,878;16647,220;    3,257;   -0,773
902,436;16480,187;    0,257;    1,318
902,994;16897,065;    6,712;    3,682
903,551;16332,669;    1,439;    0,409
904,109;16725,455;    1,530;   -1,409
904,666;16314,059;    1,439;    1,045
905,224;16103,300;    3,894;   -0,409
905,781;15833,177;   -0,470;   -0,318
906,338;15955,691;    0,167;    1,045
906,895;15892,113;    1,894;    2,045
907,453;15800,808;    2,348;    1,136
908,010;15780,867;    3,348;    0,409
908,567;15437,926;   -0,561;    0,591
909,124;14998,985;    2,439;   -1,500
909,681;15018,135;   -1,288;    0,682
910,238;15155,194;   -0,106;   -1,318
910,795;15505,889;   -1,561;   -1,136
911,352;15124,525;   -0,379;   -2,682
911,909;14535,434;    2,803;   -0,864
912,466;15042,434;    1,985;    1,500
913,022;14603,616;   -0,924;    0,500
913,579;14966,980;   -0,470;    2,045
914,136;14640,071;   -2,561;    0,955
914,692;15010,434;    1,530;   -1,227
915,249;14588,434;    0,530;    0,409
915,806;14757,343;    1,803;    1,955
916,362;14485,707;    0,894;    1,864
916,918;14040,889;    2,439;    1,045
917,475;14011,980;    1,621;    0,955
918,031;14114,980;    0,076;   -0,045
918,587;13548,162;    0,621;   -0,318
919,144;13809,162;   -0,379;    0,227
919,700;14114,525;    0,167;    0,773
920,256;13690,707;    0,439;    0,045
920,812;13291,434;    1,439;   -1,045
921,368;13276,434;    1,348;   -1,045
921,924;12972,162;    0,439;   -0,136
922,480;12553,253;    0,076;    1,227
923,036;13132,616;   -0,652;    1,955
923,592;13110,071;    0,621;    0,318
924,148;12998,162;    1,894;   -0,955
924,704;12317,253;    0,258;   -0,409
925,259;12627,525;   -0,561;    0,591
925,815;12363,525;    3,803;    0,500
926,371;11909,343;    3,530;    1,409
926,926;11771,889;    1,621;    0,591
927,482;11386,707;    1,621;    0,773
928,037;11258,707;   -0,833;    2,045
928,593;11567,798;    0,258;    1,045
929,148;11391,343;    1,167;   -1,500
929,704;10917,889;    2,439;   -0,500
930,259;11110,525;    0,894;   -0,136
930,814;10170,253;    1,803;    1,955
931,369; 9875,434;    0,258;   -0,773
931,925; 9797,616;   -1,924;    0,136
932,480; 9666,434;    3,076;   -2,591
933,035; 9532,162;    3,985;   -0,318
933,590; 9286,980;   -1,742;   -1,773
934,145; 8951,980;   -1,288;   -0,318
934,700; 9299,071;    0,348;   -0,591
935,255; 9084,616;    4,803;    0,045
935,809; 8362,343;    6,258;    0,864
936,364; 7480,434;    2,167;   -0,136
936,919; 7474,071;    2,348;   -1,773
937,474; 7389,434;    1,348;    0,136
938,028; 7145,616;    3,076;    1,136
938,583; 6579,980;    6,348;    4,682
939,138; 6873,798;    0,167;    2,136
939,692; 6315,616;   -1,015;   -1,136
940,247; 5993,343;    1,167;   -1,045
940,801; 5532,798;    0,621;    0,227
941,355; 5457,980;    0,439;    2,591
941,910; 5145,798;    0,712;   -2,136
942,464; 5228,980;    2,712;   -0,318
943,018; 5002,071;    3,258;   -0,227
943,572; 4971,343;    2,803;   -0,682
944,126; 4356,434;   -0,924;   -0,409
944,681; 4257,071;    0,712;    0,227
945,235; 4246,980;    2,167;   -0,591
945,789; 4178,071;    1,258;   -1,864
946,342; 4268,434;   -0,561;   -0,591
946,896; 4084,798;    0,348;    0,955
947,450; 3851,707;   -0,561;   -0,227
948,004; 4031,980;    1,076;   -0,045
948,558; 4055,343;    1,258;   -0,864
949,111; 3972,343;   -1,197;   -0,318
949,665; 3989,434;   -0,106;   -0,682
950,219; 3851,525;    0,621;   -1,045
950,772; 3937,162;    0,258;    1,864
951,326; 3870,343;   -1,106;   -0,955
951,879; 3959,980;    1,076;   -2,318
952,433; 3988,253;    1,348;    2,227
952,986; 3795,253;    0,348;    0,682
953,539; 3729,162;    1,530;    0,591
954,093; 3685,162;    0,985;   -1,318
954,646; 3837,525;   -0,288;    1,318
955,199; 3639,707;    1,258;   -0,500
955,752; 3513,798;    1,985;    1,773
956,305; 3486,798;    0,894;    2,955
956,858; 3664,071;    0,621;   -0,318
957,411; 3822,162;    3,621;    2,136
957,964; 3643,071;    2,076;    2,136
958,517; 3635,980;    0,985;    3,136
959,070; 3488,707;   -1,197;    1,955
959,623; 3536,889;    1,076;    1,500
960,176; 3308,343;    0,712;    2,045
960,728; 3291,616;    1,712;    0,773
961,281; 3353,071;    2,258;    0,500
961,834; 3382,071;   -0,833;    0,864
962,386; 3305,798;    1,258;    1,045
962,939; 3217,343;    3,439;   -0,318
963,491; 3358,798;    2,621;    1,136
964,043; 3242,889;    0,076;    2,409
964,596; 3376,071;    1,712;    2,227
965,148; 3198,162;   -0,379;    1,773
965,700; 3133,798;   -0,015;   -0,227
966,253; 3303,525;   -0,833;    0,318
966,805; 3136,162;    1,894;    0,773
967,357; 3196,980;    0,439;   -1,500
967,909; 3116,525;    1,167;   -1,227
968,461; 3231,980;    0,894;    3,136
969,013; 3168,798;   -1,561;   -0,864
969,565; 3237,707;    1,803;   -1,136
970,117; 3296,162;    3,803;    1,045
970,669; 3157,253;    3,258;   -0,136
971,220; 3017,162;    2,167;   -1,500
971,772; 2934,253;    1,348;   -0,318
972,324; 3053,889;   -1,197;   -0,500
972,876; 3018,525;    0,167;   -0,045
973,427; 3126,525;   -1,197;   -1,045
973,979; 3086,889;    0,076;   -2,500
974,530; 3117,343;    0,803;    1,318
975,082; 3135,162;    2,167;    1,682
975,633; 3028,343;    2,894;    1,682
976,184; 3191,616;    2,076;    0,773
976,736; 2986,071;    0,348;    0,227
977,287; 2774,525;    0,258;   -0,500
977,838; 2950,071;   -0,924;   -0,318
978,389; 2999,253;    0,803;   -0,500
978,940; 2875,343;    1,258;   -0,409
979,491; 2916,889;    2,258;   -0,500
980,042; 2857,343;   -0,652;    3,045
980,593; 2924,343;    1,894;    0,227
981,144; 2986,707;    3,530;   -0,500
981,695; 2930,889;   -0,470;    1,500
982,246; 2893,616;   -1,833;    1,045
982,797; 3055,253;   -0,561;    0,682
983,347; 3176,616;    2,167;    0,591
983,898; 3339,707;    4,167;    0,409
984,449; 3142,253;    2,530;    0,773
984,999; 3064,343;    1,894;   -1,136
985,550; 2822,253;    3,167;   -0,318
986,100; 2886,707;    0,712;   -0,318
986,651; 2908,253;    0,258;    0,045
987,201; 2896,162;    0,894;   -0,591
987,751; 2957,707;   -0,288;    2,864
988,302; 2955,343;   -0,379;    1,500
988,852; 2981,616;    1,985;   -1,136
989,402; 3023,707;    0,985;    0,682
989,952; 2914,798;    1,621;    0,864
990,502; 3022,798;    1,076;    0,682
991,052; 3000,616;   -0,106;    0,045
991,602; 2853,798;    1,167;    1,318
992,152; 2854,162;    2,803;    0,682
992,702; 2846,071;    1,167;   -0,045
993,252; 2767,525;    0,076;   -0,500
993,802; 2848,980;    1,167;    1,318
994,352; 3094,707;   -0,742;    1,136
994,901; 3188,616;    1,076;    3,227
995,451; 3110,525;   -1,197;    0,318
996,000; 3179,980;    1,076;    0,318
996,550; 2885,253;    2,894;    0,227
997,100; 2888,980;   -0,561;   -0,045
997,649; 3175,434;   -0,197;    0,955
998,198; 2810,253;   -0,288;   -1,500
998,748; 2977,798;    0,348;   -2,318
999,297; 2890,798;    0,985;   -0,409
999,846; 2978,525;    1,894;   -0,773
1000,395; 3022,253;    1,530;    0,500
1000,945; 2957,707;    1,076;   -0,773
1001,494; 3041,162;    0,167;    0,682
1002,043; 3032,253;    0,712;    0,864
1002,592; 2874,798;    3,439;    1,955
1003,141; 3020,162;    2,439;   -0,682
1003,690; 2870,980;    1,258;    0,500
1004,238; 2951,707;   -0,106;   -0,045
1004,787; 2580,253;   -1,288;    1,227
1005,336; 2814,253;    1,621;    0,682
1005,885; 2961,980;   -0,197;   -2,773
1006,433; 3120,343;   -0,470;    0,955
1006,982; 3177,253;    2,167;    1,682
1007,531; 3101,071;    2,712;   -0,227
1008,079; 3048,162;    0,258;    0,500
1008,627; 3181,616;    1,621;    0,409
1009,176; 2895,798;    0,076;   -1,955
1009,724; 2957,889;   -2,742;    0,864
1010,273; 3008,980;    1,076;    0,500
1010,821; 3134,889;    1,076;    1,409
1011,369; 2865,253;    0,076;    1,318
1011,917; 2845,707;   -0,833;   -0,591
1012,465; 3135,889;    2,530;   -1,591
1013,013; 3250,707;    0,439;   -1,682
1013,561; 3106,162;   -1,288;   -0,773
1014,109; 3150,525;   -0,833;    1,682
1014,657; 3034,616;    1,348;    0,591
1015,205; 3166,980;    0,894;   -0,955
1015,753; 3192,889;    0,258;   -1,409
1016,301; 3224,253;    2,621;    3,045
1016,848; 3248,889;    2,167;    0,409
1017,396; 3268,980;    1,621;    0,045
1017,944; 3406,980;    2,621;    1,864
1018,491; 3157,253;   -0,197;    1,409
1019,039; 3315,343;   -0,652;    0,591
1019,586; 3205,434;    0,076;    1,682
1020,134; 3298,071;    0,712;    1,500
1020,681; 3330,343;    2,894;   -1,136
1021,228; 3340,616;   -0,561;   -2,227
1021,776; 3189,798;   -0,833;   -1,136
1022,323; 3406,980;    0,803;    0,773
1022,870; 3352,980;   -0,470;   -0,045
1023,417; 3247,343;    2,076;    1,864
1023,964; 3396,616;    0,621;    1,227
1024,511; 3211,798;   -0,652;    0,773
1025,058; 2998,889;    0,439;   -0,045
1025,605; 3062,889;   -1,742;    3,136
1026,152; 3275,980;   -0,106;   -0,591
1026,699; 2996,707;    0,167;    1,318
1027,245; 3164,071;    2,439;    0,318
1027,792; 3420,434;    0,712;    1,409
1028,339; 3268,343;    4,076;   -0,045
1028,885; 3116,980;    3,621;   -0,227
1029,432; 3059,253;   -0,106;    0,227
1029,978; 3124,707;    1,348;   -1,591
1030,525; 3016,253;    1,621;    0,409
1031,071; 3266,525;    0,348;    1,136
1031,618; 3370,980;    1,258;    1,682
1032,164; 3158,162;    2,076;    3,045
1032,710; 3201,071;    0,076;   -1,500
1033,256; 3140,798;    0,712;   -0,136
1033,803; 3116,980;   -0,288;    1,500
1034,349; 2845,616;    1,803;    0,136
1034,895; 3010,889;    2,621;   -0,318
1035,441; 2979,616;    0,439;    0,318
1035,987; 2994,707;   -2,288;   -0,682
1036,533; 2984,071;   -0,197;   -0,955
1037,078; 3160,798;    4,712;    1,682
1037,624; 3000,707;    2,439;   -0,955
1038,170; 3030,071;    1,712;   -0,318
1038,716; 2915,889;    2,167;   -0,409
1039,261; 2843,616;    2,167;   -0,773
1039,807; 2771,253;   -0,015;    3,409
1040,352; 2840,253;   -1,288;   -0,318
1040,898; 2882,162;    0,167;   -0,682
1041,443; 2798,980;    0,803;   -2,591
1041,989; 2839,343;    3,621;    1,591
1042,534; 2720,798;    0,985;    2,591
1043,079; 2823,162;    1,985;    0,955
1043,625; 2598,798;    0,258;    0,500
1044,170; 2641,343;    2,439;    1,045
1044,715; 2934,616;    0,167;    0,955
1045,260; 2735,253;   -0,833;   -0,955
1045,805; 2791,253;    0,258;   -0,591
1046,350; 2739,616;    0,530;   -0,409
1046,895; 2684,525;    0,803;    1,591
1047,440; 2629,616;    1,530;    0,409
1047,985; 2523,980;   -1,197;   -0,955
1048,530; 2449,253;    1,348;    1,227
1049,074; 2519,162;    2,803;    0,318
1049,619; 2489,343;   -0,924;    1,955
1050,164; 2286,616;    1,076;    0,227
1050,708; 2329,798;    2,621;    0,045
1051,253; 2693,707;    3,258;   -2,227
1051,797; 2424,525;   -0,197;   -1,318
1052,342; 2427,434;    1,348;    1,045
1052,886; 2418,525;    1,803;   -1,409
1053,430; 2300,343;    2,167;    0,136
1053,975; 2312,525;    0,894;   -0,318
1054,519; 2305,343;    1,803;    3,227
1055,063; 2305,434;    3,621;    1,318
1055,607; 2194,071;    1,348;    0,227
1056,151; 2224,707;    0,530;    1,682
1056,695; 2141,071;   -1,833;   -1,136
1057,239; 2212,162;   -1,197;   -0,682
1057,783; 2208,980;    2,258;   -1,500
1058,327; 2157,889;    3,076;    1,409
1058,871; 2384,253;    3,985;    1,318
1059,415; 2084,434;   -0,561;   -0,045
1059,958; 2335,162;    2,985;    2,591
1060,502; 2053,253;    1,348;   -0,773
1061,046; 1978,889;    1,712;   -0,955
1061,589; 1964,980;    2,803;   -1,136
1062,133; 1845,525;    0,985;    1,864
1062,676; 1784,343;    1,439;    0,864
1063,220; 1785,343;    0,985;    0,500
1063,763; 1799,616;    2,985;    1,136
1064,306; 1876,253;    0,985;    1,864
1064,849; 1766,253;    2,076;    0,591
1065,393; 1763,253;    2,894;   -1,500
1065,936; 1879,071;    2,530;   -0,409
1066,479; 1762,343;    2,621;    1,318
1067,022; 1801,162;    1,894;   -0,227
1067,565; 1696,798;   -1,197;   -1,318
1068,108; 1713,525;    1,258;   -0,591
1068,651; 1685,889;   -2,470;    1,409
1069,194; 1616,162;   -1,106;   -1,682
1069,736; 1621,889;    3,803;    0,955
1070,279; 1601,434;   -1,652;   -0,500
1070,822; 1647,525;    1,530;   -0,318
1071,364; 1727,162;    0,530;    1,318
1071,907; 1549,889;    0,348;    3,227
1072,450; 1472,798;    0,258;   -0,045
1072,992; 1473,889;   -0,561;    3,136
1073,535; 1599,616;    0,167;    2,136
1074,077; 1386,525;    2,985;    2,045
1074,619; 1362,162;    0,985;    0,591
1075,161; 1390,525;   -0,561;    1,500
1075,704; 1560,071;    0,258;    1,227
1076,246; 1374,707;    1,530;    0,682
1076,788; 1297,071;   -1,015;    1,773
1077,330; 1386,434;   -2,106;    2,136
1077,872; 1344,707;   -1,924;    0,955
1078,414; 1563,889;    3,712;    0,773
1078,956; 1291,707;    0,167;   -0,227
1079,498; 1538,162;    0,439;    0,318
1080,040; 1249,071;    0,985;   -1,318
1080,581; 1195,071;    0,621;   -0,318
1081,123; 1135,253;   -0,106;   -0,773
1081,665; 1189,343;    3,803;   -0,955
1082,206; 1467,525;    3,258;   -0,500
1082,748; 1334,525;    3,258;    2,045
1083,289; 1210,343;    0,167;    1,318
1083,831; 1121,525;    0,258;    0,227
1084,372; 1143,707;    0,894;    0,591
1084,913; 1152,980;    3,348;    0,864
1085,455; 1135,434;    1,530;   -2,045
1085,996; 1090,616;    0,530;    0,136
1086,537; 1109,525;    0,985;    0,864
1087,078; 1154,798;    0,439;   -2,136
1087,619; 1186,889;   -1,652;    0,227
1088,160; 1108,434;    1,439;    1,318
1088,701; 1093,889;   -0,742;    0,682
1089,242; 1043,707;   -0,561;   -2,227
1089,783; 1127,071;   -0,561;    1,409
1090,324; 1093,434;   -0,833;    0,682
1090,865;  976,798;   -1,924;   -0,409
1091,405;  953,889;   -0,561;    2,227
1091,946;  984,707;   -0,197;   -0,955
1092,487;  914,434;   -1,288;   -1,409
1093,027; 1069,162;    1,803;   -1,500
1093,568;  919,889;    2,258;    1,227
1094,108; 1000,071;    0,621;    1,773
1094,649;  959,253;   -0,470;    0,136
1095,189;  895,343;    1,167;   -0,682
1095,729;  845,253;    0,712;    0,955
1096,269;  851,071;    1,258;   -0,955
1096,810; 1148,616;   -0,197;    0,500
1097,350;  990,980;   -0,561;   -0,773
1097,890;  886,798;    2,985;    1,227
1098,430; 1126,434;    4,985;    2,864
1098,970; 1015,980;    1,894;    1,682
1099,510;  888,980;   -0,833;   -2,318
1100,050;  817,707;    0,258;   -1,591
1100,589;  782,980;    0,076;   -0,318
1101,129;  889,980;    0,894;   -0,955
1101,669; 1039,889;    2,803;    2,136
1102,209;  875,616;    1,530;    2,227
1102,748;  814,707;    3,439;    0,955
1103,288;  808,616;    0,712;   -1,227
1103,827;  837,071;    3,530;   -2,227
1104,367;  720,343;    1,712;   -2,409
1104,906;  687,889;   -1,015;   -1,136
1105,445;  763,525;    0,985;   -1,136
1105,985;  693,071;   -0,652;    1,500
1106,524;  733,889;    1,530;   -0,682
1107,063;  716,616;    1,167;    1,409
1107,602;  700,343;    1,894;   -1,500
1108,141;  617,798;    1,621;    1,500
1108,680;  710,253;    3,985;   -0,591
1109,219;  655,525;    0,167;   -0,500
1109,758;  654,253;    4,167;    0,682
1110,297;  627,798;   -1,106;   -0,682
1110,836;  575,253;    1,439;    0,955
1111,375;  735,434;    0,348;    0,409
1111,913;  747,889;    0,985;    0,773
1112,452;  680,889;    0,894;    0,136
1112,991;  579,343;    1,076;    1,955
1113,529;  534,343;    0,167;   -0,045
1114,068;  603,253;    0,439;    2,955
1114,606;  505,707;   -0,561;   -0,955
1115,144;  653,162;    1,530;    1,045
1115,683;  599,889;    1,985;    0,318
1116,221;  652,889;    2,076;   -0,864
1116,759;  563,616;    1,621;   -0,864
1117,297;  736,889;    1,621;    1,864
1117,836;  562,980;    1,985;   -1,227
1118,374;  558,616;    0,258;   -0,682
1118,912;  513,616;    0,439;    2,682
1119,450;  496,525;    0,985;    0,864
1119,988;  534,343;    3,348;    2,136
1120,525;  985,980;    7,258;    3,318
1121,063;  698,253;    0,530;    1,864
1121,601;  498,525;    1,076;   -1,227
1122,139;  460,616;    1,076;   -2,045
1122,676;  654,798;   -1,652;    2,773
1123,214;  592,980;    0,712;    4,409
1123,751;  413,798;    0,621;    2,227
1124,289;  534,253;    0,894;   -0,409
1124,826;  405,343;   -0,379;    0,227
1125,364;  341,980;    0,712;   -0,955
1125,901;  524,707;    6,258;    1,227
1126,438;  612,253;    3,530;    0,955
1126,975;  353,162;    2,985;   -0,773
1127,513;  419,253;    2,621;    2,136
1128,050;  343,162;   -0,561;   -0,682
1128,587;  424,798;    1,348;   -0,227
1129,124;  467,162;   -0,015;    1,318
1129,661;  348,707;   -1,924;    0,227
1130,198;  505,071;    2,439;    0,773
1130,734;  449,707;   -0,379;    1,409
1131,271;  325,162;   -1,197;    0,864
1131,808;  471,434;    1,621;    3,045
1132,345;  349,798;    4,530;    0,318
1132,881;  242,798;   -0,561;   -1,864
1133,418;  374,525;    0,348;   -1,136
1133,954;  315,071;    0,712;   -2,682
1134,491;  381,707;    1,712;   -0,773
1135,027;  295,798;    2,167;    0,864
1135,564;  363,343;    1,439;    2,955
1136,100;  345,343;   -0,742;    2,136
1136,636;  254,343;   -1,015;   -1,045
1137,172;  329,253;    0,894;   -1,045
1137,708;  263,434;   -1,561;   -1,045
1138,245;  269,798;    0,803;   -1,227
1138,781;  225,162;    1,803;   -3,318
1139,317;  280,525;    1,894;   -1,409
1139,852;  281,889;    3,076;    0,136
1140,388;  384,798;    2,076;   -0,409
1140,924;  277,980;    1,076;   -2,227
1141,460;  221,798;   -0,288;    0,136
1141,996;  160,707;   -0,652;    2,682
1142,531;  199,253;    1,076;    3,318
1143,067;  391,798;    1,167;    1,045
1143,602;  445,980;    3,439;   -0,318
1144,138;  297,980;    0,803;    1,045
1144,673;  183,162;    1,621;    1,409
1145,209;  246,434;    2,894;   -0,318
1145,744;  164,707;    0,803;    0,864
1146,279;  283,980;    1,530;   -0,136
1146,815;  221,798;    1,530;   -2,682
1147,350;  256,343;   -0,924;    0,045
1147,885;  176,798;   -1,924;   -1,318
1148,420;  185,798;    2,439;    0,773
1148,955;  156,707;   -1,470;    1,864
1149,490;  183,616;   -1,106;   -1,591
1150,025;  160,616;   -1,106;   -1,773
1150,560;  270,707;   -0,288;   -0,955
1151,094;  238,889;    0,258;   -0,591
1151,629;  240,889;   -3,742;    0,864
1152,164;  179,434;   -1,288;    1,318
1152,698;  135,434;    1,258;   -0,136
1153,233;   90,707;   -1,379;   -0,682
1153,767;  144,162;   -0,288;   -2,318
1154,302;  182,253;   -0,379;    1,773
1154,836;  181,253;    0,803;   -2,136
1155,371;  228,889;    2,258;    3,682
1155,905;  189,889;    1,985;    1,682
1156,439;  156,980;    0,530;   -0,500
1156,973;  184,162;    0,439;    0,318
1157,507;  127,616;   -1,742;    0,682
1158,042;  150,253;   -0,652;    1,045
1158,576;  184,434;   -0,561;    1,773
1159,110;  184,798;    0,076;    2,409
1159,643;  160,343;   -2,470;   -0,045
1160,177;  102,707;   -2,015;    1,500

