
Integration time [ms]:   0,050
Averaging Nr. [scans]: 11
Smoothing Nr. [pixels]: 0
Data measured with spectrometer [name]: 7318044SP
Wave   ;Sample   ;Dark     ;Reference
[nm]   ;[counts] ;[counts] ;[counts] 

186,757;  -11,061;   38,161;    1,318
187,357;   13,286;   26,706;    0,955
187,958;    0,366;   17,252;   -1,591
188,558;   37,928;   12,979;   -1,227
189,159;    2,211;   10,070;   -4,500
189,759;  -19,099;    5,797;   -3,591
190,360;  -12,080;    6,797;   -2,136
190,960;   15,779;    5,706;   -4,136
191,560;   18,489;    2,614;   -6,591
192,161;  208,107;    5,885;   -3,500
192,761;   77,846;    5,520;   -3,227
193,361;   23,962;    3,065;   -3,773
193,962;   77,014;    1,612;   -2,682
194,562;   17,274;   -0,114;   -3,955
195,162;   36,746;   -0,567;   -2,227
195,762;  149,718;    2,433;   -0,045
196,362;  100,779;    1,706;   -2,500
196,963;   13,172;    1,706;   -0,864
197,563;   58,661;    1,252;   -0,955
198,163;   19,873;   -0,111;   -0,682
198,763;   30,363;   -0,020;   -0,500
199,363;   86,437;    3,616;   -0,500
199,963;   52,511;    2,162;    0,409
200,563;   38,337;    6,344;   -1,409
201,163;   25,633;    5,435;   -0,227
201,763;   61,517;    1,435;    0,318
202,363;   27,531;    0,980;    1,500
202,963;   80,587;    1,526;    1,045
203,563;  142,926;    0,344;    0,500
204,162;   58,219;    1,889;   -1,864
204,762;   55,713;    2,071;    0,591
205,362;   33,957;    0,708;    1,955
205,962;   74,719;    3,435;    1,955
206,562;   67,397;    1,889;    2,318
207,161;   55,738;    1,708;    0,318
207,761;  166,884;    4,435;    2,409
208,361;   76,411;    1,889;    1,409
208,960;  118,254;    2,889;    1,500
209,560;  139,819;    0,435;    1,591
210,160;  148,929;    5,071;    1,864
210,759;  118,455;    0,708;    1,227
211,359;  107,169;   -0,474;    1,045
211,958;  284,126;    3,526;    2,045
212,558;  314,732;    0,799;    1,864
213,157;  207,162;   -0,929;    1,500
213,757;  482,200;    5,617;   -0,227
214,356;  279,150;    1,708;   -0,409
214,956;  491,878;    3,526;    0,409
215,555;  250,226;    0,617;    2,136
216,154;  195,985;   -0,292;   -0,591
216,754;  198,611;    1,253;    0,773
217,353;  262,744;   -0,383;   -1,045
217,952;  159,302;    2,072;    0,318
218,552;  328,398;    0,254;   -0,773
219,151;  236,674;   -1,110;    0,955
219,750;  227,290;    0,890;   -0,227
220,349;  226,756;   -2,292;    1,045
220,948;  355,464;    1,163;    1,136
221,548;  266,367;    0,617;    1,227
222,147;  333,374;   -1,292;   -0,409
222,746;  532,812;    1,254;   -0,955
223,345;  394,838;   -1,019;    0,500
223,944;  400,163;    1,163;    0,773
224,543;  446,550;    4,072;   -1,409
225,142;  495,727;    1,345;    0,136
225,741;  435,530;    1,163;    1,045
226,340;  406,679;    1,254;   -0,955
226,939;  622,727;    2,708;   -0,136
227,538;  440,638;    1,163;   -0,773
228,137;  615,835;    0,435;    0,864
228,735;  560,012;    0,435;    1,227
229,334;  377,911;   -0,474;   -0,227
229,933;  655,076;    0,799;    0,591
230,532;  677,378;   -1,201;   -0,409
231,131;  753,733;    1,253;    0,318
231,729;  605,869;    1,163;   -2,318
232,328;  515,003;    0,435;   -1,500
232,927;  513,033;    4,526;   -0,500
233,525;  493,645;    0,981;    0,045
234,124;  558,619;    1,890;   -1,591
234,723;  458,024;    1,617;   -1,045
235,321;  466,074;    1,163;    0,136
235,920;  531,510;    2,526;   -1,227
236,518;  732,379;    1,072;    0,318
237,117;  552,159;    2,890;   -0,227
237,715;  566,702;    1,163;   -0,500
238,314;  641,575;    1,708;   -2,318
238,912;  815,698;    0,526;   -1,409
239,510;  676,769;    1,162;   -1,227
240,109;  850,479;   -0,474;    3,773
240,707;  813,745;   -0,474;    1,227
241,305;  682,540;   -0,383;    0,136
241,904;  856,722;   -0,292;   -2,045
242,502; 1000,010;    3,253;   -0,227
243,100;  893,056;    3,344;   -0,955
243,698;  916,054;    2,799;    1,682
244,297; 1009,371;   -0,656;    0,682
244,895; 1058,518;   -0,474;   -2,318
245,493; 1364,356;    2,981;   -0,591
246,091; 1382,121;    5,163;   -1,318
246,689; 1359,934;    2,163;    0,591
247,287; 1373,806;   -0,019;   -1,136
247,885; 1501,909;   -1,019;    1,227
248,483; 1528,678;   -0,201;   -0,500
249,081; 1679,884;    0,981;    1,591
249,679; 1852,623;   -1,019;    1,682
250,277; 1904,510;   -2,292;    0,864
250,875; 2000,606;    0,617;   -1,045
251,473; 2021,468;   -0,019;    0,500
252,071; 2182,769;   -0,383;    1,045
252,669; 2304,799;   -1,565;    0,318
253,267; 2418,974;    1,618;    0,773
253,864; 2399,534;    0,617;    0,682
254,462; 2560,439;    1,526;    1,591
255,060; 2459,323;    0,072;    1,318
255,658; 2618,617;   -3,292;   -0,136
256,255; 2942,165;   -0,201;   -2,045
256,853; 2950,728;    2,345;    1,409
257,451; 2955,436;    1,981;    1,864
258,048; 3434,411;    2,072;    1,864
258,646; 3068,252;    0,436;   -1,045
259,243; 3258,818;    2,981;    2,227
259,841; 3279,954;    1,799;    0,318
260,438; 3196,519;    0,254;    0,864
261,036; 3631,862;    0,617;    1,409
261,633; 3660,991;    1,526;    2,227
262,231; 3556,361;   -0,110;   -0,045
262,828; 3664,008;   -0,383;    1,136
263,425; 3711,400;   -1,928;   -0,591
264,023; 3923,414;    1,436;    0,045
264,620; 3724,606;    1,526;   -0,318
265,217; 4015,986;    2,890;    3,136
265,815; 4047,874;    2,527;    2,136
266,412; 4017,996;    0,072;    0,136
267,009; 4053,886;    0,526;    0,773
267,606; 4112,161;    0,345;   -0,955
268,203; 4044,370;   -0,383;   -0,591
268,801; 4229,553;   -0,474;    0,591
269,398; 4428,957;   -0,564;    2,500
269,995; 4451,008;    0,890;    1,591
270,592; 4322,216;    0,799;   -0,500
271,189; 4443,443;    1,981;    0,409
271,786; 4553,528;    2,072;    1,227
272,383; 4568,964;   -0,383;    0,227
272,980; 4592,773;    1,617;    0,318
273,577; 4868,336;    2,162;    1,227
274,174; 4513,479;    1,435;    2,591
274,771; 4513,526;    1,890;   -0,773
275,367; 4753,058;    3,253;    1,409
275,964; 4705,093;   -0,565;   -0,500
276,561; 4739,451;   -2,474;   -1,045
277,158; 4837,623;    1,799;   -1,773
277,755; 4997,521;   -0,110;    0,409
278,351; 4508,520;    0,436;   -1,500
278,948; 4738,938;   -0,201;    0,045
279,545; 4702,181;    0,527;    2,318
280,141; 5263,052;    1,254;   -2,045
280,738; 5058,243;    2,435;   -0,136
281,334; 5140,866;   -0,383;    0,591
281,931; 4754,004;    2,890;   -1,318
282,528; 4897,465;    4,072;   -0,500
283,124; 5450,076;    3,345;   -0,500
283,721; 5384,165;    0,709;    1,409
284,317; 5254,437;    0,163;    2,500
284,913; 5711,507;   -0,110;    0,591
285,510; 5968,052;    2,890;   -0,318
286,106; 6001,953;    2,345;   -0,955
286,703; 5594,254;    0,072;    1,955
287,299; 5817,681;    1,254;   -0,591
287,895; 6047,456;    0,890;   -1,045
288,491; 6548,320;    0,163;    2,136
289,088; 6465,971;    0,163;    2,409
289,684; 6589,072;    2,890;    1,500
290,280; 6710,219;    1,890;    0,682
290,876; 6840,296;    0,163;    5,500
291,472; 6821,928;    2,163;    2,227
292,068; 7000,509;    1,254;    0,227
292,665; 6857,954;   -0,564;    0,773
293,261; 6733,726;   -1,292;    2,136
293,857; 7109,754;    4,072;    2,136
294,453; 7191,617;   -0,928;    0,955
295,049; 7180,670;    0,253;    1,955
295,644; 7325,691;   -1,292;    0,136
296,240; 7369,935;    0,162;   -0,136
296,836; 7565,186;   -0,747;    0,318
297,432; 7930,580;    2,980;   -0,500
298,028; 8062,826;    0,435;    0,773
298,624; 8453,747;    0,889;    1,864
299,220; 8765,850;    0,435;    0,591
299,815; 8523,703;    0,526;   -0,409
300,411; 8448,579;    0,435;    1,773
301,007; 8544,083;    1,889;    0,227
301,602; 8634,073;    2,071;   -2,318
302,198; 8829,486;    1,435;   -0,773
302,794; 9172,712;    1,526;   -0,500
303,389; 9368,727;    1,071;    1,045
303,985; 9456,983;    1,253;    1,409
304,580; 9486,343;    0,889;    1,591
305,176; 9484,093;    0,344;    0,136
305,771; 9432,262;   -0,929;   -1,227
306,367; 9361,084;    3,071;    0,136
306,962; 9685,619;    2,889;    1,500
307,558; 9387,918;    2,435;    0,136
308,153; 9351,552;   -0,383;   -1,136
308,748; 9548,853;    0,162;    1,682
309,344; 9516,843;    0,253;   -1,318
309,939; 9604,647;    2,071;   -1,318
310,534; 9832,609;   -2,020;   -1,682
311,130; 9695,468;   -0,656;   -2,500
311,725; 9412,600;    0,526;   -0,500
312,320; 9706,415;    1,253;    0,045
312,915; 9571,614;    2,890;   -1,045
313,510; 9575,273;    0,526;   -0,500
314,105; 9998,922;   -3,565;    1,409
314,700; 9350,963;   -1,656;   -1,045
315,295; 8976,343;   -0,020;    0,045
315,890; 8520,063;   -0,292;    0,864
316,485; 8765,337;    0,253;   -0,318
317,080; 8856,174;   -0,929;    1,591
317,675; 9272,875;    3,071;   -0,682
318,270; 8686,239;    6,889;    3,318
318,865; 8704,416;    2,435;    3,045
319,460; 8475,223;   -1,565;    0,591
320,055; 8632,246;   -2,565;   -1,227
320,650; 8292,916;   -1,838;   -0,591
321,244; 8330,363;    0,889;   -1,409
321,839; 9137,706;    0,980;   -0,227
322,434; 8983,142;   -0,111;   -1,591
323,029; 8682,569;   -0,474;    1,591
323,623; 8533,308;    0,798;    0,773
324,218; 8375,806;    2,707;    1,409
324,812; 8304,717;    0,889;    1,591
325,407; 8145,496;   -0,929;    2,045
326,002; 8121,929;    0,526;   -0,409
326,596; 8440,856;   -0,656;    1,318
327,191; 8635,176;   -0,383;   -1,045
327,785; 8306,766;   -0,747;   -0,227
328,379; 8613,026;   -0,383;    0,136
328,974; 8433,240;    1,798;   -3,955
329,568; 8764,663;    2,889;   -2,409
330,163; 8642,612;    2,435;    1,045
330,757; 9021,594;    0,253;    1,591
331,351; 8538,842;   -0,292;    0,682
331,945; 8878,979;   -0,383;    1,409
332,540; 8627,574;    1,617;   -0,591
333,134; 8808,208;    3,344;    0,773
333,728; 9099,997;    2,799;    0,318
334,322; 9519,957;    0,889;   -0,864
334,916; 8919,506;    0,344;    0,955
335,510; 9346,772;   -0,111;   -0,136
336,105; 9683,539;   -0,929;    1,591
336,699; 9418,862;   -1,292;    0,591
337,293; 9459,736;    1,071;    0,318
337,887; 9662,993;    0,071;    1,955
338,481; 9885,692;    2,980;    0,591
339,074;10104,773;    2,071;    2,682
339,668;10062,170;   -0,110;    1,227
340,262;10412,882;    7,708;    3,227
340,856;10019,252;    1,708;   -0,682
341,450; 9486,539;    0,708;    1,864
342,044;10386,827;    1,799;    0,136
342,637;10234,115;    1,162;   -2,136
343,231;10165,319;   -1,474;    0,682
343,825;10180,948;   -0,747;   -0,591
344,419;10229,647;   -0,474;    0,500
345,012;10106,087;    2,889;    4,045
345,606;10156,479;   -0,656;    1,591
346,199;10068,807;   -0,111;   -0,227
346,793; 9681,840;    2,525;    2,045
347,386; 9939,589;    0,889;   -1,136
347,980; 9954,174;   -0,838;   -0,045
348,573; 9834,787;   -1,748;    0,409
349,167; 9556,026;    6,161;    4,773
349,760; 9923,250;    2,252;    2,682
350,354; 9935,586;    1,616;    1,136
350,947; 9693,908;    2,798;    1,682
351,540; 9431,111;    0,616;   -1,409
352,134; 9383,464;   -1,111;    1,136
352,727; 9446,876;   -0,657;    1,136
353,320; 9280,158;    2,343;    0,591
353,913; 9154,403;   -1,929;    1,864
354,507; 9325,156;    0,434;   -1,227
355,100; 9348,489;    0,071;    0,864
355,693; 8551,207;    4,798;    2,409
356,286; 8635,823;    0,980;    2,773
356,879; 8999,806;   -0,475;    1,227
357,472; 8540,581;    0,980;    1,500
358,065; 8755,648;    3,161;    2,500
358,658; 8708,892;    0,798;    2,318
359,251; 8357,720;    0,252;   -0,591
359,844; 7788,996;    0,343;   -1,136
360,437; 7965,558;    0,252;    0,045
361,030; 8233,325;    0,525;   -0,682
361,623; 7807,308;    0,434;    0,318
362,215; 7836,483;    0,979;    2,045
362,808; 7669,877;   -2,293;   -1,682
363,401; 7849,599;    0,798;    0,136
363,994; 7603,157;    3,252;   -1,500
364,586; 7494,494;    0,888;   -1,500
365,179; 7674,979;   -0,203;   -1,136
365,772; 7166,024;   -0,930;    2,045
366,364; 7448,335;    1,524;   -3,227
366,957; 7650,462;    1,342;   -0,045
367,549; 7599,160;   -0,203;   -0,864
368,142; 7232,394;    0,978;   -1,500
368,734; 7446,896;    2,523;   -2,136
369,327; 7381,708;    2,341;   -0,500
369,919; 7288,597;   -1,659;    0,409
370,512; 7070,109;   -1,023;   -0,500
371,104; 6802,089;    2,704;    1,591
371,696; 6973,414;    1,703;   -0,955
372,289; 7033,239;    0,157;    1,136
372,881; 7148,534;    1,156;    1,318
373,473; 7066,237;    4,064;    1,136
374,066; 6863,160;    1,336;    0,500
374,658; 6726,259;    0,879;    1,136
375,250; 7078,505;   -1,668;   -1,409
375,842; 6895,875;   -0,124;   -0,045
376,434; 6730,390;   -2,762;   -0,409
377,026; 7318,747;   -1,855;   -2,500
377,618; 7197,103;    0,779;   -0,682
378,210; 7031,881;    3,141;   -1,955
378,802; 6858,757;    3,412;   -0,591
379,394; 6804,933;    3,411;    0,682
379,986; 7395,306;    1,138;   -0,955
380,578; 7456,311;    1,410;    0,773
381,170; 6823,661;    0,320;    0,045
381,762; 6768,870;   -0,224;    1,409
382,354; 6972,716;   -0,223;   -1,318
382,945; 7066,428;    0,870;    0,318
383,537; 7207,484;    1,144;   -1,955
384,129; 7186,681;    0,963;   -1,136
384,721; 7365,579;    0,418;    0,955
385,312; 7290,812;   -1,399;   -0,955
385,904; 7389,807;   -0,945;    1,591
386,496; 6761,541;    0,691;    1,045
387,087; 6889,864;    0,418;    2,500
387,679; 6922,805;   -0,401;    0,045
388,270; 7061,232;   -2,401;    2,045
388,862; 7171,256;   -0,401;   -0,318
389,453; 7022,386;    1,054;    1,045
390,045; 7310,536;    3,236;   -2,682
390,636; 7259,728;    0,144;   -0,591
391,227; 7100,994;    2,054;   -0,045
391,819; 7195,537;    0,781;    0,773
392,410; 7260,901;    0,600;    0,045
393,001; 7220,571;    1,600;   -1,591
393,593; 7428,317;    0,600;   -0,045
394,184; 7292,490;    0,873;   -0,409
394,775; 7208,164;    1,146;    2,136
395,366; 7435,128;    1,782;    0,773
395,957; 7391,034;   -2,400;    0,136
396,548; 7685,259;    1,054;    2,682
397,139; 7982,144;    2,236;    0,591
397,730; 7699,359;    0,873;    0,955
398,321; 7753,392;    0,509;    0,955
398,912; 7746,101;   -0,764;    0,136
399,503; 7854,759;   -1,945;   -1,409
400,094; 7316,874;   -1,582;    1,682
400,685; 7170,130;    3,600;    0,045
401,276; 7266,816;   -0,400;   -0,955
401,867; 7530,460;   -1,127;    0,773
402,458; 7635,319;    1,509;   -2,318
403,048; 7619,496;    0,146;    0,591
403,639; 7200,881;    1,509;    0,864
404,230; 7463,265;    0,691;    0,318
404,821; 7403,486;   -0,127;    0,045
405,411; 7469,247;   -0,763;   -2,591
406,002; 7047,720;    3,237;   -1,136
406,592; 6928,667;    2,691;    0,045
407,183; 7154,959;    0,328;   -1,500
407,774; 7016,315;    1,419;   -0,136
408,364; 7344,509;    2,600;    0,409
408,954; 6963,625;   -0,036;    1,227
409,545; 6925,519;    1,873;    1,045
410,135; 6426,663;   -1,581;    0,500
410,726; 6560,225;    0,783;    0,318
411,316; 6910,917;    2,237;    0,773
411,906; 6537,516;    0,146;   -0,409
412,497; 6044,449;   -0,490;   -0,045
413,087; 6588,523;    0,783;   -0,227
413,677; 6876,893;   -2,490;    3,864
414,267; 6653,568;   -1,035;    1,409
414,857; 6603,781;    0,419;    4,227
415,448; 6818,399;   -0,763;    0,500
416,038; 6471,457;   -2,945;   -0,591
416,628; 6357,241;    0,965;    0,409
417,218; 5885,282;   -1,762;    3,318
417,808; 6028,494;    0,965;   -0,409
418,398; 6320,986;   -1,035;    2,682
418,988; 6253,434;   -2,217;    0,591
419,578; 6392,529;    3,601;    1,409
420,168; 6620,890;    0,692;   -0,955
420,757; 6151,613;    0,964;   -1,500
421,347; 5818,366;    1,601;   -0,227
421,937; 5884,746;    3,329;    1,409
422,527; 5782,813;    2,602;   -0,773
423,116; 5568,286;    2,692;   -0,045
423,706; 5801,775;    2,965;    0,318
424,296; 5629,401;    1,601;    0,682
424,885; 5925,492;    1,510;   -3,045
425,475; 6060,933;    1,147;   -2,864
426,065; 5921,318;   -1,489;   -0,318
426,654; 5557,412;    0,329;   -0,318
427,244; 5617,622;    1,147;    1,409
427,833; 5115,768;    1,056;   -0,500
428,423; 5333,141;    0,147;    1,136
429,012; 5854,462;    2,420;   -1,136
429,601; 5380,839;    2,057;    0,136
430,191; 5469,373;    2,511;    4,318
430,780; 5066,210;   -1,671;   -0,409
431,369; 5024,389;    1,329;   -0,045
431,959; 5373,629;    1,693;    0,500
432,548; 5112,949;   -1,398;   -0,045
433,137; 5090,374;    0,329;   -1,318
433,726; 5429,510;    0,148;    0,500
434,315; 4911,433;    0,148;    2,409
434,905; 4904,217;    0,693;    1,409
435,494; 4837,146;    3,148;    0,955
436,083; 4989,958;    1,420;   -0,955
436,672; 4761,111;    1,148;    0,500
437,261; 4495,919;    0,512;   -1,955
437,850; 4565,745;   -1,125;    0,682
438,439; 4417,176;    2,239;    1,955
439,027; 4280,763;    3,421;    1,773
439,616; 4375,807;    2,239;    1,227
440,205; 4068,768;    0,057;   -2,136
440,794; 3920,196;   -0,306;   -0,045
441,383; 3929,929;    1,603;   -0,591
441,971; 3704,909;   -0,306;    0,591
442,560; 3499,246;    0,603;   -1,773
443,149; 3259,821;    3,060;   -1,318
443,737; 3283,760;    0,968;   -2,318
444,326; 3296,807;    0,331;    0,318
444,915; 3200,995;   -1,851;    0,864
445,503; 3288,302;    0,058;   -0,318
446,092; 3103,707;    7,876;    2,136
446,680; 3201,966;    1,876;    0,318
447,269; 3137,344;   -1,487;   -0,318
447,857; 2883,265;    2,240;   -1,773
448,445; 2849,697;    2,149;    1,318
449,034; 2846,334;    0,876;   -1,136
449,622; 2755,976;    1,240;    3,500
450,210; 2781,379;    3,149;    2,227
450,799; 2779,142;    2,604;   -0,591
451,387; 2523,761;    1,786;   -0,591
451,975; 2377,250;   -1,305;    0,864
452,563; 2493,761;    0,422;    2,318
453,151; 2221,820;   -1,032;   -1,227
453,739; 2130,635;   -1,577;    0,136
454,328; 2245,355;    0,604;   -2,136
454,916; 2015,742;    1,150;   -0,136
455,504; 1964,969;    3,513;    1,227
456,092; 1895,843;    2,150;   -1,591
456,679; 1738,009;    0,604;    0,682
457,267; 2323,112;    3,604;    1,045
457,855; 1838,869;    3,241;    1,409
458,443; 1505,810;   -0,304;    1,682
459,031; 1820,551;    1,332;    2,409
459,619; 1780,180;   -3,577;    2,864
460,206; 1588,440;   -0,759;    2,045
460,794; 1607,908;   -0,668;   -0,227
461,382; 1678,549;    0,878;   -0,864
461,970; 1503,757;    0,605;    1,864
462,557; 1445,324;    0,878;   -0,682
463,145; 1637,145;   -0,304;   -1,682
463,732; 1895,219;    2,514;   -1,045
464,320; 1535,738;    1,514;   -3,045
464,907; 1677,478;    0,423;   -0,773
465,495; 1485,966;    2,696;   -1,227
466,082; 1357,664;    2,060;   -0,045
466,670; 1289,593;    2,605;    1,227
467,257; 1227,827;    0,060;    2,045
467,844; 1383,814;    1,514;    0,045
468,432; 1353,321;   -0,031;    3,500
469,019; 1168,161;    1,606;   -1,773
469,606; 1266,046;    0,969;    3,682
470,193; 1290,290;    2,151;    0,227
470,780; 1209,473;    0,333;    0,864
471,368; 1100,597;   -1,212;   -0,773
471,955; 1196,551;    1,060;   -0,682
472,542; 1052,081;   -0,303;   -1,136
473,129;  849,005;   -0,485;    0,136
473,716;  801,209;    0,060;    0,591
474,303;  838,674;    1,333;   -0,864
474,890;  839,221;    2,333;   -0,500
475,477;  965,801;   -0,576;    0,409
476,064;  764,496;    0,697;   -1,591
476,650;  895,544;    2,152;    0,318
477,237;  755,635;    1,879;    0,955
477,824;  689,243;    3,879;    0,864
478,411;  513,222;    0,606;   -0,318
478,997;  485,614;    0,606;   -0,773
479,584;  368,736;   -0,666;   -0,409
480,171;  693,674;    1,243;   -0,773
480,757;  759,300;   -0,848;    0,773
481,344;  545,834;    0,334;    0,409
481,931;  328,128;   -0,393;    1,045
482,517;  559,772;    0,425;    0,318
483,104;  682,159;    1,334;    2,864
483,690;  460,083;    0,243;    0,045
484,276;  395,138;    0,698;    0,227
484,863;  718,889;    2,152;    1,136
485,449;  456,503;    0,152;    0,318
486,035;  373,101;   -0,666;   -0,136
486,622;  526,902;   -2,393;    0,045
487,208;  385,760;    1,334;    1,500
487,794;  252,799;    0,971;    0,318
488,380;  241,113;    0,698;   -1,409
488,967;  262,496;   -1,120;   -0,409
489,553;  277,627;   -1,029;   -1,409
490,139;  390,878;    0,971;    0,773
490,725;  250,449;    0,789;   -0,227
491,311;  318,937;    1,516;    3,045
491,897;  258,225;   -0,665;    1,500
492,483;  274,753;    0,426;    1,227
493,069;  978,850;    5,426;    0,864
493,655;  543,616;    1,789;    0,682
494,241;  369,468;    1,517;   -0,955
494,826;  430,531;    0,335;   -1,045
495,412;  543,472;    0,335;   -0,682
495,998;  416,098;    0,971;   -0,318
496,584;  541,609;    2,244;    1,045
497,169;  564,361;    2,335;   -0,682
497,755;  482,878;    1,244;    1,227
498,341;  841,537;    2,153;    0,318
498,926; 1083,861;    2,881;    1,955
499,512;  732,572;   -0,028;    2,955
500,097;  767,397;   -0,574;   -0,318
500,683;  872,790;   -0,028;    2,136
501,268;  922,014;    1,881;   -0,955
501,854; 1067,771;   -0,119;    1,227
502,439; 1114,006;   -0,573;   -1,773
503,024; 1370,689;    1,608;    0,500
503,610; 1573,888;    1,335;   -0,682
504,195; 1572,885;    1,245;    1,955
504,780; 1938,307;    2,335;    1,227
505,366; 2264,185;    4,063;    2,864
505,951; 2297,557;   -1,119;    1,045
506,536; 2545,104;    1,427;   -3,682
507,121; 2794,892;    1,699;   -0,318
507,706; 3306,180;   -0,392;    1,045
508,291; 3726,108;   -2,937;    1,136
508,876; 3826,423;   -0,482;    2,591
509,461; 3953,497;    1,427;   -0,773
510,046; 4639,872;   -0,391;    0,318
510,631; 5127,693;   -0,119;   -0,773
511,216; 5309,370;   -0,664;   -0,500
511,801; 6061,633;   -0,755;    2,591
512,386; 6603,612;    0,972;    0,500
512,971; 6968,574;    0,427;    0,955
513,555; 7081,171;    1,154;   -1,500
514,140; 8095,330;    1,336;   -3,136
514,725; 8474,645;    1,791;   -1,136
515,309; 9005,523;    1,064;    0,318
515,894; 8957,850;   -0,300;   -2,227
516,479; 9688,446;    1,973;   -0,955
517,063; 9884,218;    0,882;    1,227
517,648;10402,239;    0,155;   -1,136
518,232;10299,887;   -1,300;   -1,409
518,817;10941,956;    1,337;    1,682
519,401;11438,711;    0,700;    0,591
519,985;11203,488;    2,700;    1,136
520,570;11343,795;   -0,118;   -1,955
521,154;11872,198;    0,064;    0,591
521,738;12245,706;    1,064;    2,409
522,323;13062,077;   -0,390;    1,682
522,907;12967,204;    2,428;   -0,136
523,491;12862,129;    1,155;    0,955
524,075;13023,834;    0,428;    0,591
524,659;13281,142;    0,973;    0,591
525,243;12823,013;    0,883;    0,409
525,827;13171,626;    0,883;   -0,045
526,411;14132,597;    1,155;   -0,136
526,995;14455,889;    0,337;    1,409
527,579;14140,989;    1,974;   -1,045
528,163;14555,740;    0,428;   -1,500
528,747;14553,259;    1,065;   -0,773
529,331;14919,175;    0,883;   -1,409
529,915;15204,600;    2,338;    0,955
530,499;15213,386;    0,247;    1,227
531,082;14931,615;    1,065;    1,591
531,666;14418,996;    0,520;    0,773
532,250;15144,783;    0,428;    2,682
532,833;15530,484;    0,610;    2,773
533,417;15456,345;    1,247;    0,864
534,001;15484,838;    0,429;   -0,318
534,584;16221,887;    1,974;    0,500
535,168;16049,695;    3,247;    1,409
535,751;16168,943;    4,520;    0,045
536,334;15579,443;    4,520;   -0,409
536,918;16246,642;    1,974;    1,591
537,501;16406,532;    1,520;    1,318
538,085;16406,659;    1,702;    1,045
538,668;16573,456;    0,883;    2,409
539,251;16896,343;    3,156;    3,773
539,834;16938,777;    0,156;    0,773
540,418;16844,044;    3,247;    4,318
541,001;17040,698;    2,702;    1,773
541,584;17089,817;    1,429;    2,227
542,167;16743,369;    0,702;    2,955
542,750;16901,720;    0,793;   -0,773
543,333;16454,131;    1,429;    2,136
543,916;17305,868;   -0,298;    2,500
544,499;17950,251;    2,520;    0,227
545,082;17966,689;    0,248;    3,591
545,665;18128,225;   -0,207;    1,500
546,248;18513,767;    0,520;   -0,318
546,830;18147,710;   -1,752;    1,955
547,413;18584,341;    0,157;   -0,773
547,996;19135,740;    0,157;    0,500
548,579;18909,614;   -0,843;    0,955
549,161;18721,233;    0,884;    2,682
549,744;18465,380;    0,612;    0,409
550,326;18997,845;    0,885;   -1,136
550,909;18781,157;    2,339;    0,591
551,492;19205,723;    0,521;    0,227
552,074;18961,322;   -0,024;   -1,318
552,657;19552,386;    2,430;    0,045
553,239;19322,320;   -3,024;   -0,773
553,821;19239,581;   -1,570;    1,045
554,404;18690,076;   -0,024;    1,136
554,986;19115,319;    2,248;    1,045
555,568;19746,709;    0,430;   -0,955
556,151;18913,960;    4,067;   -0,227
556,733;19104,384;   -1,388;   -0,864
557,315;19607,458;    4,703;    0,500
557,897;19420,497;    0,521;   -0,500
558,479;19578,903;    1,703;    1,318
559,061;19695,602;    1,067;   -0,864
559,643;20073,589;   -0,297;    0,045
560,225;20434,238;   -0,388;    2,864
560,807;20448,135;    0,340;    0,318
561,389;19976,588;   -1,206;    2,318
561,971;20731,329;   -0,660;    2,136
562,553;20520,094;    0,613;    1,591
563,135;20662,474;    1,249;    1,136
563,717;20287,346;    3,158;    1,136
564,298;21002,248;    3,976;   -0,045
564,880;20692,983;    0,340;   -1,409
565,462;20865,801;    1,977;    1,318
566,043;22110,754;   -0,933;    2,318
566,625;21603,931;    4,067;    1,227
567,207;21490,751;    0,704;    1,682
567,788;22660,322;   -0,114;    1,500
568,370;23484,964;   -1,841;   -0,500
568,951;23340,599;   -0,569;    0,227
569,533;24259,672;    0,977;   -0,500
570,114;24751,287;   -0,296;    0,682
570,695;25273,670;   -0,478;   -1,318
571,277;25811,277;   -0,205;   -1,682
571,858;26625,621;    2,704;   -1,136
572,439;27603,431;    0,795;   -1,045
573,021;27735,281;    0,432;   -2,773
573,602;28271,942;    1,795;    0,318
574,183;29247,249;   -0,114;    2,227
574,764;29452,020;    2,068;    0,409
575,345;30050,440;    0,250;   -0,136
575,926;30610,403;    2,704;    0,136
576,507;30652,028;    2,704;   -0,227
577,088;31754,723;    1,704;    1,682
577,669;31835,425;    1,704;    1,955
578,250;32664,613;   -0,750;   -1,045
578,831;33280,302;   -0,841;   -2,227
579,412;33572,130;   -1,205;    0,955
579,993;34606,205;    1,432;    0,227
580,573;34944,969;   -0,023;   -0,955
581,154;33862,462;    1,613;   -0,591
581,735;34743,661;    0,341;    0,773
582,315;34191,570;    0,523;    2,136
582,896;34580,656;   -1,750;    1,227
583,477;33996,053;    0,614;    1,227
584,057;34160,718;    1,159;    0,955
584,638;34415,296;   -2,750;    2,318
585,218;34428,799;    2,886;    2,682
585,799;34627,062;    1,977;   -0,227
586,379;34587,723;    1,250;    1,591
586,959;33354,313;    2,613;    0,318
587,540;32619,190;    0,432;    2,227
588,120;32116,912;   -1,113;   -0,045
588,700;30986,916;    2,977;    2,136
589,281;31324,451;    1,250;   -0,955
589,861;31266,423;   -0,296;   -1,682
590,441;31027,188;   -1,477;   -2,682
591,021;29964,109;    1,432;   -2,591
591,601;30200,173;    0,431;    0,500
592,181;30195,730;   -1,296;   -0,773
592,761;29425,316;    2,250;    1,409
593,341;29297,731;    1,522;    0,045
593,921;29283,145;   -0,569;    1,591
594,501;29173,073;    1,250;    1,318
595,081;28998,440;    0,522;   -0,318
595,661;29358,555;    1,068;    0,955
596,240;29891,751;   -1,023;    0,136
596,820;29477,503;    2,613;    1,955
597,400;29716,208;    1,977;    0,773
597,980;29974,014;   -0,750;    1,045
598,559;29985,011;    0,341;   -0,227
599,139;29637,587;   -0,750;   -1,227
599,718;29531,587;    0,795;   -0,409
600,298;29808,588;   -2,387;    0,682
600,877;30008,757;    4,795;    1,409
601,457;30292,328;    0,340;    1,136
602,036;30235,259;    1,795;    2,045
602,616;30469,555;    2,250;    1,682
603,195;30749,777;    0,431;    3,500
603,774;30286,685;   -0,296;    2,045
604,354;30187,300;    2,522;   -0,500
604,933;29645,794;    0,250;    1,864
605,512;29755,283;    2,340;    0,591
606,091;29825,618;    1,886;    3,773
606,671;30642,846;    0,249;    0,773
607,250;29670,311;    1,431;    3,136
607,829;30002,920;    1,158;    3,227
608,408;29828,121;    4,613;    2,591
608,987;28816,598;    2,704;    3,409
609,566;29131,651;    0,341;   -2,500
610,145;29194,950;    2,885;    0,682
610,723;29595,548;    1,613;    6,864
611,302;28802,279;    1,067;    1,682
611,881;28296,684;    5,158;   11,227
612,460;29158,394;    0,795;    3,955
613,039;29584,596;    1,703;    2,045
613,617;28310,518;    0,886;    4,773
614,196;28432,699;    1,613;    1,227
614,775;28796,645;    1,249;    2,409
615,353;28788,374;   -1,660;    0,864
615,932;28453,630;    0,249;    2,409
616,510;29073,640;    0,158;    0,591
617,089;28526,250;    8,794;   17,591
617,667;28316,999;    4,885;    6,136
618,246;28121,697;   -1,115;    1,318
618,824;28254,776;    1,612;   -0,955
619,402;27827,327;    0,431;   -1,773
619,981;28325,987;    1,067;   -1,045
620,559;28193,454;    0,794;    1,682
621,137;27757,271;    3,067;    1,864
621,715;27703,324;    3,703;   -0,682
622,293;27603,052;    1,885;   -0,773
622,871;28130,913;    0,340;    0,500
623,450;27655,794;    0,430;   -0,864
624,028;27579,936;   -0,388;   -0,955
624,606;27165,366;    2,339;    1,682
625,183;27519,080;   -0,661;   -1,136
625,761;27180,711;    1,885;    1,136
626,339;27454,996;    2,339;    2,591
626,917;27803,603;    0,339;   -0,045
627,495;27880,105;    2,794;    1,318
628,073;27340,605;    5,248;    2,864
628,650;27029,242;    3,067;    2,136
629,228;27471,624;    1,248;    4,409
629,806;26829,252;   -0,024;    1,136
630,383;27094,587;    0,066;   -0,318
630,961;26851,739;   -2,206;   -0,955
631,539;26544,454;   -2,479;    0,227
632,116;25761,284;   12,703;   15,409
632,694;26436,961;    4,885;    6,500
633,271;26741,920;    1,975;    2,682
633,848;26652,992;    1,430;    2,045
634,426;26701,927;    1,521;    1,773
635,003;25860,891;   -0,207;   -0,409
635,580;26106,416;    1,884;    3,682
636,158;26669,165;    3,793;    1,227
636,735;26678,315;    3,339;   -0,500
637,312;26859,622;    0,521;   -0,682
637,889;26891,960;    2,248;   -0,682
638,466;26351,658;    0,066;   -0,409
639,043;26371,450;    1,702;   -1,136
639,620;26663,685;    0,611;   -0,955
640,197;26998,789;    1,612;    1,682
640,774;27145,211;    1,430;    1,136
641,351;27585,087;    0,612;    1,136
641,928;27006,600;    2,794;    1,409
642,505;26607,931;    0,794;   -0,500
643,082;26743,989;    1,885;    1,227
643,658;25731,592;    1,157;    1,500
644,235;26541,832;   -2,479;    2,500
644,812;26745,981;    1,794;    0,773
645,388;26506,585;    1,612;    1,409
645,965;26517,370;    1,521;    1,682
646,542;26605,155;    3,430;   -0,227
647,118;26635,668;    3,703;   -0,955
647,695;26943,362;    0,339;    1,136
648,271;26830,966;   -2,115;    0,500
648,848;27125,297;    0,248;    2,227
649,424;26983,718;    0,976;    1,318
650,000;26710,867;   -0,388;   -1,045
650,577;26527,744;    0,158;   -0,955
651,153;27041,620;   -1,115;    0,955
651,729;27944,951;    0,521;    0,864
652,305;28210,100;    1,339;    2,773
652,881;32918,158;   -1,297;    1,136
653,458;40041,307;    0,249;    0,227
654,034;44145,365;    0,703;    1,591
654,610;45751,514;    0,339;    0,773
655,186;47119,299;    1,612;    3,045
655,762;46839,357;   -1,842;    0,409
656,338;46876,961;    0,703;    0,136
656,913;47922,019;   -0,297;    0,409
657,489;47199,441;    0,249;   -0,318
658,065;47186,681;    0,794;   -1,591
658,641;47689,193;    2,158;   -0,864
659,217;46968,615;    2,067;    0,409
659,792;46369,946;   -1,751;   -0,409
660,368;46632,277;   -0,388;   -0,682
660,944;46320,244;    1,794;    1,227
661,519;41617,302;    0,522;    0,409
662,095;35172,360;   -0,206;    0,591
662,670;30299,327;   -0,206;   -0,136
663,246;29064,658;   -0,660;   -0,409
663,821;28282,443;    0,431;    1,682
664,396;27747,683;    0,613;    1,864
664,972;27957,014;   -0,660;   -0,500
665,547;28273,436;    3,794;    0,136
666,122;28327,312;    1,340;    0,318
666,698;28676,734;    2,431;    0,318
667,273;28009,155;    0,885;    0,136
667,848;28804,759;    0,340;    1,500
668,423;28616,635;    1,795;    2,318
668,998;29194,875;    0,976;   -0,682
669,573;29700,388;    2,067;   -1,500
670,148;29538,719;    1,885;   -0,682
670,723;29365,868;   -0,024;    0,318
671,298;29770,471;   -1,296;    1,045
671,873;29877,711;   -0,296;   -0,136
672,448;29816,587;    1,704;    0,136
673,023;30148,282;    0,249;   -0,227
673,597;30469,340;    2,704;    2,318
674,172;30201,852;    2,431;    0,318
674,747;29750,910;   -0,205;   -1,045
675,321;29556,059;   -0,933;    3,318
675,896;29141,118;    2,158;    1,045
676,471;30117,085;    2,522;    1,591
677,045;29872,052;   -0,296;    0,682
677,620;29933,746;    2,158;    1,136
678,194;30228,077;    0,249;    1,136
678,769;29816,317;    0,886;   -0,318
679,343;29974,739;   -0,023;    1,773
679,917;29817,524;    0,340;    1,955
680,492;29985,855;    0,249;    3,227
681,066;30174,277;    0,613;    0,409
681,640;30165,971;    1,795;   -0,318
682,214;31028,847;    2,340;    0,500
682,788;30514,996;    0,613;   -0,773
683,363;30476,509;    1,977;    1,682
683,937;30169,658;    0,886;   -0,318
684,511;31016,262;   -1,023;   -0,591
685,085;30680,320;   -1,478;    0,318
685,659;30397,014;    1,431;    0,864
686,232;30639,709;    1,159;   -0,318
686,806;30384,494;    2,159;    0,409
687,380;31041,370;   -1,932;    0,591
687,954;31262,974;    2,432;    1,136
688,528;30974,668;    2,613;    1,955
689,101;31724,999;    0,432;    1,045
689,675;31293,693;    0,886;   -0,136
690,249;30674,115;    3,432;    0,409
690,822;30988,628;    1,159;    0,318
691,396;31031,777;    2,068;    1,227
691,969;30535,744;    2,523;    0,136
692,543;31009,893;   -0,568;   -1,955
693,116;30635,042;   -0,659;   -1,409
693,690;30465,918;   -0,296;    0,500
694,263;31002,340;    2,341;    2,955
694,836;31082,853;    2,795;    3,591
695,410;29663,001;    1,159;    1,773
695,983;30167,060;    1,614;    0,591
696,556;30081,209;   -0,750;   -1,045
697,129;30516,539;   -1,114;    1,409
697,703;30137,052;    1,341;    1,955
698,276;30192,474;    1,705;   -0,773
698,849;29948,986;   -1,023;    1,409
699,422;30322,226;    1,250;    0,591
699,995;29953,557;   -0,659;    0,136
700,568;30472,070;   -0,204;    3,045
701,140;30516,855;   -1,841;    1,682
701,713;30216,186;    0,341;    2,409
702,286;29947,699;    0,796;    0,864
702,859;29787,302;    0,614;   -0,591
703,432;28982,269;   -0,841;    0,682
704,004;29546,327;    1,978;    0,318
704,577;29381,840;    1,068;    0,136
705,150;29930,534;    0,887;    2,500
705,722;29780,592;    1,523;   -3,227
706,295;29509,923;    1,432;   -0,591
706,867;29321,800;    0,250;    1,955
707,440;29515,494;   -0,113;   -0,409
708,012;29773,279;   -0,022;    0,591
708,584;29717,610;    2,705;    0,227
709,157;30059,214;    1,160;   -0,591
709,729;29645,181;    1,069;    2,045
710,301;30579,966;   -1,204;    0,045
710,874;30580,024;    0,341;   -0,227
711,446;29441,628;   -0,295;    0,864
712,018;29315,504;   -3,022;    0,500
712,590;29018,653;   -0,204;    1,682
713,162;29561,348;   -0,477;    1,318
713,734;29836,406;    1,796;   -2,045
714,306;29687,009;    0,342;   -0,409
714,878;28376,158;   -0,295;    0,864
715,450;29173,034;   -0,113;    0,864
716,022;29441,729;    2,433;    1,318
716,593;29640,969;    0,978;    0,591
717,165;29558,390;    1,796;   -1,227
717,737;29258,267;    0,796;    0,409
718,309;28937,779;    1,160;   -0,045
718,880;28897,837;   -1,295;   -1,409
719,452;29090,805;    0,887;   -1,591
720,024;28676,408;    1,705;   -0,591
720,595;29153,466;    2,978;    0,955
721,167;28726,433;    1,160;   -2,045
721,738;28245,855;    2,069;   -1,045
722,309;28108,368;    1,251;   -1,227
722,881;27933,790;    2,705;    0,773
723,452;28645,029;    1,251;    2,864
724,023;28811,997;    1,524;    2,682
724,595;28584,509;    2,342;    0,682
725,166;28320,295;    1,524;   -0,409
725,737;27917,807;    1,887;    0,227
726,308;28001,502;    0,797;    0,318
726,879;28458,832;    1,069;    1,227
727,450;28353,436;   -2,022;   -0,045
728,021;28311,312;    1,069;    0,682
728,592;28108,189;    1,160;    0,500
729,163;28415,974;    1,433;   -0,136
729,734;28429,759;    2,160;   -0,227
730,305;28820,726;    0,615;    0,136
730,876;29168,512;    0,888;    2,955
731,447;28839,570;    0,797;    2,682
732,017;28949,355;   -0,840;    1,864
732,588;28459,413;   -0,021;    1,227
733,159;28637,471;    3,615;   -1,045
733,729;28452,439;    1,251;    0,409
734,300;27718,406;    0,160;    0,864
734,870;28169,009;   -1,385;    0,591
735,441;28701,795;    0,888;   -0,591
736,011;28411,035;    1,070;   -1,591
736,582;28380,911;    1,251;    0,045
737,152;27815,151;    0,979;   -2,045
737,722;28278,027;    1,070;   -0,682
738,293;27998,358;   -2,021;    1,318
738,863;27917,961;    1,797;    2,318
739,433;27693,019;    4,524;    0,318
740,003;28312,259;    1,524;   -0,682
740,573;27722,045;    2,252;   -1,591
741,143;27662,921;    3,615;    0,318
741,713;28393,888;    0,252;   -0,500
742,283;28082,946;    1,706;    1,591
742,853;27872,004;    0,524;    1,591
743,423;27350,244;    0,161;    0,045
743,993;27462,484;    1,070;    1,500
744,563;26808,542;    2,524;   -0,864
745,133;26768,873;   -0,112;   -0,864
745,702;27503,476;    2,797;    1,773
746,272;26653,080;    0,434;    0,591
746,842;26408,229;   -0,748;   -0,591
747,411;26893,196;   -0,839;   -0,318
747,981;27111,891;   -0,930;    0,500
748,551;27144,312;   -0,021;   -1,045
749,120;26950,098;   -0,112;   -0,227
749,690;27296,156;    2,161;    2,409
750,259;27648,759;    0,979;    2,955
750,828;27531,636;    4,070;   -1,955
751,398;27790,239;   -0,112;   -0,045
751,967;27281,570;    2,888;    0,409
752,536;27479,264;    1,161;   -0,227
753,105;27967,595;   -1,384;    0,227
753,675;27766,744;   -0,112;    1,773
754,244;27727,711;    0,888;    3,591
754,813;27747,224;    0,979;    1,227
755,382;27353,828;    0,798;    0,955
755,951;27857,249;   -0,112;    3,682
756,520;27365,671;    2,525;    1,864
757,089;27988,547;    1,888;    0,500
757,658;28118,333;    2,434;    1,227
758,227;28112,482;   -1,111;    0,318
758,795;28421,085;   -1,021;    1,136
759,364;28678,416;    0,525;   -0,591
759,933;27684,110;    1,343;   -0,045
760,501;27205,441;    0,252;   -1,318
761,070;27645,136;   -0,293;   -1,409
761,639;28418,194;    1,434;    1,318
762,207;27652,434;    0,889;   -0,955
762,776;27589,492;    2,889;    0,864
763,344;27543,913;    0,071;    0,591
763,913;26625,608;    1,616;    1,409
764,481;27402,484;    1,980;   -0,136
765,049;27177,451;    0,616;    1,409
765,618;27041,509;    1,434;    0,318
766,186;27143,477;    2,434;    0,136
766,754;27376,171;    1,798;    1,864
767,322;26332,411;    1,162;    0,409
767,890;26350,105;    0,525;   -1,773
768,459;26764,709;    2,616;   -0,318
769,027;26966,767;    2,525;    3,409
769,595;25967,461;    2,616;    2,591
770,163;26324,247;    3,344;    2,955
770,730;26053,214;    2,525;   -0,136
771,298;25912,181;    1,162;   -1,409
771,866;26015,057;    0,253;    4,955
772,434;26292,570;    1,162;   -1,864
773,002;26448,901;    2,616;    0,682
773,569;26109,504;    1,071;    1,682
774,137;25940,653;    0,889;   -0,045
774,705;26701,984;   -0,747;   -0,136
775,272;26195,133;    0,253;    0,682
775,840;25981,555;   -0,111;    2,682
776,407;25453,249;   -0,293;    1,955
776,975;25064,944;    1,162;    0,318
777,542;26124,820;    2,162;   -0,045
778,110;25947,787;    0,707;   -0,045
778,677;25570,209;    1,071;   -0,864
779,244;25329,631;   -1,020;    1,045
779,812;25491,689;    0,980;    0,864
780,379;25297,292;    2,435;    1,136
780,946;25521,987;    2,617;   -0,773
781,513;25867,408;   -0,565;    0,318
782,080;25235,285;    1,253;    2,864
782,647;25987,070;    1,708;    3,045
783,214;25594,128;   -0,201;    3,864
783,781;25147,459;    1,708;   -0,682
784,348;25028,790;    0,253;    1,500
784,915;25514,030;   -1,474;    0,318
785,482;25208,451;    2,708;    2,591
786,049;25678,782;    1,071;   -0,591
786,615;25802,658;    1,708;   -0,955
787,182;25563,717;   -3,201;   -0,682
787,749;25226,775;   -2,201;    1,409
788,315;24499,651;    0,253;   -0,409
788,882;24817,073;    0,981;   -1,227
789,448;25509,585;    1,435;   -0,955
790,015;25534,916;    1,799;    3,227
790,581;25088,792;    0,708;    0,227
791,148;24961,669;    1,344;    1,045
791,714;25215,909;   -1,019;    3,136
792,280;24883,967;    3,708;    1,591
792,847;24453,388;   -0,928;    2,500
793,413;25027,992;   -0,110;   -0,318
793,979;24520,323;    1,526;   -1,318
794,545;24613,653;    2,981;    2,682
795,111;24027,439;    2,435;    1,318
795,678;24198,951;    3,526;   -1,682
796,244;23866,828;    2,799;    0,136
796,810;24407,522;    0,799;    0,773
797,375;24133,035;   -0,292;   -2,136
797,941;24196,184;   -1,110;    0,591
798,507;24324,151;    0,254;   -0,955
799,073;23832,664;    2,708;    0,591
799,639;23915,358;    1,435;    3,136
800,205;23974,780;   -1,565;    2,682
800,770;23450,292;    1,345;    1,773
801,336;23487,078;    2,981;   -0,955
801,901;23160,863;    6,072;    3,136
802,467;23797,739;    0,526;    2,045
803,033;23090,707;   -0,019;    0,864
803,598;23273,583;    1,072;   -1,045
804,163;23318,914;    0,708;   -0,318
804,729;23261,972;   -0,110;    1,136
805,294;23622,848;    1,072;    2,227
805,859;23459,179;    0,890;   -0,409
806,425;22922,782;    3,890;    2,682
806,990;22576,659;    1,890;    4,318
807,555;23094,717;   -0,110;    2,591
808,120;22989,320;   -1,292;   -0,409
808,685;23011,196;    1,072;   -2,500
809,250;22516,436;    2,072;   -0,500
809,815;22847,585;   -0,201;    0,682
810,380;23382,371;    0,981;    1,591
810,945;23912,065;    2,890;    2,045
811,510;23101,123;   -0,200;    1,591
812,075;22757,000;    2,800;   -1,409
812,640;22845,512;    3,709;    1,409
813,204;22895,752;    2,163;   -0,227
813,769;23406,719;    0,254;   -0,045
814,334;22754,505;    0,527;    0,864
814,898;22835,472;    1,981;    0,591
815,463;22695,530;    0,981;   -0,773
816,027;22676,133;    1,345;   -2,318
816,592;22746,101;    2,163;   -2,045
817,156;22258,068;   -2,200;    1,136
817,721;22054,126;    0,982;    2,318
818,285;22026,729;    0,618;    1,500
818,849;22685,424;   -0,018;    1,682
819,414;22606,664;    0,073;    2,955
819,978;22140,085;   -0,291;    1,773
820,542;22733,053;    2,891;    0,500
821,106;22447,202;    2,800;    0,682
821,670;22518,260;    2,709;    2,591
822,234;22188,772;    1,073;    1,409
822,798;21622,558;   -0,836;    0,500
823,362;21601,343;    1,527;    4,227
823,926;20876,310;   -0,018;    1,136
824,490;21087,641;    3,527;   -0,682
825,054;21575,063;    2,527;   -1,136
825,618;21166,666;   -1,200;   -1,500
826,181;21112,179;    0,982;   -1,318
826,745;21015,873;   -0,745;   -1,045
827,309;21431,841;    2,255;    1,318
827,872;20839,717;    0,527;    0,955
828,436;21839,411;    1,982;   -0,773
828,999;21918,378;    2,436;    1,227
829,563;20673,982;   -0,654;    1,136
830,126;20450,131;   -0,018;   -0,591
830,690;20451,462;    0,709;    2,864
831,253;19944,338;   -0,473;    2,227
831,816;20113,487;   -0,018;    0,500
832,380;20049,181;    1,164;    0,864
832,943;20237,058;    3,073;   -0,500
833,506;19756,479;    0,255;   -1,227
834,069;20584,265;    2,164;   -0,955
834,632;20616,141;   -2,200;    1,318
835,195;20525,108;    1,346;    0,955
835,758;19735,439;    0,709;    1,955
836,321;19505,679;    1,073;   -1,045
836,884;19607,282;   -1,291;   -0,955
837,447;19649,250;    0,528;    1,773
838,010;19942,399;    1,800;    3,227
838,573;20248,911;    0,528;    0,773
839,135;20188,333;   -0,109;   -0,955
839,698;19634,209;    2,528;    0,409
840,261;19129,176;    0,255;   -0,227
840,823;18990,962;   -0,927;    0,864
841,386;19261,474;   -0,018;   -2,409
841,948;19132,169;    0,255;    1,773
842,511;18805,500;    0,255;    1,682
843,073;18991,103;    2,982;    0,227
843,636;18784,525;    0,619;   -0,227
844,198;18717,765;    1,255;    0,591
844,760;18850,550;    0,619;    1,955
845,322;18531,154;    0,164;    1,136
845,885;18901,939;   -0,290;    0,591
846,447;19353,452;    0,710;    0,227
847,009;18930,783;    3,983;   -0,682
847,571;19285,659;    1,346;   -2,045
848,133;19331,262;   -0,199;   -1,864
848,695;19157,775;    2,346;    1,409
849,257;18706,106;    1,346;   -1,682
849,819;18871,527;    2,983;   -0,409
850,381;18933,676;    1,801;   -0,864
850,942;19290,371;    1,892;   -0,591
851,504;19188,065;    0,983;    0,227
852,066;19260,487;    1,619;   -1,591
852,628;18795,363;    0,165;    1,955
853,189;18353,785;    0,256;    2,682
853,751;18490,570;   -0,654;    1,409
854,312;18313,992;    1,256;   -1,682
854,874;18842,414;   -0,108;   -0,773
855,435;19315,927;    0,528;   -1,682
855,997;19442,257;    3,983;   -0,136
856,558;18692,861;    0,801;    1,773
857,119;18863,646;   -0,744;    2,864
857,681;18553,977;   -0,108;    0,318
858,242;18563,853;    1,347;   -2,136
858,803;19032,093;    1,074;   -0,773
859,364;19572,333;    0,892;   -4,773
859,925;18920,391;   -0,290;   -0,955
860,486;18816,358;    0,529;   -0,955
861,047;18526,780;    0,165;   -1,227
861,608;18333,838;    0,165;   -0,773
862,169;18492,260;   -0,562;   -0,045
862,730;18280,682;   -0,290;    1,409
863,291;18500,740;    0,438;   -0,500
863,852;18845,616;   -0,926;    1,955
864,412;18327,219;   -1,835;   -0,864
864,973;16837,641;    1,892;    0,500
865,534;16683,790;    2,074;    0,227
866,094;18233,212;    2,620;    0,227
866,655;17882,906;    4,711;    3,318
867,215;18199,964;    0,074;    0,136
867,776;18007,204;   -1,199;   -0,136
868,336;18056,990;    1,529;    0,136
868,897;17557,957;    3,438;    1,682
869,457;17343,379;    3,256;    0,318
870,017;17572,346;    2,438;   -1,227
870,578;18119,040;    1,893;    0,773
871,138;17709,644;    2,620;   -0,955
871,698;17244,793;   -0,562;   -1,318
872,258;17101,669;    0,711;   -2,864
872,818;17494,000;    2,347;    0,045
873,378;17484,149;   -2,198;    1,045
873,938;17039,752;    4,984;    0,500
874,498;17351,265;    1,256;   -1,955
875,058;17212,323;    4,347;    1,773
875,618;17088,199;    1,438;   -2,682
876,177;17029,166;   -0,471;    0,136
876,737;16635,043;   -0,289;    1,955
877,297;16608,555;    2,711;    1,955
877,856;16622,250;    2,529;    0,318
878,416;16591,035;    2,438;   -0,136
878,976;16802,002;    3,438;    0,409
879,535;17021,333;    4,529;    3,136
880,095;16754,028;    1,347;    0,045
880,654;16856,722;    0,347;    1,318
881,213;16938,962;    2,347;    1,500
881,773;16587,293;    1,984;    2,682
882,332;16946,260;    6,075;    5,136
882,891;16803,773;    0,711;    2,136
883,451;17272,558;   -2,016;    1,682
884,010;16696,707;   -1,107;   -0,409
884,569;16806,492;   -2,289;   -0,045
885,128;16899,732;   -0,743;   -1,864
885,687;16962,336;   -0,743;    0,682
886,246;16669,576;    2,620;    2,136
886,805;16416,270;    1,620;    2,045
887,364;16738,965;    1,166;   -0,500
887,922;17085,114;   -0,016;    0,045
888,481;16622,172;    1,530;    0,591
889,040;16913,866;    3,711;    2,136
889,599;17601,561;    2,166;    1,409
890,157;17672,891;    2,166;    2,409
890,716;17328,858;    2,166;    0,227
891,274;17076,553;    0,075;   -1,136
891,833;17480,156;    1,166;    0,864
892,391;17393,033;    1,802;    0,500
892,950;17489,091;    0,166;   -0,773
893,508;17825,967;    0,984;   -0,409
894,067;17154,480;   -0,379;    0,136
894,625;17102,174;   -1,016;   -1,500
895,183;17317,869;   -0,198;   -0,682
895,741;17250,199;    2,257;   -1,773
896,299;17086,985;    1,621;   -2,409
896,858;17232,406;    1,530;   -1,591
897,416;17352,828;    0,166;   -1,318
897,974;17088,068;   -2,197;    0,318
898,532;17259,217;    6,530;    2,682
899,089;17151,639;    0,621;   -0,682
899,647;17224,788;    0,530;    1,318
900,205;16952,119;    0,257;    1,045
900,763;17125,268;    2,166;    0,227
901,321;17136,689;    3,530;   -1,409
901,878;16560,929;    3,257;   -0,773
902,436;16415,896;    0,257;    1,318
902,994;16816,136;    6,712;    3,682
903,551;16237,649;    1,439;    0,409
904,109;16618,343;    1,530;   -1,409
904,666;16240,129;    1,439;    1,045
905,224;16095,096;    3,894;   -0,409
905,781;15811,063;   -0,470;   -0,318
906,338;15920,394;    0,167;    1,045
906,895;15853,725;    1,894;    2,045
907,453;15732,783;    2,348;    1,136
908,010;15767,750;    3,348;    0,409
908,567;15425,263;   -0,561;    0,591
909,124;14927,321;    2,439;   -1,500
909,681;14974,652;   -1,288;    0,682
910,238;15141,891;   -0,106;   -1,318
910,795;15446,404;   -1,561;   -1,136
911,352;15103,131;   -0,379;   -2,682
911,909;14502,949;    2,803;   -0,864
912,466;15016,040;    1,985;    1,500
913,022;14557,586;   -0,924;    0,500
913,579;14924,131;   -0,470;    2,045
914,136;14600,404;   -2,561;    0,955
914,692;14942,222;    1,530;   -1,227
915,249;14503,677;    0,530;    0,409
915,806;14749,131;    1,803;    1,955
916,362;14417,859;    0,894;    1,864
916,918;13964,949;    2,439;    1,045
917,475;13997,586;    1,621;    0,955
918,031;14092,859;    0,076;   -0,045
918,587;13530,313;    0,621;   -0,318
919,144;13770,495;   -0,379;    0,227
919,700;14091,677;    0,167;    0,773
920,256;13682,131;    0,439;    0,045
920,812;13270,586;    1,439;   -1,045
921,368;13251,859;    1,348;   -1,045
921,924;12931,949;    0,439;   -0,136
922,480;12480,859;    0,076;    1,227
923,036;13128,768;   -0,652;    1,955
923,592;13073,313;    0,621;    0,318
924,148;12967,040;    1,894;   -0,955
924,704;12281,586;    0,258;   -0,409
925,259;12547,677;   -0,561;    0,591
925,815;12306,131;    3,803;    0,500
926,371;11864,040;    3,530;    1,409
926,926;11768,949;    1,621;    0,591
927,482;11345,131;    1,621;    0,773
928,037;11203,313;   -0,833;    2,045
928,593;11531,222;    0,258;    1,045
929,148;11353,677;    1,167;   -1,500
929,704;10894,677;    2,439;   -0,500
930,259;11087,131;    0,894;   -0,136
930,814;10152,586;    1,803;    1,955
931,369; 9861,586;    0,258;   -0,773
931,925; 9751,859;   -1,924;    0,136
932,480; 9620,040;    3,076;   -2,591
933,035; 9501,859;    3,985;   -0,318
933,590; 9262,131;   -1,742;   -1,773
934,145; 8917,313;   -1,288;   -0,318
934,700; 9276,495;    0,348;   -0,591
935,255; 9050,131;    4,803;    0,045
935,809; 8329,949;    6,258;    0,864
936,364; 7471,586;    2,167;   -0,136
936,919; 7429,404;    2,348;   -1,773
937,474; 7347,131;    1,348;    0,136
938,028; 7105,131;    3,076;    1,136
938,583; 6537,859;    6,348;    4,682
939,138; 6871,768;    0,167;    2,136
939,692; 6327,131;   -1,015;   -1,136
940,247; 5981,677;    1,167;   -1,045
940,801; 5533,404;    0,621;    0,227
941,355; 5460,313;    0,439;    2,591
941,910; 5110,040;    0,712;   -2,136
942,464; 5200,404;    2,712;   -0,318
943,018; 4985,040;    3,258;   -0,227
943,572; 4940,949;    2,803;   -0,682
944,126; 4359,859;   -0,924;   -0,409
944,681; 4244,859;    0,712;    0,227
945,235; 4240,949;    2,167;   -0,591
945,789; 4174,859;    1,258;   -1,864
946,342; 4242,313;   -0,561;   -0,591
946,896; 4072,222;    0,348;    0,955
947,450; 3831,677;   -0,561;   -0,227
948,004; 4018,949;    1,076;   -0,045
948,558; 4059,586;    1,258;   -0,864
949,111; 3962,768;   -1,197;   -0,318
949,665; 3989,222;   -0,106;   -0,682
950,219; 3843,040;    0,621;   -1,045
950,772; 3928,768;    0,258;    1,864
951,326; 3839,495;   -1,106;   -0,955
951,879; 3948,131;    1,076;   -2,318
952,433; 3974,677;    1,348;    2,227
952,986; 3801,313;    0,348;    0,682
953,539; 3758,495;    1,530;    0,591
954,093; 3705,222;    0,985;   -1,318
954,646; 3821,949;   -0,288;    1,318
955,199; 3641,040;    1,258;   -0,500
955,752; 3507,404;    1,985;    1,773
956,305; 3467,586;    0,894;    2,955
956,858; 3651,404;    0,621;   -0,318
957,411; 3821,677;    3,621;    2,136
957,964; 3624,404;    2,076;    2,136
958,517; 3626,404;    0,985;    3,136
959,070; 3468,859;   -1,197;    1,955
959,623; 3535,768;    1,076;    1,500
960,176; 3298,949;    0,712;    2,045
960,728; 3272,949;    1,712;    0,773
961,281; 3364,949;    2,258;    0,500
961,834; 3374,859;   -0,833;    0,864
962,386; 3302,859;    1,258;    1,045
962,939; 3205,131;    3,439;   -0,318
963,491; 3362,404;    2,621;    1,136
964,043; 3234,677;    0,076;    2,409
964,596; 3358,677;    1,712;    2,227
965,148; 3205,040;   -0,379;    1,773
965,700; 3131,949;   -0,015;   -0,227
966,253; 3287,040;   -0,833;    0,318
966,805; 3110,495;    1,894;    0,773
967,357; 3155,040;    0,439;   -1,500
967,909; 3119,131;    1,167;   -1,227
968,461; 3234,859;    0,894;    3,136
969,013; 3148,313;   -1,561;   -0,864
969,565; 3216,949;    1,803;   -1,136
970,117; 3288,949;    3,803;    1,045
970,669; 3143,131;    3,258;   -0,136
971,220; 2992,040;    2,167;   -1,500
971,772; 2910,404;    1,348;   -0,318
972,324; 3021,677;   -1,197;   -0,500
972,876; 2990,586;    0,167;   -0,045
973,427; 3109,859;   -1,197;   -1,045
973,979; 3100,949;    0,076;   -2,500
974,530; 3133,313;    0,803;    1,318
975,082; 3128,404;    2,167;    1,682
975,633; 3010,495;    2,894;    1,682
976,184; 3185,131;    2,076;    0,773
976,736; 2983,949;    0,348;    0,227
977,287; 2758,313;    0,258;   -0,500
977,838; 2937,131;   -0,924;   -0,318
978,389; 2986,495;    0,803;   -0,500
978,940; 2870,495;    1,258;   -0,409
979,491; 2876,586;    2,258;   -0,500
980,042; 2837,313;   -0,652;    3,045
980,593; 2893,859;    1,894;    0,227
981,144; 2956,586;    3,530;   -0,500
981,695; 2918,859;   -0,470;    1,500
982,246; 2892,222;   -1,833;    1,045
982,797; 3053,222;   -0,561;    0,682
983,347; 3174,495;    2,167;    0,591
983,898; 3322,495;    4,167;    0,409
984,449; 3141,313;    2,530;    0,773
984,999; 3038,404;    1,894;   -1,136
985,550; 2822,677;    3,167;   -0,318
986,100; 2886,131;    0,712;   -0,318
986,651; 2890,404;    0,258;    0,045
987,201; 2877,131;    0,894;   -0,591
987,751; 2949,586;   -0,288;    2,864
988,302; 2953,040;   -0,379;    1,500
988,852; 2977,586;    1,985;   -1,136
989,402; 3012,131;    0,985;    0,682
989,952; 2919,586;    1,621;    0,864
990,502; 3032,313;    1,076;    0,682
991,052; 2993,131;   -0,106;    0,045
991,602; 2829,495;    1,167;    1,318
992,152; 2851,949;    2,803;    0,682
992,702; 2837,404;    1,167;   -0,045
993,252; 2746,313;    0,076;   -0,500
993,802; 2837,404;    1,167;    1,318
994,352; 3081,859;   -0,742;    1,136
994,901; 3172,586;    1,076;    3,227
995,451; 3076,404;   -1,197;    0,318
996,000; 3169,859;    1,076;    0,318
996,550; 2858,404;    2,894;    0,227
997,100; 2897,586;   -0,561;   -0,045
997,649; 3173,859;   -0,197;    0,955
998,198; 2799,313;   -0,288;   -1,500
998,748; 2979,859;    0,348;   -2,318
999,297; 2895,677;    0,985;   -0,409
999,846; 3006,949;    1,894;   -0,773
1000,395; 3003,404;    1,530;    0,500
1000,945; 2968,131;    1,076;   -0,773
1001,494; 3041,768;    0,167;    0,682
1002,043; 3029,495;    0,712;    0,864
1002,592; 2867,677;    3,439;    1,955
1003,141; 3017,586;    2,439;   -0,682
1003,690; 2857,768;    1,258;    0,500
1004,238; 2939,313;   -0,106;   -0,045
1004,787; 2567,768;   -1,288;    1,227
1005,336; 2802,040;    1,621;    0,682
1005,885; 2953,768;   -0,197;   -2,773
1006,433; 3100,768;   -0,470;    0,955
1006,982; 3161,949;    2,167;    1,682
1007,531; 3082,040;    2,712;   -0,227
1008,079; 3039,040;    0,258;    0,500
1008,627; 3183,313;    1,621;    0,409
1009,176; 2909,040;    0,076;   -1,955
1009,724; 2943,859;   -2,742;    0,864
1010,273; 3021,404;    1,076;    0,500
1010,821; 3150,949;    1,076;    1,409
1011,369; 2870,768;    0,076;    1,318
1011,917; 2823,677;   -0,833;   -0,591
1012,465; 3132,040;    2,530;   -1,591
1013,013; 3244,677;    0,439;   -1,682
1013,561; 3094,131;   -1,288;   -0,773
1014,109; 3149,859;   -0,833;    1,682
1014,657; 3022,495;    1,348;    0,591
1015,205; 3146,495;    0,894;   -0,955
1015,753; 3174,949;    0,258;   -1,409
1016,301; 3204,677;    2,621;    3,045
1016,848; 3213,404;    2,167;    0,409
1017,396; 3248,404;    1,621;    0,045
1017,944; 3402,040;    2,621;    1,864
1018,491; 3134,313;   -0,197;    1,409
1019,039; 3293,859;   -0,652;    0,591
1019,586; 3209,313;    0,076;    1,682
1020,134; 3291,949;    0,712;    1,500
1020,681; 3318,586;    2,894;   -1,136
1021,228; 3335,222;   -0,561;   -2,227
1021,776; 3164,404;   -0,833;   -1,136
1022,323; 3381,586;    0,803;    0,773
1022,870; 3333,131;   -0,470;   -0,045
1023,417; 3230,404;    2,076;    1,864
1023,964; 3354,949;    0,621;    1,227
1024,511; 3197,313;   -0,652;    0,773
1025,058; 3001,949;    0,439;   -0,045
1025,605; 3055,313;   -1,742;    3,136
1026,152; 3265,404;   -0,106;   -0,591
1026,699; 2993,677;    0,167;    1,318
1027,245; 3170,222;    2,439;    0,318
1027,792; 3390,495;    0,712;    1,409
1028,339; 3267,768;    4,076;   -0,045
1028,885; 3110,677;    3,621;   -0,227
1029,432; 3059,586;   -0,106;    0,227
1029,978; 3112,131;    1,348;   -1,591
1030,525; 3008,949;    1,621;    0,409
1031,071; 3268,677;    0,348;    1,136
1031,618; 3370,586;    1,258;    1,682
1032,164; 3156,949;    2,076;    3,045
1032,710; 3192,677;    0,076;   -1,500
1033,256; 3114,040;    0,712;   -0,136
1033,803; 3108,586;   -0,288;    1,500
1034,349; 2860,949;    1,803;    0,136
1034,895; 3009,131;    2,621;   -0,318
1035,441; 2978,949;    0,439;    0,318
1035,987; 2963,859;   -2,288;   -0,682
1036,533; 2970,404;   -0,197;   -0,955
1037,078; 3177,040;    4,712;    1,682
1037,624; 2997,404;    2,439;   -0,955
1038,170; 3037,677;    1,712;   -0,318
1038,716; 2902,949;    2,167;   -0,409
1039,261; 2819,131;    2,167;   -0,773
1039,807; 2769,495;   -0,015;    3,409
1040,352; 2842,404;   -1,288;   -0,318
1040,898; 2868,495;    0,167;   -0,682
1041,443; 2787,949;    0,803;   -2,591
1041,989; 2817,040;    3,621;    1,591
1042,534; 2692,586;    0,985;    2,591
1043,079; 2835,586;    1,985;    0,955
1043,625; 2604,768;    0,258;    0,500
1044,170; 2645,222;    2,439;    1,045
1044,715; 2916,313;    0,167;    0,955
1045,260; 2717,222;   -0,833;   -0,955
1045,805; 2768,495;    0,258;   -0,591
1046,350; 2728,040;    0,530;   -0,409
1046,895; 2688,677;    0,803;    1,591
1047,440; 2613,040;    1,530;    0,409
1047,985; 2519,768;   -1,197;   -0,955
1048,530; 2426,313;    1,348;    1,227
1049,074; 2507,404;    2,803;    0,318
1049,619; 2475,404;   -0,924;    1,955
1050,164; 2291,859;    1,076;    0,227
1050,708; 2340,404;    2,621;    0,045
1051,253; 2683,768;    3,258;   -2,227
1051,797; 2408,131;   -0,197;   -1,318
1052,342; 2402,495;    1,348;    1,045
1052,886; 2403,677;    1,803;   -1,409
1053,430; 2303,313;    2,167;    0,136
1053,975; 2316,677;    0,894;   -0,318
1054,519; 2288,040;    1,803;    3,227
1055,063; 2301,131;    3,621;    1,318
1055,607; 2176,313;    1,348;    0,227
1056,151; 2232,040;    0,530;    1,682
1056,695; 2151,313;   -1,833;   -1,136
1057,239; 2196,222;   -1,197;   -0,682
1057,783; 2194,495;    2,258;   -1,500
1058,327; 2163,131;    3,076;    1,409
1058,871; 2386,768;    3,985;    1,318
1059,415; 2093,222;   -0,561;   -0,045
1059,958; 2332,949;    2,985;    2,591
1060,502; 2063,768;    1,348;   -0,773
1061,046; 1973,131;    1,712;   -0,955
1061,589; 1942,677;    2,803;   -1,136
1062,133; 1819,404;    0,985;    1,864
1062,676; 1778,313;    1,439;    0,864
1063,220; 1777,586;    0,985;    0,500
1063,763; 1791,677;    2,985;    1,136
1064,306; 1875,677;    0,985;    1,864
1064,849; 1765,131;    2,076;    0,591
1065,393; 1765,131;    2,894;   -1,500
1065,936; 1878,040;    2,530;   -0,409
1066,479; 1759,586;    2,621;    1,318
1067,022; 1779,313;    1,894;   -0,227
1067,565; 1689,131;   -1,197;   -1,318
1068,108; 1722,949;    1,258;   -0,591
1068,651; 1695,495;   -2,470;    1,409
1069,194; 1628,586;   -1,106;   -1,682
1069,736; 1618,768;    3,803;    0,955
1070,279; 1604,404;   -1,652;   -0,500
1070,822; 1654,949;    1,530;   -0,318
1071,364; 1720,040;    0,530;    1,318
1071,907; 1548,949;    0,348;    3,227
1072,450; 1466,768;    0,258;   -0,045
1072,992; 1456,222;   -0,561;    3,136
1073,535; 1577,768;    0,167;    2,136
1074,077; 1388,949;    2,985;    2,045
1074,619; 1360,495;    0,985;    0,591
1075,161; 1377,586;   -0,561;    1,500
1075,704; 1558,586;    0,258;    1,227
1076,246; 1370,495;    1,530;    0,682
1076,788; 1291,040;   -1,015;    1,773
1077,330; 1380,222;   -2,106;    2,136
1077,872; 1350,495;   -1,924;    0,955
1078,414; 1555,495;    3,712;    0,773
1078,956; 1282,495;    0,167;   -0,227
1079,498; 1540,495;    0,439;    0,318
1080,040; 1241,040;    0,985;   -1,318
1080,581; 1193,586;    0,621;   -0,318
1081,123; 1140,040;   -0,106;   -0,773
1081,665; 1191,404;    3,803;   -0,955
1082,206; 1460,131;    3,258;   -0,500
1082,748; 1331,768;    3,258;    2,045
1083,289; 1222,131;    0,167;    1,318
1083,831; 1113,677;    0,258;    0,227
1084,372; 1147,222;    0,894;    0,591
1084,913; 1149,677;    3,348;    0,864
1085,455; 1134,586;    1,530;   -2,045
1085,996; 1093,586;    0,530;    0,136
1086,537; 1124,404;    0,985;    0,864
1087,078; 1155,313;    0,439;   -2,136
1087,619; 1190,949;   -1,652;    0,227
1088,160; 1100,222;    1,439;    1,318
1088,701; 1088,677;   -0,742;    0,682
1089,242; 1034,040;   -0,561;   -2,227
1089,783; 1126,949;   -0,561;    1,409
1090,324; 1098,313;   -0,833;    0,682
1090,865;  988,768;   -1,924;   -0,409
1091,405;  965,586;   -0,561;    2,227
1091,946;  977,495;   -0,197;   -0,955
1092,487;  909,313;   -1,288;   -1,409
1093,027; 1065,859;    1,803;   -1,500
1093,568;  923,131;    2,258;    1,227
1094,108;  996,677;    0,621;    1,773
1094,649;  951,222;   -0,470;    0,136
1095,189;  891,040;    1,167;   -0,682
1095,729;  843,768;    0,712;    0,955
1096,269;  851,495;    1,258;   -0,955
1096,810; 1153,495;   -0,197;    0,500
1097,350;  989,677;   -0,561;   -0,773
1097,890;  889,949;    2,985;    1,227
1098,430; 1129,495;    4,985;    2,864
1098,970; 1007,586;    1,894;    1,682
1099,510;  889,313;   -0,833;   -2,318
1100,050;  813,404;    0,258;   -1,591
1100,589;  776,949;    0,076;   -0,318
1101,129;  892,768;    0,894;   -0,955
1101,669; 1024,495;    2,803;    2,136
1102,209;  864,313;    1,530;    2,227
1102,748;  816,040;    3,439;    0,955
1103,288;  801,677;    0,712;   -1,227
1103,827;  816,768;    3,530;   -2,227
1104,367;  719,677;    1,712;   -2,409
1104,906;  686,040;   -1,015;   -1,136
1105,445;  759,586;    0,985;   -1,136
1105,985;  699,495;   -0,652;    1,500
1106,524;  741,495;    1,530;   -0,682
1107,063;  719,495;    1,167;    1,409
1107,602;  693,949;    1,894;   -1,500
1108,141;  612,586;    1,621;    1,500
1108,680;  706,131;    3,985;   -0,591
1109,219;  654,859;    0,167;   -0,500
1109,758;  656,313;    4,167;    0,682
1110,297;  635,859;   -1,106;   -0,682
1110,836;  577,313;    1,439;    0,955
1111,375;  726,677;    0,348;    0,409
1111,913;  741,495;    0,985;    0,773
1112,452;  682,859;    0,894;    0,136
1112,991;  582,040;    1,076;    1,955
1113,529;  535,495;    0,167;   -0,045
1114,068;  591,040;    0,439;    2,955
1114,606;  497,949;   -0,561;   -0,955
1115,144;  655,495;    1,530;    1,045
1115,683;  601,222;    1,985;    0,318
1116,221;  650,586;    2,076;   -0,864
1116,759;  560,495;    1,621;   -0,864
1117,297;  734,131;    1,621;    1,864
1117,836;  555,768;    1,985;   -1,227
1118,374;  563,495;    0,258;   -0,682
1118,912;  510,859;    0,439;    2,682
1119,450;  497,859;    0,985;    0,864
1119,988;  546,040;    3,348;    2,136
1120,525;  996,859;    7,258;    3,318
1121,063;  697,768;    0,530;    1,864
1121,601;  508,313;    1,076;   -1,227
1122,139;  468,131;    1,076;   -2,045
1122,676;  649,313;   -1,652;    2,773
1123,214;  594,586;    0,712;    4,409
1123,751;  417,859;    0,621;    2,227
1124,289;  540,404;    0,894;   -0,409
1124,826;  412,586;   -0,379;    0,227
1125,364;  341,040;    0,712;   -0,955
1125,901;  522,949;    6,258;    1,227
1126,438;  616,040;    3,530;    0,955
1126,975;  365,677;    2,985;   -0,773
1127,513;  425,313;    2,621;    2,136
1128,050;  336,677;   -0,561;   -0,682
1128,587;  429,677;    1,348;   -0,227
1129,124;  472,131;   -0,015;    1,318
1129,661;  350,586;   -1,924;    0,227
1130,198;  510,404;    2,439;    0,773
1130,734;  450,768;   -0,379;    1,409
1131,271;  319,040;   -1,197;    0,864
1131,808;  479,768;    1,621;    3,045
1132,345;  359,404;    4,530;    0,318
1132,881;  242,859;   -0,561;   -1,864
1133,418;  368,586;    0,348;   -1,136
1133,954;  308,677;    0,712;   -2,682
1134,491;  374,040;    1,712;   -0,773
1135,027;  282,495;    2,167;    0,864
1135,564;  368,040;    1,439;    2,955
1136,100;  359,222;   -0,742;    2,136
1136,636;  251,131;   -1,015;   -1,045
1137,172;  328,586;    0,894;   -1,045
1137,708;  263,495;   -1,561;   -1,045
1138,245;  270,131;    0,803;   -1,227
1138,781;  229,040;    1,803;   -3,318
1139,317;  282,859;    1,894;   -1,409
1139,852;  278,768;    3,076;    0,136
1140,388;  389,768;    2,076;   -0,409
1140,924;  272,040;    1,076;   -2,227
1141,460;  219,313;   -0,288;    0,136
1141,996;  156,586;   -0,652;    2,682
1142,531;  196,313;    1,076;    3,318
1143,067;  392,131;    1,167;    1,045
1143,602;  446,859;    3,439;   -0,318
1144,138;  303,131;    0,803;    1,045
1144,673;  178,768;    1,621;    1,409
1145,209;  242,313;    2,894;   -0,318
1145,744;  165,404;    0,803;    0,864
1146,279;  290,949;    1,530;   -0,136
1146,815;  218,222;    1,530;   -2,682
1147,350;  253,768;   -0,924;    0,045
1147,885;  170,586;   -1,924;   -1,318
1148,420;  171,677;    2,439;    0,773
1148,955;  149,859;   -1,470;    1,864
1149,490;  180,586;   -1,106;   -1,591
1150,025;  163,222;   -1,106;   -1,773
1150,560;  269,131;   -0,288;   -0,955
1151,094;  233,131;    0,258;   -0,591
1151,629;  237,040;   -3,742;    0,864
1152,164;  170,313;   -1,288;    1,318
1152,698;  141,040;    1,258;   -0,136
1153,233;  100,859;   -1,379;   -0,682
1153,767;  135,859;   -0,288;   -2,318
1154,302;  182,586;   -0,379;    1,773
1154,836;  192,586;    0,803;   -2,136
1155,371;  228,495;    2,258;    3,682
1155,905;  191,495;    1,985;    1,682
1156,439;  163,586;    0,530;   -0,500
1156,973;  192,949;    0,439;    0,318
1157,507;  138,404;   -1,742;    0,682
1158,042;  157,768;   -0,652;    1,045
1158,576;  191,495;   -0,561;    1,773
1159,110;  183,404;    0,076;    2,409
1159,643;  166,586;   -2,470;   -0,045
1160,177;  109,313;   -2,015;    1,500

