
Integration time [ms]:   0,050
Averaging Nr. [scans]: 11
Smoothing Nr. [pixels]: 0
Data measured with spectrometer [name]: 7318044SP
Wave   ;Sample   ;Dark     ;Reference
[nm]   ;[counts] ;[counts] ;[counts] 

186,757;   -4,027;   38,161;    1,318
187,357;   31,220;   26,706;    0,955
187,958;   14,574;   17,252;   -1,591
188,558;   51,417;   12,979;   -1,227
189,159;   31,509;   10,070;   -4,500
189,759;    6,290;    5,797;   -3,591
190,360;    6,385;    6,797;   -2,136
190,960;   39,047;    5,706;   -4,136
191,560;   54,358;    2,614;   -6,591
192,161;  279,268;    5,885;   -3,500
192,761;  128,303;    5,520;   -3,227
193,361;   78,231;    3,065;   -3,773
193,962;  134,504;    1,612;   -2,682
194,562;   68,217;   -0,114;   -3,955
195,162;  104,370;   -0,567;   -2,227
195,762;  269,545;    2,433;   -0,045
196,362;  210,611;    1,706;   -2,500
196,963;   90,555;    1,706;   -0,864
197,563;  157,604;    1,252;   -0,955
198,163;  106,192;   -0,111;   -0,682
198,763;  130,676;   -0,020;   -0,500
199,363;  230,297;    3,616;   -0,500
199,963;  199,382;    2,162;    0,409
200,563;  173,486;    6,344;   -1,409
201,163;  156,606;    5,435;   -0,227
201,763;  241,760;    1,435;    0,318
202,363;  185,232;    0,980;    1,500
202,963;  296,657;    1,526;    1,045
203,563;  397,538;    0,344;    0,500
204,162;  249,287;    1,889;   -1,864
204,762;  241,796;    2,071;    0,591
205,362;  224,852;    0,708;    1,955
205,962;  313,328;    3,435;    1,955
206,562;  317,380;    1,889;    2,318
207,161;  286,734;    1,708;    0,318
207,761;  446,685;    4,435;    2,409
208,361;  322,298;    1,889;    1,409
208,960;  408,690;    2,889;    1,500
209,560;  497,176;    0,435;    1,591
210,160;  476,008;    5,071;    1,864
210,759;  453,713;    0,708;    1,227
211,359;  444,532;   -0,474;    1,045
211,958;  720,570;    3,526;    2,045
212,558;  804,901;    0,799;    1,864
213,157;  646,336;   -0,929;    1,500
213,757; 1095,292;    5,617;   -0,227
214,356;  799,963;    1,708;   -0,409
214,956; 1143,499;    3,526;    0,409
215,555;  778,865;    0,617;    2,136
216,154;  701,806;   -0,292;   -0,591
216,754;  734,431;    1,253;    0,773
217,353;  877,556;   -0,383;   -1,045
217,952;  745,584;    2,072;    0,318
218,552;  978,863;    0,254;   -0,773
219,151;  868,870;   -1,110;    0,955
219,750;  879,584;    0,890;   -0,227
220,349; 1047,222;   -2,292;    1,045
220,948; 1085,390;    1,163;    1,136
221,548; 1145,012;    0,617;    1,227
222,147; 1269,653;   -1,292;   -0,409
222,746; 1563,919;    1,254;   -0,955
223,345; 1444,582;   -1,019;    0,500
223,944; 1489,264;    1,163;    0,773
224,543; 1677,465;    4,072;   -1,409
225,142; 1789,206;    1,345;    0,136
225,741; 1701,452;    1,163;    1,045
226,340; 1743,966;    1,254;   -0,955
226,939; 2220,187;    2,708;   -0,136
227,538; 2263,559;    1,163;   -0,773
228,137; 2390,020;    0,435;    0,864
228,735; 2588,833;    0,435;    1,227
229,334; 2301,185;   -0,474;   -0,227
229,933; 2711,533;    0,799;    0,591
230,532; 2856,740;   -1,201;   -0,409
231,131; 2912,364;    1,253;    0,318
231,729; 3071,233;    1,163;   -2,318
232,328; 3270,457;    0,435;   -1,500
232,927; 3374,299;    4,526;   -0,500
233,525; 3546,653;    0,981;    0,045
234,124; 3776,890;    1,890;   -1,591
234,723; 3840,388;    1,617;   -1,045
235,321; 4025,444;    1,163;    0,136
235,920; 4302,966;    2,526;   -1,227
236,518; 4598,022;    1,072;    0,318
237,117; 4844,621;    2,890;   -0,227
237,715; 5013,795;    1,163;   -0,500
238,314; 5083,211;    1,708;   -2,318
238,912; 5158,334;    0,526;   -1,409
239,510; 5242,130;    1,162;   -1,227
240,109; 5459,560;   -0,474;    3,773
240,707; 5552,374;   -0,474;    1,227
241,305; 6011,626;   -0,383;    0,136
241,904; 6230,899;   -0,292;   -2,045
242,502; 6206,097;    3,253;   -0,227
243,100; 6165,966;    3,344;   -0,955
243,698; 6436,230;    2,799;    1,682
244,297; 6654,918;   -0,656;    0,682
244,895; 6473,160;   -0,474;   -2,318
245,493; 6830,092;    2,981;   -0,591
246,091; 6916,038;    5,163;   -1,318
246,689; 6908,396;    2,163;    0,591
247,287; 7078,086;   -0,019;   -1,136
247,885; 7480,105;   -1,019;    1,227
248,483; 7617,503;   -0,201;   -0,500
249,081; 7739,177;    0,981;    1,591
249,679; 7927,733;   -1,019;    1,682
250,277; 8254,157;   -2,292;    0,864
250,875; 8203,244;    0,617;   -1,045
251,473; 8292,113;   -0,019;    0,500
252,071; 8496,866;   -0,383;    1,045
252,669; 8657,900;   -1,565;    0,318
253,267; 8942,269;    1,618;    0,773
253,864; 8926,359;    0,617;    0,682
254,462; 8736,361;    1,526;    1,591
255,060; 8758,697;    0,072;    1,318
255,658; 9131,446;   -3,292;   -0,136
256,255; 9607,080;   -0,201;   -2,045
256,853; 9439,378;    2,345;    1,409
257,451; 9455,354;    1,981;    1,864
258,048; 9729,236;    2,072;    1,864
258,646; 9515,083;    0,436;   -1,045
259,243; 9710,560;    2,981;    2,227
259,841; 9762,692;    1,799;    0,318
260,438; 9651,169;    0,254;    0,864
261,036;10477,592;    0,617;    1,409
261,633;10383,911;    1,526;    2,227
262,231;10131,007;   -0,110;   -0,045
262,828;10203,008;   -0,383;    1,136
263,425;10272,952;   -1,928;   -0,591
264,023;10581,334;    1,436;    0,045
264,620;10103,345;    1,526;   -0,318
265,217;10456,088;    2,890;    3,136
265,815;10607,166;    2,527;    2,136
266,412;10331,735;    0,072;    0,136
267,009;10422,439;    0,526;    0,773
267,606;10274,810;    0,345;   -0,955
268,203;10282,283;   -0,383;   -0,591
268,801;10609,109;   -0,474;    0,591
269,398;10909,517;   -0,564;    2,500
269,995;10927,281;    0,890;    1,591
270,592;10672,217;    0,799;   -0,500
271,189;10919,640;    1,981;    0,409
271,786;11087,444;    2,072;    1,227
272,383;10832,330;   -0,383;    0,227
272,980;11059,327;    1,617;    0,318
273,577;11613,151;    2,162;    1,227
274,174;11165,478;    1,435;    2,591
274,771;11131,537;    1,890;   -0,773
275,367;11263,600;    3,253;    1,409
275,964;11224,458;   -0,565;   -0,500
276,561;11381,280;   -2,474;   -1,045
277,158;11674,642;    1,799;   -1,773
277,755;11785,723;   -0,110;    0,409
278,351;11098,168;    0,436;   -1,500
278,948;11425,867;   -0,201;    0,045
279,545;11469,742;    0,527;    2,318
280,141;12145,696;    1,254;   -2,045
280,738;12030,798;    2,435;   -0,136
281,334;12312,790;   -0,383;    0,591
281,931;11648,121;    2,890;   -1,318
282,528;11759,944;    4,072;   -0,500
283,124;12595,089;    3,345;   -0,500
283,721;12498,917;    0,709;    1,409
284,317;12318,464;    0,163;    2,500
284,913;12865,078;   -0,110;    0,591
285,510;13104,623;    2,890;   -0,318
286,106;13153,702;    2,345;   -0,955
286,703;12703,637;    0,072;    1,955
287,299;12949,965;    1,254;   -0,591
287,895;13218,013;    0,890;   -1,045
288,491;13875,245;    0,163;    2,136
289,088;13542,444;    0,163;    2,409
289,684;13606,355;    2,890;    1,500
290,280;13653,679;    1,890;    0,682
290,876;13681,125;    0,163;    5,500
291,472;13600,947;    2,163;    2,227
292,068;13703,894;    1,254;    0,227
292,665;13421,419;   -0,564;    0,773
293,261;12996,197;   -1,292;    2,136
293,857;13391,759;    4,072;    2,136
294,453;13377,437;   -0,928;    0,955
295,049;13242,017;    0,253;    1,955
295,644;13235,866;   -1,292;    0,136
296,240;13168,740;    0,162;   -0,136
296,836;13246,801;   -0,747;    0,318
297,432;13546,825;    2,980;   -0,500
298,028;13570,162;    0,435;    0,773
298,624;13999,818;    0,889;    1,864
299,220;14299,009;    0,435;    0,591
299,815;13907,684;    0,526;   -0,409
300,411;13669,562;    0,435;    1,773
301,007;13733,964;    1,889;    0,227
301,602;13760,053;    2,071;   -2,318
302,198;13895,273;    1,435;   -0,773
302,794;14304,869;    1,526;   -0,500
303,389;14468,795;    1,071;    1,045
303,985;14548,870;    1,253;    1,409
304,580;14476,409;    0,889;    1,591
305,176;14487,076;    0,344;    0,136
305,771;14457,157;   -0,929;   -1,227
306,367;14196,618;    3,071;    0,136
306,962;14603,325;    2,889;    1,500
307,558;14337,898;    2,435;    0,136
308,153;14274,627;   -0,383;   -1,136
308,748;14515,107;    0,162;    1,682
309,344;14496,287;    0,253;   -1,318
309,939;14597,906;    2,071;   -1,318
310,534;14903,051;   -2,020;   -1,682
311,130;14910,449;   -0,656;   -2,500
311,725;14574,402;    0,526;   -0,500
312,320;14903,577;    1,253;    0,045
312,915;14743,511;    2,890;   -1,045
313,510;14810,713;    0,526;   -0,500
314,105;15384,804;   -3,565;    1,409
314,700;14692,666;   -1,656;   -1,045
315,295;14319,864;   -0,020;    0,045
315,890;13838,224;   -0,292;    0,864
316,485;14213,413;    0,253;   -0,318
317,080;14317,609;   -0,929;    1,591
317,675;14887,401;    3,071;   -0,682
318,270;14197,573;    6,889;    3,318
318,865;14222,022;    2,435;    3,045
319,460;14035,748;   -1,565;    0,591
320,055;14313,849;   -2,565;   -1,227
320,650;13965,062;   -1,838;   -0,591
321,244;14028,331;    0,889;   -1,409
321,839;15065,683;    0,980;   -0,227
322,434;14919,032;   -0,111;   -1,591
323,029;14502,541;   -0,474;    1,591
323,623;14366,925;    0,798;    0,773
324,218;14086,230;    2,707;    1,409
324,812;13992,147;    0,889;    1,591
325,407;13789,475;   -0,929;    2,045
326,002;13678,363;    0,526;   -0,409
326,596;14053,650;   -0,656;    1,318
327,191;14281,154;   -0,383;   -1,045
327,785;13815,468;   -0,747;   -0,227
328,379;14088,913;   -0,383;    0,136
328,974;13869,036;    1,798;   -3,955
329,568;14088,094;    2,889;   -2,409
330,163;13878,676;    2,435;    1,045
330,757;14284,580;    0,253;    1,591
331,351;13590,188;   -0,292;    0,682
331,945;13885,591;   -0,383;    1,409
332,540;13400,648;    1,617;   -0,591
333,134;13559,013;    3,344;    0,773
333,728;13837,797;    2,799;    0,318
334,322;14234,934;    0,889;   -0,864
334,916;13483,132;    0,344;    0,955
335,510;13764,663;   -0,111;   -0,136
336,105;14041,517;   -0,929;    1,591
336,699;13701,391;   -1,292;    0,591
337,293;13611,544;    1,071;    0,318
337,887;13807,882;    0,071;    1,955
338,481;13856,947;    2,980;    0,591
339,074;13988,854;    2,071;    2,682
339,668;13822,249;   -0,110;    1,227
340,262;14090,142;    7,708;    3,227
340,856;13580,155;    1,708;   -0,682
341,450;12849,263;    0,708;    1,864
342,044;13794,816;    1,799;    0,136
342,637;13570,924;    1,162;   -2,136
343,231;13394,055;   -1,474;    0,682
343,825;13305,659;   -0,747;   -0,591
344,419;13251,533;   -0,474;    0,500
345,012;12999,970;    2,889;    4,045
345,606;13005,178;   -0,656;    1,591
346,199;12834,411;   -0,111;   -0,227
346,793;12322,988;    2,525;    2,045
347,386;12523,746;    0,889;   -1,136
347,980;12524,772;   -0,838;   -0,045
348,573;12279,925;   -1,748;    0,409
349,167;11869,248;    6,161;    4,773
349,760;12247,019;    2,252;    2,682
350,354;12250,065;    1,616;    1,136
350,947;11935,485;    2,798;    1,682
351,540;11589,961;    0,616;   -1,409
352,134;11536,414;   -1,111;    1,136
352,727;11570,563;   -0,657;    1,136
353,320;11401,020;    2,343;    0,591
353,913;11229,176;   -1,929;    1,864
354,507;11375,930;    0,434;   -1,227
355,100;11424,716;    0,071;    0,864
355,693;10514,512;    4,798;    2,409
356,286;10556,864;    0,980;    2,773
356,879;10959,302;   -0,475;    1,227
357,472;10536,624;    0,980;    1,500
358,065;10738,322;    3,161;    2,500
358,658;10663,842;    0,798;    2,318
359,251;10248,035;    0,252;   -0,591
359,844; 9676,033;    0,343;   -1,136
360,437; 9815,604;    0,252;    0,045
361,030;10140,639;    0,525;   -0,682
361,623; 9670,250;    0,434;    0,318
362,215; 9705,428;    0,979;    2,045
362,808; 9565,916;   -2,293;   -1,682
363,401; 9746,811;    0,798;    0,136
363,994; 9430,547;    3,252;   -1,500
364,586; 9370,783;    0,888;   -1,500
365,179; 9589,626;   -0,203;   -1,136
365,772; 9047,695;   -0,930;    2,045
366,364; 9340,440;    1,524;   -3,227
366,957; 9588,096;    1,342;   -0,045
367,549; 9556,335;   -0,203;   -0,864
368,142; 9177,561;    0,978;   -1,500
368,734; 9391,046;    2,523;   -2,136
369,327; 9363,214;    2,341;   -0,500
369,919; 9251,000;   -1,659;    0,409
370,512; 8987,859;   -1,023;   -0,500
371,104; 8700,900;    2,704;    1,591
371,696; 8890,371;    1,703;   -0,955
372,289; 9019,356;    0,157;    1,136
372,881; 9161,975;    1,156;    1,318
373,473; 9078,555;    4,064;    1,136
374,066; 8892,779;    1,336;    0,500
374,658; 8687,980;    0,879;    1,136
375,250; 9094,332;   -1,668;   -1,409
375,842; 8926,979;   -0,124;   -0,045
376,434; 8768,062;   -2,762;   -0,409
377,026; 9423,145;   -1,855;   -2,500
377,618; 9316,320;    0,779;   -0,682
378,210; 9154,746;    3,141;   -1,955
378,802; 8970,384;    3,412;   -0,591
379,394; 8918,878;    3,411;    0,682
379,986; 9611,761;    1,138;   -0,955
380,578; 9698,030;    1,410;    0,773
381,170; 8899,959;    0,320;    0,045
381,762; 8900,759;   -0,224;    1,409
382,354; 9152,306;   -0,223;   -1,318
382,945; 9243,446;    0,870;    0,318
383,537; 9417,210;    1,144;   -1,955
384,129; 9418,555;    0,963;   -1,136
384,721; 9609,564;    0,418;    0,955
385,312; 9520,265;   -1,399;   -0,955
385,904; 9593,523;   -0,945;    1,591
386,496; 8934,790;    0,691;    1,045
387,087; 9084,909;    0,418;    2,500
387,679; 9156,568;   -0,401;    0,045
388,270; 9277,260;   -2,401;    2,045
388,862; 9411,289;   -0,401;   -0,318
389,453; 9291,416;    1,054;    1,045
390,045; 9570,293;    3,236;   -2,682
390,636; 9522,567;    0,144;   -0,591
391,227; 9386,390;    2,054;   -0,045
391,819; 9486,302;    0,781;    0,773
392,410; 9557,765;    0,600;    0,045
393,001; 9453,460;    1,600;   -1,591
393,593; 9748,302;    0,600;   -0,045
394,184; 9607,380;    0,873;   -0,409
394,775; 9538,418;    1,146;    2,136
395,366; 9731,643;    1,782;    0,773
395,957; 9754,808;   -2,400;    0,136
396,548;10131,406;    1,054;    2,682
397,139;10454,186;    2,236;    0,591
397,730;10125,054;    0,873;    0,955
398,321;10209,277;    0,509;    0,955
398,912;10197,626;   -0,764;    0,136
399,503;10324,556;   -1,945;   -1,409
400,094; 9714,131;   -1,582;    1,682
400,685; 9557,105;    3,600;    0,045
401,276; 9659,970;   -0,400;   -0,955
401,867;10024,075;   -1,127;    0,773
402,458;10115,473;    1,509;   -2,318
403,048;10068,386;    0,146;    0,591
403,639; 9650,397;    1,509;    0,864
404,230; 9845,611;    0,691;    0,318
404,821; 9786,647;   -0,127;    0,045
405,411; 9925,687;   -0,763;   -2,591
406,002; 9464,338;    3,237;   -1,136
406,592; 9289,839;    2,691;    0,045
407,183; 9642,144;    0,328;   -1,500
407,774; 9521,768;    1,419;   -0,136
408,364; 9911,140;    2,600;    0,409
408,954; 9476,805;   -0,036;    1,227
409,545; 9495,789;    1,873;    1,045
410,135; 8984,670;   -1,581;    0,500
410,726; 9171,068;    0,783;    0,318
411,316; 9614,929;    2,237;    0,773
411,906; 9252,173;    0,146;   -0,409
412,497; 8666,638;   -0,490;   -0,045
413,087; 9356,713;    0,783;   -0,227
413,677; 9789,373;   -2,490;    3,864
414,267; 9581,410;   -1,035;    1,409
414,857; 9597,079;    0,419;    4,227
415,448; 9909,954;   -0,763;    0,500
416,038; 9554,832;   -2,945;   -0,591
416,628; 9517,084;    0,965;    0,409
417,218; 8883,219;   -1,762;    3,318
417,808; 9187,525;    0,965;   -0,409
418,398; 9738,835;   -1,035;    2,682
418,988; 9762,649;   -2,217;    0,591
419,578;10049,828;    3,601;    1,409
420,168;10414,275;    0,692;   -0,955
420,757; 9938,078;    0,964;   -1,500
421,347; 9592,770;    1,601;   -0,227
421,937; 9790,876;    3,329;    1,409
422,527; 9682,948;    2,602;   -0,773
423,116; 9505,953;    2,692;   -0,045
423,706; 9933,629;    2,965;    0,318
424,296; 9890,981;    1,601;    0,682
424,885;10306,527;    1,510;   -3,045
425,475;10628,609;    1,147;   -2,864
426,065;10561,994;   -1,489;   -0,318
426,654;10121,920;    0,329;   -0,318
427,244;10239,845;    1,147;    1,409
427,833; 9628,625;    1,056;   -0,500
428,423;10147,555;    0,147;    1,136
429,012;10989,521;    2,420;   -1,136
429,601;10429,085;    2,057;    0,136
430,191;10717,702;    2,511;    4,318
430,780;10281,352;   -1,671;   -0,409
431,369;10202,545;    1,329;   -0,045
431,959;10866,150;    1,693;    0,500
432,548;10654,563;   -1,398;   -0,045
433,137;10811,992;    0,329;   -1,318
433,726;11355,852;    0,148;    0,500
434,315;10676,505;    0,148;    2,409
434,905;10756,939;    0,693;    1,409
435,494;10648,589;    3,148;    0,955
436,083;11182,938;    1,420;   -0,955
436,672;11021,095;    1,148;    0,500
437,261;10532,911;    0,512;   -1,955
437,850;10619,006;   -1,125;    0,682
438,439;10637,723;    2,239;    1,955
439,027;10394,403;    3,421;    1,773
439,616;10800,272;    2,239;    1,227
440,205;10714,136;    0,057;   -2,136
440,794;10799,300;   -0,306;   -0,045
441,383;11059,314;    1,603;   -0,591
441,971;10905,201;   -0,306;    0,591
442,560;10725,547;    0,603;   -1,773
443,149;10526,403;    3,060;   -1,318
443,737;10681,543;    0,968;   -2,318
444,326;10880,109;    0,331;    0,318
444,915;10970,841;   -1,851;    0,864
445,503;11393,781;    0,058;   -0,318
446,092;10628,188;    7,876;    2,136
446,680;11192,907;    1,876;    0,318
447,269;11352,379;   -1,487;   -0,318
447,857;11098,944;    2,240;   -1,773
448,445;11252,287;    2,149;    1,318
449,034;11473,559;    0,876;   -1,136
449,622;11594,655;    1,240;    3,500
450,210;10716,164;    3,149;    2,227
450,799;11298,112;    2,604;   -0,591
451,387;11227,643;    1,786;   -0,591
451,975;10839,855;   -1,305;    0,864
452,563;10928,087;    0,422;    2,318
453,151;11009,792;   -1,032;   -1,227
453,739;10933,531;   -1,577;    0,136
454,328;10757,064;    0,604;   -2,136
454,916;10453,275;    1,150;   -0,136
455,504;10601,315;    3,513;    1,227
456,092;10821,731;    2,150;   -1,591
456,679;10811,897;    0,604;    0,682
457,267;10658,734;    3,604;    1,045
457,855;10895,859;    3,241;    1,409
458,443;10654,718;   -0,304;    1,682
459,031;10762,181;    1,332;    2,409
459,619;11269,805;   -3,577;    2,864
460,206;11438,614;   -0,759;    2,045
460,794;11486,359;   -0,668;   -0,227
461,382;11746,829;    0,878;   -0,864
461,970;11269,947;    0,605;    1,864
462,557;11317,059;    0,878;   -0,682
463,145;11553,148;   -0,304;   -1,682
463,732;11716,506;    2,514;   -1,045
464,320;11628,488;    1,514;   -3,045
464,907;11248,588;    0,423;   -0,773
465,495;11134,274;    2,696;   -1,227
466,082;11256,685;    2,060;   -0,045
466,670;11193,980;    2,605;    1,227
467,257;11630,126;    0,060;    2,045
467,844;11837,480;    1,514;    0,045
468,432;11809,353;   -0,031;    3,500
469,019;11265,293;    1,606;   -1,773
469,606;11765,900;    0,969;    3,682
470,193;11528,066;    2,151;    0,227
470,780;11055,692;    0,333;    0,864
471,368;11444,642;   -1,212;   -0,773
471,955;11214,319;    1,060;   -0,682
472,542;10828,494;   -0,303;   -1,136
473,129;11079,138;   -0,485;    0,136
473,716;10810,886;    0,060;    0,591
474,303;11020,897;    1,333;   -0,864
474,890;11313,642;    2,333;   -0,500
475,477;11304,954;   -0,576;    0,409
476,064;11214,659;    0,697;   -1,591
476,650;11149,607;    2,152;    0,318
477,237;11013,607;    1,879;    0,955
477,824;11167,308;    3,879;    0,864
478,411;11209,014;    0,606;   -0,318
478,997;11425,595;    0,606;   -0,773
479,584;11488,819;   -0,666;   -0,409
480,171;12225,934;    1,243;   -0,773
480,757;11855,570;   -0,848;    0,773
481,344;12176,004;    0,334;    0,409
481,931;11691,508;   -0,393;    1,045
482,517;12703,140;    0,425;    0,318
483,104;13324,150;    1,334;    2,864
483,690;13706,985;    0,243;    0,045
484,276;14087,592;    0,698;    0,227
484,863;13832,794;    2,152;    1,136
485,449;14431,146;    0,152;    0,318
486,035;14462,382;   -0,666;   -0,136
486,622;14935,903;   -2,393;    0,045
487,208;14869,766;    1,334;    1,500
487,794;14715,266;    0,971;    0,318
488,380;14813,037;    0,698;   -1,409
488,967;14878,343;   -1,120;   -0,409
489,553;14952,287;   -1,029;   -1,409
490,139;15117,629;    0,971;    0,773
490,725;14573,021;    0,789;   -0,227
491,311;14089,961;    1,516;    3,045
491,897;13300,523;   -0,665;    1,500
492,483;13077,417;    0,426;    1,227
493,069;12802,331;    5,426;    0,864
493,655;12803,922;    1,789;    0,682
494,241;12760,771;    1,517;   -0,955
494,826;13174,827;    0,335;   -1,045
495,412;12629,404;    0,335;   -0,682
495,998;12790,776;    0,971;   -0,318
496,584;12974,191;    2,244;    1,045
497,169;12961,310;    2,335;   -0,682
497,755;12909,658;    1,244;    1,227
498,341;13502,123;    2,153;    0,318
498,926;13055,542;    2,881;    1,955
499,512;13298,827;   -0,028;    2,955
500,097;13417,367;   -0,574;   -0,318
500,683;13353,301;   -0,028;    2,136
501,268;13753,708;    1,881;   -0,955
501,854;13522,742;   -0,119;    1,227
502,439;13435,442;   -0,573;   -1,773
503,024;13626,118;    1,608;    0,500
503,610;13710,588;    1,335;   -0,682
504,195;13754,771;    1,245;    1,955
504,780;13834,730;    2,335;    1,227
505,366;13679,970;    4,063;    2,864
505,951;13387,183;   -1,119;    1,045
506,536;13406,728;    1,427;   -3,682
507,121;13386,149;    1,699;   -0,318
507,706;13974,529;   -0,392;    1,045
508,291;14395,734;   -2,937;    1,136
508,876;13836,160;   -0,482;    2,591
509,461;13258,044;    1,427;   -0,773
510,046;13724,963;   -0,391;    0,318
510,631;13990,506;   -0,119;   -0,773
511,216;13589,278;   -0,664;   -0,500
511,801;14043,894;   -0,755;    2,591
512,386;14358,882;    0,972;    0,500
512,971;14273,036;    0,427;    0,955
513,555;13791,990;    1,154;   -1,500
514,140;14684,152;    1,336;   -3,136
514,725;14704,296;    1,791;   -1,136
515,309;14810,808;    1,064;    0,318
515,894;14250,134;   -0,300;   -2,227
516,479;14725,189;    1,973;   -0,955
517,063;14560,412;    0,882;    1,227
517,648;14736,889;    0,155;   -1,136
518,232;14312,463;   -1,300;   -1,409
518,817;14666,260;    1,337;    1,682
519,401;14923,377;    0,700;    0,591
519,985;14359,242;    2,700;    1,136
520,570;14238,282;   -0,118;   -1,955
521,154;14584,054;    0,064;    0,591
521,738;14778,390;    1,064;    2,409
522,323;15339,658;   -0,390;    1,682
522,907;15093,614;    2,428;   -0,136
523,491;14802,176;    1,155;    0,955
524,075;14750,973;    0,428;    0,591
524,659;14856,094;    0,973;    0,591
525,243;14260,330;    0,883;    0,409
525,827;14470,219;    0,883;   -0,045
526,411;15441,639;    1,155;   -0,136
526,995;15664,480;    0,337;    1,409
527,579;15241,411;    1,974;   -1,045
528,163;15550,349;    0,428;   -1,500
528,747;15477,867;    1,065;   -0,773
529,331;15794,508;    0,883;   -1,409
529,915;15994,301;    2,338;    0,955
530,499;15971,360;    0,247;    1,227
531,082;15633,127;    1,065;    1,591
531,666;15089,706;    0,520;    0,773
532,250;15817,391;    0,428;    2,682
532,833;16119,374;    0,610;    2,773
533,417;16039,235;    1,247;    0,864
534,001;15996,826;    0,429;   -0,318
534,584;16715,610;    1,974;    0,500
535,168;16552,417;    3,247;    1,409
535,751;16587,289;    4,520;    0,045
536,334;15985,793;    4,520;   -0,409
536,918;16662,627;    1,974;    1,591
537,501;16768,977;    1,520;    1,318
538,085;16722,743;    1,702;    1,045
538,668;16935,540;    0,883;    2,409
539,251;17262,246;    3,156;    3,773
539,834;17283,860;    0,156;    0,773
540,418;17188,683;    3,247;    4,318
541,001;17316,970;    2,702;    1,773
541,584;17318,106;    1,429;    2,227
542,167;17012,828;    0,702;    2,955
542,750;17198,182;    0,793;   -0,773
543,333;16745,968;    1,429;    2,136
543,916;17542,424;   -0,298;    2,500
544,499;18214,629;    2,520;    0,227
545,082;18216,068;    0,248;    3,591
545,665;18354,601;   -0,207;    1,500
546,248;18685,968;    0,520;   -0,318
546,830;18364,544;   -1,752;    1,955
547,413;18777,184;    0,157;   -0,773
547,996;19357,224;    0,157;    0,500
548,579;19122,558;   -0,843;    0,955
549,161;18904,360;    0,884;    2,682
549,744;18728,785;    0,612;    0,409
550,326;19233,523;    0,885;   -1,136
550,909;18968,841;    2,339;    0,591
551,492;19408,854;    0,521;    0,227
552,074;19151,008;   -0,024;   -1,318
552,657;19790,981;    2,430;    0,045
553,239;19491,736;   -3,024;   -0,773
553,821;19401,263;   -1,570;    1,045
554,404;18872,126;   -0,024;    1,136
554,986;19262,555;    2,248;    1,045
555,568;19875,583;    0,430;   -0,955
556,151;19081,834;    4,067;   -0,227
556,733;19303,619;   -1,388;   -0,864
557,315;19805,522;    4,703;    0,500
557,897;19625,650;    0,521;   -0,500
558,479;19742,056;    1,703;    1,318
559,061;19860,040;    1,067;   -0,864
559,643;20184,203;   -0,297;    0,045
560,225;20556,749;   -0,388;    2,864
560,807;20601,476;    0,340;    0,318
561,389;20116,749;   -1,206;    2,318
561,971;20832,413;   -0,660;    2,136
562,553;20643,714;    0,613;    1,591
563,135;20812,638;    1,249;    1,136
563,717;20414,237;    3,158;    1,136
564,298;21152,688;    3,976;   -0,045
564,880;20835,619;    0,340;   -1,409
565,462;21065,165;    1,977;    1,318
566,043;22271,743;   -0,933;    2,318
566,625;21752,101;    4,067;    1,227
567,207;21588,382;    0,704;    1,682
567,788;22840,227;   -0,114;    1,500
568,370;23688,878;   -1,841;   -0,500
568,951;23482,143;   -0,569;    0,227
569,533;24396,592;    0,977;   -0,500
570,114;24897,097;   -0,296;    0,682
570,695;25432,857;   -0,478;   -1,318
571,277;25984,559;   -0,205;   -1,682
571,858;26787,627;    2,704;   -1,136
572,439;27766,797;    0,795;   -1,045
573,021;27958,575;    0,432;   -2,773
573,602;28469,049;    1,795;    0,318
574,183;29428,906;   -0,114;    2,227
574,764;29602,312;    2,068;    0,409
575,345;30197,827;    0,250;   -0,136
575,926;30810,962;    2,704;    0,136
576,507;30818,316;    2,704;   -0,227
577,088;31925,557;    1,704;    1,682
577,669;32007,811;    1,704;    1,955
578,250;32752,906;   -0,750;   -1,045
578,831;33424,516;   -0,841;   -2,227
579,412;33730,426;   -1,205;    0,955
579,993;34728,592;    1,432;    0,227
580,573;35092,175;   -0,023;   -0,955
581,154;33964,212;    1,613;   -0,591
581,735;34881,773;    0,341;    0,773
582,315;34388,864;    0,523;    2,136
582,896;34737,312;   -1,750;    1,227
583,477;34146,080;    0,614;    1,227
584,057;34311,196;    1,159;    0,955
584,638;34599,501;   -2,750;    2,318
585,218;34603,731;    2,886;    2,682
585,799;34768,901;    1,977;   -0,227
586,379;34728,829;    1,250;    1,591
586,959;33486,880;    2,613;    0,318
587,540;32765,130;    0,432;    2,227
588,120;32212,862;   -1,113;   -0,045
588,700;31140,585;    2,977;    2,136
589,281;31479,838;    1,250;   -0,955
589,861;31369,358;   -0,296;   -1,682
590,441;31184,486;   -1,477;   -2,682
591,021;30114,314;    1,432;   -2,591
591,601;30366,459;    0,431;    0,500
592,181;30341,106;   -1,296;   -0,773
592,761;29574,897;    2,250;    1,409
593,341;29525,115;    1,522;    0,045
593,921;29461,343;   -0,569;    1,591
594,501;29303,184;    1,250;    1,318
595,081;29183,273;    0,522;   -0,318
595,661;29579,301;    1,068;    0,955
596,240;30109,310;   -1,023;    0,136
596,820;29653,146;    2,613;    1,955
597,400;29856,771;    1,977;    0,773
597,980;30087,752;   -0,750;    1,045
598,559;30111,391;    0,341;   -0,227
599,139;29835,151;   -0,750;   -1,227
599,718;29752,606;    0,795;   -0,409
600,298;29968,969;   -2,387;    0,682
600,877;30195,678;    4,795;    1,409
601,457;30475,787;    0,340;    1,136
602,036;30362,636;    1,795;    2,045
602,616;30611,019;    2,250;    1,682
603,195;30887,509;    0,431;    3,500
603,774;30374,692;   -0,296;    2,045
604,354;30338,307;    2,522;   -0,500
604,933;29789,897;    0,250;    1,864
605,512;29938,200;    2,340;    0,591
606,091;29979,166;    1,886;    3,773
606,671;30769,852;    0,249;    0,773
607,250;29850,226;    1,431;    3,136
607,829;30092,372;    1,158;    3,227
608,408;29972,577;    4,613;    2,591
608,987;28948,316;    2,704;    3,409
609,566;29233,216;    0,341;   -2,500
610,145;29258,851;    2,885;    0,682
610,723;29760,451;    1,613;    6,864
611,302;28963,266;    1,067;    1,682
611,881;28403,128;    5,158;   11,227
612,460;29279,840;    0,795;    3,955
613,039;29709,126;    1,703;    2,045
613,617;28445,336;    0,886;    4,773
614,196;28570,781;    1,613;    1,227
614,775;28954,174;    1,249;    2,409
615,353;28938,172;   -1,660;    0,864
615,932;28564,702;    0,249;    2,409
616,510;29196,259;    0,158;    0,591
617,089;28697,959;    8,794;   17,591
617,667;28450,162;    4,885;    6,136
618,246;28240,764;   -1,115;    1,318
618,824;28442,845;    1,612;   -0,955
619,402;27927,760;    0,431;   -1,773
619,981;28445,506;    1,067;   -1,045
620,559;28329,334;    0,794;    1,682
621,137;27899,062;    3,067;    1,864
621,715;27828,752;    3,703;   -0,682
622,293;27733,752;    1,885;   -0,773
622,871;28256,976;    0,340;    0,500
623,450;27793,941;    0,430;   -0,864
624,028;27705,906;   -0,388;   -0,955
624,606;27317,605;    2,339;    1,682
625,183;27639,768;   -0,661;   -1,136
625,761;27265,036;    1,885;    1,136
626,339;27587,600;    2,339;    2,591
626,917;27927,284;    0,339;   -0,045
627,495;27983,696;    2,794;    1,318
628,073;27420,191;    5,248;    2,864
628,650;27110,655;    3,067;    2,136
629,228;27599,042;    1,248;    4,409
629,806;26924,938;   -0,024;    1,136
630,383;27151,540;    0,066;   -0,318
630,961;26948,243;   -2,206;   -0,955
631,539;26698,588;   -2,479;    0,227
632,116;25873,970;   12,703;   15,409
632,694;26563,551;    4,885;    6,500
633,271;26828,680;    1,975;    2,682
633,848;26722,484;    1,430;    2,045
634,426;26836,593;    1,521;    1,773
635,003;25866,272;   -0,207;   -0,409
635,580;26214,886;    1,884;    3,682
636,158;26795,372;    3,793;    1,227
636,735;26786,348;    3,339;   -0,500
637,312;26939,298;    0,521;   -0,682
637,889;27014,079;    2,248;   -0,682
638,466;26465,580;    0,066;   -0,409
639,043;26436,271;    1,702;   -1,136
639,620;26815,143;    0,611;   -0,955
640,197;27120,098;    1,612;    1,682
640,774;27285,248;    1,430;    1,136
641,351;27707,034;    0,612;    1,136
641,928;27128,911;    2,794;    1,409
642,505;26755,970;    0,794;   -0,500
643,082;26879,302;    1,885;    1,227
643,658;25843,452;    1,157;    1,500
644,235;26587,147;   -2,479;    2,500
644,812;26867,933;    1,794;    0,773
645,388;26650,174;    1,612;    1,409
645,965;26690,960;    1,521;    1,682
646,542;26793,474;    3,430;   -0,227
647,118;26766,987;    3,703;   -0,955
647,695;27124,774;    0,339;    1,136
648,271;26997,469;   -2,115;    0,500
648,848;27280,164;    0,248;    2,227
649,424;27095,951;    0,976;    1,318
650,000;26841,373;   -0,388;   -1,045
650,577;26666,159;    0,158;   -0,955
651,153;27162,309;   -1,115;    0,955
651,729;28102,459;    0,521;    0,864
652,305;28365,518;    1,339;    2,773
652,881;33072,213;   -1,297;    1,136
653,458;40285,091;    0,249;    0,227
654,034;44349,968;    0,703;    1,591
654,610;45929,027;    0,339;    0,773
655,186;47253,358;    1,612;    3,045
655,762;47019,599;   -1,842;    0,409
656,338;47062,658;    0,703;    0,136
656,913;48116,262;   -0,297;    0,409
657,489;47362,776;    0,249;   -0,318
658,065;47370,017;    0,794;   -1,591
658,641;48015,076;    2,158;   -0,864
659,217;47216,135;    2,067;    0,409
659,792;46524,557;   -1,751;   -0,409
660,368;46834,616;   -0,388;   -0,682
660,944;46521,584;    1,794;    1,227
661,519;41719,734;    0,522;    0,409
662,095;35277,793;   -0,206;    0,591
662,670;30398,670;   -0,206;   -0,136
663,246;29169,547;   -0,660;   -0,409
663,821;28347,970;    0,431;    1,682
664,396;27907,938;    0,613;    1,864
664,972;28153,179;   -0,660;   -0,500
665,547;28449,056;    3,794;    0,136
666,122;28441,660;    1,340;    0,318
666,698;28757,628;    2,431;    0,318
667,273;28091,324;    0,885;    0,136
667,848;28955,655;    0,340;    1,500
668,423;28739,714;    1,795;    2,318
668,998;29294,864;    0,976;   -0,682
669,573;29873,469;    2,067;   -1,500
670,148;29680,073;    1,885;   -0,682
670,723;29445,314;   -0,024;    0,318
671,298;29909,373;   -1,296;    1,045
671,873;29957,795;   -0,296;   -0,136
672,448;29935,764;    1,704;    0,136
673,023;30301,641;    0,249;   -0,227
673,597;30585,154;    2,704;    2,318
674,172;30350,940;    2,431;    0,318
674,747;29855,908;   -0,205;   -1,045
675,321;29705,422;   -0,933;    3,318
675,896;29270,754;    2,158;    1,045
676,471;30273,722;    2,522;    1,591
677,045;30035,508;   -0,296;    0,682
677,620;30038,476;    2,158;    1,136
678,194;30356,535;    0,249;    1,136
678,769;29941,321;    0,886;   -0,318
679,343;30150,471;   -0,023;    1,773
679,917;30032,530;    0,340;    1,955
680,492;30066,862;    0,249;    3,227
681,066;30276,193;    0,613;    0,409
681,640;30252,071;    1,795;   -0,318
682,214;31100,493;    2,340;    0,500
682,788;30636,825;    0,613;   -0,773
683,363;30575,611;    1,977;    1,682
683,937;30288,943;    0,886;   -0,318
684,511;31063,547;   -1,023;   -0,591
685,085;30807,152;   -1,478;    0,318
685,659;30557,938;    1,431;    0,864
686,232;30790,724;    1,159;   -0,318
686,806;30455,419;    2,159;    0,409
687,380;31178,933;   -1,932;    0,591
687,954;31369,446;    2,432;    1,136
688,528;31014,505;    2,613;    1,955
689,101;31853,473;    0,432;    1,045
689,675;31409,805;    0,886;   -0,136
690,249;30765,955;    3,432;    0,409
690,822;31074,650;    1,159;    0,318
691,396;31149,527;    2,068;    1,227
691,969;30673,768;    2,523;    0,136
692,543;31167,827;   -0,568;   -1,955
693,116;30721,250;   -0,659;   -1,409
693,690;30564,218;   -0,296;    0,500
694,263;31171,186;    2,341;    2,955
694,836;31170,063;    2,795;    3,591
695,410;29790,940;    1,159;    1,773
695,983;30315,454;    1,614;    0,591
696,556;30267,513;   -0,750;   -1,045
697,129;30660,844;   -1,114;    1,409
697,703;30254,721;    1,341;    1,955
698,276;30274,417;    1,705;   -0,773
698,849;30025,839;   -1,023;    1,409
699,422;30399,716;    1,250;    0,591
699,995;30082,048;   -0,659;    0,136
700,568;30631,925;   -0,204;    3,045
701,140;30647,530;   -1,841;    1,682
701,713;30377,861;    0,341;    2,409
702,286;30090,648;    0,796;    0,864
702,859;29940,161;    0,614;   -0,591
703,432;29104,675;   -0,841;    0,682
704,004;29616,370;    1,978;    0,318
704,577;29480,247;    1,068;    0,136
705,150;29988,215;    0,887;    2,500
705,722;29840,638;    1,523;   -3,227
706,295;29636,151;    1,432;   -0,591
706,867;29427,847;    0,250;    1,955
707,440;29594,087;   -0,113;   -0,409
708,012;29837,055;   -0,022;    0,591
708,584;29795,569;    2,705;    0,227
709,157;30134,446;    1,160;   -0,591
709,729;29844,869;    1,069;    2,045
710,301;30678,746;   -1,204;    0,045
710,874;30656,350;    0,341;   -0,227
711,446;29537,409;   -0,295;    0,864
712,018;29429,741;   -3,022;    0,500
712,590;29149,982;   -0,204;    1,682
713,162;29707,132;   -0,477;    1,318
713,734;29983,190;    1,796;   -2,045
714,306;29834,159;    0,342;   -0,409
714,878;28481,399;   -0,295;    0,864
715,450;29301,549;   -0,113;    0,864
716,022;29587,245;    2,433;    1,318
716,593;29779,667;    0,978;    0,591
717,165;29682,362;    1,796;   -1,227
717,737;29353,785;    0,796;    0,409
718,309;29021,571;    1,160;   -0,045
718,880;28985,176;   -1,295;   -1,409
719,452;29209,235;    0,887;   -1,591
720,024;28788,112;    1,705;   -0,591
720,595;29357,989;    2,978;    0,955
721,167;28810,230;    1,160;   -2,045
721,738;28336,289;    2,069;   -1,045
722,309;28273,257;    1,251;   -1,227
722,881;28090,952;    2,705;    0,773
723,452;28764,102;    1,251;    2,864
724,023;28899,524;    1,524;    2,682
724,595;28673,856;    2,342;    0,682
725,166;28434,279;    1,524;   -0,409
725,737;28011,792;    1,887;    0,227
726,308;28144,306;    0,797;    0,318
726,879;28573,819;    1,069;    1,227
727,450;28460,060;   -2,022;   -0,045
728,021;28392,755;    1,069;    0,682
728,592;28216,269;    1,160;    0,500
729,163;28526,964;    1,433;   -0,136
729,734;28510,387;    2,160;   -0,227
730,305;28888,719;    0,615;    0,136
730,876;29238,959;    0,888;    2,955
731,447;28930,927;    0,797;    2,682
732,017;29045,168;   -0,840;    1,864
732,588;28570,227;   -0,021;    1,227
733,159;28780,559;    3,615;   -1,045
733,729;28543,527;    1,251;    0,409
734,300;27820,131;    0,160;    0,864
734,870;28259,736;   -1,385;    0,591
735,441;28796,704;    0,888;   -0,591
736,011;28532,672;    1,070;   -1,591
736,582;28507,367;    1,251;    0,045
737,152;27937,608;    0,979;   -2,045
737,722;28395,030;    1,070;   -0,682
738,293;28163,271;   -2,021;    1,318
738,863;28054,239;    1,797;    2,318
739,433;27731,298;    4,524;    0,318
740,003;28479,266;    1,524;   -0,682
740,573;27812,962;    2,252;   -1,591
741,143;27779,839;    3,615;    0,318
741,713;28562,625;    0,252;   -0,500
742,283;28178,775;    1,706;    1,591
742,853;27954,834;    0,524;    1,591
743,423;27434,984;    0,161;    0,045
743,993;27548,679;    1,070;    1,500
744,563;26877,465;    2,524;   -0,864
745,133;26867,979;   -0,112;   -0,864
745,702;27615,856;    2,797;    1,773
746,272;26756,824;    0,434;    0,591
746,842;26541,974;   -0,748;   -0,591
747,411;26982,669;   -0,839;   -0,318
747,981;27158,819;   -0,930;    0,500
748,551;27216,333;   -0,021;   -1,045
749,120;27102,119;   -0,112;   -0,227
749,690;27489,905;    2,161;    2,409
750,259;27744,691;    0,979;    2,955
750,828;27615,750;    4,070;   -1,955
751,398;27906,536;   -0,112;   -0,045
751,967;27339,868;    2,888;    0,409
752,536;27611,109;    1,161;   -0,227
753,105;28052,441;   -1,384;    0,227
753,675;27925,045;   -0,112;    1,773
754,244;27761,558;    0,888;    3,591
754,813;27790,617;    0,979;    1,227
755,382;27425,313;    0,798;    0,955
755,951;27937,644;   -0,112;    3,682
756,520;27468,158;    2,525;    1,864
757,089;28054,399;    1,888;    0,500
757,658;28199,276;    2,434;    1,227
758,227;28215,608;   -1,111;    0,318
758,795;28522,939;   -1,021;    1,136
759,364;28821,726;    0,525;   -0,591
759,933;27801,784;    1,343;   -0,045
760,501;27335,662;    0,252;   -1,318
761,070;27697,539;   -0,293;   -1,409
761,639;28459,598;    1,434;    1,318
762,207;27786,293;    0,889;   -0,955
762,776;27707,170;    2,889;    0,864
763,344;27638,411;    0,071;    0,591
763,913;26746,379;    1,616;    1,409
764,481;27513,983;    1,980;   -0,136
765,049;27337,133;    0,616;    1,409
765,618;27185,283;    1,434;    0,318
766,186;27241,433;    2,434;    0,136
766,754;27423,310;    1,798;    1,864
767,322;26387,642;    1,162;    0,409
767,890;26397,337;    0,525;   -1,773
768,459;26836,851;    2,616;   -0,318
769,027;26990,910;    2,525;    3,409
769,595;25982,514;    2,616;    2,591
770,163;26353,482;    3,344;    2,955
770,730;26089,814;    2,525;   -0,136
771,298;26054,327;    1,162;   -1,409
771,866;26100,386;    0,253;    4,955
772,434;26381,445;    1,162;   -1,864
773,002;26556,959;    2,616;    0,682
773,569;26175,472;    1,071;    1,682
774,137;25991,895;    0,889;   -0,045
774,705;26801,590;   -0,747;   -0,136
775,272;26263,104;    0,253;    0,682
775,840;26068,617;   -0,111;    2,682
776,407;25554,494;   -0,293;    1,955
776,975;25138,644;    1,162;    0,318
777,542;26222,249;    2,162;   -0,045
778,110;26104,853;    0,707;   -0,045
778,677;25744,548;    1,071;   -0,864
779,244;25429,062;   -1,020;    1,045
779,812;25582,303;    0,980;    0,864
780,379;25386,725;    2,435;    1,136
780,946;25637,602;    2,617;   -0,773
781,513;25976,298;   -0,565;    0,318
782,080;25299,902;    1,253;    2,864
782,647;26068,961;    1,708;    3,045
783,214;25701,838;   -0,201;    3,864
783,781;25257,261;    1,708;   -0,682
784,348;25139,047;    0,253;    1,500
784,915;25605,197;   -1,474;    0,318
785,482;25342,619;    2,708;    2,591
786,049;25847,315;    1,071;   -0,591
786,615;25904,101;    1,708;   -0,955
787,182;25656,251;   -3,201;   -0,682
787,749;25339,764;   -2,201;    1,409
788,315;24612,278;    0,253;   -0,409
788,882;24917,428;    0,981;   -1,227
789,448;25582,487;    1,435;   -0,955
790,015;25633,091;    1,799;    3,227
790,581;25202,696;    0,708;    0,227
791,148;25045,936;    1,344;    1,045
791,714;25268,995;   -1,019;    3,136
792,280;24969,782;    3,708;    1,591
792,847;24551,931;   -0,928;    2,500
793,413;25131,990;   -0,110;   -0,318
793,979;24650,868;    1,526;   -1,318
794,545;24706,290;    2,981;    2,682
795,111;24097,531;    2,435;    1,318
795,678;24255,772;    3,526;   -1,682
796,244;23912,740;    2,799;    0,136
796,810;24537,071;    0,799;    0,773
797,375;24237,403;   -0,292;   -2,136
797,941;24260,826;   -1,110;    0,591
798,507;24333,885;    0,254;   -0,955
799,073;23875,671;    2,708;    0,591
799,639;23945,457;    1,435;    3,136
800,205;23986,698;   -1,565;    2,682
800,770;23533,666;    1,345;    1,773
801,336;23571,907;    2,981;   -0,955
801,901;23226,693;    6,072;    3,136
802,467;23848,752;    0,526;    2,045
803,033;23173,629;   -0,019;    0,864
803,598;23347,324;    1,072;   -1,045
804,163;23400,929;    0,708;   -0,318
804,729;23352,988;   -0,110;    1,136
805,294;23727,956;    1,072;    2,227
805,859;23568,106;    0,890;   -0,409
806,425;23019,437;    3,890;    2,682
806,990;22649,769;    1,890;    4,318
807,555;23177,010;   -0,110;    2,591
808,120;23061,342;   -1,292;   -0,409
808,685;23119,219;    1,072;   -2,500
809,250;22596,550;    2,072;   -0,500
809,815;22938,064;   -0,201;    0,682
810,380;23479,214;    0,981;    1,591
810,945;23970,091;    2,890;    2,045
811,510;23172,332;   -0,200;    1,591
812,075;22851,209;    2,800;   -1,409
812,640;22922,268;    3,709;    1,409
813,204;22943,236;    2,163;   -0,227
813,769;23472,477;    0,254;   -0,045
814,334;22835,808;    0,527;    0,864
814,898;22891,231;    1,981;    0,591
815,463;22792,108;    0,981;   -0,773
816,027;22799,622;    1,345;   -2,318
816,592;22824,771;    2,163;   -2,045
817,156;22281,921;   -2,200;    1,136
817,721;22120,889;    0,982;    2,318
818,285;22110,221;    0,618;    1,500
818,849;22775,462;   -0,018;    1,682
819,414;22683,339;    0,073;    2,955
819,978;22213,943;   -0,291;    1,773
820,542;22807,275;    2,891;    0,500
821,106;22548,516;    2,800;    0,682
821,670;22611,848;    2,709;    2,591
822,234;22312,452;    1,073;    1,409
822,798;21711,693;   -0,836;    0,500
823,362;21685,570;    1,527;    4,227
823,926;20990,265;   -0,018;    1,136
824,490;21211,960;    3,527;   -0,682
825,054;21660,656;    2,527;   -1,136
825,618;21253,351;   -1,200;   -1,500
826,181;21236,410;    0,982;   -1,318
826,745;21130,469;   -0,745;   -1,045
827,309;21499,983;    2,255;    1,318
827,872;20891,587;    0,527;    0,955
828,436;21854,737;    1,982;   -0,773
828,999;21929,978;    2,436;    1,227
829,563;20751,582;   -0,654;    1,136
830,126;20538,096;   -0,018;   -0,591
830,690;20530,155;    0,709;    2,864
831,253;20052,395;   -0,473;    2,227
831,816;20235,454;   -0,018;    0,500
832,380;20126,331;    1,164;    0,864
832,943;20316,118;    3,073;   -0,500
833,506;19856,177;    0,255;   -1,227
834,069;20690,690;    2,164;   -0,955
834,632;20711,749;   -2,200;    1,318
835,195;20604,899;    1,346;    0,955
835,758;19829,594;    0,709;    1,955
836,321;19625,562;    1,073;   -1,045
836,884;19712,439;   -1,291;   -0,955
837,447;19758,135;    0,528;    1,773
838,010;20032,012;    1,800;    3,227
838,573;20333,435;    0,528;    0,773
839,135;20239,857;   -0,109;   -0,955
839,698;19678,462;    2,528;    0,409
840,261;19162,339;    0,255;   -0,227
840,823;19042,943;   -0,927;    0,864
841,386;19318,184;   -0,018;   -2,409
841,948;19185,606;    0,255;    1,773
842,511;18924,393;    0,255;    1,682
843,073;19065,088;    2,982;    0,227
843,636;18870,511;    0,619;   -0,227
844,198;18795,479;    1,255;    0,591
844,760;18925,992;    0,619;    1,955
845,322;18565,597;    0,164;    1,136
845,885;19021,837;   -0,290;    0,591
846,447;19452,260;    0,710;    0,227
847,009;18978,864;    3,983;   -0,682
847,571;19314,651;    1,346;   -2,045
848,133;19435,710;   -0,199;   -1,864
848,695;19247,678;    2,346;    1,409
849,257;18765,555;    1,346;   -1,682
849,819;18965,705;    2,983;   -0,409
850,381;19007,400;    1,801;   -0,864
850,942;19361,913;    1,892;   -0,591
851,504;19245,063;    0,983;    0,227
852,066;19289,213;    1,619;   -1,591
852,628;18867,727;    0,165;    1,955
853,189;18393,695;    0,256;    2,682
853,751;18543,117;   -0,654;    1,409
854,312;18363,994;    1,256;   -1,682
854,874;18905,417;   -0,108;   -0,773
855,435;19366,749;    0,528;   -1,682
855,997;19551,262;    3,983;   -0,136
856,558;18797,321;    0,801;    1,773
857,119;18915,562;   -0,744;    2,864
857,681;18597,712;   -0,108;    0,318
858,242;18558,680;    1,347;   -2,136
858,803;19031,739;    1,074;   -0,773
859,364;19628,980;    0,892;   -4,773
859,925;18967,311;   -0,290;   -0,955
860,486;18859,825;    0,529;   -0,955
861,047;18592,338;    0,165;   -1,227
861,608;18425,579;    0,165;   -0,773
862,169;18558,547;   -0,562;   -0,045
862,730;18346,970;   -0,290;    1,409
863,291;18600,938;    0,438;   -0,500
863,852;18923,179;   -0,926;    1,955
864,412;18373,147;   -1,835;   -0,864
864,973;16882,933;    1,892;    0,500
865,534;16753,356;    2,074;    0,227
866,094;18293,960;    2,620;    0,227
866,655;17930,019;    4,711;    3,318
867,215;18218,987;    0,074;    0,136
867,776;18083,500;   -1,199;   -0,136
868,336;18207,832;    1,529;    0,136
868,897;17610,255;    3,438;    1,682
869,457;17379,768;    3,256;    0,318
870,017;17638,100;    2,438;   -1,227
870,578;18159,159;    1,893;    0,773
871,138;17833,763;    2,620;   -0,955
871,698;17346,550;   -0,562;   -1,318
872,258;17159,518;    0,711;   -2,864
872,818;17571,577;    2,347;    0,045
873,378;17522,454;   -2,198;    1,045
873,938;17094,876;    4,984;    0,500
874,498;17437,390;    1,256;   -1,955
875,058;17316,994;    4,347;    1,773
875,618;17164,053;    1,438;   -2,682
876,177;17089,930;   -0,471;    0,136
876,737;16686,989;   -0,289;    1,955
877,297;16670,412;    2,711;    1,955
877,856;16702,380;    2,529;    0,318
878,416;16630,439;    2,438;   -0,136
878,976;16870,498;    3,438;    0,409
879,535;17090,102;    4,529;    3,136
880,095;16805,888;    1,347;    0,045
880,654;16904,311;    0,347;    1,318
881,213;16994,643;    2,347;    1,500
881,773;16653,338;    1,984;    2,682
882,332;17006,033;    6,075;    5,136
882,891;16870,001;    0,711;    2,136
883,451;17344,060;   -2,016;    1,682
884,010;16789,483;   -1,107;   -0,409
884,569;16876,815;   -2,289;   -0,045
885,128;16979,328;   -0,743;   -1,864
885,687;17013,842;   -0,743;    0,682
886,246;16729,355;    2,620;    2,136
886,805;16489,596;    1,620;    2,045
887,364;16783,746;    1,166;   -0,500
887,922;17181,441;   -0,016;    0,045
888,481;16677,955;    1,530;    0,591
889,040;16977,468;    3,711;    2,136
889,599;17665,073;    2,166;    1,409
890,157;17747,859;    2,166;    2,409
890,716;17403,281;    2,166;    0,227
891,274;17136,068;    0,075;   -1,136
891,833;17583,763;    1,166;    0,864
892,391;17427,277;    1,802;    0,500
892,950;17562,154;    0,166;   -0,773
893,508;17900,576;    0,984;   -0,409
894,067;17244,817;   -0,379;    0,136
894,625;17205,331;   -1,016;   -1,500
895,183;17424,390;   -0,198;   -0,682
895,741;17336,448;    2,257;   -1,773
896,299;17170,962;    1,621;   -2,409
896,858;17327,475;    1,530;   -1,591
897,416;17429,716;    0,166;   -1,318
897,974;17164,957;   -2,197;    0,318
898,532;17343,561;    6,530;    2,682
899,089;17261,893;    0,621;   -0,682
899,647;17290,225;    0,530;    1,318
900,205;17004,829;    0,257;    1,045
900,763;17190,888;    2,166;    0,227
901,321;17177,038;    3,530;   -1,409
901,878;16580,915;    3,257;   -0,773
902,436;16430,611;    0,257;    1,318
902,994;16864,397;    6,712;    3,682
903,551;16330,183;    1,439;    0,409
904,109;16737,515;    1,530;   -1,409
904,666;16338,210;    1,439;    1,045
905,224;16106,269;    3,894;   -0,409
905,781;15871,601;   -0,470;   -0,318
906,338;15974,296;    0,167;    1,045
906,895;15896,173;    1,894;    2,045
907,453;15779,868;    2,348;    1,136
908,010;15788,109;    3,348;    0,409
908,567;15412,441;   -0,561;    0,591
909,124;14969,045;    2,439;   -1,500
909,681;15038,286;   -1,288;    0,682
910,238;15202,527;   -0,106;   -1,318
910,795;15509,677;   -1,561;   -1,136
911,352;15169,768;   -0,379;   -2,682
911,909;14545,313;    2,803;   -0,864
912,466;15030,040;    1,985;    1,500
913,022;14579,768;   -0,924;    0,500
913,579;14985,040;   -0,470;    2,045
914,136;14626,859;   -2,561;    0,955
914,692;14981,859;    1,530;   -1,227
915,249;14554,859;    0,530;    0,409
915,806;14766,040;    1,803;    1,955
916,362;14498,768;    0,894;    1,864
916,918;14025,313;    2,439;    1,045
917,475;14032,040;    1,621;    0,955
918,031;14130,222;    0,076;   -0,045
918,587;13578,040;    0,621;   -0,318
919,144;13845,404;   -0,379;    0,227
919,700;14139,222;    0,167;    0,773
920,256;13709,131;    0,439;    0,045
920,812;13293,677;    1,439;   -1,045
921,368;13297,040;    1,348;   -1,045
921,924;12969,131;    0,439;   -0,136
922,480;12546,131;    0,076;    1,227
923,036;13143,768;   -0,652;    1,955
923,592;13088,859;    0,621;    0,318
924,148;12996,495;    1,894;   -0,955
924,704;12322,768;    0,258;   -0,409
925,259;12603,404;   -0,561;    0,591
925,815;12346,222;    3,803;    0,500
926,371;11907,313;    3,530;    1,409
926,926;11777,677;    1,621;    0,591
927,482;11377,313;    1,621;    0,773
928,037;11250,949;   -0,833;    2,045
928,593;11581,131;    0,258;    1,045
929,148;11392,131;    1,167;   -1,500
929,704;10927,586;    2,439;   -0,500
930,259;11100,495;    0,894;   -0,136
930,814;10148,768;    1,803;    1,955
931,369; 9890,859;    0,258;   -0,773
931,925; 9778,313;   -1,924;    0,136
932,480; 9646,677;    3,076;   -2,591
933,035; 9513,040;    3,985;   -0,318
933,590; 9282,586;   -1,742;   -1,773
934,145; 8955,040;   -1,288;   -0,318
934,700; 9330,949;    0,348;   -0,591
935,255; 9106,586;    4,803;    0,045
935,809; 8347,495;    6,258;    0,864
936,364; 7498,495;    2,167;   -0,136
936,919; 7480,677;    2,348;   -1,773
937,474; 7374,768;    1,348;    0,136
938,028; 7163,313;    3,076;    1,136
938,583; 6574,949;    6,348;    4,682
939,138; 6863,040;    0,167;    2,136
939,692; 6333,222;   -1,015;   -1,136
940,247; 6031,222;    1,167;   -1,045
940,801; 5580,949;    0,621;    0,227
941,355; 5466,586;    0,439;    2,591
941,910; 5129,768;    0,712;   -2,136
942,464; 5221,859;    2,712;   -0,318
943,018; 5001,040;    3,258;   -0,227
943,572; 4944,313;    2,803;   -0,682
944,126; 4375,404;   -0,924;   -0,409
944,681; 4243,495;    0,712;    0,227
945,235; 4233,859;    2,167;   -0,591
945,789; 4184,313;    1,258;   -1,864
946,342; 4263,404;   -0,561;   -0,591
946,896; 4086,495;    0,348;    0,955
947,450; 3863,222;   -0,561;   -0,227
948,004; 4033,586;    1,076;   -0,045
948,558; 4061,768;    1,258;   -0,864
949,111; 3960,131;   -1,197;   -0,318
949,665; 3958,586;   -0,106;   -0,682
950,219; 3833,949;    0,621;   -1,045
950,772; 3943,040;    0,258;    1,864
951,326; 3856,131;   -1,106;   -0,955
951,879; 3958,677;    1,076;   -2,318
952,433; 3967,768;    1,348;    2,227
952,986; 3812,949;    0,348;    0,682
953,539; 3757,495;    1,530;    0,591
954,093; 3709,313;    0,985;   -1,318
954,646; 3817,949;   -0,288;    1,318
955,199; 3646,859;    1,258;   -0,500
955,752; 3527,404;    1,985;    1,773
956,305; 3466,768;    0,894;    2,955
956,858; 3645,859;    0,621;   -0,318
957,411; 3849,768;    3,621;    2,136
957,964; 3661,131;    2,076;    2,136
958,517; 3639,222;    0,985;    3,136
959,070; 3450,495;   -1,197;    1,955
959,623; 3538,131;    1,076;    1,500
960,176; 3331,131;    0,712;    2,045
960,728; 3282,677;    1,712;    0,773
961,281; 3358,404;    2,258;    0,500
961,834; 3388,677;   -0,833;    0,864
962,386; 3303,313;    1,258;    1,045
962,939; 3230,768;    3,439;   -0,318
963,491; 3366,131;    2,621;    1,136
964,043; 3239,040;    0,076;    2,409
964,596; 3379,313;    1,712;    2,227
965,148; 3214,313;   -0,379;    1,773
965,700; 3129,040;   -0,015;   -0,227
966,253; 3293,949;   -0,833;    0,318
966,805; 3131,495;    1,894;    0,773
967,357; 3177,859;    0,439;   -1,500
967,909; 3109,677;    1,167;   -1,227
968,461; 3238,222;    0,894;    3,136
969,013; 3160,313;   -1,561;   -0,864
969,565; 3232,949;    1,803;   -1,136
970,117; 3310,677;    3,803;    1,045
970,669; 3135,586;    3,258;   -0,136
971,220; 3008,949;    2,167;   -1,500
971,772; 2934,859;    1,348;   -0,318
972,324; 3050,859;   -1,197;   -0,500
972,876; 2995,859;    0,167;   -0,045
973,427; 3126,222;   -1,197;   -1,045
973,979; 3113,586;    0,076;   -2,500
974,530; 3147,040;    0,803;    1,318
975,082; 3154,313;    2,167;    1,682
975,633; 3036,313;    2,894;    1,682
976,184; 3189,131;    2,076;    0,773
976,736; 2971,949;    0,348;    0,227
977,287; 2760,313;    0,258;   -0,500
977,838; 2954,131;   -0,924;   -0,318
978,389; 3017,040;    0,803;   -0,500
978,940; 2895,222;    1,258;   -0,409
979,491; 2907,859;    2,258;   -0,500
980,042; 2848,495;   -0,652;    3,045
980,593; 2905,586;    1,894;    0,227
981,144; 2979,768;    3,530;   -0,500
981,695; 2942,859;   -0,470;    1,500
982,246; 2911,949;   -1,833;    1,045
982,797; 3061,040;   -0,561;    0,682
983,347; 3178,677;    2,167;    0,591
983,898; 3338,222;    4,167;    0,409
984,449; 3143,949;    2,530;    0,773
984,999; 3059,313;    1,894;   -1,136
985,550; 2827,859;    3,167;   -0,318
986,100; 2884,586;    0,712;   -0,318
986,651; 2921,313;    0,258;    0,045
987,201; 2894,586;    0,894;   -0,591
987,751; 2976,859;   -0,288;    2,864
988,302; 2950,222;   -0,379;    1,500
988,852; 2969,586;    1,985;   -1,136
989,402; 3007,677;    0,985;    0,682
989,952; 2919,768;    1,621;    0,864
990,502; 3033,313;    1,076;    0,682
991,052; 3012,313;   -0,106;    0,045
991,602; 2869,859;    1,167;    1,318
992,152; 2848,859;    2,803;    0,682
992,702; 2838,313;    1,167;   -0,045
993,252; 2754,131;    0,076;   -0,500
993,802; 2846,768;    1,167;    1,318
994,352; 3108,040;   -0,742;    1,136
994,901; 3196,404;    1,076;    3,227
995,451; 3111,404;   -1,197;    0,318
996,000; 3171,949;    1,076;    0,318
996,550; 2863,859;    2,894;    0,227
997,100; 2896,768;   -0,561;   -0,045
997,649; 3194,495;   -0,197;    0,955
998,198; 2796,586;   -0,288;   -1,500
998,748; 2983,495;    0,348;   -2,318
999,297; 2910,859;    0,985;   -0,409
999,846; 2995,768;    1,894;   -0,773
1000,395; 3038,313;    1,530;    0,500
1000,945; 2980,131;    1,076;   -0,773
1001,494; 3068,404;    0,167;    0,682
1002,043; 3057,949;    0,712;    0,864
1002,592; 2890,131;    3,439;    1,955
1003,141; 3037,040;    2,439;   -0,682
1003,690; 2875,949;    1,258;    0,500
1004,238; 2947,495;   -0,106;   -0,045
1004,787; 2584,859;   -1,288;    1,227
1005,336; 2822,404;    1,621;    0,682
1005,885; 2965,131;   -0,197;   -2,773
1006,433; 3118,404;   -0,470;    0,955
1006,982; 3176,859;    2,167;    1,682
1007,531; 3072,768;    2,712;   -0,227
1008,079; 3023,859;    0,258;    0,500
1008,627; 3195,040;    1,621;    0,409
1009,176; 2909,586;    0,076;   -1,955
1009,724; 2976,768;   -2,742;    0,864
1010,273; 3018,131;    1,076;    0,500
1010,821; 3164,495;    1,076;    1,409
1011,369; 2877,495;    0,076;    1,318
1011,917; 2844,768;   -0,833;   -0,591
1012,465; 3131,313;    2,530;   -1,591
1013,013; 3248,313;    0,439;   -1,682
1013,561; 3122,949;   -1,288;   -0,773
1014,109; 3153,768;   -0,833;    1,682
1014,657; 3031,495;    1,348;    0,591
1015,205; 3148,313;    0,894;   -0,955
1015,753; 3203,859;    0,258;   -1,409
1016,301; 3225,313;    2,621;    3,045
1016,848; 3230,222;    2,167;    0,409
1017,396; 3272,586;    1,621;    0,045
1017,944; 3387,404;    2,621;    1,864
1018,491; 3149,313;   -0,197;    1,409
1019,039; 3310,131;   -0,652;    0,591
1019,586; 3203,131;    0,076;    1,682
1020,134; 3305,040;    0,712;    1,500
1020,681; 3331,677;    2,894;   -1,136
1021,228; 3347,495;   -0,561;   -2,227
1021,776; 3194,040;   -0,833;   -1,136
1022,323; 3408,222;    0,803;    0,773
1022,870; 3339,404;   -0,470;   -0,045
1023,417; 3249,222;    2,076;    1,864
1023,964; 3384,495;    0,621;    1,227
1024,511; 3204,677;   -0,652;    0,773
1025,058; 3005,677;    0,439;   -0,045
1025,605; 3041,222;   -1,742;    3,136
1026,152; 3262,404;   -0,106;   -0,591
1026,699; 3023,131;    0,167;    1,318
1027,245; 3167,768;    2,439;    0,318
1027,792; 3409,222;    0,712;    1,409
1028,339; 3283,768;    4,076;   -0,045
1028,885; 3116,495;    3,621;   -0,227
1029,432; 3051,949;   -0,106;    0,227
1029,978; 3117,495;    1,348;   -1,591
1030,525; 3015,859;    1,621;    0,409
1031,071; 3286,677;    0,348;    1,136
1031,618; 3382,949;    1,258;    1,682
1032,164; 3157,949;    2,076;    3,045
1032,710; 3201,313;    0,076;   -1,500
1033,256; 3123,222;    0,712;   -0,136
1033,803; 3115,859;   -0,288;    1,500
1034,349; 2840,586;    1,803;    0,136
1034,895; 2994,768;    2,621;   -0,318
1035,441; 2979,768;    0,439;    0,318
1035,987; 2986,949;   -2,288;   -0,682
1036,533; 2959,495;   -0,197;   -0,955
1037,078; 3175,131;    4,712;    1,682
1037,624; 2995,313;    2,439;   -0,955
1038,170; 3021,313;    1,712;   -0,318
1038,716; 2914,404;    2,167;   -0,409
1039,261; 2853,586;    2,167;   -0,773
1039,807; 2782,768;   -0,015;    3,409
1040,352; 2850,495;   -1,288;   -0,318
1040,898; 2896,404;    0,167;   -0,682
1041,443; 2804,768;    0,803;   -2,591
1041,989; 2818,313;    3,621;    1,591
1042,534; 2700,768;    0,985;    2,591
1043,079; 2837,495;    1,985;    0,955
1043,625; 2619,404;    0,258;    0,500
1044,170; 2649,131;    2,439;    1,045
1044,715; 2921,040;    0,167;    0,955
1045,260; 2728,313;   -0,833;   -0,955
1045,805; 2764,949;    0,258;   -0,591
1046,350; 2724,586;    0,530;   -0,409
1046,895; 2681,040;    0,803;    1,591
1047,440; 2631,677;    1,530;    0,409
1047,985; 2529,677;   -1,197;   -0,955
1048,530; 2436,404;    1,348;    1,227
1049,074; 2518,949;    2,803;    0,318
1049,619; 2493,495;   -0,924;    1,955
1050,164; 2299,859;    1,076;    0,227
1050,708; 2347,859;    2,621;    0,045
1051,253; 2697,313;    3,258;   -2,227
1051,797; 2425,495;   -0,197;   -1,318
1052,342; 2436,040;    1,348;    1,045
1052,886; 2420,131;    1,803;   -1,409
1053,430; 2301,859;    2,167;    0,136
1053,975; 2329,949;    0,894;   -0,318
1054,519; 2317,131;    1,803;    3,227
1055,063; 2307,677;    3,621;    1,318
1055,607; 2193,495;    1,348;    0,227
1056,151; 2233,495;    0,530;    1,682
1056,695; 2145,131;   -1,833;   -1,136
1057,239; 2211,495;   -1,197;   -0,682
1057,783; 2205,313;    2,258;   -1,500
1058,327; 2169,859;    3,076;    1,409
1058,871; 2377,859;    3,985;    1,318
1059,415; 2085,586;   -0,561;   -0,045
1059,958; 2339,586;    2,985;    2,591
1060,502; 2090,586;    1,348;   -0,773
1061,046; 1990,677;    1,712;   -0,955
1061,589; 1964,586;    2,803;   -1,136
1062,133; 1859,131;    0,985;    1,864
1062,676; 1779,222;    1,439;    0,864
1063,220; 1778,495;    0,985;    0,500
1063,763; 1800,131;    2,985;    1,136
1064,306; 1861,677;    0,985;    1,864
1064,849; 1770,404;    2,076;    0,591
1065,393; 1778,859;    2,894;   -1,500
1065,936; 1893,495;    2,530;   -0,409
1066,479; 1782,404;    2,621;    1,318
1067,022; 1802,949;    1,894;   -0,227
1067,565; 1695,404;   -1,197;   -1,318
1068,108; 1718,040;    1,258;   -0,591
1068,651; 1707,495;   -2,470;    1,409
1069,194; 1637,768;   -1,106;   -1,682
1069,736; 1615,222;    3,803;    0,955
1070,279; 1619,040;   -1,652;   -0,500
1070,822; 1669,495;    1,530;   -0,318
1071,364; 1730,949;    0,530;    1,318
1071,907; 1555,495;    0,348;    3,227
1072,450; 1475,131;    0,258;   -0,045
1072,992; 1470,313;   -0,561;    3,136
1073,535; 1599,495;    0,167;    2,136
1074,077; 1398,313;    2,985;    2,045
1074,619; 1371,222;    0,985;    0,591
1075,161; 1392,677;   -0,561;    1,500
1075,704; 1571,495;    0,258;    1,227
1076,246; 1382,859;    1,530;    0,682
1076,788; 1299,768;   -1,015;    1,773
1077,330; 1384,677;   -2,106;    2,136
1077,872; 1346,859;   -1,924;    0,955
1078,414; 1560,131;    3,712;    0,773
1078,956; 1302,313;    0,167;   -0,227
1079,498; 1537,677;    0,439;    0,318
1080,040; 1244,768;    0,985;   -1,318
1080,581; 1199,495;    0,621;   -0,318
1081,123; 1128,677;   -0,106;   -0,773
1081,665; 1174,040;    3,803;   -0,955
1082,206; 1456,677;    3,258;   -0,500
1082,748; 1344,404;    3,258;    2,045
1083,289; 1226,040;    0,167;    1,318
1083,831; 1130,040;    0,258;    0,227
1084,372; 1154,404;    0,894;    0,591
1084,913; 1148,949;    3,348;    0,864
1085,455; 1137,222;    1,530;   -2,045
1085,996; 1096,222;    0,530;    0,136
1086,537; 1122,586;    0,985;    0,864
1087,078; 1148,313;    0,439;   -2,136
1087,619; 1184,313;   -1,652;    0,227
1088,160; 1106,949;    1,439;    1,318
1088,701; 1103,768;   -0,742;    0,682
1089,242; 1041,313;   -0,561;   -2,227
1089,783; 1129,949;   -0,561;    1,409
1090,324; 1091,040;   -0,833;    0,682
1090,865;  973,495;   -1,924;   -0,409
1091,405;  967,768;   -0,561;    2,227
1091,946;  990,313;   -0,197;   -0,955
1092,487;  914,313;   -1,288;   -1,409
1093,027; 1072,768;    1,803;   -1,500
1093,568;  930,404;    2,258;    1,227
1094,108;  997,677;    0,621;    1,773
1094,649;  944,040;   -0,470;    0,136
1095,189;  894,586;    1,167;   -0,682
1095,729;  846,949;    0,712;    0,955
1096,269;  866,040;    1,258;   -0,955
1096,810; 1158,313;   -0,197;    0,500
1097,350;  993,495;   -0,561;   -0,773
1097,890;  894,040;    2,985;    1,227
1098,430; 1137,677;    4,985;    2,864
1098,970; 1018,677;    1,894;    1,682
1099,510;  895,495;   -0,833;   -2,318
1100,050;  819,768;    0,258;   -1,591
1100,589;  785,586;    0,076;   -0,318
1101,129;  901,404;    0,894;   -0,955
1101,669; 1045,859;    2,803;    2,136
1102,209;  865,040;    1,530;    2,227
1102,748;  813,586;    3,439;    0,955
1103,288;  808,677;    0,712;   -1,227
1103,827;  823,495;    3,530;   -2,227
1104,367;  717,404;    1,712;   -2,409
1104,906;  679,040;   -1,015;   -1,136
1105,445;  756,768;    0,985;   -1,136
1105,985;  697,040;   -0,652;    1,500
1106,524;  750,131;    1,530;   -0,682
1107,063;  710,949;    1,167;    1,409
1107,602;  692,859;    1,894;   -1,500
1108,141;  617,040;    1,621;    1,500
1108,680;  713,768;    3,985;   -0,591
1109,219;  660,131;    0,167;   -0,500
1109,758;  661,495;    4,167;    0,682
1110,297;  625,313;   -1,106;   -0,682
1110,836;  578,586;    1,439;    0,955
1111,375;  735,040;    0,348;    0,409
1111,913;  747,222;    0,985;    0,773
1112,452;  692,313;    0,894;    0,136
1112,991;  583,586;    1,076;    1,955
1113,529;  533,313;    0,167;   -0,045
1114,068;  600,495;    0,439;    2,955
1114,606;  500,677;   -0,561;   -0,955
1115,144;  652,677;    1,530;    1,045
1115,683;  603,313;    1,985;    0,318
1116,221;  651,131;    2,076;   -0,864
1116,759;  556,222;    1,621;   -0,864
1117,297;  738,677;    1,621;    1,864
1117,836;  557,949;    1,985;   -1,227
1118,374;  559,040;    0,258;   -0,682
1118,912;  517,677;    0,439;    2,682
1119,450;  504,222;    0,985;    0,864
1119,988;  547,313;    3,348;    2,136
1120,525;  990,586;    7,258;    3,318
1121,063;  690,040;    0,530;    1,864
1121,601;  504,222;    1,076;   -1,227
1122,139;  471,859;    1,076;   -2,045
1122,676;  653,859;   -1,652;    2,773
1123,214;  594,495;    0,712;    4,409
1123,751;  415,131;    0,621;    2,227
1124,289;  536,859;    0,894;   -0,409
1124,826;  411,859;   -0,379;    0,227
1125,364;  341,859;    0,712;   -0,955
1125,901;  516,313;    6,258;    1,227
1126,438;  617,404;    3,530;    0,955
1126,975;  365,313;    2,985;   -0,773
1127,513;  429,404;    2,621;    2,136
1128,050;  344,586;   -0,561;   -0,682
1128,587;  437,859;    1,348;   -0,227
1129,124;  468,040;   -0,015;    1,318
1129,661;  356,949;   -1,924;    0,227
1130,198;  504,768;    2,439;    0,773
1130,734;  456,586;   -0,379;    1,409
1131,271;  321,949;   -1,197;    0,864
1131,808;  474,768;    1,621;    3,045
1132,345;  355,222;    4,530;    0,318
1132,881;  253,313;   -0,561;   -1,864
1133,418;  372,859;    0,348;   -1,136
1133,954;  319,677;    0,712;   -2,682
1134,491;  380,404;    1,712;   -0,773
1135,027;  291,586;    2,167;    0,864
1135,564;  358,495;    1,439;    2,955
1136,100;  343,495;   -0,742;    2,136
1136,636;  254,040;   -1,015;   -1,045
1137,172;  333,404;    0,894;   -1,045
1137,708;  261,949;   -1,561;   -1,045
1138,245;  278,949;    0,803;   -1,227
1138,781;  235,222;    1,803;   -3,318
1139,317;  280,677;    1,894;   -1,409
1139,852;  274,859;    3,076;    0,136
1140,388;  385,040;    2,076;   -0,409
1140,924;  275,859;    1,076;   -2,227
1141,460;  216,040;   -0,288;    0,136
1141,996;  161,040;   -0,652;    2,682
1142,531;  195,586;    1,076;    3,318
1143,067;  404,131;    1,167;    1,045
1143,602;  458,222;    3,439;   -0,318
1144,138;  301,222;    0,803;    1,045
1144,673;  187,131;    1,621;    1,409
1145,209;  248,949;    2,894;   -0,318
1145,744;  172,949;    0,803;    0,864
1146,279;  298,222;    1,530;   -0,136
1146,815;  220,949;    1,530;   -2,682
1147,350;  255,313;   -0,924;    0,045
1147,885;  168,131;   -1,924;   -1,318
1148,420;  171,040;    2,439;    0,773
1148,955;  154,768;   -1,470;    1,864
1149,490;  184,222;   -1,106;   -1,591
1150,025;  163,131;   -1,106;   -1,773
1150,560;  259,313;   -0,288;   -0,955
1151,094;  233,131;    0,258;   -0,591
1151,629;  232,313;   -3,742;    0,864
1152,164;  174,222;   -1,288;    1,318
1152,698;  136,495;    1,258;   -0,136
1153,233;  100,404;   -1,379;   -0,682
1153,767;  138,859;   -0,288;   -2,318
1154,302;  193,404;   -0,379;    1,773
1154,836;  189,222;    0,803;   -2,136
1155,371;  236,677;    2,258;    3,682
1155,905;  195,495;    1,985;    1,682
1156,439;  160,949;    0,530;   -0,500
1156,973;  193,222;    0,439;    0,318
1157,507;  133,859;   -1,742;    0,682
1158,042;  161,131;   -0,652;    1,045
1158,576;  199,313;   -0,561;    1,773
1159,110;  186,859;    0,076;    2,409
1159,643;  159,131;   -2,470;   -0,045
1160,177;  111,040;   -2,015;    1,500

