
Integration time [ms]:   0,050
Averaging Nr. [scans]: 11
Smoothing Nr. [pixels]: 0
Data measured with spectrometer [name]: 7318044SP
Wave   ;Sample   ;Dark     ;Reference
[nm]   ;[counts] ;[counts] ;[counts] 

186,757;   -3,680;   38,161;    1,318
187,357;   30,408;   26,706;    0,955
187,958;   17,432;   17,252;   -1,591
188,558;   58,563;   12,979;   -1,227
189,159;   36,089;   10,070;   -4,500
189,759;    2,766;    5,797;   -3,591
190,360;   -0,274;    6,797;   -2,136
190,960;   47,238;    5,706;   -4,136
191,560;   53,358;    2,614;   -6,591
192,161;  298,626;    5,885;   -3,500
192,761;  136,038;    5,520;   -3,227
193,361;   86,427;    3,065;   -3,773
193,962;  150,738;    1,612;   -2,682
194,562;   72,860;   -0,114;   -3,955
195,162;  108,934;   -0,567;   -2,227
195,762;  268,576;    2,433;   -0,045
196,362;  226,845;    1,706;   -2,500
196,963;   88,679;    1,706;   -0,864
197,563;  164,578;    1,252;   -0,955
198,163;  110,226;   -0,111;   -0,682
198,763;  133,008;   -0,020;   -0,500
199,363;  238,472;    3,616;   -0,500
199,963;  200,494;    2,162;    0,409
200,563;  175,268;    6,344;   -1,409
201,163;  156,906;    5,435;   -0,227
201,763;  256,649;    1,435;    0,318
202,363;  195,112;    0,980;    1,500
202,963;  308,148;    1,526;    1,045
203,563;  426,474;    0,344;    0,500
204,162;  272,443;    1,889;   -1,864
204,762;  255,901;    2,071;    0,591
205,362;  231,795;    0,708;    1,955
205,962;  339,254;    3,435;    1,955
206,562;  334,696;    1,889;    2,318
207,161;  310,848;    1,708;    0,318
207,761;  459,458;    4,435;    2,409
208,361;  333,381;    1,889;    1,409
208,960;  439,237;    2,889;    1,500
209,560;  514,219;    0,435;    1,591
210,160;  500,010;    5,071;    1,864
210,759;  478,624;    0,708;    1,227
211,359;  481,170;   -0,474;    1,045
211,958;  767,691;    3,526;    2,045
212,558;  850,147;    0,799;    1,864
213,157;  675,977;   -0,929;    1,500
213,757; 1167,714;    5,617;   -0,227
214,356;  855,874;    1,708;   -0,409
214,956; 1199,861;    3,526;    0,409
215,555;  831,515;    0,617;    2,136
216,154;  762,823;   -0,292;   -0,591
216,754;  785,157;    1,253;    0,773
217,353;  944,264;   -0,383;   -1,045
217,952;  798,793;    2,072;    0,318
218,552; 1023,717;    0,254;   -0,773
219,151;  954,113;   -1,110;    0,955
219,750;  968,921;    0,890;   -0,227
220,349; 1144,847;   -2,292;    1,045
220,948; 1169,783;    1,163;    1,136
221,548; 1258,446;    0,617;    1,227
222,147; 1380,861;   -1,292;   -0,409
222,746; 1681,920;    1,254;   -0,955
223,345; 1575,722;   -1,019;    0,500
223,944; 1613,949;    1,163;    0,773
224,543; 1826,755;    4,072;   -1,409
225,142; 1933,166;    1,345;    0,136
225,741; 1870,018;    1,163;    1,045
226,340; 1911,401;    1,254;   -0,955
226,939; 2418,195;    2,708;   -0,136
227,538; 2503,100;    1,163;   -0,773
228,137; 2622,040;    0,435;    0,864
228,735; 2882,207;    0,435;    1,227
229,334; 2570,723;   -0,474;   -0,227
229,933; 2959,551;    0,799;    0,591
230,532; 3133,645;   -1,201;   -0,409
231,131; 3191,015;    1,253;    0,318
231,729; 3416,476;    1,163;   -2,318
232,328; 3629,305;    0,435;   -1,500
232,927; 3793,981;    4,526;   -0,500
233,525; 3958,915;    0,981;    0,045
234,124; 4194,700;    1,890;   -1,591
234,723; 4284,910;    1,617;   -1,045
235,321; 4483,295;    1,163;    0,136
235,920; 4798,400;    2,526;   -1,227
236,518; 5109,421;    1,072;    0,318
237,117; 5414,607;    2,890;   -0,227
237,715; 5636,430;    1,163;   -0,500
238,314; 5644,962;    1,708;   -2,318
238,912; 5725,815;    0,526;   -1,409
239,510; 5855,665;    1,162;   -1,227
240,109; 6044,534;   -0,474;    3,773
240,707; 6144,846;   -0,474;    1,227
241,305; 6654,713;   -0,383;    0,136
241,904; 6900,713;   -0,292;   -2,045
242,502; 6851,030;    3,253;   -0,227
243,100; 6835,491;    3,344;   -0,955
243,698; 7139,405;    2,799;    1,682
244,297; 7360,102;   -0,656;    0,682
244,895; 7150,175;   -0,474;   -2,318
245,493; 7568,379;    2,981;   -0,591
246,091; 7666,557;    5,163;   -1,318
246,689; 7663,724;    2,163;    0,591
247,287; 7834,856;   -0,019;   -1,136
247,885; 8220,972;   -1,019;    1,227
248,483; 8372,987;   -0,201;   -0,500
249,081; 8559,220;    0,981;    1,591
249,679; 8716,014;   -1,019;    1,682
250,277; 9040,868;   -2,292;    0,864
250,875; 9041,142;    0,617;   -1,045
251,473; 9116,021;   -0,019;    0,500
252,071; 9299,078;   -0,383;    1,045
252,669; 9493,494;   -1,565;    0,318
253,267; 9890,183;    1,618;    0,773
253,864; 9881,856;    0,617;    0,682
254,462; 9627,927;    1,526;    1,591
255,060; 9694,671;    0,072;    1,318
255,658;10079,585;   -3,292;   -0,136
256,255;10526,386;   -0,201;   -2,045
256,853;10384,608;    2,345;    1,409
257,451;10445,349;    1,981;    1,864
258,048;10653,548;    2,072;    1,864
258,646;10434,185;    0,436;   -1,045
259,243;10661,972;    2,981;    2,227
259,841;10773,565;    1,799;    0,318
260,438;10629,224;    0,254;    0,864
261,036;11506,061;    0,617;    1,409
261,633;11444,252;    1,526;    2,227
262,231;11177,030;   -0,110;   -0,045
262,828;11253,684;   -0,383;    1,136
263,425;11337,609;   -1,928;   -0,591
264,023;11618,398;    1,436;    0,045
264,620;11110,610;    1,526;   -0,318
265,217;11524,964;    2,890;    3,136
265,815;11638,372;    2,527;    2,136
266,412;11362,630;    0,072;    0,136
267,009;11426,516;    0,526;    0,773
267,606;11287,549;    0,345;   -0,955
268,203;11332,156;   -0,383;   -0,591
268,801;11652,060;   -0,474;    0,591
269,398;12020,870;   -0,564;    2,500
269,995;12036,957;    0,890;    1,591
270,592;11762,486;    0,799;   -0,500
271,189;12068,360;    1,981;    0,409
271,786;12214,204;    2,072;    1,227
272,383;11980,000;   -0,383;    0,227
272,980;12219,147;    1,617;    0,318
273,577;12767,034;    2,162;    1,227
274,174;12273,947;    1,435;    2,591
274,771;12289,858;    1,890;   -0,773
275,367;12449,928;    3,253;    1,409
275,964;12404,632;   -0,565;   -0,500
276,561;12558,721;   -2,474;   -1,045
277,158;12829,104;    1,799;   -1,773
277,755;12987,492;   -0,110;    0,409
278,351;12314,079;    0,436;   -1,500
278,948;12696,533;   -0,201;    0,045
279,545;12714,390;    0,527;    2,318
280,141;13363,199;    1,254;   -2,045
280,738;13262,374;    2,435;   -0,136
281,334;13580,506;   -0,383;    0,591
281,931;12936,326;    2,890;   -1,318
282,528;13048,742;    4,072;   -0,500
283,124;13865,018;    3,345;   -0,500
283,721;13782,085;    0,709;    1,409
284,317;13581,230;    0,163;    2,500
284,913;14196,807;   -0,110;    0,591
285,510;14397,898;    2,890;   -0,318
286,106;14456,487;    2,345;   -0,955
286,703;14006,180;    0,072;    1,955
287,299;14244,474;    1,254;   -0,591
287,895;14534,918;    0,890;   -1,045
288,491;15213,234;    0,163;    2,136
289,088;14855,151;    0,163;    2,409
289,684;14954,040;    2,890;    1,500
290,280;14991,245;    1,890;    0,682
290,876;15046,560;    0,163;    5,500
291,472;14933,503;    2,163;    2,227
292,068;15048,971;    1,254;    0,227
292,665;14735,110;   -0,564;    0,773
293,261;14306,299;   -1,292;    2,136
293,857;14750,943;    4,072;    2,136
294,453;14670,263;   -0,928;    0,955
295,049;14527,332;    0,253;    1,955
295,644;14507,805;   -1,292;    0,136
296,240;14454,789;    0,162;   -0,136
296,836;14529,734;   -0,747;    0,318
297,432;14855,501;    2,980;   -0,500
298,028;14879,208;    0,435;    0,773
298,624;15341,597;    0,889;    1,864
299,220;15675,610;    0,435;    0,591
299,815;15286,404;    0,526;   -0,409
300,411;15058,878;    0,435;    1,773
301,007;15086,345;    1,889;    0,227
301,602;15174,729;    2,071;   -2,318
302,198;15355,469;    1,435;   -0,773
302,794;15695,620;    1,526;   -0,500
303,389;15909,029;    1,071;    1,045
303,985;15992,947;    1,253;    1,409
304,580;15946,515;    0,889;    1,591
305,176;15935,752;    0,344;    0,136
305,771;15878,285;   -0,929;   -1,227
306,367;15591,717;    3,071;    0,136
306,962;16062,911;    2,889;    1,500
307,558;15849,567;    2,435;    0,136
308,153;15795,039;   -0,383;   -1,136
308,748;16019,005;    0,162;    1,682
309,344;16005,662;    0,253;   -1,318
309,939;16097,472;    2,071;   -1,318
310,534;16424,658;   -2,020;   -1,682
311,130;16441,091;   -0,656;   -2,500
311,725;16152,755;    0,526;   -0,500
312,320;16429,996;    1,253;    0,045
312,915;16274,218;    2,890;   -1,045
313,510;16355,624;    0,526;   -0,500
314,105;16926,041;   -3,565;    1,409
314,700;16295,979;   -1,656;   -1,045
315,295;15860,424;   -0,020;    0,045
315,890;15327,790;   -0,292;    0,864
316,485;15693,603;    0,253;   -0,318
317,080;15838,849;   -0,929;    1,591
317,675;16408,374;    3,071;   -0,682
318,270;15685,725;    6,889;    3,318
318,865;15763,438;    2,435;    3,045
319,460;15611,330;   -1,565;    0,591
320,055;15878,814;   -2,565;   -1,227
320,650;15465,431;   -1,838;   -0,591
321,244;15535,252;    0,889;   -1,409
321,839;16625,569;    0,980;   -0,227
322,434;16496,269;   -0,111;   -1,591
323,029;16058,926;   -0,474;    1,591
323,623;15896,005;    0,798;    0,773
324,218;15621,640;    2,707;    1,409
324,812;15536,181;    0,889;    1,591
325,407;15334,239;   -0,929;    2,045
326,002;15184,870;    0,526;   -0,409
326,596;15559,479;   -0,656;    1,318
327,191;15845,704;   -0,383;   -1,045
327,785;15352,661;   -0,747;   -0,227
328,379;15547,831;   -0,383;    0,136
328,974;15371,684;    1,798;   -3,955
329,568;15584,049;    2,889;   -2,409
330,163;15366,173;    2,435;    1,045
330,757;15763,886;    0,253;    1,591
331,351;15060,666;   -0,292;    0,682
331,945;15327,060;   -0,383;    1,409
332,540;14839,772;    1,617;   -0,591
333,134;14997,153;    3,344;    0,773
333,728;15284,191;    2,799;    0,318
334,322;15651,381;    0,889;   -0,864
334,916;14883,736;    0,344;    0,955
335,510;15225,762;   -0,111;   -0,136
336,105;15494,341;   -0,929;    1,591
336,699;15129,180;   -1,292;    0,591
337,293;15068,489;    1,071;    0,318
337,887;15259,486;    0,071;    1,955
338,481;15323,701;    2,980;    0,591
339,074;15466,358;    2,071;    2,682
339,668;15253,520;   -0,110;    1,227
340,262;15527,567;    7,708;    3,227
340,856;15004,668;    1,708;   -0,682
341,450;14280,858;    0,708;    1,864
342,044;15282,580;    1,799;    0,136
342,637;15022,716;    1,162;   -2,136
343,231;14857,693;   -1,474;    0,682
343,825;14828,620;   -0,747;   -0,591
344,419;14706,877;   -0,474;    0,500
345,012;14401,414;    2,889;    4,045
345,606;14401,835;   -0,656;    1,591
346,199;14230,222;   -0,111;   -0,227
346,793;13715,840;    2,525;    2,045
347,386;13905,676;    0,889;   -1,136
347,980;13902,332;   -0,838;   -0,045
348,573;13675,513;   -1,748;    0,409
349,167;13166,301;    6,161;    4,773
349,760;13602,911;    2,252;    2,682
350,354;13601,974;    1,616;    1,136
350,947;13270,413;    2,798;    1,682
351,540;12909,509;    0,616;   -1,409
352,134;12871,037;   -1,111;    1,136
352,727;12911,258;   -0,657;    1,136
353,320;12658,511;    2,343;    0,591
353,913;12535,999;   -1,929;    1,864
354,507;12683,346;    0,434;   -1,227
355,100;12659,984;    0,071;    0,864
355,693;11733,524;    4,798;    2,409
356,286;11801,023;    0,980;    2,773
356,879;12194,668;   -0,475;    1,227
357,472;11751,476;    0,980;    1,500
358,065;11942,838;    3,161;    2,500
358,658;11900,017;    0,798;    2,318
359,251;11452,138;    0,252;   -0,591
359,844;10807,430;    0,343;   -1,136
360,437;10955,979;    0,252;    0,045
361,030;11253,648;    0,525;   -0,682
361,623;10790,190;    0,434;    0,318
362,215;10836,374;    0,979;    2,045
362,808;10662,282;   -2,293;   -1,682
363,401;10876,854;    0,798;    0,136
363,994;10524,957;    3,252;   -1,500
364,586;10474,106;    0,888;   -1,500
365,179;10728,691;   -0,203;   -1,136
365,772;10137,942;   -0,930;    2,045
366,364;10435,421;    1,524;   -3,227
366,957;10669,190;    1,342;   -0,045
367,549;10680,501;   -0,203;   -0,864
368,142;10267,856;    0,978;   -1,500
368,734;10492,237;    2,523;   -2,136
369,327;10459,499;    2,341;   -0,500
369,919;10343,427;   -1,659;    0,409
370,512;10060,201;   -1,023;   -0,500
371,104; 9776,703;    2,704;    1,591
371,696; 9993,673;    1,703;   -0,955
372,289;10062,972;    0,157;    1,136
372,881;10232,253;    1,156;    1,318
373,473;10193,503;    4,064;    1,136
374,066; 9953,729;    1,336;    0,500
374,658; 9740,422;    0,879;    1,136
375,250;10189,007;   -1,668;   -1,409
375,842; 9985,342;   -0,124;   -0,045
376,434; 9847,143;   -2,762;   -0,409
377,026;10540,907;   -1,855;   -2,500
377,618;10407,870;    0,779;   -0,682
378,210;10261,902;    3,141;   -1,955
378,802;10075,497;    3,412;   -0,591
379,394;10000,126;    3,411;    0,682
379,986;10706,903;    1,138;   -0,955
380,578;10796,087;    1,410;    0,773
381,170; 9972,386;    0,320;    0,045
381,762; 9986,308;   -0,224;    1,409
382,354;10235,838;   -0,223;   -1,318
382,945;10368,266;    0,870;    0,318
383,537;10555,957;    1,144;   -1,955
384,129;10522,280;    0,963;   -1,136
384,721;10746,367;    0,418;    0,955
385,312;10671,710;   -1,399;   -0,955
385,904;10771,046;   -0,945;    1,591
386,496;10076,176;    0,691;    1,045
387,087;10210,358;    0,418;    2,500
387,679;10276,381;   -0,401;    0,045
388,270;10423,311;   -2,401;    2,045
388,862;10555,857;   -0,401;   -0,318
389,453;10397,799;    1,054;    1,045
390,045;10719,582;    3,236;   -2,682
390,636;10703,781;    0,144;   -0,591
391,227;10527,105;    2,054;   -0,045
391,819;10577,995;    0,781;    0,773
392,410;10682,408;    0,600;    0,045
393,001;10598,229;    1,600;   -1,591
393,593;10940,942;    0,600;   -0,045
394,184;10771,895;    0,873;   -0,409
394,775;10710,491;    1,146;    2,136
395,366;10930,373;    1,782;    0,773
395,957;11013,928;   -2,400;    0,136
396,548;11377,588;    1,054;    2,682
397,139;11681,356;    2,236;    0,591
397,730;11367,490;    0,873;    0,955
398,321;11424,302;    0,509;    0,955
398,912;11463,275;   -0,764;    0,136
399,503;11585,280;   -1,945;   -1,409
400,094;10924,645;   -1,582;    1,682
400,685;10811,460;    3,600;    0,045
401,276;10897,886;   -0,400;   -0,955
401,867;11229,624;   -1,127;    0,773
402,458;11337,275;    1,509;   -2,318
403,048;11319,092;    0,146;    0,591
403,639;10844,357;    1,509;    0,864
404,230;11083,157;    0,691;    0,318
404,821;11014,917;   -0,127;    0,045
405,411;11137,220;   -0,763;   -2,591
406,002;10666,066;    3,237;   -1,136
406,592;10438,984;    2,691;    0,045
407,183;10837,147;    0,328;   -1,500
407,774;10722,827;    1,419;   -0,136
408,364;11165,385;    2,600;    0,409
408,954;10642,059;   -0,036;    1,227
409,545;10714,469;    1,873;    1,045
410,135;10177,432;   -1,581;    0,500
410,726;10351,030;    0,783;    0,318
411,316;10804,095;    2,237;    0,773
411,906;10455,458;    0,146;   -0,409
412,497; 9834,942;   -0,490;   -0,045
413,087;10551,588;    0,783;   -0,227
413,677;10987,429;   -2,490;    3,864
414,267;10782,425;   -1,035;    1,409
414,857;10840,787;    0,419;    4,227
415,448;11147,334;   -0,763;    0,500
416,038;10750,716;   -2,945;   -0,591
416,628;10731,112;    0,965;    0,409
417,218;10071,649;   -1,762;    3,318
417,808;10394,465;    0,965;   -0,409
418,398;10986,243;   -1,035;    2,682
418,988;11034,464;   -2,217;    0,591
419,578;11314,847;    3,601;    1,409
420,168;11707,488;    0,692;   -0,955
420,757;11200,642;    0,964;   -1,500
421,347;10852,337;    1,601;   -0,227
421,937;11072,964;    3,329;    1,409
422,527;10940,249;    2,602;   -0,773
423,116;10729,081;    2,692;   -0,045
423,706;11201,694;    2,965;    0,318
424,296;11220,301;    1,601;    0,682
424,885;11642,301;    1,510;   -3,045
425,475;11952,161;    1,147;   -2,864
426,065;11885,166;   -1,489;   -0,318
426,654;11461,120;    0,329;   -0,318
427,244;11578,619;    1,147;    1,409
427,833;10929,424;    1,056;   -0,500
428,423;11491,830;    0,147;    1,136
429,012;12423,414;    2,420;   -1,136
429,601;11822,931;    2,057;    0,136
430,191;12080,215;    2,511;    4,318
430,780;11644,643;   -1,671;   -0,409
431,369;11568,582;    1,329;   -0,045
431,959;12319,965;    1,693;    0,500
432,548;12083,499;   -1,398;   -0,045
433,137;12220,042;    0,329;   -1,318
433,726;12797,726;    0,148;    0,500
434,315;12101,825;    0,148;    2,409
434,905;12196,456;    0,693;    1,409
435,494;12051,466;    3,148;    0,955
436,083;12575,219;    1,420;   -0,955
436,672;12455,216;    1,148;    0,500
437,261;11920,873;    0,512;   -1,955
437,850;12032,416;   -1,125;    0,682
438,439;12029,568;    2,239;    1,955
439,027;11806,142;    3,421;    1,773
439,616;12247,566;    2,239;    1,227
440,205;12163,884;    0,057;   -2,136
440,794;12243,368;   -0,306;   -0,045
441,383;12530,705;    1,603;   -0,591
441,971;12400,918;   -0,306;    0,591
442,560;12230,220;    0,603;   -1,773
443,149;12022,366;    3,060;   -1,318
443,737;12177,842;    0,968;   -2,318
444,326;12420,265;    0,331;    0,318
444,915;12473,226;   -1,851;    0,864
445,503;12941,789;    0,058;   -0,318
446,092;12158,908;    7,876;    2,136
446,680;12758,859;    1,876;    0,318
447,269;12944,867;   -1,487;   -0,318
447,857;12692,074;    2,240;   -1,773
448,445;12823,304;    2,149;    1,318
449,034;13072,432;    0,876;   -1,136
449,622;13238,629;    1,240;    3,500
450,210;12274,451;    3,149;    2,227
450,799;12881,919;    2,604;   -0,591
451,387;12844,346;    1,786;   -0,591
451,975;12403,728;   -1,305;    0,864
452,563;12493,697;    0,422;    2,318
453,151;12515,493;   -1,032;   -1,227
453,739;12481,250;   -1,577;    0,136
454,328;12292,840;    0,604;   -2,136
454,916;11910,477;    1,150;   -0,136
455,504;12174,834;    3,513;    1,227
456,092;12401,585;    2,150;   -1,591
456,679;12374,776;    0,604;    0,682
457,267;12183,620;    3,604;    1,045
457,855;12394,309;    3,241;    1,409
458,443;12171,303;   -0,304;    1,682
459,031;12271,715;    1,332;    2,409
459,619;12835,032;   -3,577;    2,864
460,206;12986,565;   -0,759;    2,045
460,794;13104,172;   -0,668;   -0,227
461,382;13371,564;    0,878;   -0,864
461,970;12907,766;    0,605;    1,864
462,557;12918,226;    0,878;   -0,682
463,145;13151,027;   -0,304;   -1,682
463,732;13318,867;    2,514;   -1,045
464,320;13254,715;    1,514;   -3,045
464,907;12871,091;    0,423;   -0,773
465,495;12707,407;    2,696;   -1,227
466,082;12885,342;    2,060;   -0,045
466,670;12834,492;    2,605;    1,227
467,257;13276,732;    0,060;    2,045
467,844;13477,720;    1,514;    0,045
468,432;13493,814;   -0,031;    3,500
469,019;12878,287;    1,606;   -1,773
469,606;13386,014;    0,969;    3,682
470,193;13167,060;    2,151;    0,227
470,780;12629,502;    0,333;    0,864
471,368;13045,260;   -1,212;   -0,773
471,955;12829,944;    1,060;   -0,682
472,542;12416,185;   -0,303;   -1,136
473,129;12657,180;   -0,485;    0,136
473,716;12383,040;    0,060;    0,591
474,303;12617,070;    1,333;   -0,864
474,890;12959,806;    2,333;   -0,500
475,477;12923,964;   -0,576;    0,409
476,064;12849,942;    0,697;   -1,591
476,650;12789,554;    2,152;    0,318
477,237;12625,645;    1,879;    0,955
477,824;12826,224;    3,879;    0,864
478,411;12887,619;    0,606;   -0,318
478,997;13087,144;    0,606;   -0,773
479,584;13151,556;   -0,666;   -0,409
480,171;13989,013;    1,243;   -0,773
480,757;13617,178;   -0,848;    0,773
481,344;13911,008;    0,334;    0,409
481,931;13406,998;   -0,393;    1,045
482,517;14523,582;    0,425;    0,318
483,104;15262,611;    1,334;    2,864
483,690;15712,656;    0,243;    0,045
484,276;16228,292;    0,698;    0,227
484,863;15950,462;    2,152;    1,136
485,449;16619,651;    0,152;    0,318
486,035;16602,928;   -0,666;   -0,136
486,622;17121,069;   -2,393;    0,045
487,208;17013,515;    1,334;    1,500
487,794;16893,834;    0,971;    0,318
488,380;17002,953;    0,698;   -1,409
488,967;17055,261;   -1,120;   -0,409
489,553;17096,785;   -1,029;   -1,409
490,139;17277,507;    0,971;    0,773
490,725;16641,945;    0,789;   -0,227
491,311;16113,654;    1,516;    3,045
491,897;15245,335;   -0,665;    1,500
492,483;14919,489;    0,426;    1,227
493,069;14567,814;    5,426;    0,864
493,655;14599,314;    1,789;    0,682
494,241;14492,931;    1,517;   -0,955
494,826;14955,134;    0,335;   -1,045
495,412;14372,988;    0,335;   -0,682
495,998;14513,566;    0,971;   -0,318
496,584;14710,225;    2,244;    1,045
497,169;14706,354;    2,335;   -0,682
497,755;14634,764;    1,244;    1,227
498,341;15197,339;    2,153;    0,318
498,926;14740,270;    2,881;    1,955
499,512;15005,664;   -0,028;    2,955
500,097;15193,703;   -0,574;   -0,318
500,683;15086,796;   -0,028;    2,136
501,268;15487,498;    1,881;   -0,955
501,854;15183,187;   -0,119;    1,227
502,439;15123,513;   -0,573;   -1,773
503,024;15316,362;    1,608;    0,500
503,610;15428,625;    1,335;   -0,682
504,195;15454,370;    1,245;    1,955
504,780;15510,012;    2,335;    1,227
505,366;15284,195;    4,063;    2,864
505,951;15022,760;   -1,119;    1,045
506,536;15055,160;    1,427;   -3,682
507,121;15018,653;    1,699;   -0,318
507,706;15554,334;   -0,392;    1,045
508,291;16014,684;   -2,937;    1,136
508,876;15452,356;   -0,482;    2,591
509,461;14808,135;    1,427;   -0,773
510,046;15280,292;   -0,391;    0,318
510,631;15537,402;   -0,119;   -0,773
511,216;15214,667;   -0,664;   -0,500
511,801;15613,260;   -0,755;    2,591
512,386;15855,395;    0,972;    0,500
512,971;15807,267;    0,427;    0,955
513,555;15345,040;    1,154;   -1,500
514,140;16216,634;    1,336;   -3,136
514,725;16274,893;    1,791;   -1,136
515,309;16417,531;    1,064;    0,318
515,894;15750,299;   -0,300;   -2,227
516,479;16235,357;    1,973;   -0,955
517,063;16080,496;    0,882;    1,227
517,648;16230,010;    0,155;   -1,136
518,232;15833,321;   -1,300;   -1,409
518,817;16165,770;    1,337;    1,682
519,401;16425,555;    0,700;    0,591
519,985;15887,617;    2,700;    1,136
520,570;15745,375;   -0,118;   -1,955
521,154;16088,458;    0,064;    0,591
521,738;16279,602;    1,064;    2,409
522,323;16910,550;   -0,390;    1,682
522,907;16651,886;    2,428;   -0,136
523,491;16273,476;    1,155;    0,955
524,075;16278,834;    0,428;    0,591
524,659;16403,252;    0,973;    0,591
525,243;15754,165;    0,883;    0,409
525,827;16058,541;    0,883;   -0,045
526,411;17002,071;    1,155;   -0,136
526,995;17203,093;    0,337;    1,409
527,579;16808,736;    1,974;   -1,045
528,163;17110,009;    0,428;   -1,500
528,747;17046,571;    1,065;   -0,773
529,331;17382,714;    0,883;   -1,409
529,915;17581,074;    2,338;    0,955
530,499;17588,130;    0,247;    1,227
531,082;17235,888;    1,065;    1,591
531,666;16613,705;    0,520;    0,773
532,250;17391,293;    0,428;    2,682
532,833;17728,322;    0,610;    2,773
533,417;17605,842;    1,247;    0,864
534,001;17588,433;    0,429;   -0,318
534,584;18366,599;    1,974;    0,500
535,168;18157,842;    3,247;    1,409
535,751;18255,209;    4,520;    0,045
536,334;17674,616;    4,520;   -0,409
536,918;18327,152;    1,974;    1,591
537,501;18446,088;    1,520;    1,318
538,085;18428,011;    1,702;    1,045
538,668;18625,732;    0,883;    2,409
539,251;18975,454;    3,156;    3,773
539,834;18972,304;    0,156;    0,773
540,418;18872,120;    3,247;    4,318
541,001;19078,329;    2,702;    1,773
541,584;19108,085;    1,429;    2,227
542,167;18721,306;    0,702;    2,955
542,750;18953,930;    0,793;   -0,773
543,333;18506,386;    1,429;    2,136
543,916;19327,093;   -0,298;    2,500
544,499;20026,025;    2,520;    0,227
545,082;20078,126;    0,248;    3,591
545,665;20228,678;   -0,207;    1,500
546,248;20615,477;    0,520;   -0,318
546,830;20234,094;   -1,752;    1,955
547,413;20682,129;    0,157;   -0,773
547,996;21265,469;    0,157;    0,500
548,579;21001,778;   -0,843;    0,955
549,161;20818,060;    0,884;    2,682
549,744;20653,188;    0,612;    0,409
550,326;21147,672;    0,885;   -1,136
550,909;20901,118;    2,339;    0,591
551,492;21304,582;    0,521;    0,227
552,074;21102,091;   -0,024;   -1,318
552,657;21687,616;    2,430;    0,045
553,239;21457,599;   -3,024;   -0,773
553,821;21347,483;   -1,570;    1,045
554,404;20824,020;   -0,024;    1,136
554,986;21242,017;    2,248;    1,045
555,568;21887,364;    0,430;   -0,955
556,151;20975,813;    4,067;   -0,227
556,733;21241,488;   -1,388;   -0,864
557,315;21768,601;    4,703;    0,500
557,897;21565,779;    0,521;   -0,500
558,479;21700,026;    1,703;    1,318
559,061;21854,200;    1,067;   -0,864
559,643;22181,593;   -0,297;    0,045
560,225;22596,283;   -0,388;    2,864
560,807;22645,229;    0,340;    0,318
561,389;22103,101;   -1,206;    2,318
561,971;22893,213;   -0,660;    2,136
562,553;22687,523;    0,613;    1,591
563,135;22841,423;    1,249;    1,136
563,717;22466,736;    3,158;    1,136
564,298;23232,466;    3,976;   -0,045
564,880;22921,890;    0,340;   -1,409
565,462;23168,617;    1,977;    1,318
566,043;24485,069;   -0,933;    2,318
566,625;23981,600;    4,067;    1,227
567,207;23871,686;    0,704;    1,682
567,788;25142,215;   -0,114;    1,500
568,370;26092,371;   -1,841;   -0,500
568,951;25952,194;   -0,569;    0,227
569,533;26921,943;    0,977;   -0,500
570,114;27533,784;   -0,296;    0,682
570,695;28102,275;   -0,478;   -1,318
571,277;28724,544;   -0,205;   -1,682
571,858;29597,158;    2,704;   -1,136
572,439;30661,383;    0,795;   -1,045
573,021;30908,936;    0,432;   -2,773
573,602;31513,651;    1,795;    0,318
574,183;32614,628;   -0,114;    2,227
574,764;32907,548;    2,068;    0,409
575,345;33558,621;    0,250;   -0,136
575,926;34223,248;    2,704;    0,136
576,507;34245,545;    2,704;   -0,227
577,088;35405,419;    1,704;    1,682
577,669;35451,212;    1,704;    1,955
578,250;36320,173;   -0,750;   -1,045
578,831;37178,826;   -0,841;   -2,227
579,412;37547,752;   -1,205;    0,955
579,993;38569,398;    1,432;    0,227
580,573;38885,994;   -0,023;   -0,955
581,154;37829,535;    1,613;   -0,591
581,735;38762,253;    0,341;    0,773
582,315;38230,889;    0,523;    2,136
582,896;38519,729;   -1,750;    1,227
583,477;37959,723;    0,614;    1,227
584,057;38131,090;    1,159;    0,955
584,638;38383,034;   -2,750;    2,318
585,218;38390,333;    2,886;    2,682
585,799;38529,522;    1,977;   -0,227
586,379;38492,237;    1,250;    1,591
586,959;37171,971;    2,613;    0,318
587,540;36343,767;    0,432;    2,227
588,120;35760,855;   -1,113;   -0,045
588,700;34500,275;    2,977;    2,136
589,281;34818,378;    1,250;   -0,955
589,861;34748,866;   -0,296;   -1,682
590,441;34578,226;   -1,477;   -2,682
591,021;33388,838;    1,432;   -2,591
591,601;33591,259;    0,431;    0,500
592,181;33584,326;   -1,296;   -0,773
592,761;32775,743;    2,250;    1,409
593,341;32608,830;    1,522;    0,045
593,921;32559,202;   -0,569;    1,591
594,501;32391,279;    1,250;    1,318
595,081;32265,207;    0,522;   -0,318
595,661;32667,336;    1,068;    0,955
596,240;33181,385;   -1,023;    0,136
596,820;32815,501;    2,613;    1,955
597,400;33104,872;    1,977;    0,773
597,980;33300,301;   -0,750;    1,045
598,559;33278,100;    0,341;   -0,227
599,139;32936,735;   -0,750;   -1,227
599,718;32880,280;    0,795;   -0,409
600,298;33101,317;   -2,387;    0,682
600,877;33327,710;    4,795;    1,409
601,457;33679,462;    0,340;    1,136
602,036;33482,153;    1,795;    2,045
602,616;33764,468;    2,250;    1,682
603,195;34125,720;    0,431;    3,500
603,774;33651,774;   -0,296;    2,045
604,354;33545,859;    2,522;   -0,500
604,933;32921,669;    0,250;    1,864
605,512;33075,232;    2,340;    0,591
606,091;33100,762;    1,886;    3,773
606,671;33930,169;    0,249;    0,773
607,250;32903,198;    1,431;    3,136
607,829;33204,038;    1,158;    3,227
608,408;33048,697;    4,613;    2,591
608,987;32003,053;    2,704;    3,409
609,566;32320,260;    0,341;   -2,500
610,145;32399,986;    2,885;    0,682
610,723;32826,263;    1,613;    6,864
611,302;31972,646;    1,067;    1,682
611,881;31461,493;    5,158;   11,227
612,460;32343,866;    0,795;    3,955
613,039;32774,967;    1,703;    2,045
613,617;31430,678;    0,886;    4,773
614,196;31535,992;    1,613;    1,227
614,775;31913,720;    1,249;    2,409
615,353;31841,612;   -1,660;    0,864
615,932;31518,439;    0,249;    2,409
616,510;32135,341;    0,158;    0,591
617,089;31582,812;    8,794;   17,591
617,667;31293,000;    4,885;    6,136
618,246;31065,947;   -1,115;    1,318
618,824;31282,153;    1,612;   -0,955
619,402;30819,804;    0,431;   -1,773
619,981;31385,156;    1,067;   -1,045
620,559;31187,623;    0,794;    1,682
621,137;30710,677;    3,067;    1,864
621,715;30652,590;    3,703;   -0,682
622,293;30501,263;    1,885;   -0,773
622,871;30986,783;    0,340;    0,500
623,450;30476,895;    0,430;   -0,864
624,028;30411,098;   -0,388;   -0,955
624,606;30012,242;    2,339;    1,682
625,183;30445,089;   -0,661;   -1,136
625,761;29977,074;    1,885;    1,136
626,339;30257,281;    2,339;    2,591
626,917;30687,579;    0,339;   -0,045
627,495;30711,841;    2,794;    1,318
628,073;30119,744;    5,248;    2,864
628,650;29783,703;    3,067;    2,136
629,228;30275,870;    1,248;    4,409
629,806;29533,551;   -0,024;    1,136
630,383;29872,535;    0,066;   -0,318
630,961;29617,131;   -2,206;   -0,955
631,539;29286,379;   -2,479;    0,227
632,116;28477,586;   12,703;   15,409
632,694;29091,655;    4,885;    6,500
633,271;29471,668;    1,975;    2,682
633,848;29386,604;    1,430;    2,045
634,426;29443,757;    1,521;    1,773
635,003;28525,003;   -0,207;   -0,409
635,580;28818,126;    1,884;    3,682
636,158;29427,053;    3,793;    1,227
636,735;29378,613;    3,339;   -0,500
637,312;29502,007;    0,521;   -0,682
637,889;29616,011;    2,248;   -0,682
638,466;29027,309;    0,066;   -0,409
639,043;29072,003;    1,702;   -1,136
639,620;29393,771;    0,611;   -0,955
640,197;29784,626;    1,612;    1,682
640,774;29916,891;    1,430;    1,136
641,351;30314,246;    0,612;    1,136
641,928;29658,692;    2,794;    1,409
642,505;29325,229;    0,794;   -0,500
643,082;29456,675;    1,885;    1,227
643,658;28357,485;    1,157;    1,500
644,235;29202,113;   -2,479;    2,500
644,812;29437,740;    1,794;    0,773
645,388;29208,914;    1,612;    1,409
645,965;29265,087;    1,521;    1,682
646,542;29366,351;    3,430;   -0,227
647,118;29313,979;    3,703;   -0,955
647,695;29648,153;    0,339;    1,136
648,271;29550,144;   -2,115;    0,500
648,848;29904,045;    0,248;    2,227
649,424;29698,945;    0,976;    1,318
650,000;29459,028;   -0,388;   -1,045
650,577;29306,292;    0,158;   -0,955
651,153;29782,375;   -1,115;    0,955
651,729;30821,093;    0,521;    0,864
652,305;31172,267;    1,339;    2,773
652,881;36539,349;   -1,297;    1,136
653,458;44718,704;    0,249;    0,227
654,034;49389,423;    0,703;    1,591
654,610;51331,415;    0,339;    0,773
655,186;52761,861;    1,612;    3,045
655,762;52473,579;   -1,842;    0,409
656,338;52545,207;    0,703;    0,136
656,913;53599,381;   -0,297;    0,409
657,489;52923,645;    0,249;   -0,318
658,065;52869,182;    0,794;   -1,591
658,641;53411,083;    2,158;   -0,864
659,217;52615,074;    2,067;    0,409
659,792;51917,702;   -1,751;   -0,409
660,368;52159,966;   -0,388;   -0,682
660,944;51708,867;    1,794;    1,227
661,519;46335,131;    0,522;    0,409
662,095;38982,123;   -0,206;    0,591
662,670;33425,751;   -0,206;   -0,136
663,246;31911,742;   -0,660;   -0,409
663,821;31090,825;    0,431;    1,682
664,396;30594,907;    0,613;    1,864
664,972;30839,808;   -0,660;   -0,500
665,547;31139,345;    3,794;    0,136
666,122;31163,063;    1,340;    0,318
666,698;31488,964;    2,431;    0,318
667,273;30756,683;    0,885;    0,136
667,848;31631,856;    0,340;    1,500
668,423;31346,211;    1,795;    2,318
668,998;31996,657;    0,976;   -0,682
669,573;32583,376;    2,067;   -1,500
670,148;32433,913;    1,885;   -0,682
670,723;32281,996;   -0,024;    0,318
671,298;32740,714;   -1,296;    1,045
671,873;32833,524;   -0,296;   -0,136
672,448;32812,243;    1,704;    0,136
673,023;33153,598;    0,249;   -0,227
673,597;33459,499;    2,704;    2,318
674,172;33181,672;    2,431;    0,318
674,747;32681,118;   -0,205;   -1,045
675,321;32569,473;   -0,933;    3,318
675,896;32087,374;    2,158;    1,045
676,471;33150,184;    2,522;    1,591
677,045;32953,812;   -0,296;    0,682
677,620;32996,167;    2,158;    1,136
678,194;33298,067;    0,249;    1,136
678,769;32800,241;    0,886;   -0,318
679,343;33057,141;   -0,023;    1,773
679,917;32877,315;    0,340;    1,955
680,492;33013,306;    0,249;    3,227
681,066;33206,752;    0,613;    0,409
681,640;33235,380;    1,795;   -0,318
682,214;34066,735;    2,340;    0,500
682,788;33529,545;    0,613;   -0,773
683,363;33523,264;    1,977;    1,682
683,937;33214,164;    0,886;   -0,318
684,511;34057,065;   -1,023;   -0,591
685,085;33764,238;   -1,478;    0,318
685,659;33480,321;    1,431;    0,864
686,232;33708,858;    1,159;   -0,318
686,806;33476,304;    2,159;    0,409
687,380;34116,659;   -1,932;    0,591
687,954;34410,651;    2,432;    1,136
688,528;34046,188;    2,613;    1,955
689,101;34887,634;    0,432;    1,045
689,675;34443,716;    0,886;   -0,136
690,249;33745,253;    3,432;    0,409
690,822;34051,517;    1,159;    0,318
691,396;34148,872;    2,068;    1,227
691,969;33556,409;    2,523;    0,136
692,543;34042,492;   -0,568;   -1,955
693,116;33704,029;   -0,659;   -1,409
693,690;33552,384;   -0,296;    0,500
694,263;34105,103;    2,341;    2,955
694,836;34114,913;    2,795;    3,591
695,410;32661,722;    1,159;    1,773
695,983;33174,441;    1,614;    0,591
696,556;33175,796;   -0,750;   -1,045
697,129;33543,970;   -1,114;    1,409
697,703;33221,507;    1,341;    1,955
698,276;33189,044;    1,705;   -0,773
698,849;32939,035;   -1,023;    1,409
699,422;33315,754;    1,250;    0,591
699,995;32976,927;   -0,659;    0,136
700,568;33525,010;   -0,204;    3,045
701,140;33489,183;   -1,841;    1,682
701,713;33219,175;    0,341;    2,409
702,286;32955,348;    0,796;    0,864
702,859;32846,612;    0,614;   -0,591
703,432;31910,422;   -0,841;    0,682
704,004;32483,413;    1,978;    0,318
704,577;32405,769;    1,068;    0,136
705,150;32990,124;    0,887;    2,500
705,722;32782,115;    1,523;   -3,227
706,295;32507,925;    1,432;   -0,591
706,867;32334,462;    0,250;    1,955
707,440;32561,635;   -0,113;   -0,409
708,012;32785,081;   -0,022;    0,591
708,584;32659,255;    2,705;    0,227
709,157;33027,792;    1,160;   -0,591
709,729;32676,601;    1,069;    2,045
710,301;33577,866;   -1,204;    0,045
710,874;33576,312;    0,341;   -0,227
711,446;32383,394;   -0,295;    0,864
712,018;32312,749;   -3,022;    0,500
712,590;31947,650;   -0,204;    1,682
713,162;32480,278;   -0,477;    1,318
713,734;32790,815;    1,796;   -2,045
714,306;32703,443;    0,342;   -0,409
714,878;31277,889;   -0,295;    0,864
715,450;32146,244;   -0,113;    0,864
716,022;32403,872;    2,433;    1,318
716,593;32553,954;    0,978;    0,591
717,165;32464,764;    1,796;   -1,227
717,737;32130,574;    0,796;    0,409
718,309;31880,838;    1,160;   -0,045
718,880;31784,466;   -1,295;   -1,409
719,452;32040,367;    0,887;   -1,591
720,024;31507,176;    1,705;   -0,591
720,595;32077,531;    2,978;    0,955
721,167;31624,068;    1,160;   -2,045
721,738;31090,878;    2,069;   -1,045
722,309;30995,688;    1,251;   -1,227
722,881;30777,861;    2,705;    0,773
723,452;31502,489;    1,251;    2,864
724,023;31636,117;    1,524;    2,682
724,595;31433,381;    2,342;    0,682
725,166;31139,373;    1,524;   -0,409
725,737;30776,819;    1,887;    0,227
726,308;30884,629;    0,797;    0,318
726,879;31267,438;    1,069;    1,227
727,450;31145,248;   -2,022;   -0,045
728,021;31131,058;    1,069;    0,682
728,592;30951,231;    1,160;    0,500
729,163;31268,404;    1,433;   -0,136
729,734;31277,487;    2,160;   -0,227
730,305;31661,387;    0,615;    0,136
730,876;32051,652;    0,888;    2,955
731,447;31716,643;    0,797;    2,682
732,017;31858,544;   -0,840;    1,864
732,588;31358,444;   -0,021;    1,227
733,159;31534,981;    3,615;   -1,045
733,729;31339,427;    1,251;    0,409
734,300;30600,146;    0,160;    0,864
734,870;31049,411;   -1,385;    0,591
735,441;31663,220;    0,888;   -0,591
736,011;31333,848;    1,070;   -1,591
736,582;31299,112;    1,251;    0,045
737,152;30724,286;    0,979;   -2,045
737,722;31170,005;    1,070;   -0,682
738,293;30934,360;   -2,021;    1,318
738,863;30806,260;    1,797;    2,318
739,433;30577,070;    4,524;    0,318
740,003;31180,334;    1,524;   -0,682
740,573;30557,144;    2,252;   -1,591
741,143;30518,954;    3,615;    0,318
741,713;31273,036;    0,252;   -0,500
742,283;30958,846;    1,706;    1,591
742,853;30696,383;    0,524;    1,591
743,423;30146,647;    0,161;    0,045
743,993;30293,002;    1,070;    1,500
744,563;29558,267;    2,524;   -0,864
745,133;29459,440;   -0,112;   -0,864
745,702;30210,431;    2,797;    1,773
746,272;29364,787;    0,434;    0,591
746,842;29158,414;   -0,748;   -0,591
747,411;29592,042;   -0,839;   -0,318
747,981;29807,852;   -0,930;    0,500
748,551;29917,935;   -0,021;   -1,045
749,120;29708,381;   -0,112;   -0,227
749,690;30082,645;    2,161;    2,409
750,259;30396,636;    0,979;    2,955
750,828;30323,264;    4,070;   -1,955
751,398;30564,619;   -0,112;   -0,045
751,967;30056,611;    2,888;    0,409
752,536;30305,239;    1,161;   -0,227
753,105;30749,139;   -1,384;    0,227
753,675;30567,676;   -0,112;    1,773
754,244;30523,941;    0,888;    3,591
754,813;30557,114;    0,979;    1,227
755,382;30184,469;    0,798;    0,955
755,951;30717,097;   -0,112;    3,682
756,520;30210,089;    2,525;    1,864
757,089;30809,444;    1,888;    0,500
757,658;30956,799;    2,434;    1,227
758,227;30944,154;   -1,111;    0,318
758,795;31333,782;   -1,021;    1,136
759,364;31584,955;    0,525;   -0,591
759,933;30562,856;    1,343;   -0,045
760,501;30044,848;    0,252;   -1,318
761,070;30498,385;   -0,293;   -1,409
761,639;31263,194;    1,434;    1,318
762,207;30551,458;    0,889;   -0,955
762,776;30456,450;    2,889;    0,864
763,344;30399,896;    0,071;    0,591
763,913;29509,706;    1,616;    1,409
764,481;30233,879;    1,980;   -0,136
765,049;30033,507;    0,616;    1,409
765,618;29873,317;    1,434;    0,318
766,186;29976,217;    2,434;    0,136
766,754;30161,391;    1,798;    1,864
767,322;29047,655;    1,162;    0,409
767,890;29111,010;    0,525;   -1,773
768,459;29499,002;    2,616;   -0,318
769,027;29688,902;    2,525;    3,409
769,595;28618,530;    2,616;    2,591
770,163;29055,613;    3,344;    2,955
770,730;28784,877;    2,525;   -0,136
771,298;28627,596;    1,162;   -1,409
771,866;28707,860;    0,253;    4,955
772,434;29029,761;    1,162;   -1,864
773,002;29193,298;    2,616;    0,682
773,569;28734,198;    1,071;    1,682
774,137;28549,008;    0,889;   -0,045
774,705;29403,181;   -0,747;   -0,136
775,272;28884,718;    0,253;    0,682
775,840;28657,073;   -0,111;    2,682
776,407;28115,792;   -0,293;    1,955
776,975;27676,693;    1,162;    0,318
777,542;28707,866;    2,162;   -0,045
778,110;28553,130;    0,707;   -0,045
778,677;28233,849;    1,071;   -0,864
779,244;27932,841;   -1,020;    1,045
779,812;28038,832;    0,980;    0,864
780,379;27916,460;    2,435;    1,136
780,946;28186,815;    2,617;   -0,773
781,513;28517,625;   -0,565;    0,318
782,080;27823,889;    1,253;    2,864
782,647;28607,244;    1,708;    3,045
783,214;28163,781;   -0,201;    3,864
783,781;27733,137;    1,708;   -0,682
784,348;27617,674;    0,253;    1,500
784,915;28122,301;   -1,474;    0,318
785,482;27862,384;    2,708;    2,591
786,049;28310,194;    1,071;   -0,591
786,615;28366,912;    1,708;   -0,955
787,182;28162,995;   -3,201;   -0,682
787,749;27847,168;   -2,201;    1,409
788,315;27091,796;    0,253;   -0,409
788,882;27393,879;    0,981;   -1,227
789,448;28117,325;    1,435;   -0,955
790,015;28093,771;    1,799;    3,227
790,581;27660,399;    0,708;    0,227
791,148;27548,390;    1,344;    1,045
791,714;27769,200;   -1,019;    3,136
792,280;27450,737;    3,708;    1,591
792,847;26988,001;   -0,928;    2,500
793,413;27644,538;   -0,110;   -0,318
793,979;27084,984;    1,526;   -1,318
794,545;27151,157;    2,981;    2,682
795,111;26480,604;    2,435;    1,318
795,678;26637,050;    3,526;   -1,682
796,244;26309,587;    2,799;    0,136
796,810;26895,214;    0,799;    0,773
797,375;26586,933;   -0,292;   -2,136
797,941;26568,198;   -1,110;    0,591
798,507;26685,735;    0,254;   -0,955
799,073;26267,908;    2,708;    0,591
799,639;26338,627;    1,435;    3,136
800,205;26416,073;   -1,565;    2,682
800,770;25878,519;    1,345;    1,773
801,336;25923,056;    2,981;   -0,955
801,901;25532,866;    6,072;    3,136
802,467;26146,857;    0,526;    2,045
803,033;25447,030;   -0,019;    0,864
803,598;25680,022;    1,072;   -1,045
804,163;25710,741;    0,708;   -0,318
804,729;25665,914;   -0,110;    1,136
805,294;26057,542;    1,072;    2,227
805,859;25878,534;    0,890;   -0,409
806,425;25290,798;    3,890;    2,682
806,990;24963,335;    1,890;    4,318
807,555;25501,690;   -0,110;    2,591
808,120;25380,954;   -1,292;   -0,409
808,685;25417,309;    1,072;   -2,500
809,250;24879,846;    2,072;   -0,500
809,815;25228,747;   -0,201;    0,682
810,380;25762,557;    0,981;    1,591
810,945;26309,185;    2,890;    2,045
811,510;25477,449;   -0,200;    1,591
812,075;25118,440;    2,800;   -1,409
812,640;25143,886;    3,709;    1,409
813,204;25206,151;    2,163;   -0,227
813,769;25741,051;    0,254;   -0,045
814,334;25051,679;    0,527;    0,864
814,898;25123,489;    1,981;    0,591
815,463;24996,117;    0,981;   -0,773
816,027;24957,108;    1,345;   -2,318
816,592;25056,645;    2,163;   -2,045
817,156;24552,364;   -2,200;    1,136
817,721;24317,356;    0,982;    2,318
818,285;24301,347;    0,618;    1,500
818,849;25007,611;   -0,018;    1,682
819,414;24900,148;    0,073;    2,955
819,978;24391,958;   -0,291;    1,773
820,542;25013,495;    2,891;    0,500
821,106;24711,305;    2,800;    0,682
821,670;24786,024;    2,709;    2,591
822,234;24514,015;    1,073;    1,409
822,798;23857,825;   -0,836;    0,500
823,362;23803,362;    1,527;    4,227
823,926;23064,717;   -0,018;    1,136
824,490;23315,709;    3,527;   -0,682
825,054;23783,791;    2,527;   -1,136
825,618;23342,328;   -1,200;   -1,500
826,181;23253,138;    0,982;   -1,318
826,745;23159,402;   -0,745;   -1,045
827,309;23535,393;    2,255;    1,318
827,872;22969,112;    0,527;    0,955
828,436;23980,467;    1,982;   -0,773
828,999;24006,004;    2,436;    1,227
829,563;22779,087;   -0,654;    1,136
830,126;22565,987;   -0,018;   -0,591
830,690;22562,161;    0,709;    2,864
831,253;22072,789;   -0,473;    2,227
831,816;22202,871;   -0,018;    0,500
832,380;22082,499;    1,164;    0,864
832,943;22313,127;    3,073;   -0,500
833,506;21774,028;    0,255;   -1,227
834,069;22639,474;    2,164;   -0,955
834,632;22649,374;   -2,200;    1,318
835,195;22542,638;    1,346;    0,955
835,758;21731,357;    0,709;    1,955
836,321;21553,531;    1,073;   -1,045
836,884;21615,977;   -1,291;   -0,955
837,447;21644,877;    0,528;    1,773
838,010;21912,414;    1,800;    3,227
838,573;22267,951;    0,528;    0,773
839,135;22168,670;   -0,109;   -0,955
839,698;21609,025;    2,528;    0,409
840,261;21061,380;    0,255;   -0,227
840,823;20917,190;   -0,927;    0,864
841,386;21211,273;   -0,018;   -2,409
841,948;21064,628;    0,255;    1,773
842,511;20853,165;    0,255;    1,682
843,073;20972,974;    2,982;    0,227
843,636;20764,057;    0,619;   -0,227
844,198;20666,958;    1,255;    0,591
844,760;20785,858;    0,619;    1,955
845,322;20401,031;    0,164;    1,136
845,885;20857,205;   -0,290;    0,591
846,447;21286,196;    0,710;    0,227
847,009;20819,006;    3,983;   -0,682
847,571;21171,361;    1,346;   -2,045
848,133;21281,444;   -0,199;   -1,864
848,695;21104,435;    2,346;    1,409
849,257;20603,336;    1,346;   -1,682
849,819;20792,509;    2,983;   -0,409
850,381;20887,864;    1,801;   -0,864
850,942;21303,674;    1,892;   -0,591
851,504;21184,938;    0,983;    0,227
852,066;21190,203;    1,619;   -1,591
852,628;20718,012;    0,165;    1,955
853,189;20292,549;    0,256;    2,682
853,751;20400,723;   -0,654;    1,409
854,312;20266,169;    1,256;   -1,682
854,874;20760,887;   -0,108;   -0,773
855,435;21298,424;    0,528;   -1,682
855,997;21464,052;    3,983;   -0,136
856,558;20689,226;    0,801;    1,773
857,119;20791,308;   -0,744;    2,864
857,681;20429,209;   -0,108;    0,318
858,242;20468,200;    1,347;   -2,136
858,803;20975,374;    1,074;   -0,773
859,364;21498,183;    0,892;   -4,773
859,925;20788,629;   -0,290;   -0,955
860,486;20727,985;    0,529;   -0,955
861,047;20395,794;    0,165;   -1,227
861,608;20165,968;    0,165;   -0,773
862,169;20340,596;   -0,562;   -0,045
862,730;20089,587;   -0,290;    1,409
863,291;20359,215;    0,438;   -0,500
863,852;20698,388;   -0,926;    1,955
864,412;20128,107;   -1,835;   -0,864
864,973;18603,644;    1,892;    0,500
865,534;18468,999;    2,074;    0,227
866,094;20088,264;    2,620;    0,227
866,655;19726,528;    4,711;    3,318
867,215;20045,337;    0,074;    0,136
867,776;19873,784;   -1,199;   -0,136
868,336;19922,775;    1,529;    0,136
868,897;19338,130;    3,438;    1,682
869,457;19104,395;    3,256;    0,318
870,017;19333,022;    2,438;   -1,227
870,578;19876,650;    1,893;    0,773
871,138;19536,915;    2,620;   -0,955
871,698;19044,633;   -0,562;   -1,318
872,258;18898,170;    0,711;   -2,864
872,818;19282,435;    2,347;    0,045
873,378;19240,335;   -2,198;    1,045
873,938;18805,781;    4,984;    0,500
874,498;19145,409;    1,256;   -1,955
875,058;19006,946;    4,347;    1,773
875,618;18871,120;    1,438;   -2,682
876,177;18824,656;   -0,471;    0,136
876,737;18318,557;   -0,289;    1,955
877,297;18336,458;    2,711;    1,955
877,856;18373,722;    2,529;    0,318
878,416;18335,986;    2,438;   -0,136
878,976;18562,887;    3,438;    0,409
879,535;18768,878;    4,529;    3,136
880,095;18462,597;    1,347;    0,045
880,654;18575,225;    0,347;    1,318
881,213;18646,489;    2,347;    1,500
881,773;18300,390;    1,984;    2,682
882,332;18662,018;    6,075;    5,136
882,891;18519,282;    0,711;    2,136
883,451;18985,455;   -2,016;    1,682
884,010;18463,174;   -1,107;   -0,409
884,569;18543,984;   -2,289;   -0,045
885,128;18665,066;   -0,743;   -1,864
885,687;18711,058;   -0,743;    0,682
886,246;18405,049;    2,620;    2,136
886,805;18128,677;    1,620;    2,045
887,364;18468,669;    1,166;   -0,500
887,922;18814,842;   -0,016;    0,045
888,481;18332,107;    1,530;    0,591
889,040;18647,007;    3,711;    2,136
889,599;19330,726;    2,166;    1,409
890,157;19460,627;    2,166;    2,409
890,716;19109,709;    2,166;    0,227
891,274;18876,064;    0,075;   -1,136
891,833;19316,237;    1,166;    0,864
892,391;19218,320;    1,802;    0,500
892,950;19306,493;    0,166;   -0,773
893,508;19670,121;    0,984;   -0,409
894,067;19002,022;   -0,379;    0,136
894,625;18925,741;   -1,016;   -1,500
895,183;19125,278;   -0,198;   -0,682
895,741;19089,178;    2,257;   -1,773
896,299;18882,533;    1,621;   -2,409
896,858;19044,707;    1,530;   -1,591
897,416;19149,426;    0,166;   -1,318
897,974;18873,690;   -2,197;    0,318
898,532;19022,863;    6,530;    2,682
899,089;18886,946;    0,621;   -0,682
899,647;18969,119;    0,530;    1,318
900,205;18682,565;    0,257;    1,045
900,763;18912,738;    2,166;    0,227
901,321;18904,003;    3,530;   -1,409
901,878;18298,267;    3,257;   -0,773
902,436;18132,622;    0,257;    1,318
902,994;18503,523;    6,712;    3,682
903,551;17901,060;    1,439;    0,409
904,109;18308,324;    1,530;   -1,409
904,666;17892,315;    1,439;    1,045
905,224;17726,761;    3,894;   -0,409
905,781;17417,298;   -0,470;   -0,318
906,338;17509,381;    0,167;    1,045
906,895;17435,463;    1,894;    2,045
907,453;17368,546;    2,348;    1,136
908,010;17385,810;    3,348;    0,409
908,567;16973,438;   -0,561;    0,591
909,124;16534,248;    2,439;   -1,500
909,681;16583,966;   -1,288;    0,682
910,238;16701,685;   -0,106;   -1,318
910,795;17004,768;   -1,561;   -1,136
911,352;16650,222;   -0,379;   -2,682
911,909;16018,222;    2,803;   -0,864
912,466;16571,040;    1,985;    1,500
913,022;16077,949;   -0,924;    0,500
913,579;16450,313;   -0,470;    2,045
914,136;16089,859;   -2,561;    0,955
914,692;16444,222;    1,530;   -1,227
915,249;15981,859;    0,530;    0,409
915,806;16217,949;    1,803;    1,955
916,362;15888,495;    0,894;    1,864
916,918;15467,949;    2,439;    1,045
917,475;15457,222;    1,621;    0,955
918,031;15554,586;    0,076;   -0,045
918,587;14956,495;    0,621;   -0,318
919,144;15201,768;   -0,379;    0,227
919,700;15538,949;    0,167;    0,773
920,256;15031,313;    0,439;    0,045
920,812;14619,586;    1,439;   -1,045
921,368;14634,131;    1,348;   -1,045
921,924;14290,677;    0,439;   -0,136
922,480;13833,404;    0,076;    1,227
923,036;14420,131;   -0,652;    1,955
923,592;14399,859;    0,621;    0,318
924,148;14293,131;    1,894;   -0,955
924,704;13579,586;    0,258;   -0,409
925,259;13827,586;   -0,561;    0,591
925,815;13562,131;    3,803;    0,500
926,371;13062,313;    3,530;    1,409
926,926;12925,404;    1,621;    0,591
927,482;12494,404;    1,621;    0,773
928,037;12406,949;   -0,833;    2,045
928,593;12717,859;    0,258;    1,045
929,148;12496,495;    1,167;   -1,500
929,704;12038,404;    2,439;   -0,500
930,259;12213,859;    0,894;   -0,136
930,814;11219,131;    1,803;    1,955
931,369;10890,222;    0,258;   -0,773
931,925;10775,131;   -1,924;    0,136
932,480;10673,313;    3,076;   -2,591
933,035;10520,404;    3,985;   -0,318
933,590;10244,677;   -1,742;   -1,773
934,145; 9865,040;   -1,288;   -0,318
934,700;10212,768;    0,348;   -0,591
935,255; 9997,859;    4,803;    0,045
935,809; 9216,313;    6,258;    0,864
936,364; 8303,677;    2,167;   -0,136
936,919; 8260,131;    2,348;   -1,773
937,474; 8118,859;    1,348;    0,136
938,028; 7854,040;    3,076;    1,136
938,583; 7244,677;    6,348;    4,682
939,138; 7547,404;    0,167;    2,136
939,692; 6958,859;   -1,015;   -1,136
940,247; 6624,677;    1,167;   -1,045
940,801; 6118,949;    0,621;    0,227
941,355; 6012,677;    0,439;    2,591
941,910; 5670,859;    0,712;   -2,136
942,464; 5751,586;    2,712;   -0,318
943,018; 5514,222;    3,258;   -0,227
943,572; 5443,586;    2,803;   -0,682
944,126; 4800,313;   -0,924;   -0,409
944,681; 4706,404;    0,712;    0,227
945,235; 4685,131;    2,167;   -0,591
945,789; 4607,040;    1,258;   -1,864
946,342; 4644,768;   -0,561;   -0,591
946,896; 4516,859;    0,348;    0,955
947,450; 4249,586;   -0,561;   -0,227
948,004; 4400,859;    1,076;   -0,045
948,558; 4439,495;    1,258;   -0,864
949,111; 4382,859;   -1,197;   -0,318
949,665; 4362,495;   -0,106;   -0,682
950,219; 4225,949;    0,621;   -1,045
950,772; 4319,768;    0,258;    1,864
951,326; 4219,768;   -1,106;   -0,955
951,879; 4360,313;    1,076;   -2,318
952,433; 4360,313;    1,348;    2,227
952,986; 4205,131;    0,348;    0,682
953,539; 4136,313;    1,530;    0,591
954,093; 4082,404;    0,985;   -1,318
954,646; 4208,495;   -0,288;    1,318
955,199; 4025,768;    1,258;   -0,500
955,752; 3856,222;    1,985;    1,773
956,305; 3813,313;    0,894;    2,955
956,858; 4005,859;    0,621;   -0,318
957,411; 4205,768;    3,621;    2,136
957,964; 4011,040;    2,076;    2,136
958,517; 4009,313;    0,985;    3,136
959,070; 3824,859;   -1,197;    1,955
959,623; 3864,404;    1,076;    1,500
960,176; 3636,313;    0,712;    2,045
960,728; 3600,222;    1,712;    0,773
961,281; 3677,313;    2,258;    0,500
961,834; 3719,768;   -0,833;    0,864
962,386; 3623,040;    1,258;    1,045
962,939; 3544,949;    3,439;   -0,318
963,491; 3703,495;    2,621;    1,136
964,043; 3562,222;    0,076;    2,409
964,596; 3681,949;    1,712;    2,227
965,148; 3500,495;   -0,379;    1,773
965,700; 3434,586;   -0,015;   -0,227
966,253; 3632,131;   -0,833;    0,318
966,805; 3412,404;    1,894;    0,773
967,357; 3495,586;    0,439;   -1,500
967,909; 3422,131;    1,167;   -1,227
968,461; 3579,404;    0,894;    3,136
969,013; 3484,131;   -1,561;   -0,864
969,565; 3543,495;    1,803;   -1,136
970,117; 3577,677;    3,803;    1,045
970,669; 3438,586;    3,258;   -0,136
971,220; 3341,949;    2,167;   -1,500
971,772; 3240,586;    1,348;   -0,318
972,324; 3342,222;   -1,197;   -0,500
972,876; 3307,495;    0,167;   -0,045
973,427; 3405,495;   -1,197;   -1,045
973,979; 3377,404;    0,076;   -2,500
974,530; 3438,677;    0,803;    1,318
975,082; 3432,222;    2,167;    1,682
975,633; 3340,768;    2,894;    1,682
976,184; 3500,768;    2,076;    0,773
976,736; 3250,404;    0,348;    0,227
977,287; 3022,404;    0,258;   -0,500
977,838; 3217,222;   -0,924;   -0,318
978,389; 3275,949;    0,803;   -0,500
978,940; 3164,495;    1,258;   -0,409
979,491; 3191,404;    2,258;   -0,500
980,042; 3119,586;   -0,652;    3,045
980,593; 3223,677;    1,894;    0,227
981,144; 3256,313;    3,530;   -0,500
981,695; 3204,949;   -0,470;    1,500
982,246; 3162,495;   -1,833;    1,045
982,797; 3349,677;   -0,561;    0,682
983,347; 3484,677;    2,167;    0,591
983,898; 3608,404;    4,167;    0,409
984,449; 3419,131;    2,530;    0,773
984,999; 3358,131;    1,894;   -1,136
985,550; 3105,313;    3,167;   -0,318
986,100; 3167,768;    0,712;   -0,318
986,651; 3204,586;    0,258;    0,045
987,201; 3165,131;    0,894;   -0,591
987,751; 3260,949;   -0,288;    2,864
988,302; 3234,768;   -0,379;    1,500
988,852; 3267,222;    1,985;   -1,136
989,402; 3295,859;    0,985;    0,682
989,952; 3196,859;    1,621;    0,864
990,502; 3324,313;    1,076;    0,682
991,052; 3315,313;   -0,106;    0,045
991,602; 3139,949;    1,167;    1,318
992,152; 3130,859;    2,803;    0,682
992,702; 3117,313;    1,167;   -0,045
993,252; 3039,404;    0,076;   -0,500
993,802; 3120,131;    1,167;    1,318
994,352; 3374,949;   -0,742;    1,136
994,901; 3498,586;    1,076;    3,227
995,451; 3394,495;   -1,197;    0,318
996,000; 3482,859;    1,076;    0,318
996,550; 3168,949;    2,894;    0,227
997,100; 3178,313;   -0,561;   -0,045
997,649; 3477,768;   -0,197;    0,955
998,198; 3085,768;   -0,288;   -1,500
998,748; 3262,495;    0,348;   -2,318
999,297; 3175,859;    0,985;   -0,409
999,846; 3252,768;    1,894;   -0,773
1000,395; 3311,404;    1,530;    0,500
1000,945; 3233,677;    1,076;   -0,773
1001,494; 3313,495;    0,167;    0,682
1002,043; 3332,586;    0,712;    0,864
1002,592; 3171,677;    3,439;    1,955
1003,141; 3343,677;    2,439;   -0,682
1003,690; 3157,131;    1,258;    0,500
1004,238; 3231,222;   -0,106;   -0,045
1004,787; 2859,949;   -1,288;    1,227
1005,336; 3063,040;    1,621;    0,682
1005,885; 3231,495;   -0,197;   -2,773
1006,433; 3407,495;   -0,470;    0,955
1006,982; 3455,949;    2,167;    1,682
1007,531; 3383,222;    2,712;   -0,227
1008,079; 3348,404;    0,258;    0,500
1008,627; 3518,313;    1,621;    0,409
1009,176; 3207,404;    0,076;   -1,955
1009,724; 3243,768;   -2,742;    0,864
1010,273; 3287,313;    1,076;    0,500
1010,821; 3443,404;    1,076;    1,409
1011,369; 3165,949;    0,076;    1,318
1011,917; 3154,586;   -0,833;   -0,591
1012,465; 3428,495;    2,530;   -1,591
1013,013; 3550,949;    0,439;   -1,682
1013,561; 3397,949;   -1,288;   -0,773
1014,109; 3434,949;   -0,833;    1,682
1014,657; 3325,677;    1,348;    0,591
1015,205; 3457,586;    0,894;   -0,955
1015,753; 3498,131;    0,258;   -1,409
1016,301; 3542,677;    2,621;    3,045
1016,848; 3544,040;    2,167;    0,409
1017,396; 3566,131;    1,621;    0,045
1017,944; 3700,495;    2,621;    1,864
1018,491; 3466,586;   -0,197;    1,409
1019,039; 3570,586;   -0,652;    0,591
1019,586; 3518,404;    0,076;    1,682
1020,134; 3639,859;    0,712;    1,500
1020,681; 3653,495;    2,894;   -1,136
1021,228; 3684,040;   -0,561;   -2,227
1021,776; 3511,677;   -0,833;   -1,136
1022,323; 3705,949;    0,803;    0,773
1022,870; 3639,949;   -0,470;   -0,045
1023,417; 3528,949;    2,076;    1,864
1023,964; 3716,131;    0,621;    1,227
1024,511; 3521,677;   -0,652;    0,773
1025,058; 3297,313;    0,439;   -0,045
1025,605; 3354,495;   -1,742;    3,136
1026,152; 3576,949;   -0,106;   -0,591
1026,699; 3293,404;    0,167;    1,318
1027,245; 3476,313;    2,439;    0,318
1027,792; 3741,313;    0,712;    1,409
1028,339; 3587,677;    4,076;   -0,045
1028,885; 3416,586;    3,621;   -0,227
1029,432; 3347,040;   -0,106;    0,227
1029,978; 3420,677;    1,348;   -1,591
1030,525; 3304,313;    1,621;    0,409
1031,071; 3594,404;    0,348;    1,136
1031,618; 3657,222;    1,258;    1,682
1032,164; 3459,859;    2,076;    3,045
1032,710; 3492,586;    0,076;   -1,500
1033,256; 3430,495;    0,712;   -0,136
1033,803; 3434,949;   -0,288;    1,500
1034,349; 3149,404;    1,803;    0,136
1034,895; 3302,677;    2,621;   -0,318
1035,441; 3268,222;    0,439;    0,318
1035,987; 3254,222;   -2,288;   -0,682
1036,533; 3245,404;   -0,197;   -0,955
1037,078; 3455,677;    4,712;    1,682
1037,624; 3281,313;    2,439;   -0,955
1038,170; 3299,586;    1,712;   -0,318
1038,716; 3191,222;    2,167;   -0,409
1039,261; 3125,768;    2,167;   -0,773
1039,807; 3033,768;   -0,015;    3,409
1040,352; 3085,040;   -1,288;   -0,318
1040,898; 3171,949;    0,167;   -0,682
1041,443; 3091,222;    0,803;   -2,591
1041,989; 3057,404;    3,621;    1,591
1042,534; 2964,859;    0,985;    2,591
1043,079; 3106,404;    1,985;    0,955
1043,625; 2857,677;    0,258;    0,500
1044,170; 2891,677;    2,439;    1,045
1044,715; 3152,677;    0,167;    0,955
1045,260; 2957,495;   -0,833;   -0,955
1045,805; 3028,949;    0,258;   -0,591
1046,350; 2977,768;    0,530;   -0,409
1046,895; 2916,586;    0,803;    1,591
1047,440; 2837,586;    1,530;    0,409
1047,985; 2740,040;   -1,197;   -0,955
1048,530; 2664,040;    1,348;    1,227
1049,074; 2737,040;    2,803;    0,318
1049,619; 2722,222;   -0,924;    1,955
1050,164; 2503,222;    1,076;    0,227
1050,708; 2562,040;    2,621;    0,045
1051,253; 2903,404;    3,258;   -2,227
1051,797; 2634,859;   -0,197;   -1,318
1052,342; 2674,586;    1,348;    1,045
1052,886; 2639,949;    1,803;   -1,409
1053,430; 2535,040;    2,167;    0,136
1053,975; 2535,404;    0,894;   -0,318
1054,519; 2511,949;    1,803;    3,227
1055,063; 2499,768;    3,621;    1,318
1055,607; 2382,677;    1,348;    0,227
1056,151; 2405,768;    0,530;    1,682
1056,695; 2334,859;   -1,833;   -1,136
1057,239; 2408,404;   -1,197;   -0,682
1057,783; 2402,404;    2,258;   -1,500
1058,327; 2332,677;    3,076;    1,409
1058,871; 2551,768;    3,985;    1,318
1059,415; 2260,040;   -0,561;   -0,045
1059,958; 2493,677;    2,985;    2,591
1060,502; 2230,677;    1,348;   -0,773
1061,046; 2154,495;    1,712;   -0,955
1061,589; 2148,040;    2,803;   -1,136
1062,133; 2023,040;    0,985;    1,864
1062,676; 1951,677;    1,439;    0,864
1063,220; 1938,222;    0,985;    0,500
1063,763; 1952,404;    2,985;    1,136
1064,306; 2023,131;    0,985;    1,864
1064,849; 1919,131;    2,076;    0,591
1065,393; 1920,768;    2,894;   -1,500
1065,936; 2045,404;    2,530;   -0,409
1066,479; 1932,040;    2,621;    1,318
1067,022; 1957,859;    1,894;   -0,227
1067,565; 1844,768;   -1,197;   -1,318
1068,108; 1863,859;    1,258;   -0,591
1068,651; 1852,677;   -2,470;    1,409
1069,194; 1782,495;   -1,106;   -1,682
1069,736; 1775,495;    3,803;    0,955
1070,279; 1759,949;   -1,652;   -0,500
1070,822; 1799,222;    1,530;   -0,318
1071,364; 1836,404;    0,530;    1,318
1071,907; 1694,313;    0,348;    3,227
1072,450; 1618,677;    0,258;   -0,045
1072,992; 1602,677;   -0,561;    3,136
1073,535; 1719,677;    0,167;    2,136
1074,077; 1528,859;    2,985;    2,045
1074,619; 1483,131;    0,985;    0,591
1075,161; 1498,677;   -0,561;    1,500
1075,704; 1673,313;    0,258;    1,227
1076,246; 1500,404;    1,530;    0,682
1076,788; 1418,040;   -1,015;    1,773
1077,330; 1514,222;   -2,106;    2,136
1077,872; 1458,768;   -1,924;    0,955
1078,414; 1671,313;    3,712;    0,773
1078,956; 1389,404;    0,167;   -0,227
1079,498; 1636,859;    0,439;    0,318
1080,040; 1343,949;    0,985;   -1,318
1080,581; 1301,313;    0,621;   -0,318
1081,123; 1252,768;   -0,106;   -0,773
1081,665; 1293,313;    3,803;   -0,955
1082,206; 1570,222;    3,258;   -0,500
1082,748; 1442,768;    3,258;    2,045
1083,289; 1334,677;    0,167;    1,318
1083,831; 1238,495;    0,258;    0,227
1084,372; 1249,859;    0,894;    0,591
1084,913; 1241,586;    3,348;    0,864
1085,455; 1239,949;    1,530;   -2,045
1085,996; 1181,677;    0,530;    0,136
1086,537; 1203,677;    0,985;    0,864
1087,078; 1257,859;    0,439;   -2,136
1087,619; 1272,586;   -1,652;    0,227
1088,160; 1206,586;    1,439;    1,318
1088,701; 1189,495;   -0,742;    0,682
1089,242; 1123,495;   -0,561;   -2,227
1089,783; 1198,131;   -0,561;    1,409
1090,324; 1174,859;   -0,833;    0,682
1090,865; 1058,859;   -1,924;   -0,409
1091,405; 1042,949;   -0,561;    2,227
1091,946; 1072,949;   -0,197;   -0,955
1092,487;  996,768;   -1,288;   -1,409
1093,027; 1139,859;    1,803;   -1,500
1093,568;  994,313;    2,258;    1,227
1094,108; 1075,677;    0,621;    1,773
1094,649; 1039,768;   -0,470;    0,136
1095,189;  986,040;    1,167;   -0,682
1095,729;  917,586;    0,712;    0,955
1096,269;  937,222;    1,258;   -0,955
1096,810; 1238,949;   -0,197;    0,500
1097,350; 1049,131;   -0,561;   -0,773
1097,890;  960,859;    2,985;    1,227
1098,430; 1205,222;    4,985;    2,864
1098,970; 1077,040;    1,894;    1,682
1099,510;  956,131;   -0,833;   -2,318
1100,050;  870,949;    0,258;   -1,591
1100,589;  842,040;    0,076;   -0,318
1101,129;  957,768;    0,894;   -0,955
1101,669; 1084,949;    2,803;    2,136
1102,209;  928,495;    1,530;    2,227
1102,748;  875,131;    3,439;    0,955
1103,288;  860,040;    0,712;   -1,227
1103,827;  888,859;    3,530;   -2,227
1104,367;  776,131;    1,712;   -2,409
1104,906;  757,313;   -1,015;   -1,136
1105,445;  811,404;    0,985;   -1,136
1105,985;  740,859;   -0,652;    1,500
1106,524;  786,313;    1,530;   -0,682
1107,063;  756,677;    1,167;    1,409
1107,602;  746,677;    1,894;   -1,500
1108,141;  665,677;    1,621;    1,500
1108,680;  756,404;    3,985;   -0,591
1109,219;  706,222;    0,167;   -0,500
1109,758;  709,949;    4,167;    0,682
1110,297;  685,222;   -1,106;   -0,682
1110,836;  635,040;    1,439;    0,955
1111,375;  781,404;    0,348;    0,409
1111,913;  795,677;    0,985;    0,773
1112,452;  743,313;    0,894;    0,136
1112,991;  626,859;    1,076;    1,955
1113,529;  571,313;    0,167;   -0,045
1114,068;  646,040;    0,439;    2,955
1114,606;  543,586;   -0,561;   -0,955
1115,144;  699,131;    1,530;    1,045
1115,683;  642,495;    1,985;    0,318
1116,221;  698,313;    2,076;   -0,864
1116,759;  604,313;    1,621;   -0,864
1117,297;  778,859;    1,621;    1,864
1117,836;  602,040;    1,985;   -1,227
1118,374;  595,677;    0,258;   -0,682
1118,912;  553,404;    0,439;    2,682
1119,450;  529,404;    0,985;    0,864
1119,988;  589,222;    3,348;    2,136
1120,525; 1032,131;    7,258;    3,318
1121,063;  721,949;    0,530;    1,864
1121,601;  534,677;    1,076;   -1,227
1122,139;  497,859;    1,076;   -2,045
1122,676;  683,495;   -1,652;    2,773
1123,214;  628,586;    0,712;    4,409
1123,751;  450,859;    0,621;    2,227
1124,289;  573,677;    0,894;   -0,409
1124,826;  440,859;   -0,379;    0,227
1125,364;  382,222;    0,712;   -0,955
1125,901;  554,949;    6,258;    1,227
1126,438;  651,495;    3,530;    0,955
1126,975;  393,313;    2,985;   -0,773
1127,513;  446,404;    2,621;    2,136
1128,050;  374,949;   -0,561;   -0,682
1128,587;  463,495;    1,348;   -0,227
1129,124;  495,949;   -0,015;    1,318
1129,661;  384,222;   -1,924;    0,227
1130,198;  530,586;    2,439;    0,773
1130,734;  472,495;   -0,379;    1,409
1131,271;  341,404;   -1,197;    0,864
1131,808;  504,677;    1,621;    3,045
1132,345;  380,768;    4,530;    0,318
1132,881;  264,404;   -0,561;   -1,864
1133,418;  392,677;    0,348;   -1,136
1133,954;  339,677;    0,712;   -2,682
1134,491;  399,586;    1,712;   -0,773
1135,027;  308,404;    2,167;    0,864
1135,564;  392,949;    1,439;    2,955
1136,100;  374,859;   -0,742;    2,136
1136,636;  267,222;   -1,015;   -1,045
1137,172;  347,404;    0,894;   -1,045
1137,708;  279,495;   -1,561;   -1,045
1138,245;  285,949;    0,803;   -1,227
1138,781;  235,859;    1,803;   -3,318
1139,317;  306,222;    1,894;   -1,409
1139,852;  294,313;    3,076;    0,136
1140,388;  404,859;    2,076;   -0,409
1140,924;  290,313;    1,076;   -2,227
1141,460;  237,313;   -0,288;    0,136
1141,996;  175,949;   -0,652;    2,682
1142,531;  218,222;    1,076;    3,318
1143,067;  425,495;    1,167;    1,045
1143,602;  479,313;    3,439;   -0,318
1144,138;  323,040;    0,803;    1,045
1144,673;  202,404;    1,621;    1,409
1145,209;  267,495;    2,894;   -0,318
1145,744;  191,495;    0,803;    0,864
1146,279;  310,677;    1,530;   -0,136
1146,815;  235,495;    1,530;   -2,682
1147,350;  275,040;   -0,924;    0,045
1147,885;  183,040;   -1,924;   -1,318
1148,420;  180,495;    2,439;    0,773
1148,955;  169,131;   -1,470;    1,864
1149,490;  200,586;   -1,106;   -1,591
1150,025;  180,495;   -1,106;   -1,773
1150,560;  281,404;   -0,288;   -0,955
1151,094;  246,495;    0,258;   -0,591
1151,629;  250,495;   -3,742;    0,864
1152,164;  181,677;   -1,288;    1,318
1152,698;  144,222;    1,258;   -0,136
1153,233;  116,222;   -1,379;   -0,682
1153,767;  154,768;   -0,288;   -2,318
1154,302;  204,677;   -0,379;    1,773
1154,836;  200,949;    0,803;   -2,136
1155,371;  250,222;    2,258;    3,682
1155,905;  209,586;    1,985;    1,682
1156,439;  173,949;    0,530;   -0,500
1156,973;  215,495;    0,439;    0,318
1157,507;  146,859;   -1,742;    0,682
1158,042;  163,495;   -0,652;    1,045
1158,576;  204,768;   -0,561;    1,773
1159,110;  198,404;    0,076;    2,409
1159,643;  182,859;   -2,470;   -0,045
1160,177;  122,586;   -2,015;    1,500

