
Integration time [ms]:   0,050
Averaging Nr. [scans]: 11
Smoothing Nr. [pixels]: 0
Data measured with spectrometer [name]: 7318044SP
Wave   ;Sample   ;Dark     ;Reference
[nm]   ;[counts] ;[counts] ;[counts] 

186,757;   -4,342;   38,161;    1,318
187,357;   26,634;   26,706;    0,955
187,958;   14,896;   17,252;   -1,591
188,558;   52,829;   12,979;   -1,227
189,159;   24,559;   10,070;   -4,500
189,759;   -2,024;    5,797;   -3,591
190,360;    5,892;    6,797;   -2,136
190,960;   43,648;    5,706;   -4,136
191,560;   61,693;    2,614;   -6,591
192,161;  284,343;    5,885;   -3,500
192,761;  127,754;    5,520;   -3,227
193,361;   86,137;    3,065;   -3,773
193,962;  139,222;    1,612;   -2,682
194,562;   65,282;   -0,114;   -3,955
195,162;  100,972;   -0,567;   -2,227
195,762;  266,962;    2,433;   -0,045
196,362;  224,936;    1,706;   -2,500
196,963;   91,333;    1,706;   -0,864
197,563;  154,925;    1,252;   -0,955
198,163;  105,238;   -0,111;   -0,682
198,763;  132,996;   -0,020;   -0,500
199,363;  227,162;    3,616;   -0,500
199,963;  190,882;    2,162;    0,409
200,563;  168,075;    6,344;   -1,409
201,163;  153,649;    5,435;   -0,227
201,763;  245,167;    1,435;    0,318
202,363;  197,911;    0,980;    1,500
202,963;  294,881;    1,526;    1,045
203,563;  404,580;    0,344;    0,500
204,162;  261,511;    1,889;   -1,864
204,762;  254,472;    2,071;    0,591
205,362;  237,620;    0,708;    1,955
205,962;  323,462;    3,435;    1,955
206,562;  320,513;    1,889;    2,318
207,161;  297,591;    1,708;    0,318
207,761;  452,181;    4,435;    2,409
208,361;  328,340;    1,889;    1,409
208,960;  419,913;    2,889;    1,500
209,560;  503,852;    0,435;    1,591
210,160;  484,776;    5,071;    1,864
210,759;  451,845;    0,708;    1,227
211,359;  456,752;   -0,474;    1,045
211,958;  727,429;    3,526;    2,045
212,558;  809,669;    0,799;    1,864
213,157;  655,467;   -0,929;    1,500
213,757; 1111,421;    5,617;   -0,227
214,356;  807,729;    1,708;   -0,409
214,956; 1142,449;    3,526;    0,409
215,555;  782,266;    0,617;    2,136
216,154;  715,480;   -0,292;   -0,591
216,754;  740,924;    1,253;    0,773
217,353;  884,141;   -0,383;   -1,045
217,952;  749,984;    2,072;    0,318
218,552;  977,899;    0,254;   -0,773
219,151;  893,360;   -1,110;    0,955
219,750;  901,982;    0,890;   -0,227
220,349; 1072,985;   -2,292;    1,045
220,948; 1098,334;    1,163;    1,136
221,548; 1162,139;    0,617;    1,227
222,147; 1295,508;   -1,292;   -0,409
222,746; 1590,136;    1,254;   -0,955
223,345; 1454,617;   -1,019;    0,500
223,944; 1491,209;    1,163;    0,773
224,543; 1706,866;    4,072;   -1,409
225,142; 1816,512;    1,345;    0,136
225,741; 1750,397;    1,163;    1,045
226,340; 1783,184;    1,254;   -0,955
226,939; 2271,133;    2,708;   -0,136
227,538; 2316,049;    1,163;   -0,773
228,137; 2463,421;    0,435;    0,864
228,735; 2678,416;    0,435;    1,227
229,334; 2374,132;   -0,474;   -0,227
229,933; 2766,207;    0,799;    0,591
230,532; 2913,687;   -1,201;   -0,409
231,131; 2969,767;    1,253;    0,318
231,729; 3170,635;    1,163;   -2,318
232,328; 3357,677;    0,435;   -1,500
232,927; 3495,793;    4,526;   -0,500
233,525; 3645,781;    0,981;    0,045
234,124; 3894,292;    1,890;   -1,591
234,723; 3940,153;    1,617;   -1,045
235,321; 4096,299;    1,163;    0,136
235,920; 4407,276;    2,526;   -1,227
236,518; 4713,786;    1,072;    0,318
237,117; 4977,749;    2,890;   -0,227
237,715; 5172,015;    1,163;   -0,500
238,314; 5220,613;    1,708;   -2,318
238,912; 5304,190;    0,526;   -1,409
239,510; 5399,987;    1,162;   -1,227
240,109; 5587,600;   -0,474;    3,773
240,707; 5678,868;   -0,474;    1,227
241,305; 6146,120;   -0,383;    0,136
241,904; 6366,756;   -0,292;   -2,045
242,502; 6312,863;    3,253;   -0,227
243,100; 6319,276;    3,344;   -0,955
243,698; 6589,179;    2,799;    1,682
244,297; 6763,138;   -0,656;    0,682
244,895; 6574,470;   -0,474;   -2,318
245,493; 6982,038;    2,981;   -0,591
246,091; 7064,802;    5,163;   -1,318
246,689; 7049,524;    2,163;    0,591
247,287; 7212,850;   -0,019;   -1,136
247,885; 7587,868;   -1,019;    1,227
248,483; 7720,994;   -0,201;   -0,500
249,081; 7837,484;    0,981;    1,591
249,679; 8044,040;   -1,019;    1,682
250,277; 8360,103;   -2,292;    0,864
250,875; 8317,646;    0,617;   -1,045
251,473; 8382,514;   -0,019;    0,500
252,071; 8577,813;   -0,383;    1,045
252,669; 8749,118;   -1,565;    0,318
253,267; 9096,394;    1,618;    0,773
253,864; 9060,486;    0,617;    0,682
254,462; 8844,761;    1,526;    1,591
255,060; 8908,188;    0,072;    1,318
255,658; 9265,573;   -3,292;   -0,136
256,255; 9732,845;   -0,201;   -2,045
256,853; 9565,959;    2,345;    1,409
257,451; 9549,118;    1,981;    1,864
258,048; 9844,636;    2,072;    1,864
258,646; 9624,482;    0,436;   -1,045
259,243; 9829,413;    2,981;    2,227
259,841; 9914,728;    1,799;    0,318
260,438; 9776,114;    0,254;    0,864
261,036;10625,448;    0,617;    1,409
261,633;10521,766;    1,526;    2,227
262,231;10248,316;   -0,110;   -0,045
262,828;10349,319;   -0,383;    1,136
263,425;10410,262;   -1,928;   -0,591
264,023;10695,643;    1,436;    0,045
264,620;10204,472;    1,526;   -0,318
265,217;10594,578;    2,890;    3,136
265,815;10730,383;    2,527;    2,136
266,412;10459,135;    0,072;    0,136
267,009;10517,840;    0,526;    0,773
267,606;10364,482;    0,345;   -0,955
268,203;10372,593;   -0,383;   -0,591
268,801;10719,963;   -0,474;    0,591
269,398;11037,189;   -0,564;    2,500
269,995;11022,864;    0,890;    1,591
270,592;10774,255;    0,799;   -0,500
271,189;11040,857;    1,981;    0,409
271,786;11182,572;    2,072;    1,227
272,383;10954,368;   -0,383;    0,227
272,980;11195,546;    1,617;    0,318
273,577;11758,190;    2,162;    1,227
274,174;11248,244;    1,435;    2,591
274,771;11266,027;    1,890;   -0,773
275,367;11396,366;    3,253;    1,409
275,964;11356,950;   -0,565;   -0,500
276,561;11511,953;   -2,474;   -1,045
277,158;11805,404;    1,799;   -1,773
277,755;11880,212;   -0,110;    0,409
278,351;11235,204;    0,436;   -1,500
278,948;11569,174;   -0,201;    0,045
279,545;11619,232;    0,527;    2,318
280,141;12269,642;    1,254;   -2,045
280,738;12120,562;    2,435;   -0,136
281,334;12414,462;   -0,383;    0,591
281,931;11774,791;    2,890;   -1,318
282,528;11881,341;    4,072;   -0,500
283,124;12696,942;    3,345;   -0,500
283,721;12588,224;    0,709;    1,409
284,317;12402,497;    0,163;    2,500
284,913;12971,930;   -0,110;    0,591
285,510;13228,111;    2,890;   -0,318
286,106;13265,645;    2,345;   -0,955
286,703;12791,853;    0,072;    1,955
287,299;13032,910;    1,254;   -0,591
287,895;13290,413;    0,890;   -1,045
288,491;13967,916;    0,163;    2,136
289,088;13640,842;    0,163;    2,409
289,684;13716,027;    2,890;    1,500
290,280;13712,080;    1,890;    0,682
290,876;13781,161;    0,163;    5,500
291,472;13708,072;    2,163;    2,227
292,068;13789,474;    1,254;    0,227
292,665;13490,364;   -0,564;    0,773
293,261;13041,232;   -1,292;    2,136
293,857;13479,251;    4,072;    2,136
294,453;13440,838;   -0,928;    0,955
295,049;13272,694;    0,253;    1,955
295,644;13311,905;   -1,292;    0,136
296,240;13227,054;    0,162;   -0,136
296,836;13294,479;   -0,747;    0,318
297,432;13573,596;    2,980;   -0,500
298,028;13614,023;    0,435;    0,773
298,624;14047,041;    0,889;    1,864
299,220;14377,142;    0,435;    0,591
299,815;13995,453;    0,526;   -0,409
300,411;13737,694;    0,435;    1,773
301,007;13759,825;    1,889;    0,227
301,602;13830,185;    2,071;   -2,318
302,198;14026,407;    1,435;   -0,773
302,794;14367,094;    1,526;   -0,500
303,389;14525,292;    1,071;    1,045
303,985;14632,821;    1,253;    1,409
304,580;14541,543;    0,889;    1,591
305,176;14528,480;    0,344;    0,136
305,771;14481,016;   -0,929;   -1,227
306,367;14196,477;    3,071;    0,136
306,962;14633,549;    2,889;    1,500
307,558;14365,030;    2,435;    0,136
308,153;14331,122;   -0,383;   -1,136
308,748;14575,967;    0,162;    1,682
309,344;14545,418;    0,253;   -1,318
309,939;14584,946;    2,071;   -1,318
310,534;14983,546;   -2,020;   -1,682
311,130;14932,400;   -0,656;   -2,500
311,725;14623,898;    0,526;   -0,500
312,320;14969,528;    1,253;    0,045
312,915;14829,824;    2,890;   -1,045
313,510;14839,481;    0,526;   -0,500
314,105;15385,756;   -3,565;    1,409
314,700;14774,527;   -1,656;   -1,045
315,295;14323,179;   -0,020;    0,045
315,890;13874,811;   -0,292;    0,864
316,485;14272,363;    0,253;   -0,318
317,080;14401,469;   -0,929;    1,591
317,675;14938,533;    3,071;   -0,682
318,270;14237,253;    6,889;    3,318
318,865;14329,793;    2,435;    3,045
319,460;14172,153;   -1,565;    0,591
320,055;14411,712;   -2,565;   -1,227
320,650;14013,289;   -1,838;   -0,591
321,244;14095,830;    0,889;   -1,409
321,839;15125,543;    0,980;   -0,227
322,434;15003,164;   -0,111;   -1,591
323,029;14600,857;   -0,474;    1,591
323,623;14440,603;    0,798;    0,773
324,218;14162,728;    2,707;    1,409
324,812;14084,735;    0,889;    1,591
325,407;13879,062;   -0,929;    2,045
326,002;13767,223;    0,526;   -0,409
326,596;14086,783;   -0,656;    1,318
327,191;14378,650;   -0,383;   -1,045
327,785;13909,692;   -0,747;   -0,227
328,379;14149,955;   -0,383;    0,136
328,974;13943,987;    1,798;   -3,955
329,568;14129,773;    2,889;   -2,409
330,163;13942,719;    2,435;    1,045
330,757;14361,348;    0,253;    1,591
331,351;13632,865;   -0,292;    0,682
331,945;13903,815;   -0,383;    1,409
332,540;13448,416;    1,617;   -0,591
333,134;13600,326;    3,344;    0,773
333,728;13876,566;    2,799;    0,318
334,322;14244,249;    0,889;   -0,864
334,916;13478,536;    0,344;    0,955
335,510;13794,977;   -0,111;   -0,136
336,105;14053,014;   -0,929;    1,591
336,699;13733,433;   -1,292;    0,591
337,293;13636,766;    1,071;    0,318
337,887;13813,560;    0,071;    1,955
338,481;13922,352;    2,980;    0,591
339,074;14056,621;    2,071;    2,682
339,668;13856,471;   -0,110;    1,227
340,262;14093,637;    7,708;    3,227
340,856;13610,558;    1,708;   -0,682
341,450;12910,211;    0,708;    1,864
342,044;13855,584;    1,799;    0,136
342,637;13592,964;    1,162;   -2,136
343,231;13424,546;   -1,474;    0,682
343,825;13382,427;   -0,747;   -0,591
344,419;13325,212;   -0,474;    0,500
345,012;12989,740;    2,889;    4,045
345,606;12990,948;   -0,656;    1,591
346,199;12853,819;   -0,111;   -0,227
346,793;12336,123;    2,525;    2,045
347,386;12550,607;    0,889;   -1,136
347,980;12569,545;   -0,838;   -0,045
348,573;12316,607;   -1,748;    0,409
349,167;11897,477;    6,161;    4,773
349,760;12266,157;    2,252;    2,682
350,354;12270,842;    1,616;    1,136
350,947;11959,716;    2,798;    1,682
351,540;11614,010;    0,616;   -1,409
352,134;11530,553;   -1,111;    1,136
352,727;11644,427;   -0,657;    1,136
353,320;11438,703;    2,343;    0,591
353,913;11255,404;   -1,929;    1,864
354,507;11446,976;    0,434;   -1,227
355,100;11428,580;    0,071;    0,864
355,693;10541,288;    4,798;    2,409
356,286;10573,365;    0,980;    2,773
356,879;10991,531;   -0,475;    1,227
357,472;10544,034;    0,980;    1,500
358,065;10773,642;    3,161;    2,500
358,658;10708,980;    0,798;    2,318
359,251;10286,809;    0,252;   -0,591
359,844; 9701,990;    0,343;   -1,136
360,437; 9839,468;    0,252;    0,045
361,030;10155,414;    0,525;   -0,682
361,623; 9729,026;    0,434;    0,318
362,215; 9753,295;    0,979;    2,045
362,808; 9605,964;   -2,293;   -1,682
363,401; 9766,587;    0,798;    0,136
363,994; 9473,324;    3,252;   -1,500
364,586; 9383,017;    0,888;   -1,500
365,179; 9619,678;   -0,203;   -1,136
365,772; 9038,198;   -0,930;    2,045
366,364; 9371,401;    1,524;   -3,227
366,957; 9611,242;    1,342;   -0,045
367,549; 9617,845;   -0,203;   -0,864
368,142; 9233,619;    0,978;   -1,500
368,734; 9429,106;    2,523;   -2,136
369,327; 9404,821;    2,341;   -0,500
369,919; 9270,337;   -1,659;    0,409
370,512; 9027,199;   -1,023;   -0,500
371,104; 8750,518;    2,704;    1,591
371,696; 8918,359;    1,703;   -0,955
372,289; 9040,621;    0,157;    1,136
372,881; 9244,974;    1,156;    1,318
373,473; 9134,469;    4,064;    1,136
374,066; 8879,069;    1,336;    0,500
374,658; 8730,375;    0,879;    1,136
375,250; 9141,286;   -1,668;   -1,409
375,842; 8954,585;   -0,124;   -0,045
376,434; 8796,499;   -2,762;   -0,409
377,026; 9468,416;   -1,855;   -2,500
377,618; 9325,971;    0,779;   -0,682
378,210; 9168,048;    3,141;   -1,955
378,802; 9007,333;    3,412;   -0,591
379,394; 8937,017;    3,411;    0,682
379,986; 9627,270;    1,138;   -0,955
380,578; 9731,268;    1,410;    0,773
381,170; 8942,554;    0,320;    0,045
381,762; 8914,528;   -0,224;    1,409
382,354; 9191,427;   -0,223;   -1,318
382,945; 9298,464;    0,870;    0,318
383,537; 9468,215;    1,144;   -1,955
384,129; 9441,641;    0,963;   -1,136
384,721; 9666,555;    0,418;    0,955
385,312; 9603,254;   -1,399;   -0,955
385,904; 9671,786;   -0,945;    1,591
386,496; 9006,056;    0,691;    1,045
387,087; 9139,906;    0,418;    2,500
387,679; 9178,839;   -0,401;    0,045
388,270; 9324,805;   -2,401;    2,045
388,862; 9455,379;   -0,401;   -0,318
389,453; 9359,234;    1,054;    1,045
390,045; 9604,656;    3,236;   -2,682
390,636; 9561,568;    0,144;   -0,591
391,227; 9401,116;    2,054;   -0,045
391,819; 9515,391;    0,781;    0,773
392,410; 9590,944;    0,600;    0,045
393,001; 9486,543;    1,600;   -1,591
393,593; 9804,203;    0,600;   -0,045
394,184; 9651,827;    0,873;   -0,409
394,775; 9579,955;    1,146;    2,136
395,366; 9777,546;    1,782;    0,773
395,957; 9810,623;   -2,400;    0,136
396,548;10177,491;    1,054;    2,682
397,139;10469,910;    2,236;    0,591
397,730;10171,139;    0,873;    0,955
398,321;10242,088;    0,509;    0,955
398,912;10274,618;   -0,764;    0,136
399,503;10411,003;   -1,945;   -1,409
400,094; 9772,122;   -1,582;    1,682
400,685; 9644,189;    3,600;    0,045
401,276; 9711,600;   -0,400;   -0,955
401,867;10054,522;   -1,127;    0,773
402,458;10123,103;    1,509;   -2,318
403,048;10120,469;    0,146;    0,591
403,639; 9698,391;    1,509;    0,864
404,230; 9941,694;    0,691;    0,318
404,821; 9877,276;   -0,127;    0,045
405,411; 9988,678;   -0,763;   -2,591
406,002; 9520,057;    3,237;   -1,136
406,592; 9281,375;    2,691;    0,045
407,183; 9662,132;    0,328;   -1,500
407,774; 9581,302;    1,419;   -0,136
408,364; 9953,221;    2,600;    0,409
408,954; 9506,339;   -0,036;    1,227
409,545; 9572,505;    1,873;    1,045
410,135; 9024,930;   -1,581;    0,500
410,726; 9243,143;    0,783;    0,318
411,316; 9632,642;    2,237;    0,773
411,906; 9281,885;    0,146;   -0,409
412,497; 8696,170;   -0,490;   -0,045
413,087; 9362,518;    0,783;   -0,227
413,677; 9801,175;   -2,490;    3,864
414,267; 9632,667;   -1,035;    1,409
414,857; 9674,881;    0,419;    4,227
415,448; 9975,850;   -0,763;    0,500
416,038; 9603,364;   -2,945;   -0,591
416,628; 9597,340;    0,965;    0,409
417,218; 9008,657;   -1,762;    3,318
417,808; 9303,781;    0,965;   -0,409
418,398; 9868,546;   -1,035;    2,682
418,988; 9877,813;   -2,217;    0,591
419,578;10120,175;    3,601;    1,409
420,168;10438,896;    0,692;   -0,955
420,757; 9982,428;    0,964;   -1,500
421,347; 9655,115;    1,601;   -0,227
421,937; 9845,767;    3,329;    1,409
422,527; 9745,928;    2,602;   -0,773
423,116; 9573,390;    2,692;   -0,045
423,706;10009,247;    2,965;    0,318
424,296; 9921,509;    1,601;    0,682
424,885;10387,054;    1,510;   -3,045
425,475;10712,590;    1,147;   -2,864
426,065;10644,521;   -1,489;   -0,318
426,654;10240,808;    0,329;   -0,318
427,244;10352,008;    1,147;    1,409
427,833; 9740,061;    1,056;   -0,500
428,423;10271,443;    0,147;    1,136
429,012;11100,772;    2,420;   -1,136
429,601;10561,244;    2,057;    0,136
430,191;10818,225;    2,511;    4,318
430,780;10391,695;   -1,671;   -0,409
431,369;10292,522;    1,329;   -0,045
431,959;11026,672;    1,693;    0,500
432,548;10788,993;   -1,398;   -0,045
433,137;10949,513;    0,329;   -1,318
433,726;11503,646;    0,148;    0,500
434,315;10811,299;    0,148;    2,409
434,905;10918,458;    0,693;    1,409
435,494;10800,108;    3,148;    0,955
436,083;11314,368;    1,420;   -0,955
436,672;11139,615;    1,148;    0,500
437,261;10669,703;    0,512;   -1,955
437,850;10758,798;   -1,125;    0,682
438,439;10730,967;    2,239;    1,955
439,027;10526,283;    3,421;    1,773
439,616;10962,970;    2,239;    1,227
440,205;10872,016;    0,057;   -2,136
440,794;10944,542;   -0,306;   -0,045
441,383;11227,010;    1,603;   -0,591
441,971;11076,442;   -0,306;    0,591
442,560;10913,150;    0,603;   -1,773
443,149;10700,988;    3,060;   -1,318
443,737;10855,596;    0,968;   -2,318
444,326;11042,258;    0,331;    0,318
444,915;11132,444;   -1,851;    0,864
445,503;11567,203;    0,058;   -0,318
446,092;10798,519;    7,876;    2,136
446,680;11361,782;    1,876;    0,318
447,269;11588,708;   -1,487;   -0,318
447,857;11330,272;    2,240;   -1,773
448,445;11482,978;    2,149;    1,318
449,034;11737,159;    0,876;   -1,136
449,622;11849,165;    1,240;    3,500
450,210;10940,762;    3,149;    2,227
450,799;11525,164;    2,604;   -0,591
451,387;11437,149;    1,786;   -0,591
451,975;11070,816;   -1,305;    0,864
452,563;11195,050;    0,422;    2,318
453,151;11261,480;   -1,032;   -1,227
453,739;11168,125;   -1,577;    0,136
454,328;10980,932;    0,604;   -2,136
454,916;10643,596;    1,150;   -0,136
455,504;10862,820;    3,513;    1,227
456,092;11074,781;    2,150;   -1,591
456,679;11055,220;    0,604;    0,682
457,267;10877,965;    3,604;    1,045
457,855;11117,998;    3,241;    1,409
458,443;10897,401;   -0,304;    1,682
459,031;10993,047;    1,332;    2,409
459,619;11524,490;   -3,577;    2,864
460,206;11690,843;   -0,759;    2,045
460,794;11755,770;   -0,668;   -0,227
461,382;12006,238;    0,878;   -0,864
461,970;11546,537;    0,605;    1,864
462,557;11575,922;    0,878;   -0,682
463,145;11803,921;   -0,304;   -1,682
463,732;11957,368;    2,514;   -1,045
464,320;11871,076;    1,514;   -3,045
464,907;11499,540;    0,423;   -0,773
465,495;11380,678;    2,696;   -1,227
466,082;11531,819;    2,060;   -0,045
466,670;11473,749;    2,605;    1,227
467,257;11947,349;    0,060;    2,045
467,844;12105,521;    1,514;    0,045
468,432;12098,939;   -0,031;    3,500
469,019;11529,695;    1,606;   -1,773
469,606;12031,940;    0,969;    3,682
470,193;11860,558;    2,151;    0,227
470,780;11384,914;    0,333;    0,864
471,368;11774,044;   -1,212;   -0,773
471,955;11505,176;    1,060;   -0,682
472,542;11116,441;   -0,303;   -1,136
473,129;11364,177;   -0,485;    0,136
473,716;11126,379;    0,060;    0,591
474,303;11339,118;    1,333;   -0,864
474,890;11649,042;    2,333;   -0,500
475,477;11660,716;   -0,576;    0,409
476,064;11588,510;    0,697;   -1,591
476,650;11496,369;    2,152;    0,318
477,237;11367,642;    1,879;    0,955
477,824;11519,616;    3,879;    0,864
478,411;11555,594;    0,606;   -0,318
478,997;11727,628;    0,606;   -0,773
479,584;11836,486;   -0,666;   -0,409
480,171;12596,239;    1,243;   -0,773
480,757;12225,782;   -0,848;    0,773
481,344;12521,309;    0,334;    0,409
481,931;12015,263;   -0,393;    1,045
482,517;13050,532;    0,425;    0,318
483,104;13746,000;    1,334;    2,864
483,690;14081,380;    0,243;    0,045
484,276;14511,713;    0,698;    0,227
484,863;14263,552;    2,152;    1,136
485,449;14886,447;    0,152;    0,318
486,035;14903,319;   -0,666;   -0,136
486,622;15378,842;   -2,393;    0,045
487,208;15269,340;    1,334;    1,500
487,794;15183,294;    0,971;    0,318
488,380;15258,064;    0,698;   -1,409
488,967;15318,731;   -1,120;   -0,409
489,553;15357,949;   -1,029;   -1,409
490,139;15552,109;    0,971;    0,773
490,725;15004,773;    0,789;   -0,227
491,311;14486,714;    1,516;    3,045
491,897;13652,275;   -0,665;    1,500
492,483;13422,533;    0,426;    1,227
493,069;13152,265;    5,426;    0,864
493,655;13162,764;    1,789;    0,682
494,241;13073,614;    1,517;   -0,955
494,826;13505,034;    0,335;   -1,045
495,412;12907,157;    0,335;   -0,682
495,998;13098,435;    0,971;   -0,318
496,584;13263,851;    2,244;    1,045
497,169;13233,333;    2,335;   -0,682
497,755;13187,951;    1,244;    1,227
498,341;13771,964;    2,153;    0,318
498,926;13286,109;    2,881;    1,955
499,512;13518,389;   -0,028;    2,955
500,097;13693,204;   -0,574;   -0,318
500,683;13610,957;   -0,028;    2,136
501,268;13990,091;    1,881;   -0,955
501,854;13714,852;   -0,119;    1,227
502,439;13627,004;   -0,573;   -1,773
503,024;13847,045;    1,608;    0,500
503,610;13892,697;    1,335;   -0,682
504,195;13919,971;    1,245;    1,955
504,780;14013,840;    2,335;    1,227
505,366;13807,080;    4,063;    2,864
505,951;13520,380;   -1,119;    1,045
506,536;13531,380;    1,427;   -3,682
507,121;13567,710;    1,699;   -0,318
507,706;14123,999;   -0,392;    1,045
508,291;14497,931;   -2,937;    1,136
508,876;13938,444;   -0,482;    2,591
509,461;13344,603;    1,427;   -0,773
510,046;13804,068;   -0,391;    0,318
510,631;14035,793;   -0,119;   -0,773
511,216;13722,837;   -0,664;   -0,500
511,801;14103,728;   -0,755;    2,591
512,386;14394,259;    0,972;    0,500
512,971;14377,048;    0,427;    0,955
513,555;13888,094;    1,154;   -1,500
514,140;14736,892;    1,336;   -3,136
514,725;14746,943;    1,791;   -1,136
515,309;14896,092;    1,064;    0,318
515,894;14259,963;   -0,300;   -2,227
516,479;14739,109;    1,973;   -0,955
517,063;14573,969;    0,882;    1,227
517,648;14684,900;    0,155;   -1,136
518,232;14317,653;   -1,300;   -1,409
518,817;14663,177;    1,337;    1,682
519,401;14874,476;    0,700;    0,591
519,985;14356,705;    2,700;    1,136
520,570;14235,380;   -0,118;   -1,955
521,154;14598,152;    0,064;    0,591
521,738;14761,486;    1,064;    2,409
522,323;15369,483;   -0,390;    1,682
522,907;15075,255;    2,428;   -0,136
523,491;14764,454;    1,155;    0,955
524,075;14769,705;    0,428;    0,591
524,659;14878,099;    0,973;    0,591
525,243;14264,517;    0,883;    0,409
525,827;14532,042;    0,883;   -0,045
526,411;15417,554;    1,155;   -0,136
526,995;15680,576;    0,337;    1,409
527,579;15259,323;    1,974;   -1,045
528,163;15570,442;    0,428;   -1,500
528,747;15475,869;    1,065;   -0,773
529,331;15796,147;    0,883;   -1,409
529,915;16027,394;    2,338;    0,955
530,499;15990,362;    0,247;    1,227
531,082;15663,039;    1,065;    1,591
531,666;15025,888;    0,520;    0,773
532,250;15725,757;    0,428;    2,682
532,833;16101,192;    0,610;    2,773
533,417;15990,417;    1,247;    0,864
534,001;15955,916;    0,429;   -0,318
534,584;16704,426;    1,974;    0,500
535,168;16489,415;    3,247;    1,409
535,751;16568,835;    4,520;    0,045
536,334;15992,429;    4,520;   -0,409
536,918;16662,081;    1,974;    1,591
537,501;16770,794;    1,520;    1,318
538,085;16697,377;    1,702;    1,045
538,668;16892,629;    0,883;    2,409
539,251;17241,062;    3,156;    3,773
539,834;17263,222;    0,156;    0,773
540,418;17172,406;    3,247;    4,318
541,001;17308,694;    2,702;    1,773
541,584;17348,736;    1,429;    2,227
542,167;16986,642;    0,702;    2,955
542,750;17126,814;    0,793;   -0,773
543,333;16710,961;    1,429;    2,136
543,916;17558,146;   -0,298;    2,500
544,499;18213,805;    2,520;    0,227
545,082;18209,153;    0,248;    3,591
545,665;18352,778;   -0,207;    1,500
546,248;18722,507;    0,520;   -0,318
546,830;18388,447;   -1,752;    1,955
547,413;18788,722;    0,157;   -0,773
547,996;19345,942;    0,157;    0,500
548,579;19094,457;   -0,843;    0,955
549,161;18936,441;    0,884;    2,682
549,744;18712,774;    0,612;    0,409
550,326;19221,058;    0,885;   -1,136
550,909;18940,738;    2,339;    0,591
551,492;19413,389;    0,521;    0,227
552,074;19179,723;   -0,024;   -1,318
552,657;19748,878;    2,430;    0,045
553,239;19431,451;   -3,024;   -0,773
553,821;19409,433;   -1,570;    1,045
554,404;18889,568;   -0,024;    1,136
554,986;19261,451;    2,248;    1,045
555,568;19921,206;    0,430;   -0,955
556,151;19094,094;    4,067;   -0,227
556,733;19282,697;   -1,388;   -0,864
557,315;19776,780;    4,703;    0,500
557,897;19575,271;    0,521;   -0,500
558,479;19724,769;    1,703;    1,318
559,061;19859,932;    1,067;   -0,864
559,643;20203,551;   -0,297;    0,045
560,225;20551,917;   -0,388;    2,864
560,807;20609,006;    0,340;    0,318
561,389;20069,643;   -1,206;    2,318
561,971;20797,485;   -0,660;    2,136
562,553;20646,151;    0,613;    1,591
563,135;20810,531;    1,249;    1,136
563,717;20358,948;    3,158;    1,136
564,298;21160,216;    3,976;   -0,045
564,880;20829,691;    0,340;   -1,409
565,462;21037,145;    1,977;    1,318
566,043;22240,998;   -0,933;    2,318
566,625;21704,629;    4,067;    1,227
567,207;21581,181;    0,704;    1,682
567,788;22751,390;   -0,114;    1,500
568,370;23672,494;   -1,841;   -0,500
568,951;23497,851;   -0,569;    0,227
569,533;24437,297;    0,977;   -0,500
570,114;24938,715;   -0,296;    0,682
570,695;25412,291;   -0,478;   -1,318
571,277;25970,447;   -0,205;   -1,682
571,858;26767,788;    2,704;   -1,136
572,439;27723,595;    0,795;   -1,045
573,021;27915,460;    0,432;   -2,773
573,602;28401,117;    1,795;    0,318
574,183;29345,974;   -0,114;    2,227
574,764;29614,653;    2,068;    0,409
575,345;30163,076;    0,250;   -0,136
575,926;30851,213;    2,704;    0,136
576,507;30825,748;    2,704;   -0,227
577,088;31912,443;    1,704;    1,682
577,669;31971,969;    1,704;    1,955
578,250;32760,792;   -0,750;   -1,045
578,831;33443,399;   -0,841;   -2,227
579,412;33731,038;   -1,205;    0,955
579,993;34731,750;    1,432;    0,227
580,573;35088,787;   -0,023;   -0,955
581,154;33922,188;    1,613;   -0,591
581,735;34844,295;    0,341;    0,773
582,315;34377,386;    0,523;    2,136
582,896;34709,653;   -1,750;    1,227
583,477;34124,056;    0,614;    1,227
584,057;34335,263;    1,159;    0,955
584,638;34597,568;   -2,750;    2,318
585,218;34586,889;    2,886;    2,682
585,799;34717,877;    1,977;   -0,227
586,379;34689,807;    1,250;    1,591
586,959;33422,038;    2,613;    0,318
587,540;32735,650;    0,432;    2,227
588,120;32195,107;   -1,113;   -0,045
588,700;31098,196;    2,977;    2,136
589,281;31435,178;    1,250;   -0,955
589,861;31348,061;   -0,296;   -1,682
590,441;31198,007;   -1,477;   -2,682
591,021;30105,472;    1,432;   -2,591
591,601;30307,710;    0,431;    0,500
592,181;30313,993;   -1,296;   -0,773
592,761;29583,780;    2,250;    1,409
593,341;29481,909;    1,522;    0,045
593,921;29456,684;   -0,569;    1,591
594,501;29298,161;    1,250;    1,318
595,081;29158,705;    0,522;   -0,318
595,661;29512,642;    1,068;    0,955
596,240;29975,924;   -1,023;    0,136
596,820;29580,580;    2,613;    1,955
597,400;29874,748;    1,977;    0,773
597,980;30087,549;   -0,750;    1,045
598,559;30114,368;    0,341;   -0,227
599,139;29786,128;   -0,750;   -1,227
599,718;29719,219;    0,795;   -0,409
600,298;29926,491;   -2,387;    0,682
600,877;30158,838;    4,795;    1,409
601,457;30437,858;    0,340;    1,136
602,036;30336,523;    1,795;    2,045
602,616;30597,271;    2,250;    1,682
603,195;30939,398;    0,431;    3,500
603,774;30461,307;   -0,296;    2,045
604,354;30318,468;    2,522;   -0,500
604,933;29816,694;    0,250;    1,864
605,512;29928,906;    2,340;    0,591
606,091;29974,327;    1,886;    3,773
606,671;30768,467;    0,249;    0,773
607,250;29810,933;    1,431;    3,136
607,829;30080,717;    1,158;    3,227
608,408;29932,012;    4,613;    2,591
608,987;28981,661;    2,704;    3,409
609,566;29250,738;    0,341;   -2,500
610,145;29286,106;    2,885;    0,682
610,723;29738,432;    1,613;    6,864
611,302;28915,885;    1,067;    1,682
611,881;28412,292;    5,158;   11,227
612,460;29225,367;    0,795;    3,955
613,039;29709,018;    1,703;    2,045
613,617;28431,771;    0,886;    4,773
614,196;28569,945;    1,613;    1,227
614,775;28945,521;    1,249;    2,409
615,353;28943,792;   -1,660;    0,864
615,932;28610,776;    0,249;    2,409
616,510;29191,788;    0,158;    0,591
617,089;28680,397;    8,794;   17,591
617,667;28396,600;    4,885;    6,136
618,246;28193,112;   -1,115;    1,318
618,824;28423,557;    1,612;   -0,955
619,402;27944,835;    0,431;   -1,773
619,981;28422,128;    1,067;   -1,045
620,559;28354,319;    0,794;    1,682
621,137;27884,593;    3,067;    1,864
621,715;27857,192;    3,703;   -0,682
622,293;27761,919;    1,885;   -0,773
622,871;28219,780;    0,340;    0,500
623,450;27796,018;    0,430;   -0,864
624,028;27660,255;   -0,388;   -0,955
624,606;27274,137;    2,339;    1,682
625,183;27620,574;   -0,661;   -1,136
625,761;27287,568;    1,885;    1,136
626,339;27552,677;    2,339;    2,591
626,917;27937,000;    0,339;   -0,045
627,495;28021,594;    2,794;    1,318
628,073;27426,635;    5,248;    2,864
628,650;27076,733;    3,067;    2,136
629,228;27564,756;    1,248;    4,409
629,806;26910,744;   -0,024;    1,136
630,383;27171,438;    0,066;   -0,318
630,961;26925,685;   -2,206;   -0,955
631,539;26698,759;   -2,479;    0,227
632,116;25898,413;   12,703;   15,409
632,694;26517,994;    4,885;    6,500
633,271;26871,671;    1,975;    2,682
633,848;26748,474;    1,430;    2,045
634,426;26830,584;    1,521;    1,773
635,003;25919,175;   -0,207;   -0,409
635,580;26246,426;    1,884;    3,682
636,158;26753,091;    3,793;    1,227
636,735;26748,794;    3,339;   -0,500
637,312;26931,196;    0,521;   -0,682
637,889;27022,798;    2,248;   -0,682
638,466;26478,211;    0,066;   -0,409
639,043;26462,631;    1,702;   -1,136
639,620;26800,048;    0,611;   -0,955
640,197;27148,997;    1,612;    1,682
640,774;27300,329;    1,430;    1,136
641,351;27675,115;    0,612;    1,136
641,928;27051,719;    2,794;    1,409
642,505;26740,960;    0,794;   -0,500
643,082;26858,382;    1,885;    1,227
643,658;25875,441;    1,157;    1,500
644,235;26643,318;   -2,479;    2,500
644,812;26891,559;    1,794;    0,773
645,388;26612,436;    1,612;    1,409
645,965;26677,949;    1,521;    1,682
646,542;26747,190;    3,430;   -0,227
647,118;26817,976;    3,703;   -0,955
647,695;27088,307;    0,339;    1,136
648,271;26965,093;   -2,115;    0,500
648,848;27271,334;    0,248;    2,227
649,424;27086,120;    0,976;    1,318
650,000;26872,906;   -0,388;   -1,045
650,577;26705,601;    0,158;   -0,955
651,153;27143,751;   -1,115;    0,955
651,729;28112,901;    0,521;    0,864
652,305;28360,596;    1,339;    2,773
652,881;33006,564;   -1,297;    1,136
653,458;40246,259;    0,249;    0,227
654,034;44278,772;    0,703;    1,591
654,610;45882,286;    0,339;    0,773
655,186;47232,435;    1,612;    3,045
655,762;47034,403;   -1,842;    0,409
656,338;47117,553;    0,703;    0,136
656,913;48090,521;   -0,297;    0,409
657,489;47356,943;    0,249;   -0,318
658,065;47396,366;    0,794;   -1,591
658,641;47900,424;    2,158;   -0,864
659,217;47138,211;    2,067;    0,409
659,792;46519,542;   -1,751;   -0,409
660,368;46793,328;   -0,388;   -0,682
660,944;46482,660;    1,794;    1,227
661,519;41758,082;    0,522;    0,409
662,095;35361,959;   -0,206;    0,591
662,670;30336,018;   -0,206;   -0,136
663,246;29139,986;   -0,660;   -0,409
663,821;28402,226;    0,431;    1,682
664,396;27891,376;    0,613;    1,864
664,972;28156,344;   -0,660;   -0,500
665,547;28433,948;    3,794;    0,136
666,122;28428,825;    1,340;    0,318
666,698;28741,066;    2,431;    0,318
667,273;28072,579;    0,885;    0,136
667,848;28899,093;    0,340;    1,500
668,423;28670,242;    1,795;    2,318
668,998;29258,210;    0,976;   -0,682
669,573;29835,633;    2,067;   -1,500
670,148;29659,600;    1,885;   -0,682
670,723;29479,932;   -0,024;    0,318
671,298;29874,809;   -1,296;    1,045
671,873;29976,231;   -0,296;   -0,136
672,448;29929,108;    1,704;    0,136
673,023;30258,985;    0,249;   -0,227
673,597;30579,953;    2,704;    2,318
674,172;30356,921;    2,431;    0,318
674,747;29864,253;   -0,205;   -1,045
675,321;29727,584;   -0,933;    3,318
675,896;29264,188;    2,158;    1,045
676,471;30284,611;    2,522;    1,591
677,045;30003,397;   -0,296;    0,682
677,620;30027,819;    2,158;    1,136
678,194;30397,060;    0,249;    1,136
678,769;29967,483;    0,886;   -0,318
679,343;30126,178;   -0,023;    1,773
679,917;29985,782;    0,340;    1,955
680,492;30139,568;    0,249;    3,227
681,066;30243,536;    0,613;    0,409
681,640;30296,686;    1,795;   -0,318
682,214;31100,744;    2,340;    0,500
682,788;30581,167;    0,613;   -0,773
683,363;30596,044;    1,977;    1,682
683,937;30294,830;    0,886;   -0,318
684,511;31085,525;   -1,023;   -0,591
685,085;30805,947;   -1,478;    0,318
685,659;30513,188;    1,431;    0,864
686,232;30761,792;    1,159;   -0,318
686,806;30471,033;    2,159;    0,409
687,380;31141,728;   -1,932;    0,591
687,954;31442,605;    2,432;    1,136
688,528;31045,300;    2,613;    1,955
689,101;31819,268;    0,432;    1,045
689,675;31367,236;    0,886;   -0,136
690,249;30783,840;    3,432;    0,409
690,822;31102,899;    1,159;    0,318
691,396;31143,412;    2,068;    1,227
691,969;30613,653;    2,523;    0,136
692,543;31111,076;   -0,568;   -1,955
693,116;30756,225;   -0,659;   -1,409
693,690;30613,648;   -0,296;    0,500
694,263;31132,979;    2,341;    2,955
694,836;31141,220;    2,795;    3,591
695,410;29768,188;    1,159;    1,773
695,983;30235,065;    1,614;    0,591
696,556;30221,760;   -0,750;   -1,045
697,129;30627,546;   -1,114;    1,409
697,703;30203,514;    1,341;    1,955
698,276;30204,573;    1,705;   -0,773
698,849;29994,995;   -1,023;    1,409
699,422;30391,508;    1,250;    0,591
699,995;30028,931;   -0,659;    0,136
700,568;30557,808;   -0,204;    3,045
701,140;30596,048;   -1,841;    1,682
701,713;30346,744;    0,341;    2,409
702,286;30087,621;    0,796;    0,864
702,859;29938,225;    0,614;   -0,591
703,432;29079,102;   -0,841;    0,682
704,004;29591,706;    1,978;    0,318
704,577;29454,765;    1,068;    0,136
705,150;29998,551;    0,887;    2,500
705,722;29783,792;    1,523;   -3,227
706,295;29550,396;    1,432;   -0,591
706,867;29407,636;    0,250;    1,955
707,440;29653,241;   -0,113;   -0,409
708,012;29879,572;   -0,022;    0,591
708,584;29765,722;    2,705;    0,227
709,157;30111,417;    1,160;   -0,591
709,729;29831,840;    1,069;    2,045
710,301;30641,898;   -1,204;    0,045
710,874;30647,139;    0,341;   -0,227
711,446;29541,743;   -0,295;    0,864
712,018;29449,802;   -3,022;    0,500
712,590;29116,224;   -0,204;    1,682
713,162;29643,101;   -0,477;    1,318
713,734;29917,797;    1,796;   -2,045
714,306;29818,946;    0,342;   -0,409
714,878;28486,005;   -0,295;    0,864
715,450;29241,700;   -0,113;    0,864
716,022;29506,123;    2,433;    1,318
716,593;29748,091;    0,978;    0,591
717,165;29620,695;    1,796;   -1,227
717,737;29311,572;    0,796;    0,409
718,309;29044,449;    1,160;   -0,045
718,880;28963,599;   -1,295;   -1,409
719,452;29200,476;    0,887;   -1,591
720,024;28767,534;    1,705;   -0,591
720,595;29334,139;    2,978;    0,955
721,167;28831,016;    1,160;   -2,045
721,738;28325,983;    2,069;   -1,045
722,309;28203,860;    1,251;   -1,227
722,881;27999,737;    2,705;    0,773
723,452;28742,978;    1,251;    2,864
724,023;28895,128;    1,524;    2,682
724,595;28715,641;    2,342;    0,682
725,166;28398,245;    1,524;   -0,409
725,737;28010,122;    1,887;    0,227
726,308;28132,636;    0,797;    0,318
726,879;28551,422;    1,069;    1,227
727,450;28400,753;   -2,022;   -0,045
728,021;28387,085;    1,069;    0,682
728,592;28204,053;    1,160;    0,500
729,163;28483,839;    1,433;   -0,136
729,734;28517,807;    2,160;   -0,227
730,305;28883,229;    0,615;    0,136
730,876;29245,015;    0,888;    2,955
731,447;28899,983;    0,797;    2,682
732,017;29070,315;   -0,840;    1,864
732,588;28570,283;   -0,021;    1,227
733,159;28731,160;    3,615;   -1,045
733,729;28522,400;    1,251;    0,409
734,300;27816,732;    0,160;    0,864
734,870;28210,245;   -1,385;    0,591
735,441;28782,577;    0,888;   -0,591
736,011;28551,090;    1,070;   -1,591
736,582;28528,785;    1,251;    0,045
737,152;27951,662;    0,979;   -2,045
737,722;28395,357;    1,070;   -0,682
738,293;28128,234;   -2,021;    1,318
738,863;27996,202;    1,797;    2,318
739,433;27781,352;    4,524;    0,318
740,003;28447,501;    1,524;   -0,682
740,573;27823,378;    2,252;   -1,591
741,143;27753,165;    3,615;    0,318
741,713;28523,132;    0,252;   -0,500
742,283;28187,100;    1,706;    1,591
742,853;27948,705;    0,524;    1,591
743,423;27444,036;    0,161;    0,045
743,993;27551,913;    1,070;    1,500
744,563;26850,154;    2,524;   -0,864
745,133;26816,303;   -0,112;   -0,864
745,702;27627,271;    2,797;    1,773
746,272;26750,057;    0,434;    0,591
746,842;26515,753;   -0,748;   -0,591
747,411;26961,448;   -0,839;   -0,318
747,981;27175,143;   -0,930;    0,500
748,551;27219,474;   -0,021;   -1,045
749,120;27021,260;   -0,112;   -0,227
749,690;27402,319;    2,161;    2,409
750,259;27734,469;    0,979;    2,955
750,828;27622,982;    4,070;   -1,955
751,398;27905,405;   -0,112;   -0,045
751,967;27378,464;    2,888;    0,409
752,536;27603,159;    1,161;   -0,227
753,105;28009,036;   -1,384;    0,227
753,675;27857,185;   -0,112;    1,773
754,244;27808,972;    0,888;    3,591
754,813;27851,848;    0,979;    1,227
755,382;27382,725;    0,798;    0,955
755,951;27906,875;   -0,112;    3,682
756,520;27461,661;    2,525;    1,864
757,089;28065,629;    1,888;    0,500
757,658;28166,052;    2,434;    1,227
758,227;28168,019;   -1,111;    0,318
758,795;28495,533;   -1,021;    1,136
759,364;28767,046;    0,525;   -0,591
759,933;27725,560;    1,343;   -0,045
760,501;27315,982;    0,252;   -1,318
761,070;27740,495;   -0,293;   -1,409
761,639;28457,372;    1,434;    1,318
762,207;27703,522;    0,889;   -0,955
762,776;27693,672;    2,889;    0,864
763,344;27635,094;    0,071;    0,591
763,913;26712,698;    1,616;    1,409
764,481;27517,394;    1,980;   -0,136
765,049;27274,907;    0,616;    1,409
765,618;27212,602;    1,434;    0,318
766,186;27269,025;    2,434;    0,136
766,754;27415,811;    1,798;    1,864
767,322;26357,506;    1,162;    0,409
767,890;26390,110;    0,525;   -1,773
768,459;26820,896;    2,616;   -0,318
769,027;26990,773;    2,525;    3,409
769,595;25988,286;    2,616;    2,591
770,163;26443,982;    3,344;    2,955
770,730;26142,040;    2,525;   -0,136
771,298;25964,554;    1,162;   -1,409
771,866;26061,158;    0,253;    4,955
772,434;26415,399;    1,162;   -1,864
773,002;26575,548;    2,616;    0,682
773,569;26174,971;    1,071;    1,682
774,137;25994,211;    0,889;   -0,045
774,705;26764,816;   -0,747;   -0,136
775,272;26217,420;    0,253;    0,682
775,840;26046,206;   -0,111;    2,682
776,407;25564,265;   -0,293;    1,955
776,975;25128,778;    1,162;    0,318
777,542;26189,291;    2,162;   -0,045
778,110;26062,623;    0,707;   -0,045
778,677;25703,318;    1,071;   -0,864
779,244;25409,104;   -1,020;    1,045
779,812;25526,527;    0,980;    0,864
780,379;25396,040;    2,435;    1,136
780,946;25617,372;    2,617;   -0,773
781,513;25952,067;   -0,565;    0,318
782,080;25228,035;    1,253;    2,864
782,647;26057,184;    1,708;    3,045
783,214;25676,425;   -0,201;    3,864
783,781;25210,393;    1,708;   -0,682
784,348;25145,633;    0,253;    1,500
784,915;25613,783;   -1,474;    0,318
785,482;25298,478;    2,708;    2,591
786,049;25721,355;    1,071;   -0,591
786,615;25840,232;    1,708;   -0,955
787,182;25649,018;   -3,201;   -0,682
787,749;25317,623;   -2,201;    1,409
788,315;24611,136;    0,253;   -0,409
788,882;24901,922;    0,981;   -1,227
789,448;25569,163;    1,435;   -0,955
790,015;25602,949;    1,799;    3,227
790,581;25180,735;    0,708;    0,227
791,148;25023,248;    1,344;    1,045
791,714;25247,125;   -1,019;    3,136
792,280;24971,093;    3,708;    1,591
792,847;24553,788;   -0,928;    2,500
793,413;25129,665;   -0,110;   -0,318
793,979;24608,815;    1,526;   -1,318
794,545;24677,601;    2,981;    2,682
795,111;24051,387;    2,435;    1,318
795,678;24287,264;    3,526;   -1,682
796,244;23927,596;    2,799;    0,136
796,810;24503,563;    0,799;    0,773
797,375;24211,713;   -0,292;   -2,136
797,941;24227,317;   -1,110;    0,591
798,507;24377,831;    0,254;   -0,955
799,073;23925,162;    2,708;    0,591
799,639;23970,494;    1,435;    3,136
800,205;24011,189;   -1,565;    2,682
800,770;23527,248;    1,345;    1,773
801,336;23598,216;    2,981;   -0,955
801,901;23245,820;    6,072;    3,136
802,467;23889,879;    0,526;    2,045
803,033;23140,756;   -0,019;    0,864
803,598;23341,542;    1,072;   -1,045
804,163;23396,146;    0,708;   -0,318
804,729;23347,841;   -0,110;    1,136
805,294;23666,900;    1,072;    2,227
805,859;23498,777;    0,890;   -0,409
806,425;23023,018;    3,890;    2,682
806,990;22658,531;    1,890;    4,318
807,555;23170,408;   -0,110;    2,591
808,120;23064,830;   -1,292;   -0,409
808,685;23101,889;    1,072;   -2,500
809,250;22560,221;    2,072;   -0,500
809,815;22931,734;   -0,201;    0,682
810,380;23454,520;    0,981;    1,591
810,945;24000,670;    2,890;    2,045
811,510;23190,183;   -0,200;    1,591
812,075;22851,060;    2,800;   -1,409
812,640;22875,301;    3,709;    1,409
813,204;22943,905;    2,163;   -0,227
813,769;23460,509;    0,254;   -0,045
814,334;22855,477;    0,527;    0,864
814,898;22909,990;    1,981;    0,591
815,463;22771,504;    0,981;   -0,773
816,027;22693,108;    1,345;   -2,318
816,592;22854,076;    2,163;   -2,045
817,156;22325,771;   -2,200;    1,136
817,721;22107,375;    0,982;    2,318
818,285;22090,889;    0,618;    1,500
818,849;22739,311;   -0,018;    1,682
819,414;22655,370;    0,073;    2,955
819,978;22198,338;   -0,291;    1,773
820,542;22849,851;    2,891;    0,500
821,106;22559,001;    2,800;    0,682
821,670;22604,060;    2,709;    2,591
822,234;22327,300;    1,073;    1,409
822,798;21714,814;   -0,836;    0,500
823,362;21677,054;    1,527;    4,227
823,926;20940,295;   -0,018;    1,136
824,490;21164,081;    3,527;   -0,682
825,054;21661,140;    2,527;   -1,136
825,618;21288,290;   -1,200;   -1,500
826,181;21215,076;    0,982;   -1,318
826,745;21056,043;   -0,745;   -1,045
827,309;21458,284;    2,255;    1,318
827,872;20877,434;    0,527;    0,955
828,436;21847,584;    1,982;   -0,773
828,999;21891,279;    2,436;    1,227
829,563;20724,247;   -0,654;    1,136
830,126;20570,305;   -0,018;   -0,591
830,690;20543,001;    0,709;    2,864
831,253;20057,332;   -0,473;    2,227
831,816;20171,664;   -0,018;    0,500
832,380;20098,177;    1,164;    0,864
832,943;20323,599;    3,073;   -0,500
833,506;19840,658;    0,255;   -1,227
834,069;20686,626;    2,164;   -0,955
834,632;20756,230;   -2,200;    1,318
835,195;20641,562;    1,346;    0,955
835,758;19818,621;    0,709;    1,955
836,321;19602,679;    1,073;   -1,045
836,884;19667,466;   -1,291;   -0,955
837,447;19744,161;    0,528;    1,773
838,010;20010,492;    1,800;    3,227
838,573;20319,915;    0,528;    0,773
839,135;20264,610;   -0,109;   -0,955
839,698;19659,396;    2,528;    0,409
840,261;19182,818;    0,255;   -0,227
840,823;19053,786;   -0,927;    0,864
841,386;19301,027;   -0,018;   -2,409
841,948;19159,995;    0,255;    1,773
842,511;18896,417;    0,255;    1,682
843,073;19061,749;    2,982;    0,227
843,636;18847,717;    0,619;   -0,227
844,198;18773,866;    1,255;    0,591
844,760;18928,107;    0,619;    1,955
845,322;18582,984;    0,164;    1,136
845,885;18994,588;   -0,290;    0,591
846,447;19442,465;    0,710;    0,227
847,009;18928,888;    3,983;   -0,682
847,571;19326,492;    1,346;   -2,045
848,133;19406,005;   -0,199;   -1,864
848,695;19273,428;    2,346;    1,409
849,257;18804,305;    1,346;   -1,682
849,819;18944,000;    2,983;   -0,409
850,381;18977,059;    1,801;   -0,864
850,942;19348,754;    1,892;   -0,591
851,504;19257,994;    0,983;    0,227
852,066;19336,508;    1,619;   -1,591
852,628;18822,567;    0,165;    1,955
853,189;18401,989;    0,256;    2,682
853,751;18538,320;   -0,654;    1,409
854,312;18368,743;    1,256;   -1,682
854,874;18895,165;   -0,108;   -0,773
855,435;19390,224;    0,528;   -1,682
855,997;19525,738;    3,983;   -0,136
856,558;18778,705;    0,801;    1,773
857,119;18918,582;   -0,744;    2,864
857,681;18571,096;   -0,108;    0,318
858,242;18552,518;    1,347;   -2,136
858,803;19056,577;    1,074;   -0,773
859,364;19625,454;    0,892;   -4,773
859,925;18967,695;   -0,290;   -0,955
860,486;18870,117;    0,529;   -0,955
861,047;18592,721;    0,165;   -1,227
861,608;18360,053;    0,165;   -0,773
862,169;18558,930;   -0,562;   -0,045
862,730;18301,261;   -0,290;    1,409
863,291;18563,684;    0,438;   -0,500
863,852;18891,106;   -0,926;    1,955
864,412;18364,710;   -1,835;   -0,864
864,973;16923,042;    1,892;    0,500
865,534;16769,010;    2,074;    0,227
866,094;18314,796;    2,620;    0,227
866,655;17959,946;    4,711;    3,318
867,215;18250,641;    0,074;    0,136
867,776;18076,700;   -1,199;   -0,136
868,336;18207,304;    1,529;    0,136
868,897;17629,272;    3,438;    1,682
869,457;17400,603;    3,256;    0,318
870,017;17626,753;    2,438;   -1,227
870,578;18127,448;    1,893;    0,773
871,138;17780,507;    2,620;   -0,955
871,698;17327,202;   -0,562;   -1,318
872,258;17191,806;    0,711;   -2,864
872,818;17531,774;    2,347;    0,045
873,378;17510,742;   -2,198;    1,045
873,938;17066,165;    4,984;    0,500
874,498;17424,405;    1,256;   -1,955
875,058;17272,828;    4,347;    1,773
875,618;17154,705;    1,438;   -2,682
876,177;17101,763;   -0,471;    0,136
876,737;16643,004;   -0,289;    1,955
877,297;16647,790;    2,711;    1,955
877,856;16665,303;    2,529;    0,318
878,416;16610,544;    2,438;   -0,136
878,976;16849,603;    3,438;    0,409
879,535;17058,389;    4,529;    3,136
880,095;16780,266;    1,347;    0,045
880,654;16930,143;    0,347;    1,318
881,213;16986,293;    2,347;    1,500
881,773;16618,261;    1,984;    2,682
882,332;16969,228;    6,075;    5,136
882,891;16812,742;    0,711;    2,136
883,451;17305,073;   -2,016;    1,682
884,010;16781,859;   -1,107;   -0,409
884,569;16862,009;   -2,289;   -0,045
885,128;16981,795;   -0,743;   -1,864
885,687;17004,036;   -0,743;    0,682
886,246;16688,458;    2,620;    2,136
886,805;16445,153;    1,620;    2,045
887,364;16777,030;    1,166;   -0,500
887,922;17158,453;   -0,016;    0,045
888,481;16627,784;    1,530;    0,591
889,040;16957,843;    3,711;    2,136
889,599;17604,720;    2,166;    1,409
890,157;17704,143;    2,166;    2,409
890,716;17377,747;    2,166;    0,227
891,274;17138,624;    0,075;   -1,136
891,833;17546,137;    1,166;    0,864
892,391;17473,741;    1,802;    0,500
892,950;17568,709;    0,166;   -0,773
893,508;17883,314;    0,984;   -0,409
894,067;17247,100;   -0,379;    0,136
894,625;17185,340;   -1,016;   -1,500
895,183;17416,854;   -0,198;   -0,682
895,741;17287,731;    2,257;   -1,773
896,299;17116,517;    1,621;   -2,409
896,858;17317,666;    1,530;   -1,591
897,416;17371,998;    0,166;   -1,318
897,974;17143,602;   -2,197;    0,318
898,532;17303,752;    6,530;    2,682
899,089;17190,902;    0,621;   -0,682
899,647;17238,688;    0,530;    1,318
900,205;16989,292;    0,257;    1,045
900,763;17203,169;    2,166;    0,227
901,321;17227,864;    3,530;   -1,409
901,878;16615,559;    3,257;   -0,773
902,436;16458,163;    0,257;    1,318
902,994;16845,768;    6,712;    3,682
903,551;16270,463;    1,439;    0,409
904,109;16669,976;    1,530;   -1,409
904,666;16306,490;    1,439;    1,045
905,224;16093,730;    3,894;   -0,409
905,781;15863,062;   -0,470;   -0,318
906,338;15934,939;    0,167;    1,045
906,895;15843,452;    1,894;    2,045
907,453;15771,056;    2,348;    1,136
908,010;15740,024;    3,348;    0,409
908,567;15382,265;   -0,561;    0,591
909,124;14973,415;    2,439;   -1,500
909,681;15011,655;   -1,288;    0,682
910,238;15151,532;   -0,106;   -1,318
910,795;15504,682;   -1,561;   -1,136
911,352;15165,500;   -0,379;   -2,682
911,909;14564,864;    2,803;   -0,864
912,466;15045,500;    1,985;    1,500
913,022;14555,045;   -0,924;    0,500
913,579;14929,318;   -0,470;    2,045
914,136;14620,227;   -2,561;    0,955
914,692;14981,409;    1,530;   -1,227
915,249;14536,318;    0,530;    0,409
915,806;14766,318;    1,803;    1,955
916,362;14461,227;    0,894;    1,864
916,918;14016,136;    2,439;    1,045
917,475;14043,045;    1,621;    0,955
918,031;14151,682;    0,076;   -0,045
918,587;13605,136;    0,621;   -0,318
919,144;13786,682;   -0,379;    0,227
919,700;14140,409;    0,167;    0,773
920,256;13717,682;    0,439;    0,045
920,812;13301,500;    1,439;   -1,045
921,368;13292,409;    1,348;   -1,045
921,924;12981,955;    0,439;   -0,136
922,480;12508,864;    0,076;    1,227
923,036;13136,409;   -0,652;    1,955
923,592;13101,591;    0,621;    0,318
924,148;12972,318;    1,894;   -0,955
924,704;12352,773;    0,258;   -0,409
925,259;12622,136;   -0,561;    0,591
925,815;12346,409;    3,803;    0,500
926,371;11919,318;    3,530;    1,409
926,926;11801,591;    1,621;    0,591
927,482;11387,864;    1,621;    0,773
928,037;11241,409;   -0,833;    2,045
928,593;11560,955;    0,258;    1,045
929,148;11380,500;    1,167;   -1,500
929,704;10929,409;    2,439;   -0,500
930,259;11116,227;    0,894;   -0,136
930,814;10172,318;    1,803;    1,955
931,369; 9897,773;    0,258;   -0,773
931,925; 9772,409;   -1,924;    0,136
932,480; 9646,864;    3,076;   -2,591
933,035; 9511,591;    3,985;   -0,318
933,590; 9279,591;   -1,742;   -1,773
934,145; 8942,591;   -1,288;   -0,318
934,700; 9297,682;    0,348;   -0,591
935,255; 9060,227;    4,803;    0,045
935,809; 8341,864;    6,258;    0,864
936,364; 7503,318;    2,167;   -0,136
936,919; 7474,773;    2,348;   -1,773
937,474; 7367,227;    1,348;    0,136
938,028; 7144,045;    3,076;    1,136
938,583; 6573,409;    6,348;    4,682
939,138; 6870,318;    0,167;    2,136
939,692; 6346,500;   -1,015;   -1,136
940,247; 6000,045;    1,167;   -1,045
940,801; 5544,591;    0,621;    0,227
941,355; 5446,500;    0,439;    2,591
941,910; 5143,500;    0,712;   -2,136
942,464; 5222,500;    2,712;   -0,318
943,018; 5001,500;    3,258;   -0,227
943,572; 4951,136;    2,803;   -0,682
944,126; 4375,409;   -0,924;   -0,409
944,681; 4260,591;    0,712;    0,227
945,235; 4222,500;    2,167;   -0,591
945,789; 4180,591;    1,258;   -1,864
946,342; 4260,136;   -0,561;   -0,591
946,896; 4080,500;    0,348;    0,955
947,450; 3830,045;   -0,561;   -0,227
948,004; 4009,227;    1,076;   -0,045
948,558; 4045,045;    1,258;   -0,864
949,111; 3968,136;   -1,197;   -0,318
949,665; 3994,227;   -0,106;   -0,682
950,219; 3871,955;    0,621;   -1,045
950,772; 3939,045;    0,258;    1,864
951,326; 3866,682;   -1,106;   -0,955
951,879; 3962,409;    1,076;   -2,318
952,433; 3972,773;    1,348;    2,227
952,986; 3826,500;    0,348;    0,682
953,539; 3755,318;    1,530;    0,591
954,093; 3696,500;    0,985;   -1,318
954,646; 3816,409;   -0,288;    1,318
955,199; 3629,227;    1,258;   -0,500
955,752; 3512,136;    1,985;    1,773
956,305; 3470,136;    0,894;    2,955
956,858; 3631,955;    0,621;   -0,318
957,411; 3823,227;    3,621;    2,136
957,964; 3644,136;    2,076;    2,136
958,517; 3651,955;    0,985;    3,136
959,070; 3470,773;   -1,197;    1,955
959,623; 3536,773;    1,076;    1,500
960,176; 3310,773;    0,712;    2,045
960,728; 3289,955;    1,712;    0,773
961,281; 3356,136;    2,258;    0,500
961,834; 3385,045;   -0,833;    0,864
962,386; 3316,318;    1,258;    1,045
962,939; 3243,409;    3,439;   -0,318
963,491; 3398,955;    2,621;    1,136
964,043; 3262,591;    0,076;    2,409
964,596; 3373,500;    1,712;    2,227
965,148; 3206,409;   -0,379;    1,773
965,700; 3123,500;   -0,015;   -0,227
966,253; 3286,773;   -0,833;    0,318
966,805; 3131,136;    1,894;    0,773
967,357; 3169,318;    0,439;   -1,500
967,909; 3113,500;    1,167;   -1,227
968,461; 3228,136;    0,894;    3,136
969,013; 3160,864;   -1,561;   -0,864
969,565; 3238,955;    1,803;   -1,136
970,117; 3308,318;    3,803;    1,045
970,669; 3133,409;    3,258;   -0,136
971,220; 3001,409;    2,167;   -1,500
971,772; 2921,045;    1,348;   -0,318
972,324; 3050,227;   -1,197;   -0,500
972,876; 3005,773;    0,167;   -0,045
973,427; 3129,682;   -1,197;   -1,045
973,979; 3097,864;    0,076;   -2,500
974,530; 3125,318;    0,803;    1,318
975,082; 3143,136;    2,167;    1,682
975,633; 3028,409;    2,894;    1,682
976,184; 3204,955;    2,076;    0,773
976,736; 2990,773;    0,348;    0,227
977,287; 2772,409;    0,258;   -0,500
977,838; 2957,864;   -0,924;   -0,318
978,389; 2996,591;    0,803;   -0,500
978,940; 2856,773;    1,258;   -0,409
979,491; 2900,773;    2,258;   -0,500
980,042; 2857,409;   -0,652;    3,045
980,593; 2901,955;    1,894;    0,227
981,144; 2963,500;    3,530;   -0,500
981,695; 2941,227;   -0,470;    1,500
982,246; 2906,318;   -1,833;    1,045
982,797; 3069,227;   -0,561;    0,682
983,347; 3188,045;    2,167;    0,591
983,898; 3316,591;    4,167;    0,409
984,449; 3132,409;    2,530;    0,773
984,999; 3047,500;    1,894;   -1,136
985,550; 2820,773;    3,167;   -0,318
986,100; 2883,136;    0,712;   -0,318
986,651; 2901,500;    0,258;    0,045
987,201; 2893,318;    0,894;   -0,591
987,751; 2988,136;   -0,288;    2,864
988,302; 2960,682;   -0,379;    1,500
988,852; 2987,227;    1,985;   -1,136
989,402; 3004,682;    0,985;    0,682
989,952; 2920,500;    1,621;    0,864
990,502; 3028,409;    1,076;    0,682
991,052; 3013,500;   -0,106;    0,045
991,602; 2849,864;    1,167;    1,318
992,152; 2851,318;    2,803;    0,682
992,702; 2820,227;    1,167;   -0,045
993,252; 2758,136;    0,076;   -0,500
993,802; 2820,773;    1,167;    1,318
994,352; 3092,955;   -0,742;    1,136
994,901; 3194,227;    1,076;    3,227
995,451; 3114,591;   -1,197;    0,318
996,000; 3193,318;    1,076;    0,318
996,550; 2882,773;    2,894;    0,227
997,100; 2895,500;   -0,561;   -0,045
997,649; 3182,500;   -0,197;    0,955
998,198; 2811,318;   -0,288;   -1,500
998,748; 2983,227;    0,348;   -2,318
999,297; 2897,045;    0,985;   -0,409
999,846; 2985,682;    1,894;   -0,773
1000,395; 3032,864;    1,530;    0,500
1000,945; 2969,227;    1,076;   -0,773
1001,494; 3050,682;    0,167;    0,682
1002,043; 3050,136;    0,712;    0,864
1002,592; 2885,500;    3,439;    1,955
1003,141; 3025,955;    2,439;   -0,682
1003,690; 2871,864;    1,258;    0,500
1004,238; 2944,318;   -0,106;   -0,045
1004,787; 2564,318;   -1,288;    1,227
1005,336; 2814,591;    1,621;    0,682
1005,885; 2967,682;   -0,197;   -2,773
1006,433; 3111,864;   -0,470;    0,955
1006,982; 3168,409;    2,167;    1,682
1007,531; 3087,409;    2,712;   -0,227
1008,079; 3041,955;    0,258;    0,500
1008,627; 3185,773;    1,621;    0,409
1009,176; 2913,045;    0,076;   -1,955
1009,724; 2960,773;   -2,742;    0,864
1010,273; 3015,864;    1,076;    0,500
1010,821; 3139,773;    1,076;    1,409
1011,369; 2877,136;    0,076;    1,318
1011,917; 2863,409;   -0,833;   -0,591
1012,465; 3124,227;    2,530;   -1,591
1013,013; 3242,864;    0,439;   -1,682
1013,561; 3105,318;   -1,288;   -0,773
1014,109; 3153,136;   -0,833;    1,682
1014,657; 3025,955;    1,348;    0,591
1015,205; 3140,045;    0,894;   -0,955
1015,753; 3177,682;    0,258;   -1,409
1016,301; 3215,591;    2,621;    3,045
1016,848; 3238,864;    2,167;    0,409
1017,396; 3270,864;    1,621;    0,045
1017,944; 3378,773;    2,621;    1,864
1018,491; 3143,227;   -0,197;    1,409
1019,039; 3323,682;   -0,652;    0,591
1019,586; 3222,591;    0,076;    1,682
1020,134; 3315,409;    0,712;    1,500
1020,681; 3330,045;    2,894;   -1,136
1021,228; 3355,318;   -0,561;   -2,227
1021,776; 3194,227;   -0,833;   -1,136
1022,323; 3405,500;    0,803;    0,773
1022,870; 3350,136;   -0,470;   -0,045
1023,417; 3237,773;    2,076;    1,864
1023,964; 3386,409;    0,621;    1,227
1024,511; 3232,864;   -0,652;    0,773
1025,058; 3024,045;    0,439;   -0,045
1025,605; 3059,409;   -1,742;    3,136
1026,152; 3280,409;   -0,106;   -0,591
1026,699; 3003,591;    0,167;    1,318
1027,245; 3164,682;    2,439;    0,318
1027,792; 3404,227;    0,712;    1,409
1028,339; 3285,682;    4,076;   -0,045
1028,885; 3132,318;    3,621;   -0,227
1029,432; 3052,136;   -0,106;    0,227
1029,978; 3120,864;    1,348;   -1,591
1030,525; 3010,864;    1,621;    0,409
1031,071; 3281,591;    0,348;    1,136
1031,618; 3378,591;    1,258;    1,682
1032,164; 3168,591;    2,076;    3,045
1032,710; 3205,773;    0,076;   -1,500
1033,256; 3132,045;    0,712;   -0,136
1033,803; 3100,773;   -0,288;    1,500
1034,349; 2859,864;    1,803;    0,136
1034,895; 3002,773;    2,621;   -0,318
1035,441; 2979,682;    0,439;    0,318
1035,987; 2975,500;   -2,288;   -0,682
1036,533; 2984,318;   -0,197;   -0,955
1037,078; 3165,773;    4,712;    1,682
1037,624; 3001,045;    2,439;   -0,955
1038,170; 3029,136;    1,712;   -0,318
1038,716; 2916,955;    2,167;   -0,409
1039,261; 2830,955;    2,167;   -0,773
1039,807; 2784,955;   -0,015;    3,409
1040,352; 2845,227;   -1,288;   -0,318
1040,898; 2873,318;    0,167;   -0,682
1041,443; 2810,500;    0,803;   -2,591
1041,989; 2843,136;    3,621;    1,591
1042,534; 2720,500;    0,985;    2,591
1043,079; 2822,591;    1,985;    0,955
1043,625; 2600,045;    0,258;    0,500
1044,170; 2641,682;    2,439;    1,045
1044,715; 2900,227;    0,167;    0,955
1045,260; 2731,409;   -0,833;   -0,955
1045,805; 2777,773;    0,258;   -0,591
1046,350; 2731,227;    0,530;   -0,409
1046,895; 2679,955;    0,803;    1,591
1047,440; 2619,409;    1,530;    0,409
1047,985; 2528,318;   -1,197;   -0,955
1048,530; 2442,136;    1,348;    1,227
1049,074; 2508,773;    2,803;    0,318
1049,619; 2477,500;   -0,924;    1,955
1050,164; 2281,955;    1,076;    0,227
1050,708; 2342,045;    2,621;    0,045
1051,253; 2705,773;    3,258;   -2,227
1051,797; 2425,318;   -0,197;   -1,318
1052,342; 2444,773;    1,348;    1,045
1052,886; 2420,955;    1,803;   -1,409
1053,430; 2308,864;    2,167;    0,136
1053,975; 2320,773;    0,894;   -0,318
1054,519; 2315,045;    1,803;    3,227
1055,063; 2329,045;    3,621;    1,318
1055,607; 2210,864;    1,348;    0,227
1056,151; 2231,955;    0,530;    1,682
1056,695; 2163,045;   -1,833;   -1,136
1057,239; 2218,136;   -1,197;   -0,682
1057,783; 2206,318;    2,258;   -1,500
1058,327; 2160,500;    3,076;    1,409
1058,871; 2394,318;    3,985;    1,318
1059,415; 2090,136;   -0,561;   -0,045
1059,958; 2337,227;    2,985;    2,591
1060,502; 2079,955;    1,348;   -0,773
1061,046; 1989,773;    1,712;   -0,955
1061,589; 1954,955;    2,803;   -1,136
1062,133; 1843,955;    0,985;    1,864
1062,676; 1781,500;    1,439;    0,864
1063,220; 1777,227;    0,985;    0,500
1063,763; 1797,864;    2,985;    1,136
1064,306; 1863,136;    0,985;    1,864
1064,849; 1756,409;    2,076;    0,591
1065,393; 1769,955;    2,894;   -1,500
1065,936; 1898,136;    2,530;   -0,409
1066,479; 1781,864;    2,621;    1,318
1067,022; 1809,955;    1,894;   -0,227
1067,565; 1700,682;   -1,197;   -1,318
1068,108; 1714,591;    1,258;   -0,591
1068,651; 1701,500;   -2,470;    1,409
1069,194; 1631,136;   -1,106;   -1,682
1069,736; 1621,773;    3,803;    0,955
1070,279; 1614,318;   -1,652;   -0,500
1070,822; 1663,773;    1,530;   -0,318
1071,364; 1730,682;    0,530;    1,318
1071,907; 1565,409;    0,348;    3,227
1072,450; 1484,773;    0,258;   -0,045
1072,992; 1477,318;   -0,561;    3,136
1073,535; 1582,409;    0,167;    2,136
1074,077; 1396,318;    2,985;    2,045
1074,619; 1377,045;    0,985;    0,591
1075,161; 1386,409;   -0,561;    1,500
1075,704; 1557,955;    0,258;    1,227
1076,246; 1372,682;    1,530;    0,682
1076,788; 1289,591;   -1,015;    1,773
1077,330; 1399,500;   -2,106;    2,136
1077,872; 1350,682;   -1,924;    0,955
1078,414; 1570,500;    3,712;    0,773
1078,956; 1301,955;    0,167;   -0,227
1079,498; 1550,409;    0,439;    0,318
1080,040; 1253,955;    0,985;   -1,318
1080,581; 1198,318;    0,621;   -0,318
1081,123; 1127,318;   -0,106;   -0,773
1081,665; 1177,955;    3,803;   -0,955
1082,206; 1453,227;    3,258;   -0,500
1082,748; 1335,045;    3,258;    2,045
1083,289; 1227,773;    0,167;    1,318
1083,831; 1131,318;    0,258;    0,227
1084,372; 1160,500;    0,894;    0,591
1084,913; 1150,409;    3,348;    0,864
1085,455; 1133,773;    1,530;   -2,045
1085,996; 1109,773;    0,530;    0,136
1086,537; 1131,318;    0,985;    0,864
1087,078; 1148,591;    0,439;   -2,136
1087,619; 1180,318;   -1,652;    0,227
1088,160; 1096,227;    1,439;    1,318
1088,701; 1097,864;   -0,742;    0,682
1089,242; 1037,500;   -0,561;   -2,227
1089,783; 1130,227;   -0,561;    1,409
1090,324; 1097,045;   -0,833;    0,682
1090,865;  978,955;   -1,924;   -0,409
1091,405;  968,318;   -0,561;    2,227
1091,946;  986,591;   -0,197;   -0,955
1092,487;  916,500;   -1,288;   -1,409
1093,027; 1072,136;    1,803;   -1,500
1093,568;  932,773;    2,258;    1,227
1094,108; 1011,045;    0,621;    1,773
1094,649;  965,136;   -0,470;    0,136
1095,189;  895,773;    1,167;   -0,682
1095,729;  852,682;    0,712;    0,955
1096,269;  865,045;    1,258;   -0,955
1096,810; 1160,409;   -0,197;    0,500
1097,350;  984,409;   -0,561;   -0,773
1097,890;  891,409;    2,985;    1,227
1098,430; 1130,773;    4,985;    2,864
1098,970; 1018,318;    1,894;    1,682
1099,510;  883,136;   -0,833;   -2,318
1100,050;  802,864;    0,258;   -1,591
1100,589;  762,591;    0,076;   -0,318
1101,129;  900,864;    0,894;   -0,955
1101,669; 1038,591;    2,803;    2,136
1102,209;  867,591;    1,530;    2,227
1102,748;  813,227;    3,439;    0,955
1103,288;  807,773;    0,712;   -1,227
1103,827;  832,591;    3,530;   -2,227
1104,367;  710,227;    1,712;   -2,409
1104,906;  698,500;   -1,015;   -1,136
1105,445;  759,682;    0,985;   -1,136
1105,985;  695,591;   -0,652;    1,500
1106,524;  733,227;    1,530;   -0,682
1107,063;  712,318;    1,167;    1,409
1107,602;  697,682;    1,894;   -1,500
1108,141;  616,955;    1,621;    1,500
1108,680;  715,955;    3,985;   -0,591
1109,219;  660,136;    0,167;   -0,500
1109,758;  652,591;    4,167;    0,682
1110,297;  634,136;   -1,106;   -0,682
1110,836;  589,045;    1,439;    0,955
1111,375;  729,318;    0,348;    0,409
1111,913;  751,773;    0,985;    0,773
1112,452;  690,955;    0,894;    0,136
1112,991;  570,682;    1,076;    1,955
1113,529;  527,864;    0,167;   -0,045
1114,068;  600,227;    0,439;    2,955
1114,606;  503,227;   -0,561;   -0,955
1115,144;  654,682;    1,530;    1,045
1115,683;  593,591;    1,985;    0,318
1116,221;  655,955;    2,076;   -0,864
1116,759;  566,136;    1,621;   -0,864
1117,297;  733,773;    1,621;    1,864
1117,836;  557,864;    1,985;   -1,227
1118,374;  561,591;    0,258;   -0,682
1118,912;  521,864;    0,439;    2,682
1119,450;  504,136;    0,985;    0,864
1119,988;  537,136;    3,348;    2,136
1120,525; 1001,409;    7,258;    3,318
1121,063;  688,318;    0,530;    1,864
1121,601;  503,227;    1,076;   -1,227
1122,139;  467,227;    1,076;   -2,045
1122,676;  654,864;   -1,652;    2,773
1123,214;  596,500;    0,712;    4,409
1123,751;  416,136;    0,621;    2,227
1124,289;  538,773;    0,894;   -0,409
1124,826;  418,864;   -0,379;    0,227
1125,364;  338,773;    0,712;   -0,955
1125,901;  524,773;    6,258;    1,227
1126,438;  618,409;    3,530;    0,955
1126,975;  362,955;    2,985;   -0,773
1127,513;  425,409;    2,621;    2,136
1128,050;  348,318;   -0,561;   -0,682
1128,587;  437,864;    1,348;   -0,227
1129,124;  474,864;   -0,015;    1,318
1129,661;  354,227;   -1,924;    0,227
1130,198;  510,773;    2,439;    0,773
1130,734;  447,864;   -0,379;    1,409
1131,271;  310,227;   -1,197;    0,864
1131,808;  476,136;    1,621;    3,045
1132,345;  355,500;    4,530;    0,318
1132,881;  253,136;   -0,561;   -1,864
1133,418;  374,773;    0,348;   -1,136
1133,954;  321,500;    0,712;   -2,682
1134,491;  383,318;    1,712;   -0,773
1135,027;  292,864;    2,167;    0,864
1135,564;  363,682;    1,439;    2,955
1136,100;  348,682;   -0,742;    2,136
1136,636;  254,591;   -1,015;   -1,045
1137,172;  329,045;    0,894;   -1,045
1137,708;  261,227;   -1,561;   -1,045
1138,245;  272,227;    0,803;   -1,227
1138,781;  233,864;    1,803;   -3,318
1139,317;  292,318;    1,894;   -1,409
1139,852;  274,864;    3,076;    0,136
1140,388;  389,318;    2,076;   -0,409
1140,924;  276,227;    1,076;   -2,227
1141,460;  215,864;   -0,288;    0,136
1141,996;  165,318;   -0,652;    2,682
1142,531;  201,045;    1,076;    3,318
1143,067;  404,409;    1,167;    1,045
1143,602;  454,682;    3,439;   -0,318
1144,138;  303,409;    0,803;    1,045
1144,673;  186,955;    1,621;    1,409
1145,209;  242,409;    2,894;   -0,318
1145,744;  176,955;    0,803;    0,864
1146,279;  297,591;    1,530;   -0,136
1146,815;  218,773;    1,530;   -2,682
1147,350;  264,136;   -0,924;    0,045
1147,885;  182,682;   -1,924;   -1,318
1148,420;  178,318;    2,439;    0,773
1148,955;  164,136;   -1,470;    1,864
1149,490;  184,864;   -1,106;   -1,591
1150,025;  161,955;   -1,106;   -1,773
1150,560;  272,500;   -0,288;   -0,955
1151,094;  236,227;    0,258;   -0,591
1151,629;  225,045;   -3,742;    0,864
1152,164;  177,409;   -1,288;    1,318
1152,698;  139,864;    1,258;   -0,136
1153,233;   90,500;   -1,379;   -0,682
1153,767;  141,591;   -0,288;   -2,318
1154,302;  181,318;   -0,379;    1,773
1154,836;  178,045;    0,803;   -2,136
1155,371;  228,409;    2,258;    3,682
1155,905;  193,773;    1,985;    1,682
1156,439;  166,591;    0,530;   -0,500
1156,973;  190,500;    0,439;    0,318
1157,507;  129,773;   -1,742;    0,682
1158,042;  159,409;   -0,652;    1,045
1158,576;  195,773;   -0,561;    1,773
1159,110;  191,318;    0,076;    2,409
1159,643;  162,591;   -2,470;   -0,045
1160,177;  111,045;   -2,015;    1,500

