
Integration time [ms]:   0,050
Averaging Nr. [scans]: 11
Smoothing Nr. [pixels]: 0
Data measured with spectrometer [name]: 7318044SP
Wave   ;Sample   ;Dark     ;Reference
[nm]   ;[counts] ;[counts] ;[counts] 

186,757;   -8,676;   38,161;    1,318
187,357;   27,410;   26,706;    0,955
187,958;   10,344;   17,252;   -1,591
188,558;   58,203;   12,979;   -1,227
189,159;   32,364;   10,070;   -4,500
189,759;    7,314;    5,797;   -3,591
190,360;    7,819;    6,797;   -2,136
190,960;   47,965;    5,706;   -4,136
191,560;   60,082;    2,614;   -6,591
192,161;  303,344;    5,885;   -3,500
192,761;  141,295;    5,520;   -3,227
193,361;   87,229;    3,065;   -3,773
193,962;  137,452;    1,612;   -2,682
194,562;   78,764;   -0,114;   -3,955
195,162;  113,752;   -0,567;   -2,227
195,762;  279,850;    2,433;   -0,045
196,362;  219,483;    1,706;   -2,500
196,963;   86,864;    1,706;   -0,864
197,563;  163,309;    1,252;   -0,955
198,163;  113,958;   -0,111;   -0,682
198,763;  134,012;   -0,020;   -0,500
199,363;  235,930;    3,616;   -0,500
199,963;  195,681;    2,162;    0,409
200,563;  183,183;    6,344;   -1,409
201,163;  161,366;    5,435;   -0,227
201,763;  246,837;    1,435;    0,318
202,363;  192,027;    0,980;    1,500
202,963;  303,882;    1,526;    1,045
203,563;  418,935;    0,344;    0,500
204,162;  272,267;    1,889;   -1,864
204,762;  265,091;    2,071;    0,591
205,362;  235,620;    0,708;    1,955
205,962;  332,351;    3,435;    1,955
206,562;  338,339;    1,889;    2,318
207,161;  312,675;    1,708;    0,318
207,761;  457,920;    4,435;    2,409
208,361;  333,843;    1,889;    1,409
208,960;  435,426;    2,889;    1,500
209,560;  521,954;    0,435;    1,591
210,160;  505,473;    5,071;    1,864
210,759;  484,268;    0,708;    1,227
211,359;  482,087;   -0,474;    1,045
211,958;  763,881;    3,526;    2,045
212,558;  849,337;    0,799;    1,864
213,157;  685,076;   -0,929;    1,500
213,757; 1148,722;    5,617;   -0,227
214,356;  845,246;    1,708;   -0,409
214,956; 1199,050;    3,526;    0,409
215,555;  826,706;    0,617;    2,136
216,154;  756,923;   -0,292;   -0,591
216,754;  786,621;    1,253;    0,773
217,353;  931,635;   -0,383;   -1,045
217,952;  796,803;    2,072;    0,318
218,552; 1018,727;    0,254;   -0,773
219,151;  932,850;   -1,110;    0,955
219,750;  944,204;    0,890;   -0,227
220,349; 1145,948;   -2,292;    1,045
220,948; 1172,248;    1,163;    1,136
221,548; 1268,183;    0,617;    1,227
222,147; 1392,052;   -1,292;   -0,409
222,746; 1672,748;    1,254;   -0,955
223,345; 1569,823;   -1,019;    0,500
223,944; 1597,413;    1,163;    0,773
224,543; 1814,219;    4,072;   -1,409
225,142; 1924,905;    1,345;    0,136
225,741; 1856,301;    1,163;    1,045
226,340; 1903,774;    1,254;   -0,955
226,939; 2413,295;    2,708;   -0,136
227,538; 2485,564;    1,163;   -0,773
228,137; 2613,413;    0,435;    0,864
228,735; 2862,216;    0,435;    1,227
229,334; 2559,459;   -0,474;   -0,227
229,933; 2942,651;    0,799;    0,591
230,532; 3119,108;   -1,201;   -0,409
231,131; 3168,933;    1,253;    0,318
231,729; 3399,576;    1,163;   -2,318
232,328; 3612,859;    0,435;   -1,500
232,927; 3763,444;    4,526;   -0,500
233,525; 3953,016;    0,981;    0,045
234,124; 4188,436;    1,890;   -1,591
234,723; 4258,010;    1,617;   -1,045
235,321; 4485,577;    1,163;    0,136
235,920; 4775,500;    2,526;   -1,227
236,518; 5077,158;    1,072;    0,318
237,117; 5389,708;    2,890;   -0,227
237,715; 5593,621;    1,163;   -0,500
238,314; 5628,062;    1,708;   -2,318
238,912; 5741,370;    0,526;   -1,409
239,510; 5830,583;    1,162;   -1,227
240,109; 6032,633;   -0,474;    3,773
240,707; 6124,945;   -0,474;    1,227
241,305; 6635,357;   -0,383;    0,136
241,904; 6868,539;   -0,292;   -2,045
242,502; 6823,948;    3,253;   -0,227
243,100; 6815,773;    3,344;   -0,955
243,698; 7116,140;    2,799;    1,682
244,297; 7341,838;   -0,656;    0,682
244,895; 7133,184;   -0,474;   -2,318
245,493; 7542,116;    2,981;   -0,591
246,091; 7619,294;    5,163;   -1,318
246,689; 7624,915;    2,163;    0,591
247,287; 7815,229;   -0,019;   -1,136
247,885; 8198,073;   -1,019;    1,227
248,483; 8341,997;   -0,201;   -0,500
249,081; 8503,685;    0,981;    1,591
249,679; 8688,660;   -1,019;    1,682
250,277; 8999,423;   -2,292;    0,864
250,875; 9006,606;    0,617;   -1,045
251,473; 9072,394;   -0,019;    0,500
252,071; 9268,906;   -0,383;    1,045
252,669; 9510,959;   -1,565;    0,318
253,267; 9853,557;    1,618;    0,773
253,864; 9839,320;    0,617;    0,682
254,462; 9628,210;    1,526;    1,591
255,060; 9626,226;    0,072;    1,318
255,658;10058,231;   -3,292;   -0,136
256,255;10528,032;   -0,201;   -2,045
256,853;10405,527;    2,345;    1,409
257,451;10401,723;    1,981;    1,864
258,048;10668,739;    2,072;    1,864
258,646;10429,922;    0,436;   -1,045
259,243;10676,345;    2,981;    2,227
259,841;10772,575;    1,799;    0,318
260,438;10602,871;    0,254;    0,864
261,036;11493,888;    0,617;    1,409
261,633;11412,443;    1,526;    2,227
262,231;11088,131;   -0,110;   -0,045
262,828;11203,056;   -0,383;    1,136
263,425;11280,345;   -1,928;   -0,591
264,023;11571,317;    1,436;    0,045
264,620;11069,801;    1,526;   -0,318
265,217;11494,701;    2,890;    3,136
265,815;11638,655;    2,527;    2,136
266,412;11347,913;    0,072;    0,136
267,009;11426,526;    0,526;    0,773
267,606;11322,740;    0,345;   -0,955
268,203;11320,438;   -0,383;   -0,591
268,801;11668,797;   -0,474;    0,591
269,398;12006,335;   -0,564;    2,500
269,995;12016,329;    0,890;    1,591
270,592;11736,040;    0,799;   -0,500
271,189;12038,279;    1,981;    0,409
271,786;12207,032;    2,072;    1,227
272,383;11972,645;   -0,383;    0,227
272,980;12207,884;    1,617;    0,318
273,577;12765,406;    2,162;    1,227
274,174;12301,592;    1,435;    2,591
274,771;12270,050;    1,890;   -0,773
275,367;12437,482;    3,253;    1,409
275,964;12379,732;   -0,565;   -0,500
276,561;12538,913;   -2,474;   -1,045
277,158;12852,206;    1,799;   -1,773
277,755;12965,230;   -0,110;    0,409
278,351;12262,725;    0,436;   -1,500
278,948;12645,271;   -0,201;    0,045
279,545;12701,763;    0,527;    2,318
280,141;13335,572;    1,254;   -2,045
280,738;13228,565;    2,435;   -0,136
281,334;13567,062;   -0,383;    0,591
281,931;12873,883;    2,890;   -1,318
282,528;13006,480;    4,072;   -0,500
283,124;13839,028;    3,345;   -0,500
283,721;13773,278;    0,709;    1,409
284,317;13577,878;    0,163;    2,500
284,913;14150,363;   -0,110;    0,591
285,510;14355,272;    2,890;   -0,318
286,106;14422,316;    2,345;   -0,955
286,703;14000,554;    0,072;    1,955
287,299;14235,666;    1,254;   -0,591
287,895;14552,837;    0,890;   -1,045
288,491;15226,244;    0,163;    2,136
289,088;14876,888;    0,163;    2,409
289,684;14927,413;    2,890;    1,500
290,280;14986,618;    1,890;    0,682
290,876;15008,569;    0,163;    5,500
291,472;14864,605;    2,163;    2,227
292,068;15014,346;    1,254;    0,227
292,665;14725,120;   -0,564;    0,773
293,261;14298,945;   -1,292;    2,136
293,857;14710,225;    4,072;    2,136
294,453;14697,181;   -0,928;    0,955
295,049;14496,158;    0,253;    1,955
295,644;14502,995;   -1,292;    0,136
296,240;14448,342;    0,162;   -0,136
296,836;14530,014;   -0,747;    0,318
297,432;14816,235;    2,980;   -0,500
298,028;14838,396;    0,435;    0,773
298,624;15306,422;    0,889;    1,864
299,220;15661,616;    0,435;    0,591
299,815;15264,048;    0,526;   -0,409
300,411;14986,158;    0,435;    1,773
301,007;15051,988;    1,889;    0,227
301,602;15183,645;    2,071;   -2,318
302,198;15296,657;    1,435;   -0,773
302,794;15670,991;    1,526;   -0,500
303,389;15875,399;    1,071;    1,045
303,985;15956,227;    1,253;    1,409
304,580;15893,067;    0,889;    1,591
305,176;15922,122;    0,344;    0,136
305,771;15905,928;   -0,929;   -1,227
306,367;15615,634;    3,071;    0,136
306,962;16070,826;    2,889;    1,500
307,558;15799,756;    2,435;    0,136
308,153;15761,319;   -0,383;   -1,136
308,748;15999,558;    0,162;    1,682
309,344;15967,487;    0,253;   -1,318
309,939;16076,297;    2,071;   -1,318
310,534;16417,483;   -2,020;   -1,682
311,130;16412,825;   -0,656;   -2,500
311,725;16124,672;    0,526;   -0,500
312,320;16458,912;    1,253;    0,045
312,915;16251,226;    2,890;   -1,045
313,510;16316,177;    0,526;   -0,500
314,105;16952,957;   -3,565;    1,409
314,700;16282,531;   -1,656;   -1,045
315,295;15855,067;   -0,020;    0,045
315,890;15362,888;   -0,292;    0,864
316,485;15730,156;    0,253;   -0,318
317,080;15810,402;   -0,929;    1,591
317,675;16426,563;    3,071;   -0,682
318,270;15704,822;    6,889;    3,318
318,865;15796,262;    2,435;    3,045
319,460;15589,064;   -1,565;    0,591
320,055;15836,365;   -2,565;   -1,227
320,650;15444,164;   -1,838;   -0,591
321,244;15534,349;    0,889;   -1,409
321,839;16613,303;    0,980;   -0,227
322,434;16497,003;   -0,111;   -1,591
323,029;16066,659;   -0,474;    1,591
323,623;15892,558;    0,798;    0,773
324,218;15608,282;    2,707;    1,409
324,812;15531,460;    0,889;    1,591
325,407;15278,064;   -0,929;    2,045
326,002;15219,513;    0,526;   -0,409
326,596;15523,213;   -0,656;    1,318
327,191;15788,347;   -0,383;   -1,045
327,785;15288,759;   -0,747;   -0,227
328,379;15550,201;   -0,383;    0,136
328,974;15354,236;    1,798;   -3,955
329,568;15585,419;    2,889;   -2,409
330,163;15363,270;    2,435;    1,045
330,757;15790,984;    0,253;    1,591
331,351;15057,037;   -0,292;    0,682
331,945;15315,157;   -0,383;    1,409
332,540;14818,052;    1,617;   -0,591
333,134;14990,888;    3,344;    0,773
333,728;15285,016;    2,799;    0,318
334,322;15636,115;    0,889;   -0,864
334,916;14837,108;    0,344;    0,955
335,510;15189,588;   -0,111;   -0,136
336,105;15486,347;   -0,929;    1,591
336,699;15142,642;   -1,292;    0,591
337,293;15064,861;    1,071;    0,318
337,887;15250,402;    0,071;    1,955
338,481;15304,527;    2,980;    0,591
339,074;15494,456;    2,071;    2,682
339,668;15275,801;   -0,110;    1,227
340,262;15534,211;    7,708;    3,227
340,856;15008,040;    1,708;   -0,682
341,450;14257,503;    0,708;    1,864
342,044;15269,406;    1,799;    0,136
342,637;15039,905;    1,162;   -2,136
343,231;14889,066;   -1,474;    0,682
343,825;14812,263;   -0,747;   -0,591
344,419;14719,156;   -0,474;    0,500
345,012;14390,784;    2,889;    4,045
345,606;14412,296;   -0,656;    1,591
346,199;14262,682;   -0,111;   -0,227
346,793;13716,754;    2,525;    2,045
347,386;13920,773;    0,889;   -1,136
347,980;13872,974;   -0,838;   -0,045
348,573;13642,882;   -1,748;    0,409
349,167;13192,669;    6,161;    4,773
349,760;13599,643;    2,252;    2,682
350,354;13616,067;    1,616;    1,136
350,947;13298,961;    2,798;    1,682
351,540;12895,421;    0,616;   -1,409
352,134;12848,496;   -1,111;    1,136
352,727;12893,263;   -0,657;    1,136
353,320;12677,333;    2,343;    0,591
353,913;12491,186;   -1,929;    1,864
354,507;12646,078;    0,434;   -1,227
355,100;12661,807;    0,071;    0,864
355,693;11734,618;    4,798;    2,409
356,286;11783,663;    0,980;    2,773
356,879;12197,400;   -0,475;    1,227
357,472;11759,116;    0,980;    1,500
358,065;11943,388;    3,161;    2,500
358,658;11879,658;    0,798;    2,318
359,251;11471,597;    0,252;   -0,591
359,844;10836,252;    0,343;   -1,136
360,437;10963,256;    0,252;    0,045
361,030;11302,016;    0,525;   -0,682
361,623;10808,012;    0,434;    0,318
362,215;10858,105;    0,979;    2,045
362,808;10686,831;   -2,293;   -1,682
363,401;10906,675;    0,798;    0,136
363,994;10538,778;    3,252;   -1,500
364,586;10471,835;    0,888;   -1,500
365,179;10705,329;   -0,203;   -1,136
365,772;10122,036;   -0,930;    2,045
366,364;10456,241;    1,524;   -3,227
366,957;10692,008;    1,342;   -0,045
367,549;10712,410;   -0,203;   -0,864
368,142;10291,309;    0,978;   -1,500
368,734;10522,234;    2,523;   -2,136
369,327;10472,314;    2,341;   -0,500
369,919;10348,332;   -1,659;    0,409
370,512;10059,287;   -1,023;   -0,500
371,104; 9744,967;    2,704;    1,591
371,696; 9940,752;    1,703;   -0,955
372,289;10106,412;    0,157;    1,136
372,881;10271,690;    1,156;    1,318
373,473;10175,210;    4,064;    1,136
374,066; 9931,885;    1,336;    0,500
374,658; 9753,571;    0,879;    1,136
375,250;10157,058;   -1,668;   -1,409
375,842; 9966,658;   -0,124;   -0,045
376,434; 9843,907;   -2,762;   -0,409
377,026;10530,390;   -1,855;   -2,500
377,618;10379,618;    0,779;   -0,682
378,210;10231,369;    3,141;   -1,955
378,802;10088,323;    3,412;   -0,591
379,394; 9980,312;    3,411;    0,682
379,986;10694,268;    1,138;   -0,955
380,578;10839,450;    1,410;    0,773
381,170;10028,752;    0,320;    0,045
381,762; 9988,951;   -0,224;    1,409
382,354;10271,124;   -0,223;   -1,318
382,945;10391,830;    0,870;    0,318
383,537;10574,982;    1,144;   -1,955
384,129;10541,765;    0,963;   -1,136
384,721;10759,399;    0,418;    0,955
385,312;10689,380;   -1,399;   -0,955
385,904;10750,170;   -0,945;    1,591
386,496;10042,935;    0,691;    1,045
387,087;10183,387;    0,418;    2,500
387,679;10267,773;   -0,401;    0,045
388,270;10411,520;   -2,401;    2,045
388,862;10539,067;   -0,401;   -0,318
389,453;10441,281;    1,054;    1,045
390,045;10727,973;    3,236;   -2,682
390,636;10718,626;    0,144;   -0,591
391,227;10532,224;    2,054;   -0,045
391,819;10617,206;    0,781;    0,773
392,410;10713,801;    0,600;    0,045
393,001;10606,079;    1,600;   -1,591
393,593;10915,065;    0,600;   -0,045
394,184;10766,836;    0,873;   -0,409
394,775;10704,886;    1,146;    2,136
395,366;10947,131;    1,782;    0,773
395,957;11022,594;   -2,400;    0,136
396,548;11376,073;    1,054;    2,682
397,139;11686,476;    2,236;    0,591
397,730;11363,066;    0,873;    0,955
398,321;11448,425;    0,509;    0,955
398,912;11484,216;   -0,764;    0,136
399,503;11578,857;   -1,945;   -1,409
400,094;10942,495;   -1,582;    1,682
400,685;10763,127;    3,600;    0,045
401,276;10859,281;   -0,400;   -0,955
401,867;11228,837;   -1,127;    0,773
402,458;11363,034;    1,509;   -2,318
403,048;11342,214;    0,146;    0,591
403,639;10885,479;    1,509;    0,864
404,230;11070,189;    0,691;    0,318
404,821;11043,494;   -0,127;    0,045
405,411;11175,889;   -0,763;   -2,591
406,002;10675,007;    3,237;   -1,136
406,592;10474,744;    2,691;    0,045
407,183;10825,272;    0,328;   -1,500
407,774;10725,133;    1,419;   -0,136
408,364;11121,873;    2,600;    0,409
408,954;10648,456;   -0,036;    1,227
409,545;10685,684;    1,873;    1,045
410,135;10151,284;   -1,581;    0,500
410,726;10358,066;    0,783;    0,318
411,316;10793,220;    2,237;    0,773
411,906;10433,675;    0,146;   -0,409
412,497; 9814,521;   -0,490;   -0,045
413,087;10574,713;    0,783;   -0,227
413,677;10980,465;   -2,490;    3,864
414,267;10776,643;   -1,035;    1,409
414,857;10777,368;    0,419;    4,227
415,448;11122,641;   -0,763;    0,500
416,038;10775,296;   -2,945;   -0,591
416,628;10711,784;    0,965;    0,409
417,218;10067,139;   -1,762;    3,318
417,808;10402,865;    0,965;   -0,409
418,398;10981,370;   -1,035;    2,682
418,988;10989,591;   -2,217;    0,591
419,578;11305,610;    3,601;    1,409
420,168;11711,250;    0,692;   -0,955
420,757;11190,858;    0,964;   -1,500
421,347;10835,192;    1,601;   -0,227
421,937;11046,274;    3,329;    1,409
422,527;10939,104;    2,602;   -0,773
423,116;10732,390;    2,692;   -0,045
423,706;11214,913;    2,965;    0,318
424,296;11200,065;    1,601;    0,682
424,885;11662,974;    1,510;   -3,045
425,475;11961,289;    1,147;   -2,864
426,065;11911,476;   -1,489;   -0,318
426,654;11455,704;    0,329;   -0,318
427,244;11568,020;    1,147;    1,409
427,833;10934,461;    1,056;   -0,500
428,423;11522,686;    0,147;    1,136
429,012;12399,181;    2,420;   -1,136
429,601;11783,607;    2,057;    0,136
430,191;12110,708;    2,511;    4,318
430,780;11669,954;   -1,671;   -0,409
431,369;11515,076;    1,329;   -0,045
431,959;12277,459;    1,693;    0,500
432,548;12100,175;   -1,398;   -0,045
433,137;12265,718;    0,329;   -1,318
433,726;12816,220;    0,148;    0,500
434,315;12076,319;    0,148;    2,409
434,905;12188,588;    0,693;    1,409
435,494;12053,507;    3,148;    0,955
436,083;12538,532;    1,420;   -0,955
436,672;12378,439;    1,148;    0,500
437,261;11909,368;    0,512;   -1,955
437,850;12031,456;   -1,125;    0,682
438,439;11992,064;    2,239;    1,955
439,027;11794,457;    3,421;    1,773
439,616;12224,518;    2,239;    1,227
440,205;12131,926;    0,057;   -2,136
440,794;12233,774;   -0,306;   -0,045
441,383;12555,385;    1,603;   -0,591
441,971;12430,144;   -0,306;    0,591
442,560;12252,719;    0,603;   -1,773
443,149;12028,238;    3,060;   -1,318
443,737;12151,889;    0,968;   -2,318
444,326;12420,037;    0,331;    0,318
444,915;12506,088;   -1,851;    0,864
445,503;12917,106;    0,058;   -0,318
446,092;12119,771;    7,876;    2,136
446,680;12750,994;    1,876;    0,318
447,269;12982,275;   -1,487;   -0,318
447,857;12709,301;    2,240;   -1,773
448,445;12814,896;    2,149;    1,318
449,034;13079,114;    0,876;   -1,136
449,622;13235,220;    1,240;    3,500
450,210;12252,044;    3,149;    2,227
450,799;12866,785;    2,604;   -0,591
451,387;12829,212;    1,786;   -0,591
451,975;12415,321;   -1,305;    0,864
452,563;12511,835;    0,422;    2,318
453,151;12594,904;   -1,032;   -1,227
453,739;12485,936;   -1,577;    0,136
454,328;12279,979;    0,604;   -2,136
454,916;11968,617;    1,150;   -0,136
455,504;12122,064;    3,513;    1,227
456,092;12326,906;    2,150;   -1,591
456,679;12340,279;    0,604;    0,682
457,267;12131,668;    3,604;    1,045
457,855;12437,176;    3,241;    1,409
458,443;12226,807;   -0,304;    1,682
459,031;12289,856;    1,332;    2,409
459,619;12798,899;   -3,577;    2,864
460,206;13052,523;   -0,759;    2,045
460,794;13116,768;   -0,668;   -0,227
461,382;13387,160;    0,878;   -0,864
461,970;12868,180;    0,605;    1,864
462,557;12891,549;    0,878;   -0,682
463,145;13136,986;   -0,304;   -1,682
463,732;13293,828;    2,514;   -1,045
464,320;13257,767;    1,514;   -3,045
464,907;12844,688;    0,423;   -0,773
465,495;12717,824;    2,696;   -1,227
466,082;12883,575;    2,060;   -0,045
466,670;12802,817;    2,605;    1,227
467,257;13266,694;    0,060;    2,045
467,844;13483,500;    1,514;    0,045
468,432;13456,685;   -0,031;    3,500
469,019;12873,523;    1,606;   -1,773
469,606;13370,067;    0,969;    3,682
470,193;13153,024;    2,151;    0,227
470,780;12653,464;    0,333;    0,864
471,368;13055,678;   -1,212;   -0,773
471,955;12808,180;    1,060;   -0,682
472,542;12398,058;   -0,303;   -1,136
473,129;12664,143;   -0,485;    0,136
473,716;12371,367;    0,060;    0,591
474,303;12605,851;    1,333;   -0,864
474,890;12950,134;    2,333;   -0,500
475,477;12910,929;   -0,576;    0,409
476,064;12875,271;    0,697;   -1,591
476,650;12830,337;    2,152;    0,318
477,237;12624,246;    1,879;    0,955
477,824;12812,462;    3,879;    0,864
478,411;12881,221;    0,606;   -0,318
478,997;13058,019;    0,606;   -0,773
479,584;13142,340;   -0,666;   -0,409
480,171;13969,070;    1,243;   -0,773
480,757;13577,054;   -0,848;    0,773
481,344;13892,429;    0,334;    0,409
481,931;13387,966;   -0,393;    1,045
482,517;14532,368;    0,425;    0,318
483,104;15299,032;    1,334;    2,864
483,690;15710,805;    0,243;    0,045
484,276;16204,077;    0,698;    0,227
484,863;15922,156;    2,152;    1,136
485,449;16638,710;    0,152;    0,318
486,035;16636,714;   -0,666;   -0,136
486,622;17054,309;   -2,393;    0,045
487,208;17008,392;    1,334;    1,500
487,794;16891,075;    0,971;    0,318
488,380;17025,831;    0,698;   -1,409
488,967;17073,777;   -1,120;   -0,409
489,553;17113,391;   -1,029;   -1,409
490,139;17264,568;    0,971;    0,773
490,725;16667,915;    0,789;   -0,227
491,311;16165,260;    1,516;    3,045
491,897;15261,123;   -0,665;    1,500
492,483;14917,186;    0,426;    1,227
493,069;14546,056;    5,426;    0,864
493,655;14619,557;    1,789;    0,682
494,241;14520,811;    1,517;   -0,955
494,826;14961,467;    0,335;   -1,045
495,412;14348,230;    0,335;   -0,682
495,998;14522,082;    0,971;   -0,318
496,584;14711,105;    2,244;    1,045
497,169;14699,780;    2,335;   -0,682
497,755;14649,191;    1,244;    1,227
498,341;15250,947;    2,153;    0,318
498,926;14756,968;    2,881;    1,955
499,512;15009,911;   -0,028;    2,955
500,097;15159,676;   -0,574;   -0,318
500,683;15076,769;   -0,028;    2,136
501,268;15451,834;    1,881;   -0,955
501,854;15148,342;   -0,119;    1,227
502,439;15070,760;   -0,573;   -1,773
503,024;15304,699;    1,608;    0,500
503,610;15382,689;    1,335;   -0,682
504,195;15426,889;    1,245;    1,955
504,780;15520,258;    2,335;    1,227
505,366;15296,259;    4,063;    2,864
505,951;14988,643;   -1,119;    1,045
506,536;15018,862;    1,427;   -3,682
507,121;15018,536;    1,699;   -0,318
507,706;15569,490;   -0,392;    1,045
508,291;16013,840;   -2,937;    1,136
508,876;15428,515;   -0,482;    2,591
509,461;14837,383;    1,427;   -0,773
510,046;15267,268;   -0,391;    0,318
510,631;15514,559;   -0,119;   -0,773
511,216;15212,824;   -0,664;   -0,500
511,801;15568,962;   -0,755;    2,591
512,386;15866,644;    0,972;    0,500
512,971;15841,789;    0,427;    0,955
513,555;15325,743;    1,154;   -1,500
514,140;16246,246;    1,336;   -3,136
514,725;16273,507;    1,791;   -1,136
515,309;16397,144;    1,064;    0,318
515,894;15726,822;   -0,300;   -2,227
516,479;16218,698;    1,973;   -0,955
517,063;16101,200;    0,882;    1,227
517,648;16242,805;    0,155;   -1,136
518,232;15871,481;   -1,300;   -1,409
518,817;16165,294;    1,337;    1,682
519,401;16459,715;    0,700;    0,591
519,985;15904,504;    2,700;    1,136
520,570;15761,627;   -0,118;   -1,955
521,154;16076,346;    0,064;    0,591
521,738;16239,855;    1,064;    2,409
522,323;16865,438;   -0,390;    1,682
522,907;16602,502;    2,428;   -0,136
523,491;16293,638;    1,155;    0,955
524,075;16310,087;    0,428;    0,591
524,659;16394,414;    0,973;    0,591
525,243;15740,963;    0,883;    0,409
525,827;16003,339;    0,883;   -0,045
526,411;16987,323;    1,155;   -0,136
526,995;17248,528;    0,337;    1,409
527,579;16753,535;    1,974;   -1,045
528,163;17090,173;    0,428;   -1,500
528,747;17059,553;    1,065;   -0,773
529,331;17387,695;    0,883;   -1,409
529,915;17588,420;    2,338;    0,955
530,499;17569,202;    0,247;    1,227
531,082;17240,141;    1,065;    1,591
531,666;16609,414;    0,520;    0,773
532,250;17349,638;    0,428;    2,682
532,833;17721,213;    0,610;    2,773
533,417;17622,460;    1,247;    0,864
534,001;17585,143;    0,429;   -0,318
534,584;18363,674;    1,974;    0,500
535,168;18187,644;    3,247;    1,409
535,751;18198,283;    4,520;    0,045
536,334;17653,053;    4,520;   -0,409
536,918;18319,953;    1,974;    1,591
537,501;18411,889;    1,520;    1,318
538,085;18387,539;    1,702;    1,045
538,668;18575,625;    0,883;    2,409
539,251;18903,801;    3,156;    3,773
539,834;18895,196;    0,156;    0,773
540,418;18861,377;    3,247;    4,318
541,001;19072,131;    2,702;    1,773
541,584;19093,252;    1,429;    2,227
542,167;18748,563;    0,702;    2,955
542,750;18944,823;    0,793;   -0,773
543,333;18478,281;    1,429;    2,136
543,916;19368,260;   -0,298;    2,500
544,499;20009,556;    2,520;    0,227
545,082;20020,838;    0,248;    3,591
545,665;20215,754;   -0,207;    1,500
546,248;20609,917;    0,520;   -0,318
546,830;20229,716;   -1,752;    1,955
547,413;20666,115;    0,157;   -0,773
547,996;21242,183;    0,157;    0,500
548,579;21050,947;   -0,843;    0,955
549,161;20853,957;    0,884;    2,682
549,744;20643,448;    0,612;    0,409
550,326;21147,932;    0,885;   -1,136
550,909;20863,652;    2,339;    0,591
551,492;21335,934;    0,521;    0,227
552,074;21118,625;   -0,024;   -1,318
552,657;21676,241;    2,430;    0,045
553,239;21455,588;   -3,024;   -0,773
553,821;21398,107;   -1,570;    1,045
554,404;20827,918;   -0,024;    1,136
554,986;21241,642;    2,248;    1,045
555,568;21905,262;    0,430;   -0,955
556,151;21045,530;    4,067;   -0,227
556,733;21255,204;   -1,388;   -0,864
557,315;21789,864;    4,703;    0,500
557,897;21572,223;    0,521;   -0,500
558,479;21765,925;    1,703;    1,318
559,061;21814,645;    1,067;   -0,864
559,643;22194,219;   -0,297;    0,045
560,225;22649,090;   -0,388;    2,864
560,807;22680,583;    0,340;    0,318
561,389;22126,455;   -1,206;    2,318
561,971;22871,114;   -0,660;    2,136
562,553;22698,877;    0,613;    1,591
563,135;22864,959;    1,249;    1,136
563,717;22503,181;    3,158;    1,136
564,298;23265,911;    3,976;   -0,045
564,880;22926,791;    0,340;   -1,409
565,462;23193,791;    1,977;    1,318
566,043;24439,424;   -0,933;    2,318
566,625;23951,137;    4,067;    1,227
567,207;23847,224;    0,704;    1,682
567,788;25154,298;   -0,114;    1,500
568,370;26101,818;   -1,841;   -0,500
568,951;25917,549;   -0,569;    0,227
569,533;26910,391;    0,977;   -0,500
570,114;27551,321;   -0,296;    0,682
570,695;28113,176;   -0,478;   -1,318
571,277;28745,992;   -0,205;   -1,682
571,858;29605,423;    2,704;   -1,136
572,439;30673,467;    0,795;   -1,045
573,021;30936,839;    0,432;   -2,773
573,602;31559,372;    1,795;    0,318
574,183;32598,076;   -0,114;    2,227
574,764;32844,723;    2,068;    0,409
575,345;33538,706;    0,250;   -0,136
575,926;34263,787;    2,704;    0,136
576,507;34300,539;    2,704;   -0,227
577,088;35448,322;    1,704;    1,682
577,669;35562,388;    1,704;    1,955
578,250;36369,258;   -0,750;   -1,045
578,831;37124,003;   -0,841;   -2,227
579,412;37526,565;   -1,205;    0,955
579,993;38571,938;    1,432;    0,227
580,573;38925,715;   -0,023;   -0,955
581,154;37768,438;    1,613;   -0,591
581,735;38738,974;    0,341;    0,773
582,315;38220,702;    0,523;    2,136
582,896;38543,996;   -1,750;    1,227
583,477;37990,445;    0,614;    1,227
584,057;38136,993;    1,159;    0,955
584,638;38372,756;   -2,750;    2,318
585,218;38352,236;    2,886;    2,682
585,799;38504,425;    1,977;   -0,227
586,379;38500,958;    1,250;    1,591
586,959;37099,601;    2,613;    0,318
587,540;36297,489;    0,432;    2,227
588,120;35734,033;   -1,113;   -0,045
588,700;34464,725;    2,977;    2,136
589,281;34793,917;    1,250;   -0,955
589,861;34758,497;   -0,296;   -1,682
590,441;34548,402;   -1,477;   -2,682
591,021;33390,287;    1,432;   -2,591
591,601;33570,252;    0,431;    0,500
592,181;33546,137;   -1,296;   -0,773
592,761;32744,557;    2,250;    1,409
593,341;32626,187;    1,522;    0,045
593,921;32604,286;   -0,569;    1,591
594,501;32400,000;    1,250;    1,318
595,081;32312,474;    0,522;   -0,318
595,661;32669,784;    1,068;    0,955
596,240;33160,742;   -1,023;    0,136
596,820;32778,948;    2,613;    1,955
597,400;33050,684;    1,977;    0,773
597,980;33296,204;   -0,750;    1,045
598,559;33330,366;    0,341;   -0,227
599,139;32981,365;   -0,750;   -1,227
599,718;32811,456;    0,795;   -0,409
600,298;33104,584;   -2,387;    0,682
600,877;33321,248;    4,795;    1,409
601,457;33603,727;    0,340;    1,136
602,036;33538,510;    1,795;    2,045
602,616;33760,280;    2,250;    1,682
603,195;34155,167;    0,431;    3,500
603,774;33692,585;   -0,296;    2,045
604,354;33544,034;    2,522;   -0,500
604,933;32946,208;    0,250;    1,864
605,512;33024,498;    2,340;    0,591
606,091;33112,482;    1,886;    3,773
606,671;33966,252;    0,249;    0,773
607,250;32923,646;    1,431;    3,136
607,829;33272,393;    1,158;    3,227
608,408;33081,144;    4,613;    2,591
608,987;32031,772;    2,704;    3,409
609,566;32293,618;    0,341;   -2,500
610,145;32356,796;    2,885;    0,682
610,723;32787,982;    1,613;    6,864
611,302;31993,001;    1,067;    1,682
611,881;31411,029;    5,158;   11,227
612,460;32246,221;    0,795;    3,955
613,039;32702,230;    1,703;    2,045
613,617;31429,034;    0,886;    4,773
614,196;31624,620;    1,613;    1,227
614,775;31940,983;    1,249;    2,409
615,353;31846,056;   -1,660;    0,864
615,932;31460,520;    0,249;    2,409
616,510;32123,150;    0,158;    0,591
617,089;31580,166;    8,794;   17,591
617,667;31302,899;    4,885;    6,136
618,246;31097,301;   -1,115;    1,318
618,824;31240,325;    1,612;   -0,955
619,402;30823,158;    0,431;   -1,773
619,981;31317,509;    1,067;   -1,045
620,559;31163,703;    0,794;    1,682
621,137;30662,758;    3,067;    1,864
621,715;30622,762;    3,703;   -0,682
622,293;30544,617;    1,885;   -0,773
622,871;30999,136;    0,340;    0,500
623,450;30537,975;    0,430;   -0,864
624,028;30430,815;   -0,388;   -0,955
624,606;30034,049;    2,339;    1,682
625,183;30441,260;   -0,661;   -1,136
625,761;30019,517;    1,885;    1,136
626,339;30283,634;    2,339;    2,591
626,917;30706,204;    0,339;   -0,045
627,495;30686,557;    2,794;    1,318
628,073;30157,732;    5,248;    2,864
628,650;29781,146;    3,067;    2,136
629,228;30231,768;    1,248;    4,409
629,806;29589,085;   -0,024;    1,136
630,383;29875,432;    0,066;   -0,318
630,961;29597,665;   -2,206;   -0,955
631,539;29306,548;   -2,479;    0,227
632,116;28489,483;   12,703;   15,409
632,694;29127,189;    4,885;    6,500
633,271;29476,383;    1,975;    2,682
633,848;29376,410;    1,430;    2,045
634,426;29393,289;    1,521;    1,773
635,003;28479,262;   -0,207;   -0,409
635,580;28799,111;    1,884;    3,682
636,158;29390,221;    3,793;    1,227
636,735;29349,873;    3,339;   -0,500
637,312;29518,540;    0,521;   -0,682
637,889;29577,088;    2,248;   -0,682
638,466;29053,385;    0,066;   -0,409
639,043;29044,533;    1,702;   -1,136
639,620;29429,210;    0,611;   -0,955
640,197;29795,886;    1,612;    1,682
640,774;29878,696;    1,430;    1,136
641,351;30269,779;    0,612;    1,136
641,928;29664,225;    2,794;    1,409
642,505;29309,580;    0,794;   -0,500
643,082;29453,753;    1,885;    1,227
643,658;28413,200;    1,157;    1,500
644,235;29236,919;   -2,479;    2,500
644,812;29511,001;    1,794;    0,773
645,388;29195,447;    1,612;    1,409
645,965;29247,439;    1,521;    1,682
646,542;29368,339;    3,430;   -0,227
647,118;29359,604;    3,703;   -0,955
647,695;29655,959;    0,339;    1,136
648,271;29535,951;   -2,115;    0,500
648,848;29890,306;    0,248;    2,227
649,424;29722,570;    0,976;    1,318
650,000;29506,925;   -0,388;   -1,045
650,577;29310,372;    0,158;   -0,955
651,153;29762,000;   -1,115;    0,955
651,729;30814,991;    0,521;    0,864
652,305;31225,801;    1,339;    2,773
652,881;36530,247;   -1,297;    1,136
653,458;44699,512;    0,249;    0,227
654,034;49416,139;    0,703;    1,591
654,610;51304,858;    0,339;    0,773
655,186;52882,668;    1,612;    3,045
655,762;52556,387;   -1,842;    0,409
656,338;52641,015;    0,703;    0,136
656,913;53698,188;   -0,297;    0,409
657,489;52949,544;    0,249;   -0,318
658,065;52873,626;    0,794;   -1,591
658,641;53379,072;    2,158;   -0,864
659,217;52519,700;    2,067;    0,409
659,792;51907,783;   -1,751;   -0,409
660,368;52267,956;   -0,388;   -0,682
660,944;51727,766;    1,794;    1,227
661,519;46338,849;    0,522;    0,409
662,095;39044,204;   -0,206;    0,591
662,670;33428,468;   -0,206;   -0,136
663,246;31922,733;   -0,660;   -0,409
663,821;31091,360;    0,431;    1,682
664,396;30592,625;    0,613;    1,864
664,972;30837,889;   -0,660;   -0,500
665,547;31180,335;    3,794;    0,136
666,122;31179,872;    1,340;    0,318
666,698;31495,864;    2,431;    0,318
667,273;30736,856;    0,885;    0,136
667,848;31571,302;    0,340;    1,500
668,423;31371,930;    1,795;    2,318
668,998;32011,921;    0,976;   -0,682
669,573;32601,186;    2,067;   -1,500
670,148;32425,086;    1,885;   -0,682
670,723;32239,896;   -0,024;    0,318
671,298;32681,160;   -1,296;    1,045
671,873;32805,879;   -0,296;   -0,136
672,448;32789,871;    1,704;    0,136
673,023;33102,772;    0,249;   -0,227
673,597;33437,945;    2,704;    2,318
674,172;33222,664;    2,431;    0,318
674,747;32690,292;   -0,205;   -1,045
675,321;32588,465;   -0,933;    3,318
675,896;32089,548;    2,158;    1,045
676,471;33112,630;    2,522;    1,591
677,045;32921,895;   -0,296;    0,682
677,620;32938,250;    2,158;    1,136
678,194;33259,242;    0,249;    1,136
678,769;32830,597;    0,886;   -0,318
679,343;32986,952;   -0,023;    1,773
679,917;32869,762;    0,340;    1,955
680,492;33016,026;    0,249;    3,227
681,066;33159,200;    0,613;    0,409
681,640;33142,009;    1,795;   -0,318
682,214;34063,001;    2,340;    0,500
682,788;33599,356;    0,613;   -0,773
683,363;33519,893;    1,977;    1,682
683,937;33202,249;    0,886;   -0,318
684,511;34053,149;   -1,023;   -0,591
685,085;33795,868;   -1,478;    0,318
685,659;33539,223;    1,431;    0,864
686,232;33684,397;    1,159;   -0,318
686,806;33463,025;    2,159;    0,409
687,380;34155,016;   -1,932;    0,591
687,954;34415,099;    2,432;    1,136
688,528;34056,636;    2,613;    1,955
689,101;34861,173;    0,432;    1,045
689,675;34481,256;    0,886;   -0,136
690,249;33784,156;    3,432;    0,409
690,822;34092,693;    1,159;    0,318
691,396;34162,321;    2,068;    1,227
691,969;33595,949;    2,523;    0,136
692,543;34072,123;   -0,568;   -1,955
693,116;33748,660;   -0,659;   -1,409
693,690;33530,470;   -0,296;    0,500
694,263;34143,825;    2,341;    2,955
694,836;34211,816;    2,795;    3,591
695,410;32751,535;    1,159;    1,773
695,983;33217,163;    1,614;    0,591
696,556;33108,519;   -0,750;   -1,045
697,129;33536,692;   -1,114;    1,409
697,703;33121,502;    1,341;    1,955
698,276;33158,402;    1,705;   -0,773
698,849;32927,758;   -1,023;    1,409
699,422;33317,386;    1,250;    0,591
699,995;32958,559;   -0,659;    0,136
700,568;33507,187;   -0,204;    3,045
701,140;33524,179;   -1,841;    1,682
701,713;33239,807;    0,341;    2,409
702,286;32974,707;    0,796;    0,864
702,859;32874,426;    0,614;   -0,591
703,432;31886,236;   -0,841;    0,682
704,004;32541,319;    1,978;    0,318
704,577;32396,310;    1,068;    0,136
705,150;32891,029;    0,887;    2,500
705,722;32635,748;    1,523;   -3,227
706,295;32410,649;    1,432;   -0,591
706,867;32270,731;    0,250;    1,955
707,440;32435,086;   -0,113;   -0,409
708,012;32766,805;   -0,022;    0,591
708,584;32667,251;    2,705;    0,227
709,157;33033,152;    1,160;   -0,591
709,729;32649,326;    1,069;    2,045
710,301;33579,135;   -1,204;    0,045
710,874;33580,309;    0,341;   -0,227
711,446;32397,846;   -0,295;    0,864
712,018;32310,292;   -3,022;    0,500
712,590;31975,011;   -0,204;    1,682
713,162;32579,366;   -0,477;    1,318
713,734;32833,903;    1,796;   -2,045
714,306;32702,077;    0,342;   -0,409
714,878;31348,523;   -0,295;    0,864
715,450;32202,696;   -0,113;    0,864
716,022;32469,415;    2,433;    1,318
716,593;32550,770;    0,978;    0,591
717,165;32462,671;    1,796;   -1,227
717,737;32162,026;    0,796;    0,409
718,309;31833,563;    1,160;   -0,045
718,880;31736,373;   -1,295;   -1,409
719,452;31989,910;    0,887;   -1,591
720,024;31500,629;    1,705;   -0,591
720,595;32077,893;    2,978;    0,955
721,167;31577,340;    1,160;   -2,045
721,738;31074,149;    2,069;   -1,045
722,309;30990,959;    1,251;   -1,227
722,881;30762,496;    2,705;    0,773
723,452;31512,942;    1,251;    2,864
724,023;31691,479;    1,524;    2,682
724,595;31419,380;    2,342;    0,682
725,166;31149,372;    1,524;   -0,409
725,737;30788,363;    1,887;    0,227
726,308;30892,355;    0,797;    0,318
726,879;31320,710;    1,069;    1,227
727,450;31228,429;   -2,022;   -0,045
728,021;31162,693;    1,069;    0,682
728,592;30951,412;    1,160;    0,500
729,163;31253,949;    1,433;   -0,136
729,734;31304,486;    2,160;   -0,227
730,305;31624,478;    0,615;    0,136
730,876;32013,651;    0,888;    2,955
731,447;31735,552;    0,797;    2,682
732,017;31864,180;   -0,840;    1,864
732,588;31312,535;   -0,021;    1,227
733,159;31514,527;    3,615;   -1,045
733,729;31362,882;    1,251;    0,409
734,300;30626,419;    0,160;    0,864
734,870;31015,047;   -1,385;    0,591
735,441;31583,857;    0,888;   -0,591
736,011;31317,212;    1,070;   -1,591
736,582;31281,931;    1,251;    0,045
737,152;30689,832;    0,979;   -2,045
737,722;31207,187;    1,070;   -0,682
738,293;30928,906;   -2,021;    1,318
738,863;30766,534;    1,797;    2,318
739,433;30503,617;    4,524;    0,318
740,003;31178,608;    1,524;   -0,682
740,573;30597,054;    2,252;   -1,591
741,143;30514,864;    3,615;    0,318
741,713;31276,219;    0,252;   -0,500
742,283;30915,120;    1,706;    1,591
742,853;30662,112;    0,524;    1,591
743,423;30115,831;    0,161;    0,045
743,993;30299,186;    1,070;    1,500
744,563;29575,905;    2,524;   -0,864
745,133;29465,805;   -0,112;   -0,864
745,702;30239,433;    2,797;    1,773
746,272;29409,970;    0,434;    0,591
746,842;29198,689;   -0,748;   -0,591
747,411;29621,590;   -0,839;   -0,318
747,981;29807,218;   -0,930;    0,500
748,551;29860,755;   -0,021;   -1,045
749,120;29679,383;   -0,112;   -0,227
749,690;30112,284;    2,161;    2,409
750,259;30449,730;    0,979;    2,955
750,828;30342,085;    4,070;   -1,955
751,398;30619,440;   -0,112;   -0,045
751,967;30068,705;    2,888;    0,409
752,536;30324,242;    1,161;   -0,227
753,105;30724,506;   -1,384;    0,227
753,675;30566,316;   -0,112;    1,773
754,244;30558,671;    0,888;    3,591
754,813;30531,481;    0,979;    1,227
755,382;30156,291;    0,798;    0,955
755,951;30708,282;   -0,112;    3,682
756,520;30251,547;    2,525;    1,864
757,089;30833,993;    1,888;    0,500
757,658;30976,712;    2,434;    1,227
758,227;30983,249;   -1,111;    0,318
758,795;31312,240;   -1,021;    1,136
759,364;31553,414;    0,525;   -0,591
759,933;30490,314;    1,343;   -0,045
760,501;30038,670;    0,252;   -1,318
761,070;30521,207;   -0,293;   -1,409
761,639;31232,471;    1,434;    1,318
762,207;30515,099;    0,889;   -0,955
762,776;30504,000;    2,889;    0,864
763,344;30446,355;    0,071;    0,591
763,913;29487,256;    1,616;    1,409
764,481;30229,884;    1,980;   -0,136
765,049;30018,512;    0,616;    1,409
765,618;29922,867;    1,434;    0,318
766,186;30006,495;    2,434;    0,136
766,754;30129,668;    1,798;    1,864
767,322;29033,114;    1,162;    0,409
767,890;29087,742;    0,525;   -1,773
768,459;29512,825;    2,616;   -0,318
769,027;29734,362;    2,525;    3,409
769,595;28658,263;    2,616;    2,591
770,163;29055,527;    3,344;    2,955
770,730;28701,610;    2,525;   -0,136
771,298;28613,419;    1,162;   -1,409
771,866;28706,502;    0,253;    4,955
772,434;29046,766;    1,162;   -1,864
773,002;29174,576;    2,616;    0,682
773,569;28725,113;    1,071;    1,682
774,137;28583,923;    0,889;   -0,045
774,705;29436,551;   -0,747;   -0,136
775,272;28853,452;    0,253;    0,682
775,840;28569,261;   -0,111;    2,682
776,407;28108,071;   -0,293;    1,955
776,975;27685,881;    1,162;    0,318
777,542;28754,600;    2,162;   -0,045
778,110;28550,228;    0,707;   -0,045
778,677;28214,128;    1,071;   -0,864
779,244;27963,847;   -1,020;    1,045
779,812;28078,384;    0,980;    0,864
780,379;27915,194;    2,435;    1,136
780,946;28187,640;    2,617;   -0,773
781,513;28473,541;   -0,565;    0,318
782,080;27759,624;    1,253;    2,864
782,647;28556,524;    1,708;    3,045
783,214;28130,516;   -0,201;    3,864
783,781;27669,507;    1,708;   -0,682
784,348;27585,499;    0,253;    1,500
784,915;28044,127;   -1,474;    0,318
785,482;27814,210;    2,708;    2,591
786,049;28244,292;    1,071;   -0,591
786,615;28395,011;    1,708;   -0,955
787,182;28164,366;   -3,201;   -0,682
787,749;27788,812;   -2,201;    1,409
788,315;27111,440;    0,253;   -0,409
788,882;27415,705;    0,981;   -1,227
789,448;28139,878;    1,435;   -0,955
790,015;28104,506;    1,799;    3,227
790,581;27655,316;    0,708;    0,227
791,148;27518,398;    1,344;    1,045
791,714;27773,026;   -1,019;    3,136
792,280;27475,654;    3,708;    1,591
792,847;27006,555;   -0,928;    2,500
793,413;27542,274;   -0,110;   -0,318
793,979;27041,356;    1,526;   -1,318
794,545;27112,712;    2,981;    2,682
795,111;26442,794;    2,435;    1,318
795,678;26630,695;    3,526;   -1,682
796,244;26316,868;    2,799;    0,136
796,810;26904,860;    0,799;    0,773
797,375;26619,215;   -0,292;   -2,136
797,941;26641,025;   -1,110;    0,591
798,507;26752,562;    0,254;   -0,955
799,073;26274,190;    2,708;    0,591
799,639;26356,273;    1,435;    3,136
800,205;26366,810;   -1,565;    2,682
800,770;25840,074;    1,345;    1,773
801,336;25932,429;    2,981;   -0,955
801,901;25565,421;    6,072;    3,136
802,467;26194,594;    0,526;    2,045
803,033;25491,495;   -0,019;    0,864
803,598;25700,305;    1,072;   -1,045
804,163;25749,024;    0,708;   -0,318
804,729;25713,015;   -0,110;    1,136
805,294;26086,189;    1,072;    2,227
805,859;25871,453;    0,890;   -0,409
806,425;25308,535;    3,890;    2,682
806,990;24982,618;    1,890;    4,318
807,555;25540,155;   -0,110;    2,591
808,120;25392,601;   -1,292;   -0,409
808,685;25417,229;    1,072;   -2,500
809,250;24895,857;    2,072;   -0,500
809,815;25205,031;   -0,201;    0,682
810,380;25820,204;    0,981;    1,591
810,945;26344,832;    2,890;    2,045
811,510;25504,824;   -0,200;    1,591
812,075;25188,452;    2,800;   -1,409
812,640;25213,080;    3,709;    1,409
813,204;25295,526;    2,163;   -0,227
813,769;25805,063;    0,254;   -0,045
814,334;25103,963;    0,527;    0,864
814,898;25099,501;    1,981;    0,591
815,463;25044,038;    0,981;   -0,773
816,027;25001,302;    1,345;   -2,318
816,592;25108,384;    2,163;   -2,045
817,156;24561,740;   -2,200;    1,136
817,721;24341,459;    0,982;    2,318
818,285;24250,450;    0,618;    1,500
818,849;25002,442;   -0,018;    1,682
819,414;24906,161;    0,073;    2,955
819,978;24428,607;   -0,291;    1,773
820,542;25074,962;    2,891;    0,500
821,106;24760,499;    2,800;    0,682
821,670;24819,400;    2,709;    2,591
822,234;24547,755;    1,073;    1,409
822,798;23865,565;   -0,836;    0,500
823,362;23815,647;    1,527;    4,227
823,926;23026,275;   -0,018;    1,136
824,490;23268,176;    3,527;   -0,682
825,054;23766,259;    2,527;   -1,136
825,618;23395,432;   -1,200;   -1,500
826,181;23318,333;    0,982;   -1,318
826,745;23184,961;   -0,745;   -1,045
827,309;23514,952;    2,255;    1,318
827,872;22885,671;    0,527;    0,955
828,436;23934,572;    1,982;   -0,773
828,999;23983,927;    2,436;    1,227
829,563;22751,646;   -0,654;    1,136
830,126;22599,001;   -0,018;   -0,591
830,690;22582,175;    0,709;    2,864
831,253;22058,257;   -0,473;    2,227
831,816;22215,158;   -0,018;    0,500
832,380;22101,695;    1,164;    0,864
832,943;22301,414;    3,073;   -0,500
833,506;21800,224;    0,255;   -1,227
834,069;22627,124;    2,164;   -0,955
834,632;22653,207;   -2,200;    1,318
835,195;22531,926;    1,346;    0,955
835,758;21709,008;    0,709;    1,955
836,321;21543,000;    1,073;   -1,045
836,884;21625,991;   -1,291;   -0,955
837,447;21647,710;    0,528;    1,773
838,010;21931,611;    1,800;    3,227
838,573;22245,694;    0,528;    0,773
839,135;22186,503;   -0,109;   -0,955
839,698;21574,586;    2,528;    0,409
840,261;21058,759;    0,255;   -0,227
840,823;20907,296;   -0,927;    0,864
841,386;21229,470;   -0,018;   -2,409
841,948;21080,734;    0,255;    1,773
842,511;20763,998;    0,255;    1,682
843,073;20929,717;    2,982;    0,227
843,636;20728,800;    0,619;   -0,227
844,198;20634,973;    1,255;    0,591
844,760;20790,147;    0,619;    1,955
845,322;20397,684;    0,164;    1,136
845,885;20891,494;   -0,290;    0,591
846,447;21308,303;    0,710;    0,227
847,009;20815,295;    3,983;   -0,682
847,571;21183,832;    1,346;   -2,045
848,133;21267,551;   -0,199;   -1,864
848,695;21083,997;    2,346;    1,409
849,257;20630,261;    1,346;   -1,682
849,819;20822,526;    2,983;   -0,409
850,381;20899,790;    1,801;   -0,864
850,942;21286,509;    1,892;   -0,591
851,504;21196,955;    0,983;    0,227
852,066;21257,219;    1,619;   -1,591
852,628;20804,393;    0,165;    1,955
853,189;20328,748;    0,256;    2,682
853,751;20413,649;   -0,654;    1,409
854,312;20256,550;    1,256;   -1,682
854,874;20809,996;   -0,108;   -0,773
855,435;21354,715;    0,528;   -1,682
855,997;21454,252;    3,983;   -0,136
856,558;20682,516;    0,801;    1,773
857,119;20788,417;   -0,744;    2,864
857,681;20466,045;   -0,108;    0,318
858,242;20465,763;    1,347;   -2,136
858,803;20960,119;    1,074;   -0,773
859,364;21526,656;    0,892;   -4,773
859,925;20837,284;   -0,290;   -0,955
860,486;20812,275;    0,529;   -0,955
861,047;20444,994;    0,165;   -1,227
861,608;20226,895;    0,165;   -0,773
862,169;20352,887;   -0,562;   -0,045
862,730;20154,787;   -0,290;    1,409
863,291;20346,961;    0,438;   -0,500
863,852;20725,861;   -0,926;    1,955
864,412;20172,126;   -1,835;   -0,864
864,973;18663,481;    1,892;    0,500
865,534;18520,382;    2,074;    0,227
866,094;20057,828;    2,620;    0,227
866,655;19725,001;    4,711;    3,318
867,215;20029,629;    0,074;    0,136
867,776;19841,075;   -1,199;   -0,136
868,336;19949,885;    1,529;    0,136
868,897;19362,604;    3,438;    1,682
869,457;19135,596;    3,256;    0,318
870,017;19340,496;    2,438;   -1,227
870,578;19895,033;    1,893;    0,773
871,138;19552,843;    2,620;   -0,955
871,698;19077,380;   -0,562;   -1,318
872,258;18927,099;    0,711;   -2,864
872,818;19274,364;    2,347;    0,045
873,378;19254,264;   -2,198;    1,045
873,938;18825,165;    4,984;    0,500
874,498;19152,884;    1,256;   -1,955
875,058;19013,330;    4,347;    1,773
875,618;18913,322;    1,438;   -2,682
876,177;18821,222;   -0,471;    0,136
876,737;18401,123;   -0,289;    1,955
877,297;18375,387;    2,711;    1,955
877,856;18375,379;    2,529;    0,318
878,416;18306,189;    2,438;   -0,136
878,976;18546,180;    3,438;    0,409
879,535;18737,808;    4,529;    3,136
880,095;18456,073;    1,347;    0,045
880,654;18604,064;    0,347;    1,318
881,213;18645,419;    2,347;    1,500
881,773;18285,411;    1,984;    2,682
882,332;18646,948;    6,075;    5,136
882,891;18520,122;    0,711;    2,136
883,451;18992,477;   -2,016;    1,682
884,010;18451,923;   -1,107;   -0,409
884,569;18520,733;   -2,289;   -0,045
885,128;18625,815;   -0,743;   -1,864
885,687;18707,171;   -0,743;    0,682
886,246;18360,253;    2,620;    2,136
886,805;18148,063;    1,620;    2,045
887,364;18484,418;    1,166;   -0,500
887,922;18841,137;   -0,016;    0,045
888,481;18321,310;    1,530;    0,591
889,040;18629,393;    3,711;    2,136
889,599;19347,294;    2,166;    1,409
890,157;19460,285;    2,166;    2,409
890,716;19130,095;    2,166;    0,227
891,274;18922,450;    0,075;   -1,136
891,833;19341,078;    1,166;    0,864
892,391;19201,161;    1,802;    0,500
892,950;19332,152;    0,166;   -0,773
893,508;19644,235;    0,984;   -0,409
894,067;18975,408;   -0,379;    0,136
894,625;18913,582;   -1,016;   -1,500
895,183;19131,392;   -0,198;   -0,682
895,741;19050,110;    2,257;   -1,773
896,299;18838,375;    1,621;   -2,409
896,858;19051,730;    1,530;   -1,591
897,416;19131,449;    0,166;   -1,318
897,974;18864,895;   -2,197;    0,318
898,532;18986,341;    6,530;    2,682
899,089;18901,242;    0,621;   -0,682
899,647;18987,688;    0,530;    1,318
900,205;18669,407;    0,257;    1,045
900,763;18889,035;    2,166;    0,227
901,321;18872,663;    3,530;   -1,409
901,878;18265,473;    3,257;   -0,773
902,436;18116,737;    0,257;    1,318
902,994;18525,638;    6,712;    3,682
903,551;17986,447;    1,439;    0,409
904,109;18380,348;    1,530;   -1,409
904,666;17903,885;    1,439;    1,045
905,224;17758,331;    3,894;   -0,409
905,781;17489,596;   -0,470;   -0,318
906,338;17549,406;    0,167;    1,045
906,895;17442,943;    1,894;    2,045
907,453;17374,116;    2,348;    1,136
908,010;17393,199;    3,348;    0,409
908,567;17024,463;   -0,561;    0,591
909,124;16521,818;    2,439;   -1,500
909,681;16567,628;   -1,288;    0,682
910,238;16696,074;   -0,106;   -1,318
910,795;17039,702;   -1,561;   -1,136
911,352;16673,429;   -0,379;   -2,682
911,909;16025,884;    2,803;   -0,864
912,466;16525,520;    1,985;    1,500
913,022;16066,520;   -0,924;    0,500
913,579;16437,338;   -0,470;    2,045
914,136;16095,975;   -2,561;    0,955
914,692;16436,157;    1,530;   -1,227
915,249;15993,429;    0,530;    0,409
915,806;16214,157;    1,803;    1,955
916,362;15888,884;    0,894;    1,864
916,918;15438,975;    2,439;    1,045
917,475;15448,884;    1,621;    0,955
918,031;15574,247;    0,076;   -0,045
918,587;14978,975;    0,621;   -0,318
919,144;15172,884;   -0,379;    0,227
919,700;15517,429;    0,167;    0,773
920,256;15068,702;    0,439;    0,045
920,812;14647,520;    1,439;   -1,045
921,368;14655,884;    1,348;   -1,045
921,924;14289,066;    0,439;   -0,136
922,480;13828,338;    0,076;    1,227
923,036;14443,793;   -0,652;    1,955
923,592;14394,247;    0,621;    0,318
924,148;14295,520;    1,894;   -0,955
924,704;13608,520;    0,258;   -0,409
925,259;13837,793;   -0,561;    0,591
925,815;13597,702;    3,803;    0,500
926,371;13118,338;    3,530;    1,409
926,926;12958,702;    1,621;    0,591
927,482;12592,975;    1,621;    0,773
928,037;12436,157;   -0,833;    2,045
928,593;12675,066;    0,258;    1,045
929,148;12492,338;    1,167;   -1,500
929,704;12027,884;    2,439;   -0,500
930,259;12188,702;    0,894;   -0,136
930,814;11222,066;    1,803;    1,955
931,369;10898,975;    0,258;   -0,773
931,925;10774,429;   -1,924;    0,136
932,480;10649,247;    3,076;   -2,591
933,035;10494,338;    3,985;   -0,318
933,590;10243,975;   -1,742;   -1,773
934,145; 9899,247;   -1,288;   -0,318
934,700;10271,066;    0,348;   -0,591
935,255; 9991,157;    4,803;    0,045
935,809; 9187,429;    6,258;    0,864
936,364; 8269,247;    2,167;   -0,136
936,919; 8241,975;    2,348;   -1,773
937,474; 8103,338;    1,348;    0,136
938,028; 7855,793;    3,076;    1,136
938,583; 7236,429;    6,348;    4,682
939,138; 7549,247;    0,167;    2,136
939,692; 6997,066;   -1,015;   -1,136
940,247; 6615,793;    1,167;   -1,045
940,801; 6121,975;    0,621;    0,227
941,355; 6033,247;    0,439;    2,591
941,910; 5680,338;    0,712;   -2,136
942,464; 5764,611;    2,712;   -0,318
943,018; 5513,793;    3,258;   -0,227
943,572; 5454,975;    2,803;   -0,682
944,126; 4800,429;   -0,924;   -0,409
944,681; 4677,066;    0,712;    0,227
945,235; 4676,520;    2,167;   -0,591
945,789; 4621,520;    1,258;   -1,864
946,342; 4678,702;   -0,561;   -0,591
946,896; 4518,793;    0,348;    0,955
947,450; 4274,520;   -0,561;   -0,227
948,004; 4419,066;    1,076;   -0,045
948,558; 4450,975;    1,258;   -0,864
949,111; 4364,520;   -1,197;   -0,318
949,665; 4373,247;   -0,106;   -0,682
950,219; 4248,066;    0,621;   -1,045
950,772; 4334,247;    0,258;    1,864
951,326; 4228,611;   -1,106;   -0,955
951,879; 4356,884;    1,076;   -2,318
952,433; 4376,520;    1,348;    2,227
952,986; 4186,793;    0,348;    0,682
953,539; 4120,975;    1,530;    0,591
954,093; 4072,702;    0,985;   -1,318
954,646; 4207,429;   -0,288;    1,318
955,199; 4026,793;    1,258;   -0,500
955,752; 3865,520;    1,985;    1,773
956,305; 3835,611;    0,894;    2,955
956,858; 4026,520;    0,621;   -0,318
957,411; 4217,793;    3,621;    2,136
957,964; 4012,338;    2,076;    2,136
958,517; 4014,429;    0,985;    3,136
959,070; 3844,338;   -1,197;    1,955
959,623; 3854,066;    1,076;    1,500
960,176; 3636,066;    0,712;    2,045
960,728; 3592,157;    1,712;    0,773
961,281; 3676,157;    2,258;    0,500
961,834; 3720,975;   -0,833;    0,864
962,386; 3626,338;    1,258;    1,045
962,939; 3538,066;    3,439;   -0,318
963,491; 3707,975;    2,621;    1,136
964,043; 3567,793;    0,076;    2,409
964,596; 3696,793;    1,712;    2,227
965,148; 3516,429;   -0,379;    1,773
965,700; 3454,338;   -0,015;   -0,227
966,253; 3613,975;   -0,833;    0,318
966,805; 3434,429;    1,894;    0,773
967,357; 3489,611;    0,439;   -1,500
967,909; 3410,247;    1,167;   -1,227
968,461; 3571,611;    0,894;    3,136
969,013; 3489,975;   -1,561;   -0,864
969,565; 3547,157;    1,803;   -1,136
970,117; 3576,520;    3,803;    1,045
970,669; 3423,884;    3,258;   -0,136
971,220; 3307,793;    2,167;   -1,500
971,772; 3215,611;    1,348;   -0,318
972,324; 3346,793;   -1,197;   -0,500
972,876; 3291,247;    0,167;   -0,045
973,427; 3417,247;   -1,197;   -1,045
973,979; 3367,247;    0,076;   -2,500
974,530; 3430,247;    0,803;    1,318
975,082; 3469,247;    2,167;    1,682
975,633; 3338,338;    2,894;    1,682
976,184; 3497,793;    2,076;    0,773
976,736; 3267,429;    0,348;    0,227
977,287; 3032,066;    0,258;   -0,500
977,838; 3235,884;   -0,924;   -0,318
978,389; 3293,157;    0,803;   -0,500
978,940; 3163,611;    1,258;   -0,409
979,491; 3205,975;    2,258;   -0,500
980,042; 3146,884;   -0,652;    3,045
980,593; 3223,066;    1,894;    0,227
981,144; 3243,702;    3,530;   -0,500
981,695; 3192,520;   -0,470;    1,500
982,246; 3160,884;   -1,833;    1,045
982,797; 3356,157;   -0,561;    0,682
983,347; 3477,338;    2,167;    0,591
983,898; 3606,884;    4,167;    0,409
984,449; 3431,884;    2,530;    0,773
984,999; 3364,066;    1,894;   -1,136
985,550; 3104,247;    3,167;   -0,318
986,100; 3158,793;    0,712;   -0,318
986,651; 3206,520;    0,258;    0,045
987,201; 3161,793;    0,894;   -0,591
987,751; 3259,793;   -0,288;    2,864
988,302; 3227,975;   -0,379;    1,500
988,852; 3263,247;    1,985;   -1,136
989,402; 3290,702;    0,985;    0,682
989,952; 3198,247;    1,621;    0,864
990,502; 3321,884;    1,076;    0,682
991,052; 3296,520;   -0,106;    0,045
991,602; 3152,247;    1,167;    1,318
992,152; 3136,702;    2,803;    0,682
992,702; 3124,884;    1,167;   -0,045
993,252; 3036,429;    0,076;   -0,500
993,802; 3118,429;    1,167;    1,318
994,352; 3395,793;   -0,742;    1,136
994,901; 3498,066;    1,076;    3,227
995,451; 3392,157;   -1,197;    0,318
996,000; 3482,884;    1,076;    0,318
996,550; 3148,975;    2,894;    0,227
997,100; 3173,429;   -0,561;   -0,045
997,649; 3479,884;   -0,197;    0,955
998,198; 3087,975;   -0,288;   -1,500
998,748; 3267,611;    0,348;   -2,318
999,297; 3196,975;    0,985;   -0,409
999,846; 3254,975;    1,894;   -0,773
1000,395; 3327,975;    1,530;    0,500
1000,945; 3215,247;    1,076;   -0,773
1001,494; 3313,066;    0,167;    0,682
1002,043; 3325,429;    0,712;    0,864
1002,592; 3176,975;    3,439;    1,955
1003,141; 3328,157;    2,439;   -0,682
1003,690; 3156,702;    1,258;    0,500
1004,238; 3246,520;   -0,106;   -0,045
1004,787; 2869,429;   -1,288;    1,227
1005,336; 3073,611;    1,621;    0,682
1005,885; 3252,702;   -0,197;   -2,773
1006,433; 3404,884;   -0,470;    0,955
1006,982; 3442,884;    2,167;    1,682
1007,531; 3373,611;    2,712;   -0,227
1008,079; 3347,975;    0,258;    0,500
1008,627; 3506,520;    1,621;    0,409
1009,176; 3211,429;    0,076;   -1,955
1009,724; 3264,793;   -2,742;    0,864
1010,273; 3289,157;    1,076;    0,500
1010,821; 3438,066;    1,076;    1,409
1011,369; 3171,157;    0,076;    1,318
1011,917; 3141,338;   -0,833;   -0,591
1012,465; 3431,247;    2,530;   -1,591
1013,013; 3578,247;    0,439;   -1,682
1013,561; 3415,247;   -1,288;   -0,773
1014,109; 3443,066;   -0,833;    1,682
1014,657; 3312,157;    1,348;    0,591
1015,205; 3474,066;    0,894;   -0,955
1015,753; 3511,247;    0,258;   -1,409
1016,301; 3558,247;    2,621;    3,045
1016,848; 3559,702;    2,167;    0,409
1017,396; 3588,066;    1,621;    0,045
1017,944; 3722,611;    2,621;    1,864
1018,491; 3463,975;   -0,197;    1,409
1019,039; 3587,702;   -0,652;    0,591
1019,586; 3524,520;    0,076;    1,682
1020,134; 3664,611;    0,712;    1,500
1020,681; 3668,611;    2,894;   -1,136
1021,228; 3705,975;   -0,561;   -2,227
1021,776; 3523,247;   -0,833;   -1,136
1022,323; 3723,975;    0,803;    0,773
1022,870; 3667,247;   -0,470;   -0,045
1023,417; 3529,066;    2,076;    1,864
1023,964; 3698,338;    0,621;    1,227
1024,511; 3542,793;   -0,652;    0,773
1025,058; 3325,429;    0,439;   -0,045
1025,605; 3389,429;   -1,742;    3,136
1026,152; 3573,975;   -0,106;   -0,591
1026,699; 3279,975;    0,167;    1,318
1027,245; 3466,611;    2,439;    0,318
1027,792; 3738,066;    0,712;    1,409
1028,339; 3563,066;    4,076;   -0,045
1028,885; 3421,884;    3,621;   -0,227
1029,432; 3362,066;   -0,106;    0,227
1029,978; 3439,611;    1,348;   -1,591
1030,525; 3329,338;    1,621;    0,409
1031,071; 3608,702;    0,348;    1,136
1031,618; 3669,975;    1,258;    1,682
1032,164; 3481,338;    2,076;    3,045
1032,710; 3524,702;    0,076;   -1,500
1033,256; 3433,611;    0,712;   -0,136
1033,803; 3432,429;   -0,288;    1,500
1034,349; 3139,611;    1,803;    0,136
1034,895; 3313,429;    2,621;   -0,318
1035,441; 3281,611;    0,439;    0,318
1035,987; 3278,429;   -2,288;   -0,682
1036,533; 3269,884;   -0,197;   -0,955
1037,078; 3456,429;    4,712;    1,682
1037,624; 3279,611;    2,439;   -0,955
1038,170; 3324,884;    1,712;   -0,318
1038,716; 3199,157;    2,167;   -0,409
1039,261; 3130,157;    2,167;   -0,773
1039,807; 3054,429;   -0,015;    3,409
1040,352; 3112,247;   -1,288;   -0,318
1040,898; 3159,884;    0,167;   -0,682
1041,443; 3091,247;    0,803;   -2,591
1041,989; 3069,520;    3,621;    1,591
1042,534; 2973,884;    0,985;    2,591
1043,079; 3126,520;    1,985;    0,955
1043,625; 2859,429;    0,258;    0,500
1044,170; 2904,884;    2,439;    1,045
1044,715; 3171,066;    0,167;    0,955
1045,260; 2964,793;   -0,833;   -0,955
1045,805; 3037,793;    0,258;   -0,591
1046,350; 2994,975;    0,530;   -0,409
1046,895; 2921,520;    0,803;    1,591
1047,440; 2851,338;    1,530;    0,409
1047,985; 2761,247;   -1,197;   -0,955
1048,530; 2684,884;    1,348;    1,227
1049,074; 2733,884;    2,803;    0,318
1049,619; 2717,429;   -0,924;    1,955
1050,164; 2510,975;    1,076;    0,227
1050,708; 2552,702;    2,621;    0,045
1051,253; 2912,702;    3,258;   -2,227
1051,797; 2632,975;   -0,197;   -1,318
1052,342; 2688,157;    1,348;    1,045
1052,886; 2637,157;    1,803;   -1,409
1053,430; 2539,793;    2,167;    0,136
1053,975; 2554,429;    0,894;   -0,318
1054,519; 2509,157;    1,803;    3,227
1055,063; 2500,247;    3,621;    1,318
1055,607; 2389,611;    1,348;    0,227
1056,151; 2420,975;    0,530;    1,682
1056,695; 2344,429;   -1,833;   -1,136
1057,239; 2417,429;   -1,197;   -0,682
1057,783; 2398,429;    2,258;   -1,500
1058,327; 2332,247;    3,076;    1,409
1058,871; 2557,247;    3,985;    1,318
1059,415; 2255,429;   -0,561;   -0,045
1059,958; 2492,338;    2,985;    2,591
1060,502; 2240,702;    1,348;   -0,773
1061,046; 2161,520;    1,712;   -0,955
1061,589; 2129,884;    2,803;   -1,136
1062,133; 2001,520;    0,985;    1,864
1062,676; 1927,702;    1,439;    0,864
1063,220; 1935,884;    0,985;    0,500
1063,763; 1947,975;    2,985;    1,136
1064,306; 2021,611;    0,985;    1,864
1064,849; 1908,066;    2,076;    0,591
1065,393; 1921,793;    2,894;   -1,500
1065,936; 2059,157;    2,530;   -0,409
1066,479; 1947,702;    2,621;    1,318
1067,022; 1955,066;    1,894;   -0,227
1067,565; 1861,066;   -1,197;   -1,318
1068,108; 1879,611;    1,258;   -0,591
1068,651; 1854,702;   -2,470;    1,409
1069,194; 1779,429;   -1,106;   -1,682
1069,736; 1760,884;    3,803;    0,955
1070,279; 1768,975;   -1,652;   -0,500
1070,822; 1792,247;    1,530;   -0,318
1071,364; 1839,702;    0,530;    1,318
1071,907; 1683,702;    0,348;    3,227
1072,450; 1626,247;    0,258;   -0,045
1072,992; 1605,520;   -0,561;    3,136
1073,535; 1716,702;    0,167;    2,136
1074,077; 1521,975;    2,985;    2,045
1074,619; 1482,066;    0,985;    0,591
1075,161; 1497,793;   -0,561;    1,500
1075,704; 1679,338;    0,258;    1,227
1076,246; 1491,338;    1,530;    0,682
1076,788; 1426,793;   -1,015;    1,773
1077,330; 1535,338;   -2,106;    2,136
1077,872; 1461,884;   -1,924;    0,955
1078,414; 1684,247;    3,712;    0,773
1078,956; 1410,338;    0,167;   -0,227
1079,498; 1658,157;    0,439;    0,318
1080,040; 1349,157;    0,985;   -1,318
1080,581; 1307,793;    0,621;   -0,318
1081,123; 1243,338;   -0,106;   -0,773
1081,665; 1279,793;    3,803;   -0,955
1082,206; 1572,429;    3,258;   -0,500
1082,748; 1444,066;    3,258;    2,045
1083,289; 1341,247;    0,167;    1,318
1083,831; 1226,884;    0,258;    0,227
1084,372; 1244,247;    0,894;    0,591
1084,913; 1241,520;    3,348;    0,864
1085,455; 1232,066;    1,530;   -2,045
1085,996; 1193,611;    0,530;    0,136
1086,537; 1202,884;    0,985;    0,864
1087,078; 1257,975;    0,439;   -2,136
1087,619; 1282,157;   -1,652;    0,227
1088,160; 1196,793;    1,439;    1,318
1088,701; 1180,611;   -0,742;    0,682
1089,242; 1129,247;   -0,561;   -2,227
1089,783; 1215,520;   -0,561;    1,409
1090,324; 1183,975;   -0,833;    0,682
1090,865; 1060,157;   -1,924;   -0,409
1091,405; 1042,702;   -0,561;    2,227
1091,946; 1077,793;   -0,197;   -0,955
1092,487;  998,338;   -1,288;   -1,409
1093,027; 1143,975;    1,803;   -1,500
1093,568;  999,066;    2,258;    1,227
1094,108; 1077,066;    0,621;    1,773
1094,649; 1033,975;   -0,470;    0,136
1095,189;  982,702;    1,167;   -0,682
1095,729;  915,975;    0,712;    0,955
1096,269;  936,702;    1,258;   -0,955
1096,810; 1245,520;   -0,197;    0,500
1097,350; 1063,793;   -0,561;   -0,773
1097,890;  961,702;    2,985;    1,227
1098,430; 1204,157;    4,985;    2,864
1098,970; 1078,884;    1,894;    1,682
1099,510;  962,338;   -0,833;   -2,318
1100,050;  895,066;    0,258;   -1,591
1100,589;  855,247;    0,076;   -0,318
1101,129;  961,429;    0,894;   -0,955
1101,669; 1095,611;    2,803;    2,136
1102,209;  927,157;    1,530;    2,227
1102,748;  879,520;    3,439;    0,955
1103,288;  868,884;    0,712;   -1,227
1103,827;  896,975;    3,530;   -2,227
1104,367;  767,247;    1,712;   -2,409
1104,906;  742,975;   -1,015;   -1,136
1105,445;  810,975;    0,985;   -1,136
1105,985;  742,611;   -0,652;    1,500
1106,524;  801,793;    1,530;   -0,682
1107,063;  772,702;    1,167;    1,409
1107,602;  750,157;    1,894;   -1,500
1108,141;  673,520;    1,621;    1,500
1108,680;  764,793;    3,985;   -0,591
1109,219;  708,157;    0,167;   -0,500
1109,758;  712,338;    4,167;    0,682
1110,297;  688,157;   -1,106;   -0,682
1110,836;  637,338;    1,439;    0,955
1111,375;  791,157;    0,348;    0,409
1111,913;  790,247;    0,985;    0,773
1112,452;  734,702;    0,894;    0,136
1112,991;  632,702;    1,076;    1,955
1113,529;  586,611;    0,167;   -0,045
1114,068;  646,247;    0,439;    2,955
1114,606;  538,520;   -0,561;   -0,955
1115,144;  692,157;    1,530;    1,045
1115,683;  632,338;    1,985;    0,318
1116,221;  697,157;    2,076;   -0,864
1116,759;  605,975;    1,621;   -0,864
1117,297;  785,793;    1,621;    1,864
1117,836;  594,884;    1,985;   -1,227
1118,374;  599,975;    0,258;   -0,682
1118,912;  551,793;    0,439;    2,682
1119,450;  536,066;    0,985;    0,864
1119,988;  585,611;    3,348;    2,136
1120,525; 1036,157;    7,258;    3,318
1121,063;  736,338;    0,530;    1,864
1121,601;  542,793;    1,076;   -1,227
1122,139;  503,338;    1,076;   -2,045
1122,676;  698,702;   -1,652;    2,773
1123,214;  634,793;    0,712;    4,409
1123,751;  446,611;    0,621;    2,227
1124,289;  566,611;    0,894;   -0,409
1124,826;  443,247;   -0,379;    0,227
1125,364;  375,611;    0,712;   -0,955
1125,901;  553,884;    6,258;    1,227
1126,438;  655,520;    3,530;    0,955
1126,975;  393,066;    2,985;   -0,773
1127,513;  456,975;    2,621;    2,136
1128,050;  372,520;   -0,561;   -0,682
1128,587;  465,247;    1,348;   -0,227
1129,124;  495,793;   -0,015;    1,318
1129,661;  372,793;   -1,924;    0,227
1130,198;  534,611;    2,439;    0,773
1130,734;  481,702;   -0,379;    1,409
1131,271;  340,157;   -1,197;    0,864
1131,808;  513,338;    1,621;    3,045
1132,345;  384,611;    4,530;    0,318
1132,881;  262,793;   -0,561;   -1,864
1133,418;  391,157;    0,348;   -1,136
1133,954;  333,884;    0,712;   -2,682
1134,491;  401,884;    1,712;   -0,773
1135,027;  309,884;    2,167;    0,864
1135,564;  392,247;    1,439;    2,955
1136,100;  364,247;   -0,742;    2,136
1136,636;  268,793;   -1,015;   -1,045
1137,172;  355,611;    0,894;   -1,045
1137,708;  288,338;   -1,561;   -1,045
1138,245;  289,793;    0,803;   -1,227
1138,781;  249,338;    1,803;   -3,318
1139,317;  309,793;    1,894;   -1,409
1139,852;  296,884;    3,076;    0,136
1140,388;  411,429;    2,076;   -0,409
1140,924;  293,429;    1,076;   -2,227
1141,460;  239,793;   -0,288;    0,136
1141,996;  178,520;   -0,652;    2,682
1142,531;  221,975;    1,076;    3,318
1143,067;  427,338;    1,167;    1,045
1143,602;  481,884;    3,439;   -0,318
1144,138;  323,975;    0,803;    1,045
1144,673;  204,520;    1,621;    1,409
1145,209;  269,884;    2,894;   -0,318
1145,744;  185,611;    0,803;    0,864
1146,279;  315,247;    1,530;   -0,136
1146,815;  243,338;    1,530;   -2,682
1147,350;  274,884;   -0,924;    0,045
1147,885;  192,793;   -1,924;   -1,318
1148,420;  191,429;    2,439;    0,773
1148,955;  173,884;   -1,470;    1,864
1149,490;  197,520;   -1,106;   -1,591
1150,025;  180,066;   -1,106;   -1,773
1150,560;  286,884;   -0,288;   -0,955
1151,094;  252,793;    0,258;   -0,591
1151,629;  253,247;   -3,742;    0,864
1152,164;  191,793;   -1,288;    1,318
1152,698;  148,611;    1,258;   -0,136
1153,233;  106,429;   -1,379;   -0,682
1153,767;  159,247;   -0,288;   -2,318
1154,302;  198,338;   -0,379;    1,773
1154,836;  194,702;    0,803;   -2,136
1155,371;  249,338;    2,258;    3,682
1155,905;  213,338;    1,985;    1,682
1156,439;  171,793;    0,530;   -0,500
1156,973;  204,884;    0,439;    0,318
1157,507;  141,702;   -1,742;    0,682
1158,042;  172,066;   -0,652;    1,045
1158,576;  213,793;   -0,561;    1,773
1159,110;  203,702;    0,076;    2,409
1159,643;  179,975;   -2,470;   -0,045
1160,177;  123,429;   -2,015;    1,500

