
Integration time [ms]:   0,050
Averaging Nr. [scans]: 11
Smoothing Nr. [pixels]: 0
Data measured with spectrometer [name]: 7318044SP
Wave   ;Sample   ;Dark     ;Reference
[nm]   ;[counts] ;[counts] ;[counts] 

186,757;   -7,904;   38,161;    1,318
187,357;   27,983;   26,706;    0,955
187,958;   13,791;   17,252;   -1,591
188,558;   54,994;   12,979;   -1,227
189,159;   26,454;   10,070;   -4,500
189,759;    4,780;    5,797;   -3,591
190,360;    5,427;    6,797;   -2,136
190,960;   41,277;    5,706;   -4,136
191,560;   59,238;    2,614;   -6,591
192,161;  283,814;    5,885;   -3,500
192,761;  132,240;    5,520;   -3,227
193,361;   85,262;    3,065;   -3,773
193,962;  136,247;    1,612;   -2,682
194,562;   71,104;   -0,114;   -3,955
195,162;  105,966;   -0,567;   -2,227
195,762;  266,314;    2,433;   -0,045
196,362;  212,379;    1,706;   -2,500
196,963;   83,593;    1,706;   -0,864
197,563;  161,727;    1,252;   -0,955
198,163;  110,128;   -0,111;   -0,682
198,763;  133,069;   -0,020;   -0,500
199,363;  234,508;    3,616;   -0,500
199,963;  197,861;    2,162;    0,409
200,563;  169,599;    6,344;   -1,409
201,163;  152,899;    5,435;   -0,227
201,763;  241,508;    1,435;    0,318
202,363;  182,161;    0,980;    1,500
202,963;  287,220;    1,526;    1,045
203,563;  405,738;    0,344;    0,500
204,162;  252,487;    1,889;   -1,864
204,762;  254,081;    2,071;    0,591
205,362;  219,321;    0,708;    1,955
205,962;  317,530;    3,435;    1,955
206,562;  321,669;    1,889;    2,318
207,161;  290,199;    1,708;    0,318
207,761;  446,974;    4,435;    2,409
208,361;  326,316;    1,889;    1,409
208,960;  411,797;    2,889;    1,500
209,560;  496,642;    0,435;    1,591
210,160;  484,386;    5,071;    1,864
210,759;  457,728;    0,708;    1,227
211,359;  456,541;   -0,474;    1,045
211,958;  733,402;    3,526;    2,045
212,558;  822,551;    0,799;    1,864
213,157;  652,712;   -0,929;    1,500
213,757; 1100,028;    5,617;   -0,227
214,356;  810,338;    1,708;   -0,409
214,956; 1160,968;    3,526;    0,409
215,555;  793,054;    0,617;    2,136
216,154;  718,086;   -0,292;   -0,591
216,754;  740,803;    1,253;    0,773
217,353;  885,658;   -0,383;   -1,045
217,952;  748,044;    2,072;    0,318
218,552;  979,776;    0,254;   -0,773
219,151;  886,964;   -1,110;    0,955
219,750;  890,130;    0,890;   -0,227
220,349; 1065,771;   -2,292;    1,045
220,948; 1108,301;    1,163;    1,136
221,548; 1174,017;    0,617;    1,227
222,147; 1285,204;   -1,292;   -0,409
222,746; 1577,466;    1,254;   -0,955
223,345; 1458,493;   -1,019;    0,500
223,944; 1501,632;    1,163;    0,773
224,543; 1699,653;    4,072;   -1,409
225,142; 1811,750;    1,345;    0,136
225,741; 1731,637;    1,163;    1,045
226,340; 1783,060;    1,254;   -0,955
226,939; 2266,739;    2,708;   -0,136
227,538; 2310,926;    1,163;   -0,773
228,137; 2454,846;    0,435;    0,864
228,735; 2655,750;    0,435;    1,227
229,334; 2366,102;   -0,474;   -0,227
229,933; 2765,814;    0,799;    0,591
230,532; 2914,477;   -1,201;   -0,409
231,131; 2971,466;    1,253;    0,318
231,729; 3166,787;    1,163;   -2,318
232,328; 3365,193;    0,435;   -1,500
232,927; 3472,947;    4,526;   -0,500
233,525; 3649,022;    0,981;    0,045
234,124; 3887,536;    1,890;   -1,591
234,723; 3958,851;    1,617;   -1,045
235,321; 4150,087;    1,163;    0,136
235,920; 4442,974;    2,526;   -1,227
236,518; 4719,573;    1,072;    0,318
237,117; 4983,627;    2,890;   -0,227
237,715; 5168,894;    1,163;   -0,500
238,314; 5205,402;    1,708;   -2,318
238,912; 5324,434;    0,526;   -1,409
239,510; 5385,776;    1,162;   -1,227
240,109; 5577,845;   -0,474;    3,773
240,707; 5642,113;   -0,474;    1,227
241,305; 6119,637;   -0,383;    0,136
241,904; 6340,728;   -0,292;   -2,045
242,502; 6295,744;    3,253;   -0,227
243,100; 6291,792;    3,344;   -0,955
243,698; 6585,605;    2,799;    1,682
244,297; 6774,108;   -0,656;    0,682
244,895; 6574,712;   -0,474;   -2,318
245,493; 6959,825;    2,981;   -0,591
246,091; 7003,589;    5,163;   -1,318
246,689; 7014,857;    2,163;    0,591
247,287; 7199,910;   -0,019;   -1,136
247,885; 7581,108;   -1,019;    1,227
248,483; 7690,691;   -0,201;   -0,500
249,081; 7844,360;    0,981;    1,591
249,679; 8018,188;   -1,019;    1,682
250,277; 8338,889;   -2,292;    0,864
250,875; 8316,161;    0,617;   -1,045
251,473; 8384,391;   -0,019;    0,500
252,071; 8573,418;   -0,383;    1,045
252,669; 8746,359;   -1,565;    0,318
253,267; 9103,996;    1,618;    0,773
253,864; 9078,910;    0,617;    0,682
254,462; 8875,728;    1,526;    1,591
255,060; 8882,156;    0,072;    1,318
255,658; 9230,723;   -3,292;   -0,136
256,255; 9702,814;   -0,201;   -2,045
256,853; 9565,744;    2,345;    1,409
257,451; 9593,268;    1,981;    1,864
258,048; 9826,332;    2,072;    1,864
258,646; 9586,541;    0,436;   -1,045
259,243; 9834,472;    2,981;    2,227
259,841; 9893,151;    1,799;    0,318
260,438; 9750,536;    0,254;    0,864
261,036;10598,418;    0,617;    1,409
261,633;10516,552;    1,526;    2,227
262,231;10246,648;   -0,110;   -0,045
262,828;10326,380;   -0,383;    1,136
263,425;10371,140;   -1,928;   -0,591
264,023;10674,156;    1,436;    0,045
264,620;10146,712;    1,526;   -0,318
265,217;10590,456;    2,890;    3,136
265,815;10707,894;    2,527;    2,136
266,412;10472,284;    0,072;    0,136
267,009;10520,445;    0,526;    0,773
267,606;10376,905;    0,345;   -0,955
268,203;10364,471;   -0,383;   -0,591
268,801;10717,750;   -0,474;    0,591
269,398;11002,611;   -0,564;    2,500
269,995;11043,471;    0,890;    1,591
270,592;10776,953;    0,799;   -0,500
271,189;11029,370;    1,981;    0,409
271,786;11158,359;    2,072;    1,227
272,383;10967,156;   -0,383;    0,227
272,980;11194,514;    1,617;    0,318
273,577;11762,252;    2,162;    1,227
274,174;11260,306;    1,435;    2,591
274,771;11295,450;    1,890;   -0,773
275,367;11366,792;    3,253;    1,409
275,964;11315,284;   -0,565;   -0,500
276,561;11495,739;   -2,474;   -1,045
277,158;11766,279;    1,799;   -1,773
277,755;11869,269;   -0,110;    0,409
278,351;11161,899;    0,436;   -1,500
278,948;11561,322;   -0,201;    0,045
279,545;11575,563;    0,527;    2,318
280,141;12227,247;    1,254;   -2,045
280,738;12101,621;    2,435;   -0,136
281,334;12420,156;   -0,383;    0,591
281,931;11751,210;    2,890;   -1,318
282,528;11866,852;    4,072;   -0,500
283,124;12658,274;    3,345;   -0,500
283,721;12589,189;    0,709;    1,409
284,317;12401,280;    0,163;    2,500
284,913;12970,985;   -0,110;    0,591
285,510;13193,349;    2,890;   -0,318
286,106;13237,247;    2,345;   -0,955
286,703;12788,274;    0,072;    1,955
287,299;13014,605;    1,254;   -0,591
287,895;13270,381;    0,890;   -1,045
288,491;13931,793;    0,163;    2,136
289,088;13634,991;    0,163;    2,409
289,684;13661,814;    2,890;    1,500
290,280;13724,867;    1,890;    0,682
290,876;13772,038;    0,163;    5,500
291,472;13641,766;    2,163;    2,227
292,068;13797,167;    1,254;    0,227
292,665;13492,878;   -0,564;    0,773
293,261;13056,926;   -1,292;    2,136
293,857;13470,675;    4,072;    2,136
294,453;13423,899;   -0,928;    0,955
295,049;13278,487;    0,253;    1,955
295,644;13268,787;   -1,292;    0,136
296,240;13204,664;    0,162;   -0,136
296,836;13272,364;   -0,747;    0,318
297,432;13554,118;    2,980;   -0,500
298,028;13589,182;    0,435;    0,773
298,624;14042,925;    0,889;    1,864
299,220;14363,482;    0,435;    0,591
299,815;13957,065;    0,526;   -0,409
300,411;13765,214;    0,435;    1,773
301,007;13755,711;    1,889;    0,227
301,602;13825,343;    2,071;   -2,318
302,198;13992,385;    1,435;   -0,773
302,794;14337,433;    1,526;   -0,500
303,389;14510,177;    1,071;    1,045
303,985;14536,797;    1,253;    1,409
304,580;14508,246;    0,889;    1,591
305,176;14517,728;    0,344;    0,136
305,771;14485,444;   -0,929;   -1,227
306,367;14271,904;    3,071;    0,136
306,962;14660,433;    2,889;    1,500
307,558;14364,551;    2,435;    0,136
308,153;14331,915;   -0,383;   -1,136
308,748;14562,214;    0,162;    1,682
309,344;14517,664;    0,253;   -1,318
309,939;14607,466;    2,071;   -1,318
310,534;14965,337;   -2,020;   -1,682
311,130;14949,466;   -0,656;   -2,500
311,725;14609,236;    0,526;   -0,500
312,320;14904,139;    1,253;    0,045
312,915;14809,615;    2,890;   -1,045
313,510;14867,000;    0,526;   -0,500
314,105;15440,006;   -3,565;    1,409
314,700;14778,594;   -1,656;   -1,045
315,295;14348,610;   -0,020;    0,045
315,890;13873,241;   -0,292;    0,864
316,485;14244,610;    0,253;   -0,318
317,080;14388,262;   -0,929;    1,591
317,675;14947,417;    3,071;   -0,682
318,270;14242,594;    6,889;    3,318
318,865;14277,861;    2,435;    3,045
319,460;14105,310;   -1,565;    0,591
320,055;14366,144;   -2,565;   -1,227
320,650;14013,813;   -1,838;   -0,591
321,244;14080,262;    0,889;   -1,409
321,839;15084,610;    0,980;   -0,227
322,434;14980,230;   -0,111;   -1,591
323,029;14559,107;   -0,474;    1,591
323,623;14404,487;    0,798;    0,773
324,218;14165,979;    2,707;    1,409
324,812;14051,621;    0,889;    1,591
325,407;13833,856;   -0,929;    2,045
326,002;13729,289;    0,526;   -0,409
326,596;14059,850;   -0,656;    1,318
327,191;14331,899;   -0,383;   -1,045
327,785;13856,396;   -0,747;   -0,227
328,379;14067,294;   -0,383;    0,136
328,974;13894,417;    1,798;   -3,955
329,568;14136,931;    2,889;   -2,409
330,163;13955,332;    2,435;    1,045
330,757;14341,867;    0,253;    1,591
331,351;13621,840;   -0,292;    0,682
331,945;13896,519;   -0,383;    1,409
332,540;13442,845;    1,617;   -0,591
333,134;13563,754;    3,344;    0,773
333,728;13837,631;    2,799;    0,318
334,322;14227,407;    0,889;   -0,864
334,916;13450,781;    0,344;    0,955
335,510;13779,680;   -0,111;   -0,136
336,105;14074,080;   -0,929;    1,591
336,699;13747,589;   -1,292;    0,591
337,293;13655,102;    1,071;    0,318
337,887;13812,899;    0,071;    1,955
338,481;13888,236;    2,980;    0,591
339,074;14047,503;    2,071;    2,682
339,668;13821,717;   -0,110;    1,227
340,262;14119,519;    7,708;    3,227
340,856;13625,530;    1,708;   -0,682
341,450;12888,637;    0,708;    1,864
342,044;13856,102;    1,799;    0,136
342,637;13622,209;    1,162;   -2,136
343,231;13416,514;   -1,474;    0,682
343,825;13352,674;   -0,747;   -0,591
344,419;13293,369;   -0,474;    0,500
345,012;12985,353;    2,889;    4,045
345,606;13035,016;   -0,656;    1,591
346,199;12842,615;   -0,111;   -0,227
346,793;12283,920;    2,525;    2,045
347,386;12556,310;    0,889;   -1,136
347,980;12518,251;   -0,838;   -0,045
348,573;12294,952;   -1,748;    0,409
349,167;11917,823;    6,161;    4,773
349,760;12272,411;    2,252;    2,682
350,354;12278,010;    1,616;    1,136
350,947;11941,882;    2,798;    1,682
351,540;11586,267;    0,616;   -1,409
352,134;11552,898;   -1,111;    1,136
352,727;11632,861;   -0,657;    1,136
353,320;11392,411;    2,343;    0,591
353,913;11237,930;   -1,929;    1,864
354,507;11392,321;    0,434;   -1,227
355,100;11395,198;    0,071;    0,864
355,693;10556,999;    4,798;    2,409
356,286;10598,802;    0,980;    2,773
356,879;10971,240;   -0,475;    1,227
357,472;10544,652;    0,980;    1,500
358,065;10746,625;    3,161;    2,500
358,658;10684,144;    0,798;    2,318
359,251;10273,337;    0,252;   -0,591
359,844; 9668,973;    0,343;   -1,136
360,437; 9816,813;    0,252;    0,045
361,030;10135,123;    0,525;   -0,682
361,623; 9694,283;    0,434;    0,318
362,215; 9712,187;    0,979;    2,045
362,808; 9578,401;   -2,293;   -1,682
363,401; 9777,481;    0,798;    0,136
363,994; 9477,219;    3,252;   -1,500
364,586; 9409,277;    0,888;   -1,500
365,179; 9617,122;   -0,203;   -1,136
365,772; 9044,454;   -0,930;    2,045
366,364; 9355,117;    1,524;   -3,227
366,957; 9591,325;    1,342;   -0,045
367,549; 9626,020;   -0,203;   -0,864
368,142; 9206,431;    0,978;   -1,500
368,734; 9430,832;    2,523;   -2,136
369,327; 9382,821;    2,341;   -0,500
369,919; 9258,794;   -1,659;    0,409
370,512; 8997,751;   -1,023;   -0,500
371,104; 8719,895;    2,704;    1,591
371,696; 8916,108;    1,703;   -0,955
372,289; 9054,556;    0,157;    1,136
372,881; 9207,192;    1,156;    1,318
373,473; 9092,785;    4,064;    1,136
374,066; 8900,398;    1,336;    0,500
374,658; 8719,995;    0,879;    1,136
375,250; 9112,288;   -1,668;   -1,409
375,842; 8963,788;   -0,124;   -0,045
376,434; 8813,626;   -2,762;   -0,409
377,026; 9466,383;   -1,855;   -2,500
377,618; 9339,413;    0,779;   -0,682
378,210; 9164,235;    3,141;   -1,955
378,802; 8994,715;    3,412;   -0,591
379,394; 8892,773;    3,411;    0,682
379,986; 9592,580;    1,138;   -0,955
380,578; 9729,670;    1,410;    0,773
381,170; 8954,858;    0,320;    0,045
381,762; 8910,095;   -0,224;    1,409
382,354; 9167,342;   -0,223;   -1,318
382,945; 9297,819;    0,870;    0,318
383,537; 9456,463;    1,144;   -1,955
384,129; 9439,331;    0,963;   -1,136
384,721; 9646,331;    0,418;    0,955
385,312; 9573,117;   -1,399;   -0,955
385,904; 9654,288;   -0,945;    1,591
386,496; 8974,106;    0,691;    1,045
387,087; 9106,870;    0,418;    2,500
387,679; 9158,170;   -0,401;    0,045
388,270; 9303,228;   -2,401;    2,045
388,862; 9430,528;   -0,401;   -0,318
389,453; 9318,111;    1,054;    1,045
390,045; 9587,624;    3,236;   -2,682
390,636; 9554,720;    0,144;   -0,591
391,227; 9387,266;    2,054;   -0,045
391,819; 9486,720;    0,781;    0,773
392,410; 9584,362;    0,600;    0,045
393,001; 9508,320;    1,600;   -1,591
393,593; 9798,796;    0,600;   -0,045
394,184; 9629,604;    0,873;   -0,409
394,775; 9575,550;    1,146;    2,136
395,366; 9797,598;    1,782;    0,773
395,957; 9833,951;   -2,400;    0,136
396,548;10167,090;    1,054;    2,682
397,139;10480,512;    2,236;    0,591
397,730;10196,192;    0,873;    0,955
398,321;10237,684;    0,509;    0,955
398,912;10256,395;   -0,764;    0,136
399,503;10358,689;   -1,945;   -1,409
400,094; 9720,807;   -1,582;    1,682
400,685; 9589,513;    3,600;    0,045
401,276; 9708,197;   -0,400;   -0,955
401,867;10029,299;   -1,127;    0,773
402,458;10132,154;    1,509;   -2,318
403,048;10117,427;    0,146;    0,591
403,639; 9669,261;    1,509;    0,864
404,230; 9903,652;    0,691;    0,318
404,821; 9836,962;   -0,127;    0,045
405,411; 9971,090;   -0,763;   -2,591
406,002; 9506,470;    3,237;   -1,136
406,592; 9307,240;    2,691;    0,045
407,183; 9681,722;    0,328;   -1,500
407,774; 9572,529;    1,419;   -0,136
408,364; 9968,267;    2,600;    0,409
408,954; 9505,657;   -0,036;    1,227
409,545; 9536,096;    1,873;    1,045
410,135; 9060,155;   -1,581;    0,500
410,726; 9242,728;    0,783;    0,318
411,316; 9672,230;    2,237;    0,773
411,906; 9314,289;    0,146;   -0,409
412,497; 8719,305;   -0,490;   -0,045
413,087; 9412,834;    0,783;   -0,227
413,677; 9808,851;   -2,490;    3,864
414,267; 9622,070;   -1,035;    1,409
414,857; 9675,284;    0,419;    4,227
415,448; 9976,257;   -0,763;    0,500
416,038; 9605,679;   -2,945;   -0,591
416,628; 9568,289;    0,965;    0,409
417,218; 8992,968;   -1,762;    3,318
417,808; 9272,091;    0,965;   -0,409
418,398; 9807,856;   -1,035;    2,682
418,988; 9834,305;   -2,217;    0,591
419,578;10094,851;    3,601;    1,409
420,168;10462,118;    0,692;   -0,955
420,757;10013,016;    0,964;   -1,500
421,347; 9675,423;    1,601;   -0,227
421,937; 9845,894;    3,329;    1,409
422,527; 9758,963;    2,602;   -0,773
423,116; 9561,701;    2,692;   -0,045
423,706; 9997,284;    2,965;    0,318
424,296; 9958,273;    1,601;    0,682
424,885;10410,819;    1,510;   -3,045
425,475;10718,717;    1,147;   -2,864
426,065;10619,193;   -1,489;   -0,318
426,654;10216,477;    0,329;   -0,318
427,244;10309,316;    1,147;    1,409
427,833; 9694,642;    1,056;   -0,500
428,423;10268,113;    0,147;    1,136
429,012;11094,985;    2,420;   -1,136
429,601;10521,456;    2,057;    0,136
430,191;10781,440;    2,511;    4,318
430,780;10389,456;   -1,671;   -0,409
431,369;10302,461;    1,329;   -0,045
431,959;11006,156;    1,693;    0,500
432,548;10762,477;   -1,398;   -0,045
433,137;10955,814;    0,329;   -1,318
433,726;11488,584;    0,148;    0,500
434,315;10783,328;    0,148;    2,409
434,905;10890,392;    0,693;    1,409
435,494;10792,044;    3,148;    0,955
436,083;11290,034;    1,420;   -0,955
436,672;11127,916;    1,148;    0,500
437,261;10672,638;    0,512;   -1,955
437,850;10763,371;   -1,125;    0,682
438,439;10729,537;    2,239;    1,955
439,027;10532,761;    3,421;    1,773
439,616;10989,082;    2,239;    1,227
440,205;10855,858;    0,057;   -2,136
440,794;10967,109;   -0,306;   -0,045
441,383;11203,666;    1,603;   -0,591
441,971;11070,553;   -0,306;    0,591
442,560;10924,532;    0,603;   -1,773
443,149;10684,802;    3,060;   -1,318
443,737;10839,335;    0,968;   -2,318
444,326;11108,730;    0,331;    0,318
444,915;11151,008;   -1,851;    0,864
445,503;11569,949;    0,058;   -0,318
446,092;10771,265;    7,876;    2,136
446,680;11351,981;    1,876;    0,318
447,269;11595,361;   -1,487;   -0,318
447,857;11300,014;    2,240;   -1,773
448,445;11451,629;    2,149;    1,318
449,034;11684,265;    0,876;   -1,136
449,622;11760,270;    1,240;    3,500
450,210;10913,319;    3,149;    2,227
450,799;11532,174;    2,604;   -0,591
451,387;11473,886;    1,786;   -0,591
451,975;11099,372;   -1,305;    0,864
452,563;11181,880;    0,422;    2,318
453,151;11238,854;   -1,032;   -1,227
453,739;11148,768;   -1,577;    0,136
454,328;10987,849;    0,604;   -2,136
454,916;10659,239;    1,150;   -0,136
455,504;10859,918;    3,513;    1,227
456,092;11055,881;    2,150;   -1,591
456,679;11025,592;    0,604;    0,682
457,267;10880,699;    3,604;    1,045
457,855;11097,367;    3,241;    1,409
458,443;10870,951;   -0,304;    1,682
459,031;10957,052;    1,332;    2,409
459,619;11476,768;   -3,577;    2,864
460,206;11641,212;   -0,759;    2,045
460,794;11742,774;   -0,668;   -0,227
461,382;11956,876;    0,878;   -0,864
461,970;11518,357;    0,605;    1,864
462,557;11577,742;    0,878;   -0,682
463,145;11798,015;   -0,304;   -1,682
463,732;11950,095;    2,514;   -1,045
464,320;11862,347;    1,514;   -3,045
464,907;11485,539;    0,423;   -0,773
465,495;11365,946;    2,696;   -1,227
466,082;11526,545;    2,060;   -0,045
466,670;11467,021;    2,605;    1,227
467,257;11890,983;    0,060;    2,045
467,844;12074,427;    1,514;    0,045
468,432;12086,572;   -0,031;    3,500
469,019;11549,508;    1,606;   -1,773
469,606;12024,754;    0,969;    3,682
470,193;11821,096;    2,151;    0,227
470,780;11351,181;    0,333;    0,864
471,368;11730,492;   -1,212;   -0,773
471,955;11509,534;    1,060;   -0,682
472,542;11117,160;   -0,303;   -1,136
473,129;11358,080;   -0,485;    0,136
473,716;11113,465;    0,060;    0,591
474,303;11312,930;    1,333;   -0,864
474,890;11616,578;    2,333;   -0,500
475,477;11577,979;   -0,576;    0,409
476,064;11498,680;    0,697;   -1,591
476,650;11474,631;    2,152;    0,318
477,237;11327,540;    1,879;    0,955
477,824;11467,877;    3,879;    0,864
478,411;11494,401;    0,606;   -0,318
478,997;11724,706;    0,606;   -0,773
479,584;11796,380;   -0,666;   -0,409
480,171;12572,498;    1,243;   -0,773
480,757;12226,311;   -0,848;    0,773
481,344;12534,658;    0,334;    0,409
481,931;11986,151;   -0,393;    1,045
482,517;13040,969;    0,425;    0,318
483,104;13699,621;    1,334;    2,864
483,690;14046,273;    0,243;    0,045
484,276;14515,332;    0,698;    0,227
484,863;14245,535;    2,152;    1,136
485,449;14855,883;    0,152;    0,318
486,035;14844,846;   -0,666;   -0,136
486,622;15273,733;   -2,393;    0,045
487,208;15224,867;    1,334;    1,500
487,794;15117,001;    0,971;    0,318
488,380;15225,771;    0,698;   -1,409
488,967;15280,980;   -1,120;   -0,409
489,553;15329,472;   -1,029;   -1,409
490,139;15534,087;    0,971;    0,773
490,725;14923,296;    0,789;   -0,227
491,311;14436,873;    1,516;    3,045
491,897;13652,344;   -0,665;    1,500
492,483;13444,419;    0,426;    1,227
493,069;13123,697;    5,426;    0,864
493,655;13169,376;    1,789;    0,682
494,241;13076,408;    1,517;   -0,955
494,826;13489,012;    0,335;   -1,045
495,412;12917,044;    0,335;   -0,682
495,998;13064,954;    0,971;   -0,318
496,584;13223,462;    2,244;    1,045
497,169;13184,488;    2,335;   -0,682
497,755;13132,649;    1,244;    1,227
498,341;13726,665;    2,153;    0,318
498,926;13270,991;    2,881;    1,955
499,512;13519,174;   -0,028;    2,955
500,097;13633,992;   -0,574;   -0,318
500,683;13577,200;   -0,028;    2,136
501,268;13971,879;    1,881;   -0,955
501,854;13670,911;   -0,119;    1,227
502,439;13625,970;   -0,573;   -1,773
503,024;13841,558;    1,608;    0,500
503,610;13894,393;    1,335;   -0,682
504,195;13914,393;    1,245;    1,955
504,780;13987,082;    2,335;    1,227
505,366;13734,778;    4,063;    2,864
505,951;13494,800;   -1,119;    1,045
506,536;13547,436;    1,427;   -3,682
507,121;13517,676;    1,699;   -0,318
507,706;14085,420;   -0,392;    1,045
508,291;14483,169;   -2,937;    1,136
508,876;13934,041;   -0,482;    2,591
509,461;13350,928;    1,427;   -0,773
510,046;13766,666;   -0,391;    0,318
510,631;14006,211;   -0,119;   -0,773
511,216;13699,072;   -0,664;   -0,500
511,801;14087,602;   -0,755;    2,591
512,386;14423,677;    0,972;    0,500
512,971;14347,736;    0,427;    0,955
513,555;13846,056;    1,154;   -1,500
514,140;14734,853;    1,336;   -3,136
514,725;14737,902;    1,791;   -1,136
515,309;14837,415;    1,064;    0,318
515,894;14264,105;   -0,300;   -2,227
516,479;14735,795;    1,973;   -0,955
517,063;14541,110;    0,882;    1,227
517,648;14718,223;    0,155;   -1,136
518,232;14340,062;   -1,300;   -1,409
518,817;14642,678;    1,337;    1,682
519,401;14883,068;    0,700;    0,591
519,985;14347,752;    2,700;    1,136
520,570;14258,972;   -0,118;   -1,955
521,154;14536,196;    0,064;    0,591
521,738;14744,346;    1,064;    2,409
522,323;15339,164;   -0,390;    1,682
522,907;15095,025;    2,428;   -0,136
523,491;14778,405;    1,155;    0,955
524,075;14784,020;    0,428;    0,591
524,659;14869,325;    0,973;    0,591
525,243;14275,924;    0,883;    0,409
525,827;14543,812;    0,883;   -0,045
526,411;15415,416;    1,155;   -0,136
526,995;15662,710;    0,337;    1,409
527,579;15220,090;    1,974;   -1,045
528,163;15543,844;    0,428;   -1,500
528,747;15482,363;    1,065;   -0,773
529,331;15761,641;    0,883;   -1,409
529,915;15975,887;    2,338;    0,955
530,499;15959,582;    0,247;    1,227
531,082;15620,625;    1,065;    1,591
531,666;15025,379;    0,520;    0,773
532,250;15744,069;    0,428;    2,682
532,833;16092,957;    0,610;    2,773
533,417;15971,090;    1,247;    0,864
534,001;15939,860;    0,429;   -0,318
534,584;16662,005;    1,974;    0,500
535,168;16525,903;    3,247;    1,409
535,751;16585,507;    4,520;    0,045
536,334;15973,283;    4,520;   -0,409
536,918;16598,299;    1,974;    1,591
537,501;16705,374;    1,520;    1,318
538,085;16690,230;    1,702;    1,045
538,668;16874,481;    0,883;    2,409
539,251;17250,823;    3,156;    3,773
539,834;17293,347;    0,156;    0,773
540,418;17183,075;    3,247;    4,318
541,001;17278,363;    2,702;    1,773
541,584;17306,219;    1,429;    2,227
542,167;16983,219;    0,702;    2,955
542,750;17126,845;    0,793;   -0,773
543,333;16729,262;    1,429;    2,136
543,916;17513,995;   -0,298;    2,500
544,499;18167,471;    2,520;    0,227
545,082;18167,091;    0,248;    3,591
545,665;18324,262;   -0,207;    1,500
546,248;18688,444;    0,520;   -0,318
546,830;18338,931;   -1,752;    1,955
547,413;18753,749;    0,157;   -0,773
547,996;19322,877;    0,157;    0,500
548,579;19082,027;   -0,843;    0,955
549,161;18893,739;    0,884;    2,682
549,744;18685,888;    0,612;    0,409
550,326;19226,445;    0,885;   -1,136
550,909;18957,851;    2,339;    0,591
551,492;19348,867;    0,521;    0,227
552,074;19140,926;   -0,024;   -1,318
552,657;19699,081;    2,430;    0,045
553,239;19501,290;   -3,024;   -0,773
553,821;19402,455;   -1,570;    1,045
554,404;18867,044;   -0,024;    1,136
554,986;19284,472;    2,248;    1,045
555,568;19922,044;    0,430;   -0,955
556,151;19034,841;    4,067;   -0,227
556,733;19224,899;   -1,388;   -0,864
557,315;19778,707;    4,703;    0,500
557,897;19546,745;    0,521;   -0,500
558,479;19710,696;    1,703;    1,318
559,061;19823,039;    1,067;   -0,864
559,643;20180,023;   -0,297;    0,045
560,225;20551,028;   -0,388;    2,864
560,807;20579,295;    0,340;    0,318
561,389;20067,568;   -1,206;    2,318
561,971;20789,135;   -0,660;    2,136
562,553;20621,895;    0,613;    1,591
563,135;20775,547;    1,249;    1,136
563,717;20379,964;    3,158;    1,136
564,298;21102,413;    3,976;   -0,045
564,880;20807,612;    0,340;   -1,409
565,462;21013,248;    1,977;    1,318
566,043;22222,649;   -0,933;    2,318
566,625;21746,734;    4,067;    1,227
567,207;21609,012;    0,704;    1,682
567,788;22813,130;   -0,114;    1,500
568,370;23618,414;   -1,841;   -0,500
568,951;23439,499;   -0,569;    0,227
569,533;24390,580;    0,977;   -0,500
570,114;24877,547;   -0,296;    0,682
570,695;25358,120;   -0,478;   -1,318
571,277;25913,820;   -0,205;   -1,682
571,858;26725,435;    2,704;   -1,136
572,439;27684,606;    0,795;   -1,045
573,021;27861,922;    0,432;   -2,773
573,602;28429,307;    1,795;    0,318
574,183;29370,526;   -0,114;    2,227
574,764;29571,660;    2,068;    0,409
575,345;30164,174;    0,250;   -0,136
575,926;30764,767;    2,704;    0,136
576,507;30787,393;    2,704;   -0,227
577,088;31879,815;    1,704;    1,682
577,669;31968,612;    1,704;    1,955
578,250;32756,436;   -0,750;   -1,045
578,831;33434,949;   -0,841;   -2,227
579,412;33723,045;   -1,205;    0,955
579,993;34710,756;    1,432;    0,227
580,573;35018,612;   -0,023;   -0,955
581,154;33965,922;    1,613;   -0,591
581,735;34873,302;    0,341;    0,773
582,315;34304,938;    0,523;    2,136
582,896;34651,296;   -1,750;    1,227
583,477;34106,789;    0,614;    1,227
584,057;34303,270;    1,159;    0,955
584,638;34521,938;   -2,750;    2,318
585,218;34559,077;    2,886;    2,682
585,799;34732,157;    1,977;   -0,227
586,379;34667,270;    1,250;    1,591
586,959;33418,954;    2,613;    0,318
587,540;32739,291;    0,432;    2,227
588,120;32131,746;   -1,113;   -0,045
588,700;31048,201;    2,977;    2,136
589,281;31452,275;    1,250;   -0,955
589,861;31358,067;   -0,296;   -1,682
590,441;31141,559;   -1,477;   -2,682
591,021;30078,660;    1,432;   -2,591
591,601;30263,355;    0,431;    0,500
592,181;30218,639;   -1,296;   -0,773
592,761;29525,783;    2,250;    1,409
593,341;29443,371;    1,522;    0,045
593,921;29416,238;   -0,569;    1,591
594,501;29303,805;    1,250;    1,318
595,081;29125,350;    0,522;   -0,318
595,661;29491,649;    1,068;    0,955
596,240;30015,478;   -1,023;    0,136
596,820;29598,681;    2,613;    1,955
597,400;29846,302;    1,977;    0,773
597,980;30068,740;   -0,750;    1,045
598,559;30091,831;    0,341;   -0,227
599,139;29809,045;   -0,750;   -1,227
599,718;29631,318;    0,795;   -0,409
600,298;29853,591;   -2,387;    0,682
600,877;30111,393;    4,795;    1,409
601,457;30407,959;    0,340;    1,136
602,036;30335,168;    1,795;    2,045
602,616;30532,917;    2,250;    1,682
603,195;30853,863;    0,431;    3,500
603,774;30418,045;   -0,296;    2,045
604,354;30293,660;    2,522;   -0,500
604,933;29751,248;    0,250;    1,864
605,512;29927,007;    2,340;    0,591
606,091;29933,521;    1,886;    3,773
606,671;30743,296;    0,249;    0,773
607,250;29821,398;    1,431;    3,136
607,829;30039,547;    1,158;    3,227
608,408;29876,751;    4,613;    2,591
608,987;28906,585;    2,704;    3,409
609,566;29181,746;    0,341;   -2,500
610,145;29263,028;    2,885;    0,682
610,723;29736,173;    1,613;    6,864
611,302;28954,082;    1,067;    1,682
611,881;28403,125;    5,158;   11,227
612,460;29258,018;    0,795;    3,955
613,039;29688,397;    1,703;    2,045
613,617;28459,510;    0,886;    4,773
614,196;28600,232;    1,613;    1,227
614,775;28907,354;    1,249;    2,409
615,353;28875,536;   -1,660;    0,864
615,932;28527,247;    0,249;    2,409
616,510;29198,895;    0,158;    0,591
617,089;28673,140;    8,794;   17,591
617,667;28392,071;    4,885;    6,136
618,246;28191,311;   -1,115;    1,318
618,824;28361,846;    1,612;   -0,955
619,402;27955,761;    0,431;   -1,773
619,981;28455,327;    1,067;   -1,045
620,559;28290,611;    0,794;    1,682
621,137;27841,429;    3,067;    1,864
621,715;27841,573;    3,703;   -0,682
622,293;27697,119;    1,885;   -0,773
622,871;28238,343;    0,340;    0,500
623,450;27721,948;    0,430;   -0,864
624,028;27677,365;   -0,388;   -0,955
624,606;27262,611;    2,339;    1,682
625,183;27625,049;   -0,661;   -1,136
625,761;27265,044;    1,885;    1,136
626,339;27533,878;    2,339;    2,591
626,917;27908,568;    0,339;   -0,045
627,495;27971,616;    2,794;    1,318
628,073;27399,204;    5,248;    2,864
628,650;27100,573;    3,067;    2,136
629,228;27521,776;    1,248;    4,409
629,806;26891,129;   -0,024;    1,136
630,383;27157,279;    0,066;   -0,318
630,961;26952,434;   -2,206;   -0,955
631,539;26662,327;   -2,479;    0,227
632,116;25894,707;   12,703;   15,409
632,694;26578,017;    4,885;    6,500
633,271;26828,968;    1,975;    2,682
633,848;26762,043;    1,430;    2,045
634,426;26801,337;    1,521;    1,773
635,003;25895,385;   -0,207;   -0,409
635,580;26199,818;    1,884;    3,682
636,158;26751,118;    3,793;    1,227
636,735;26733,819;    3,339;   -0,500
637,312;26874,856;    0,521;   -0,682
637,889;26959,915;    2,248;   -0,682
638,466;26436,786;    0,066;   -0,409
639,043;26460,027;    1,702;   -1,136
639,620;26759,535;    0,611;   -0,955
640,197;27071,113;    1,612;    1,682
640,774;27264,626;    1,430;    1,136
641,351;27750,775;    0,612;    1,136
641,928;27103,379;    2,794;    1,409
642,505;26680,256;    0,794;   -0,500
643,082;26834,587;    1,885;    1,227
643,658;25837,464;    1,157;    1,500
644,235;26575,796;   -2,479;    2,500
644,812;26842,127;    1,794;    0,773
645,388;26654,731;    1,612;    1,409
645,965;26690,699;    1,521;    1,682
646,542;26731,212;    3,430;   -0,227
647,118;26771,543;    3,703;   -0,955
647,695;27058,784;    0,339;    1,136
648,271;26972,842;   -2,115;    0,500
648,848;27277,810;    0,248;    2,227
649,424;27070,323;    0,976;    1,318
650,000;26771,927;   -0,388;   -1,045
650,577;26636,258;    0,158;   -0,955
651,153;27134,590;   -1,115;    0,955
651,729;28099,830;    0,521;    0,864
652,305;28298,707;    1,339;    2,773
652,881;32930,129;   -1,297;    1,136
653,458;40173,370;    0,249;    0,227
654,034;44214,974;    0,703;    1,591
654,610;45788,941;    0,339;    0,773
655,186;47173,000;    1,612;    3,045
655,762;46929,059;   -1,842;    0,409
656,338;46982,753;    0,703;    0,136
656,913;48035,176;   -0,297;    0,409
657,489;47335,780;    0,249;   -0,318
658,065;47352,929;    0,794;   -1,591
658,641;47872,897;    2,158;   -0,864
659,217;47128,319;    2,067;    0,409
659,792;46541,560;   -1,751;   -0,409
660,368;46783,164;   -0,388;   -0,682
660,944;46439,404;    1,794;    1,227
661,519;41761,463;    0,522;    0,409
662,095;35261,521;   -0,206;    0,591
662,670;30368,216;   -0,206;   -0,136
663,246;29108,457;   -0,660;   -0,409
663,821;28351,970;    0,431;    1,682
664,396;27825,483;    0,613;    1,864
664,972;28112,087;   -0,660;   -0,500
665,547;28408,327;    3,794;    0,136
666,122;28396,932;    1,340;    0,318
666,698;28729,717;    2,431;    0,318
667,273;28011,412;    0,885;    0,136
667,848;28825,198;    0,340;    1,500
668,423;28606,075;    1,795;    2,318
668,998;29215,952;    0,976;   -0,682
669,573;29802,920;    2,067;   -1,500
670,148;29600,251;    1,885;   -0,682
670,723;29426,673;   -0,024;    0,318
671,298;29809,186;   -1,296;    1,045
671,873;30002,790;   -0,296;   -0,136
672,448;29905,758;    1,704;    0,136
673,023;30273,726;    0,249;   -0,227
673,597;30570,693;    2,704;    2,318
674,172;30321,025;    2,431;    0,318
674,747;29795,265;   -0,205;   -1,045
675,321;29698,415;   -0,933;    3,318
675,896;29217,655;    2,158;    1,045
676,471;30206,895;    2,522;    1,591
677,045;29999,136;   -0,296;    0,682
677,620;30049,467;    2,158;    1,136
678,194;30366,344;    0,249;    1,136
678,769;29922,766;    0,886;   -0,318
679,343;30118,098;   -0,023;    1,773
679,917;29939,883;    0,340;    1,955
680,492;30082,851;    0,249;    3,227
681,066;30235,910;    0,613;    0,409
681,640;30275,514;    1,795;   -0,318
682,214;31044,391;    2,340;    0,500
682,788;30578,904;    0,613;   -0,773
683,363;30528,599;    1,977;    1,682
683,937;30252,839;    0,886;   -0,318
684,511;31064,080;   -1,023;   -0,591
685,085;30718,956;   -1,478;    0,318
685,659;30504,106;    1,431;    0,864
686,232;30679,710;    1,159;   -0,318
686,806;30386,132;    2,159;    0,409
687,380;31103,918;   -1,932;    0,591
687,954;31357,704;    2,432;    1,136
688,528;30983,399;    2,613;    1,955
689,101;31828,912;    0,432;    1,045
689,675;31413,061;    0,886;   -0,136
690,249;30718,938;    3,432;    0,409
690,822;31026,270;    1,159;    0,318
691,396;31158,874;    2,068;    1,227
691,969;30620,841;    2,523;    0,136
692,543;31090,082;   -0,568;   -1,955
693,116;30702,868;   -0,659;   -1,409
693,690;30568,381;   -0,296;    0,500
694,263;31131,167;    2,341;    2,955
694,836;31175,498;    2,795;    3,591
695,410;29766,920;    1,159;    1,773
695,983;30183,979;    1,614;    0,591
696,556;30159,037;   -0,750;   -1,045
697,129;30609,460;   -1,114;    1,409
697,703;30204,336;    1,341;    1,955
698,276;30187,304;    1,705;   -0,773
698,849;29976,908;   -1,023;    1,409
699,422;30363,876;    1,250;    0,591
699,995;30023,753;   -0,659;    0,136
700,568;30533,175;   -0,204;    3,045
701,140;30583,597;   -1,841;    1,682
701,713;30285,201;    0,341;    2,409
702,286;29996,260;    0,796;    0,864
702,859;29889,591;    0,614;   -0,591
703,432;29048,195;   -0,841;    0,682
704,004;29607,981;    1,978;    0,318
704,577;29454,858;    1,068;    0,136
705,150;30044,098;    0,887;    2,500
705,722;29842,793;    1,523;   -3,227
706,295;29599,852;    1,432;   -0,591
706,867;29382,092;    0,250;    1,955
707,440;29624,242;   -0,113;   -0,409
708,012;29833,119;   -0,022;    0,591
708,584;29760,995;    2,705;    0,227
709,157;30063,145;    1,160;   -0,591
709,729;29742,385;    1,069;    2,045
710,301;30631,353;   -1,204;    0,045
710,874;30622,775;    0,341;   -0,227
711,446;29521,379;   -0,295;    0,864
712,018;29356,529;   -3,022;    0,500
712,590;29068,769;   -0,204;    1,682
713,162;29666,646;   -0,477;    1,318
713,734;29923,068;    1,796;   -2,045
714,306;29748,218;    0,342;   -0,409
714,878;28414,004;   -0,295;    0,864
715,450;29264,699;   -0,113;    0,864
716,022;29498,575;    2,433;    1,318
716,593;29674,725;    0,978;    0,591
717,165;29595,874;    1,796;   -1,227
717,737;29313,842;    0,796;    0,409
718,309;28979,264;    1,160;   -0,045
718,880;28921,868;   -1,295;   -1,409
719,452;29186,018;    0,887;   -1,591
720,024;28712,440;    1,705;   -0,591
720,595;29342,317;    2,978;    0,955
721,167;28802,739;    1,160;   -2,045
721,738;28259,980;    2,069;   -1,045
722,309;28221,402;    1,251;   -1,227
722,881;28021,188;    2,705;    0,773
723,452;28716,246;    1,251;    2,864
724,023;28914,305;    1,524;    2,682
724,595;28616,091;    2,342;    0,682
725,166;28371,058;    1,524;   -0,409
725,737;28024,572;    1,887;    0,227
726,308;28156,085;    0,797;    0,318
726,879;28530,052;    1,069;    1,227
727,450;28409,293;   -2,022;   -0,045
728,021;28387,897;    1,069;    0,682
728,592;28193,228;    1,160;    0,500
729,163;28507,196;    1,433;   -0,136
729,734;28494,527;    2,160;   -0,227
730,305;28818,313;    0,615;    0,136
730,876;29162,826;    0,888;    2,955
731,447;28908,248;    0,797;    2,682
732,017;29014,671;   -0,840;    1,864
732,588;28523,548;   -0,021;    1,227
733,159;28722,061;    3,615;   -1,045
733,729;28440,665;    1,251;    0,409
734,300;27786,178;    0,160;    0,864
734,870;28183,964;   -1,385;    0,591
735,441;28775,659;    0,888;   -0,591
736,011;28504,263;    1,070;   -1,591
736,582;28397,594;    1,251;    0,045
737,152;27855,380;    0,979;   -2,045
737,722;28348,529;    1,070;   -0,682
738,293;28068,770;   -2,021;    1,318
738,863;27947,829;    1,797;    2,318
739,433;27723,705;    4,524;    0,318
740,003;28352,673;    1,524;   -0,682
740,573;27742,550;    2,252;   -1,591
741,143;27720,881;    3,615;    0,318
741,713;28521,940;    0,252;   -0,500
742,283;28193,271;    1,706;    1,591
742,853;27946,602;    0,524;    1,591
743,423;27401,752;    0,161;    0,045
743,993;27493,174;    1,070;    1,500
744,563;26857,778;    2,524;   -0,864
745,133;26877,746;   -0,112;   -0,864
745,702;27564,623;    2,797;    1,773
746,272;26719,136;    0,434;    0,591
746,842;26480,649;   -0,748;   -0,591
747,411;26916,526;   -0,839;   -0,318
747,981;27141,584;   -0,930;    0,500
748,551;27179,643;   -0,021;   -1,045
749,120;27042,429;   -0,112;   -0,227
749,690;27379,033;    2,161;    2,409
750,259;27712,819;    0,979;    2,955
750,828;27614,059;    4,070;   -1,955
751,398;27901,300;   -0,112;   -0,045
751,967;27373,358;    2,888;    0,409
752,536;27533,780;    1,161;   -0,227
753,105;28031,475;   -1,384;    0,227
753,675;27842,807;   -0,112;    1,773
754,244;27722,956;    0,888;    3,591
754,813;27755,106;    0,979;    1,227
755,382;27411,255;    0,798;    0,955
755,951;27962,587;   -0,112;    3,682
756,520;27462,645;    2,525;    1,864
757,089;28011,431;    1,888;    0,500
757,658;28117,399;    2,434;    1,227
758,227;28137,366;   -1,111;    0,318
758,795;28492,970;   -1,021;    1,136
759,364;28748,665;    0,525;   -0,591
759,933;27720,815;    1,343;   -0,045
760,501;27255,601;    0,252;   -1,318
761,070;27713,659;   -0,293;   -1,409
761,639;28467,627;    1,434;    1,318
762,207;27738,322;    0,889;   -0,955
762,776;27687,835;    2,889;    0,864
763,344;27628,348;    0,071;    0,591
763,913;26693,225;    1,616;    1,409
764,481;27457,920;    1,980;   -0,136
765,049;27258,070;    0,616;    1,409
765,618;27179,219;    1,434;    0,318
766,186;27218,641;    2,434;    0,136
766,754;27392,973;    1,798;    1,864
767,322;26385,668;    1,162;    0,409
767,890;26414,090;    0,525;   -1,773
768,459;26807,876;    2,616;   -0,318
769,027;26913,843;    2,525;    3,409
769,595;25959,175;    2,616;    2,591
770,163;26381,233;    3,344;    2,955
770,730;26098,928;    2,525;   -0,136
771,298;25996,987;    1,162;   -1,409
771,866;26073,773;    0,253;    4,955
772,434;26338,922;    1,162;   -1,864
773,002;26542,072;    2,616;    0,682
773,569;26080,312;    1,071;    1,682
774,137;25959,825;    0,889;   -0,045
774,705;26750,157;   -0,747;   -0,136
775,272;26235,761;    0,253;    0,682
775,840;26051,001;   -0,111;    2,682
776,407;25559,333;   -0,293;    1,955
776,975;25093,755;    1,162;    0,318
777,542;26142,177;    2,162;   -0,045
778,110;26000,236;    0,707;   -0,045
778,677;25674,931;    1,071;   -0,864
779,244;25401,898;   -1,020;    1,045
779,812;25482,775;    0,980;    0,864
780,379;25299,561;    2,435;    1,136
780,946;25582,801;    2,617;   -0,773
781,513;25944,315;   -0,565;    0,318
782,080;25267,100;    1,253;    2,864
782,647;26058,614;    1,708;    3,045
783,214;25605,490;   -0,201;    3,864
783,781;25225,276;    1,708;   -0,682
784,348;25099,608;    0,253;    1,500
784,915;25592,939;   -1,474;    0,318
785,482;25323,543;    2,708;    2,591
786,049;25746,147;    1,071;   -0,591
786,615;25861,933;    1,708;   -0,955
787,182;25622,446;   -3,201;   -0,682
787,749;25308,777;   -2,201;    1,409
788,315;24619,472;    0,253;   -0,409
788,882;24868,531;    0,981;   -1,227
789,448;25595,862;    1,435;   -0,955
790,015;25638,648;    1,799;    3,227
790,581;25164,161;    0,708;    0,227
791,148;25070,402;    1,344;    1,045
791,714;25256,188;   -1,019;    3,136
792,280;24922,519;    3,708;    1,591
792,847;24508,214;   -0,928;    2,500
793,413;25089,363;   -0,110;   -0,318
793,979;24613,786;    1,526;   -1,318
794,545;24694,662;    2,981;    2,682
795,111;24059,630;    2,435;    1,318
795,678;24207,689;    3,526;   -1,682
796,244;23879,747;    2,799;    0,136
796,810;24466,170;    0,799;    0,773
797,375;24174,046;   -0,292;   -2,136
797,941;24224,559;   -1,110;    0,591
798,507;24353,164;    0,254;   -0,955
799,073;23869,222;    2,708;    0,591
799,639;23939,099;    1,435;    3,136
800,205;23975,430;   -1,565;    2,682
800,770;23485,034;    1,345;    1,773
801,336;23517,366;    2,981;   -0,955
801,901;23268,606;    6,072;    3,136
802,467;23841,665;    0,526;    2,045
803,033;23178,905;   -0,019;    0,864
803,598;23368,055;    1,072;   -1,045
804,163;23421,568;    0,708;   -0,318
804,729;23291,354;   -0,110;    1,136
805,294;23660,867;    1,072;    2,227
805,859;23507,834;    0,890;   -0,409
806,425;23001,711;    3,890;    2,682
806,990;22642,588;    1,890;    4,318
807,555;23167,101;   -0,110;    2,591
808,120;23038,614;   -1,292;   -0,409
808,685;23048,582;    1,072;   -2,500
809,250;22547,822;    2,072;   -0,500
809,815;22901,336;   -0,201;    0,682
810,380;23465,576;    0,981;    1,591
810,945;23932,998;    2,890;    2,045
811,510;23160,239;   -0,200;    1,591
812,075;22817,570;    2,800;   -1,409
812,640;22842,810;    3,709;    1,409
813,204;22935,414;    2,163;   -0,227
813,769;23432,837;    0,254;   -0,045
814,334;22785,077;    0,527;    0,864
814,898;22856,590;    1,981;    0,591
815,463;22702,740;    0,981;   -0,773
816,027;22678,253;    1,345;   -2,318
816,592;22796,857;    2,163;   -2,045
817,156;22326,370;   -2,200;    1,136
817,721;22128,611;    0,982;    2,318
818,285;22095,851;    0,618;    1,500
818,849;22759,364;   -0,018;    1,682
819,414;22630,241;    0,073;    2,955
819,978;22198,754;   -0,291;    1,773
820,542;22869,267;    2,891;    0,500
821,106;22559,144;    2,800;    0,682
821,670;22549,748;    2,709;    2,591
822,234;22244,897;    1,073;    1,409
822,798;21656,592;   -0,836;    0,500
823,362;21608,924;    1,527;    4,227
823,926;20890,619;   -0,018;    1,136
824,490;21112,496;    3,527;   -0,682
825,054;21635,918;    2,527;   -1,136
825,618;21254,885;   -1,200;   -1,500
826,181;21159,853;    0,982;   -1,318
826,745;21044,184;   -0,745;   -1,045
827,309;21418,152;    2,255;    1,318
827,872;20828,120;    0,527;    0,955
828,436;21832,724;    1,982;   -0,773
828,999;21871,237;    2,436;    1,227
829,563;20694,841;   -0,654;    1,136
830,126;20525,718;   -0,018;   -0,591
830,690;20530,867;    0,709;    2,864
831,253;19997,381;   -0,473;    2,227
831,816;20155,257;   -0,018;    0,500
832,380;20091,952;    1,164;    0,864
832,943;20313,738;    3,073;   -0,500
833,506;19836,433;    0,255;   -1,227
834,069;20648,492;    2,164;   -0,955
834,632;20694,550;   -2,200;    1,318
835,195;20591,973;    1,346;    0,955
835,758;19778,031;    0,709;    1,955
836,321;19582,363;    1,073;   -1,045
836,884;19708,148;   -1,291;   -0,955
837,447;19730,843;    0,528;    1,773
838,010;19927,993;    1,800;    3,227
838,573;20285,233;    0,528;    0,773
839,135;20211,746;   -0,109;   -0,955
839,698;19621,714;    2,528;    0,409
840,261;19147,682;    0,255;   -0,227
840,823;19035,195;   -0,927;    0,864
841,386;19310,890;   -0,018;   -2,409
841,948;19129,130;    0,255;    1,773
842,511;18888,644;    0,255;    1,682
843,073;19021,975;    2,982;    0,227
843,636;18857,852;    0,619;   -0,227
844,198;18761,183;    1,255;    0,591
844,760;18890,423;    0,619;    1,955
845,322;18512,300;    0,164;    1,136
845,885;18956,995;   -0,290;    0,591
846,447;19417,508;    0,710;    0,227
847,009;18972,021;    3,983;   -0,682
847,571;19302,171;    1,346;   -2,045
848,133;19388,139;   -0,199;   -1,864
848,695;19213,561;    2,346;    1,409
849,257;18778,529;    1,346;   -1,682
849,819;18944,860;    2,983;   -0,409
850,381;18998,828;    1,801;   -0,864
850,942;19353,250;    1,892;   -0,591
851,504;19234,218;    0,983;    0,227
852,066;19267,549;    1,619;   -1,591
852,628;18833,244;    0,165;    1,955
853,189;18389,393;    0,256;    2,682
853,751;18517,816;   -0,654;    1,409
854,312;18349,874;    1,256;   -1,682
854,874;18895,205;   -0,108;   -0,773
855,435;19350,810;    0,528;   -1,682
855,997;19484,595;    3,983;   -0,136
856,558;18757,654;    0,801;    1,773
857,119;18900,440;   -0,744;    2,864
857,681;18598,498;   -0,108;    0,318
858,242;18590,648;    1,347;   -2,136
858,803;19075,616;    1,074;   -0,773
859,364;19604,220;    0,892;   -4,773
859,925;18917,551;   -0,290;   -0,955
860,486;18848,519;    0,529;   -0,955
861,047;18584,759;    0,165;   -1,227
861,608;18371,181;    0,165;   -0,773
862,169;18550,967;   -0,562;   -0,045
862,730;18345,571;   -0,290;    1,409
863,291;18538,994;    0,438;   -0,500
863,852;18910,689;   -0,926;    1,955
864,412;18332,656;   -1,835;   -0,864
864,973;16917,442;    1,892;    0,500
865,534;16762,773;    2,074;    0,227
866,094;18263,650;    2,620;    0,227
866,655;17943,891;    4,711;    3,318
867,215;18246,131;    0,074;    0,136
867,776;18067,190;   -1,199;   -0,136
868,336;18157,157;    1,529;    0,136
868,897;17613,671;    3,438;    1,682
869,457;17378,547;    3,256;    0,318
870,017;17632,697;    2,438;   -1,227
870,578;18150,301;    1,893;    0,773
871,138;17774,814;    2,620;   -0,955
871,698;17301,327;   -0,562;   -1,318
872,258;17162,659;    0,711;   -2,864
872,818;17533,353;    2,347;    0,045
873,378;17473,503;   -2,198;    1,045
873,938;17078,016;    4,984;    0,500
874,498;17409,711;    1,256;   -1,955
875,058;17292,315;    4,347;    1,773
875,618;17139,919;    1,438;   -2,682
876,177;17044,796;   -0,471;    0,136
876,737;16607,400;   -0,289;    1,955
877,297;16635,731;    2,711;    1,955
877,856;16649,699;    2,529;    0,318
878,416;16616,394;    2,438;   -0,136
878,976;16811,634;    3,438;    0,409
879,535;17020,511;    4,529;    3,136
880,095;16749,115;    1,347;    0,045
880,654;16890,265;    0,347;    1,318
881,213;16963,687;    2,347;    1,500
881,773;16610,018;    1,984;    2,682
882,332;16968,986;    6,075;    5,136
882,891;16839,681;    0,711;    2,136
883,451;17279,376;   -2,016;    1,682
884,010;16759,616;   -1,107;   -0,409
884,569;16845,220;   -2,289;   -0,045
885,128;16962,643;   -0,743;   -1,864
885,687;16997,519;   -0,743;    0,682
886,246;16711,851;    2,620;    2,136
886,805;16454,909;    1,620;    2,045
887,364;16798,695;    1,166;   -0,500
887,922;17165,118;   -0,016;    0,045
888,481;16644,631;    1,530;    0,591
889,040;16963,144;    3,711;    2,136
889,599;17639,112;    2,166;    1,409
890,157;17698,534;    2,166;    2,409
890,716;17367,865;    2,166;    0,227
891,274;17180,651;    0,075;   -1,136
891,833;17562,346;    1,166;    0,864
892,391;17429,405;    1,802;    0,500
892,950;17562,645;    0,166;   -0,773
893,508;17883,976;    0,984;   -0,409
894,067;17233,217;   -0,379;    0,136
894,625;17161,912;   -1,016;   -1,500
895,183;17339,970;   -0,198;   -0,682
895,741;17264,938;    2,257;   -1,773
896,299;17072,542;    1,621;   -2,409
896,858;17271,510;    1,530;   -1,591
897,416;17407,932;    0,166;   -1,318
897,974;17170,445;   -2,197;    0,318
898,532;17328,504;    6,530;    2,682
899,089;17220,017;    0,621;   -0,682
899,647;17270,075;    0,530;    1,318
900,205;16972,589;    0,257;    1,045
900,763;17172,011;    2,166;    0,227
901,321;17166,979;    3,530;   -1,409
901,878;16611,492;    3,257;   -0,773
902,436;16453,187;    0,257;    1,318
902,994;16854,609;    6,712;    3,682
903,551;16322,849;    1,439;    0,409
904,109;16733,635;    1,530;   -1,409
904,666;16321,785;    1,439;    1,045
905,224;16090,843;    3,894;   -0,409
905,781;15838,538;   -0,470;   -0,318
906,338;15890,415;    0,167;    1,045
906,895;15840,746;    1,894;    2,045
907,453;15738,987;    2,348;    1,136
908,010;15757,227;    3,348;    0,409
908,567;15410,286;   -0,561;    0,591
909,124;14955,799;    2,439;   -1,500
909,681;14996,948;   -1,288;    0,682
910,238;15134,916;   -0,106;   -1,318
910,795;15447,975;   -1,561;   -1,136
911,352;15130,884;   -0,379;   -2,682
911,909;14534,702;    2,803;   -0,864
912,466;15037,066;    1,985;    1,500
913,022;14547,066;   -0,924;    0,500
913,579;14896,611;   -0,470;    2,045
914,136;14640,157;   -2,561;    0,955
914,692;15004,247;    1,530;   -1,227
915,249;14546,975;    0,530;    0,409
915,806;14714,338;    1,803;    1,955
916,362;14448,611;    0,894;    1,864
916,918;14022,793;    2,439;    1,045
917,475;14013,702;    1,621;    0,955
918,031;14117,884;    0,076;   -0,045
918,587;13596,520;    0,621;   -0,318
919,144;13783,247;   -0,379;    0,227
919,700;14109,157;    0,167;    0,773
920,256;13696,702;    0,439;    0,045
920,812;13281,066;    1,439;   -1,045
921,368;13290,338;    1,348;   -1,045
921,924;12947,338;    0,439;   -0,136
922,480;12471,884;    0,076;    1,227
923,036;13136,157;   -0,652;    1,955
923,592;13110,338;    0,621;    0,318
924,148;12958,975;    1,894;   -0,955
924,704;12283,066;    0,258;   -0,409
925,259;12593,429;   -0,561;    0,591
925,815;12331,520;    3,803;    0,500
926,371;11857,066;    3,530;    1,409
926,926;11784,338;    1,621;    0,591
927,482;11358,702;    1,621;    0,773
928,037;11230,066;   -0,833;    2,045
928,593;11555,157;    0,258;    1,045
929,148;11371,793;    1,167;   -1,500
929,704;10912,793;    2,439;   -0,500
930,259;11107,520;    0,894;   -0,136
930,814;10195,429;    1,803;    1,955
931,369; 9898,066;    0,258;   -0,773
931,925; 9770,157;   -1,924;    0,136
932,480; 9626,975;    3,076;   -2,591
933,035; 9566,429;    3,985;   -0,318
933,590; 9293,975;   -1,742;   -1,773
934,145; 8926,975;   -1,288;   -0,318
934,700; 9301,338;    0,348;   -0,591
935,255; 9077,247;    4,803;    0,045
935,809; 8351,793;    6,258;    0,864
936,364; 7496,429;    2,167;   -0,136
936,919; 7469,884;    2,348;   -1,773
937,474; 7334,520;    1,348;    0,136
938,028; 7104,247;    3,076;    1,136
938,583; 6573,157;    6,348;    4,682
939,138; 6867,338;    0,167;    2,136
939,692; 6339,157;   -1,015;   -1,136
940,247; 5998,975;    1,167;   -1,045
940,801; 5557,793;    0,621;    0,227
941,355; 5461,247;    0,439;    2,591
941,910; 5132,247;    0,712;   -2,136
942,464; 5236,793;    2,712;   -0,318
943,018; 4983,066;    3,258;   -0,227
943,572; 4953,066;    2,803;   -0,682
944,126; 4345,520;   -0,924;   -0,409
944,681; 4252,247;    0,712;    0,227
945,235; 4265,520;    2,167;   -0,591
945,789; 4192,247;    1,258;   -1,864
946,342; 4255,975;   -0,561;   -0,591
946,896; 4079,157;    0,348;    0,955
947,450; 3850,520;   -0,561;   -0,227
948,004; 4022,066;    1,076;   -0,045
948,558; 4029,884;    1,258;   -0,864
949,111; 3961,884;   -1,197;   -0,318
949,665; 3985,611;   -0,106;   -0,682
950,219; 3862,884;    0,621;   -1,045
950,772; 3932,247;    0,258;    1,864
951,326; 3853,702;   -1,106;   -0,955
951,879; 3959,702;    1,076;   -2,318
952,433; 3961,338;    1,348;    2,227
952,986; 3816,884;    0,348;    0,682
953,539; 3748,611;    1,530;    0,591
954,093; 3677,793;    0,985;   -1,318
954,646; 3829,338;   -0,288;    1,318
955,199; 3644,702;    1,258;   -0,500
955,752; 3529,066;    1,985;    1,773
956,305; 3461,793;    0,894;    2,955
956,858; 3646,884;    0,621;   -0,318
957,411; 3823,066;    3,621;    2,136
957,964; 3627,157;    2,076;    2,136
958,517; 3620,066;    0,985;    3,136
959,070; 3482,338;   -1,197;    1,955
959,623; 3538,429;    1,076;    1,500
960,176; 3313,338;    0,712;    2,045
960,728; 3280,520;    1,712;    0,773
961,281; 3367,702;    2,258;    0,500
961,834; 3389,611;   -0,833;    0,864
962,386; 3317,702;    1,258;    1,045
962,939; 3232,884;    3,439;   -0,318
963,491; 3384,975;    2,621;    1,136
964,043; 3253,520;    0,076;    2,409
964,596; 3364,520;    1,712;    2,227
965,148; 3199,975;   -0,379;    1,773
965,700; 3133,338;   -0,015;   -0,227
966,253; 3293,520;   -0,833;    0,318
966,805; 3095,247;    1,894;    0,773
967,357; 3172,611;    0,439;   -1,500
967,909; 3113,884;    1,167;   -1,227
968,461; 3225,157;    0,894;    3,136
969,013; 3154,611;   -1,561;   -0,864
969,565; 3229,520;    1,803;   -1,136
970,117; 3297,793;    3,803;    1,045
970,669; 3135,157;    3,258;   -0,136
971,220; 3015,247;    2,167;   -1,500
971,772; 2914,884;    1,348;   -0,318
972,324; 3058,975;   -1,197;   -0,500
972,876; 3013,066;    0,167;   -0,045
973,427; 3106,338;   -1,197;   -1,045
973,979; 3104,157;    0,076;   -2,500
974,530; 3133,611;    0,803;    1,318
975,082; 3144,429;    2,167;    1,682
975,633; 3031,157;    2,894;    1,682
976,184; 3193,975;    2,076;    0,773
976,736; 2980,793;    0,348;    0,227
977,287; 2760,338;    0,258;   -0,500
977,838; 2978,066;   -0,924;   -0,318
978,389; 3010,884;    0,803;   -0,500
978,940; 2878,520;    1,258;   -0,409
979,491; 2905,157;    2,258;   -0,500
980,042; 2853,884;   -0,652;    3,045
980,593; 2896,338;    1,894;    0,227
981,144; 2965,520;    3,530;   -0,500
981,695; 2938,338;   -0,470;    1,500
982,246; 2896,884;   -1,833;    1,045
982,797; 3042,975;   -0,561;    0,682
983,347; 3189,611;    2,167;    0,591
983,898; 3325,793;    4,167;    0,409
984,449; 3129,975;    2,530;    0,773
984,999; 3064,247;    1,894;   -1,136
985,550; 2813,247;    3,167;   -0,318
986,100; 2886,793;    0,712;   -0,318
986,651; 2909,702;    0,258;    0,045
987,201; 2884,247;    0,894;   -0,591
987,751; 2984,611;   -0,288;    2,864
988,302; 2959,247;   -0,379;    1,500
988,852; 2975,884;    1,985;   -1,136
989,402; 3021,793;    0,985;    0,682
989,952; 2921,611;    1,621;    0,864
990,502; 3033,066;    1,076;    0,682
991,052; 2999,429;   -0,106;    0,045
991,602; 2864,520;    1,167;    1,318
992,152; 2861,884;    2,803;    0,682
992,702; 2839,975;    1,167;   -0,045
993,252; 2748,247;    0,076;   -0,500
993,802; 2836,793;    1,167;    1,318
994,352; 3083,066;   -0,742;    1,136
994,901; 3182,520;    1,076;    3,227
995,451; 3102,611;   -1,197;    0,318
996,000; 3180,975;    1,076;    0,318
996,550; 2890,975;    2,894;    0,227
997,100; 2895,157;   -0,561;   -0,045
997,649; 3176,975;   -0,197;    0,955
998,198; 2817,157;   -0,288;   -1,500
998,748; 2989,975;    0,348;   -2,318
999,297; 2902,975;    0,985;   -0,409
999,846; 2978,066;    1,894;   -0,773
1000,395; 2994,338;    1,530;    0,500
1000,945; 2971,611;    1,076;   -0,773
1001,494; 3051,702;    0,167;    0,682
1002,043; 3034,793;    0,712;    0,864
1002,592; 2879,702;    3,439;    1,955
1003,141; 3028,975;    2,439;   -0,682
1003,690; 2854,793;    1,258;    0,500
1004,238; 2917,520;   -0,106;   -0,045
1004,787; 2579,247;   -1,288;    1,227
1005,336; 2817,702;    1,621;    0,682
1005,885; 2965,338;   -0,197;   -2,773
1006,433; 3116,884;   -0,470;    0,955
1006,982; 3166,157;    2,167;    1,682
1007,531; 3093,611;    2,712;   -0,227
1008,079; 3036,338;    0,258;    0,500
1008,627; 3178,247;    1,621;    0,409
1009,176; 2904,247;    0,076;   -1,955
1009,724; 2948,884;   -2,742;    0,864
1010,273; 3004,702;    1,076;    0,500
1010,821; 3126,157;    1,076;    1,409
1011,369; 2865,066;    0,076;    1,318
1011,917; 2842,884;   -0,833;   -0,591
1012,465; 3138,066;    2,530;   -1,591
1013,013; 3226,611;    0,439;   -1,682
1013,561; 3089,793;   -1,288;   -0,773
1014,109; 3156,066;   -0,833;    1,682
1014,657; 3007,702;    1,348;    0,591
1015,205; 3132,884;    0,894;   -0,955
1015,753; 3193,611;    0,258;   -1,409
1016,301; 3225,975;    2,621;    3,045
1016,848; 3242,884;    2,167;    0,409
1017,396; 3267,157;    1,621;    0,045
1017,944; 3392,520;    2,621;    1,864
1018,491; 3149,793;   -0,197;    1,409
1019,039; 3308,157;   -0,652;    0,591
1019,586; 3210,520;    0,076;    1,682
1020,134; 3307,520;    0,712;    1,500
1020,681; 3324,429;    2,894;   -1,136
1021,228; 3363,157;   -0,561;   -2,227
1021,776; 3189,429;   -0,833;   -1,136
1022,323; 3377,611;    0,803;    0,773
1022,870; 3330,157;   -0,470;   -0,045
1023,417; 3235,247;    2,076;    1,864
1023,964; 3378,520;    0,621;    1,227
1024,511; 3212,611;   -0,652;    0,773
1025,058; 2996,338;    0,439;   -0,045
1025,605; 3057,793;   -1,742;    3,136
1026,152; 3258,066;   -0,106;   -0,591
1026,699; 2989,520;    0,167;    1,318
1027,245; 3152,338;    2,439;    0,318
1027,792; 3393,793;    0,712;    1,409
1028,339; 3267,793;    4,076;   -0,045
1028,885; 3121,702;    3,621;   -0,227
1029,432; 3054,611;   -0,106;    0,227
1029,978; 3117,975;    1,348;   -1,591
1030,525; 3012,520;    1,621;    0,409
1031,071; 3260,884;    0,348;    1,136
1031,618; 3362,520;    1,258;    1,682
1032,164; 3166,066;    2,076;    3,045
1032,710; 3210,702;    0,076;   -1,500
1033,256; 3108,338;    0,712;   -0,136
1033,803; 3103,338;   -0,288;    1,500
1034,349; 2850,793;    1,803;    0,136
1034,895; 2994,338;    2,621;   -0,318
1035,441; 2959,338;    0,439;    0,318
1035,987; 2969,611;   -2,288;   -0,682
1036,533; 2995,884;   -0,197;   -0,955
1037,078; 3190,975;    4,712;    1,682
1037,624; 2992,157;    2,439;   -0,955
1038,170; 3026,793;    1,712;   -0,318
1038,716; 2915,975;    2,167;   -0,409
1039,261; 2844,247;    2,167;   -0,773
1039,807; 2779,975;   -0,015;    3,409
1040,352; 2846,157;   -1,288;   -0,318
1040,898; 2888,066;    0,167;   -0,682
1041,443; 2800,247;    0,803;   -2,591
1041,989; 2826,975;    3,621;    1,591
1042,534; 2706,520;    0,985;    2,591
1043,079; 2831,247;    1,985;    0,955
1043,625; 2601,702;    0,258;    0,500
1044,170; 2637,429;    2,439;    1,045
1044,715; 2906,611;    0,167;    0,955
1045,260; 2725,793;   -0,833;   -0,955
1045,805; 2779,702;    0,258;   -0,591
1046,350; 2727,611;    0,530;   -0,409
1046,895; 2665,247;    0,803;    1,591
1047,440; 2615,247;    1,530;    0,409
1047,985; 2517,157;   -1,197;   -0,955
1048,530; 2431,884;    1,348;    1,227
1049,074; 2508,429;    2,803;    0,318
1049,619; 2477,429;   -0,924;    1,955
1050,164; 2287,247;    1,076;    0,227
1050,708; 2345,429;    2,621;    0,045
1051,253; 2720,247;    3,258;   -2,227
1051,797; 2430,066;   -0,197;   -1,318
1052,342; 2428,429;    1,348;    1,045
1052,886; 2417,429;    1,803;   -1,409
1053,430; 2312,793;    2,167;    0,136
1053,975; 2335,157;    0,894;   -0,318
1054,519; 2297,157;    1,803;    3,227
1055,063; 2305,520;    3,621;    1,318
1055,607; 2194,157;    1,348;    0,227
1056,151; 2233,611;    0,530;    1,682
1056,695; 2144,611;   -1,833;   -1,136
1057,239; 2206,884;   -1,197;   -0,682
1057,783; 2218,247;    2,258;   -1,500
1058,327; 2153,429;    3,076;    1,409
1058,871; 2379,611;    3,985;    1,318
1059,415; 2084,247;   -0,561;   -0,045
1059,958; 2342,429;    2,985;    2,591
1060,502; 2077,975;    1,348;   -0,773
1061,046; 1976,157;    1,712;   -0,955
1061,589; 1956,157;    2,803;   -1,136
1062,133; 1833,884;    0,985;    1,864
1062,676; 1770,793;    1,439;    0,864
1063,220; 1774,429;    0,985;    0,500
1063,763; 1791,066;    2,985;    1,136
1064,306; 1865,157;    0,985;    1,864
1064,849; 1777,793;    2,076;    0,591
1065,393; 1780,247;    2,894;   -1,500
1065,936; 1883,611;    2,530;   -0,409
1066,479; 1756,429;    2,621;    1,318
1067,022; 1795,247;    1,894;   -0,227
1067,565; 1701,247;   -1,197;   -1,318
1068,108; 1720,520;    1,258;   -0,591
1068,651; 1708,884;   -2,470;    1,409
1069,194; 1627,157;   -1,106;   -1,682
1069,736; 1626,611;    3,803;    0,955
1070,279; 1607,793;   -1,652;   -0,500
1070,822; 1657,884;    1,530;   -0,318
1071,364; 1714,884;    0,530;    1,318
1071,907; 1545,884;    0,348;    3,227
1072,450; 1462,066;    0,258;   -0,045
1072,992; 1469,066;   -0,561;    3,136
1073,535; 1588,975;    0,167;    2,136
1074,077; 1403,338;    2,985;    2,045
1074,619; 1360,520;    0,985;    0,591
1075,161; 1384,702;   -0,561;    1,500
1075,704; 1559,429;    0,258;    1,227
1076,246; 1372,338;    1,530;    0,682
1076,788; 1309,338;   -1,015;    1,773
1077,330; 1399,066;   -2,106;    2,136
1077,872; 1353,611;   -1,924;    0,955
1078,414; 1571,793;    3,712;    0,773
1078,956; 1293,975;    0,167;   -0,227
1079,498; 1541,611;    0,439;    0,318
1080,040; 1244,429;    0,985;   -1,318
1080,581; 1205,429;    0,621;   -0,318
1081,123; 1138,247;   -0,106;   -0,773
1081,665; 1197,611;    3,803;   -0,955
1082,206; 1468,429;    3,258;   -0,500
1082,748; 1330,157;    3,258;    2,045
1083,289; 1222,793;    0,167;    1,318
1083,831; 1125,702;    0,258;    0,227
1084,372; 1149,338;    0,894;    0,591
1084,913; 1153,066;    3,348;    0,864
1085,455; 1134,793;    1,530;   -2,045
1085,996; 1102,157;    0,530;    0,136
1086,537; 1118,884;    0,985;    0,864
1087,078; 1153,611;    0,439;   -2,136
1087,619; 1188,066;   -1,652;    0,227
1088,160; 1102,157;    1,439;    1,318
1088,701; 1090,429;   -0,742;    0,682
1089,242; 1033,338;   -0,561;   -2,227
1089,783; 1123,338;   -0,561;    1,409
1090,324; 1104,338;   -0,833;    0,682
1090,865;  979,429;   -1,924;   -0,409
1091,405;  959,338;   -0,561;    2,227
1091,946;  993,338;   -0,197;   -0,955
1092,487;  916,520;   -1,288;   -1,409
1093,027; 1074,702;    1,803;   -1,500
1093,568;  922,702;    2,258;    1,227
1094,108; 1005,793;    0,621;    1,773
1094,649;  951,975;   -0,470;    0,136
1095,189;  897,338;    1,167;   -0,682
1095,729;  840,520;    0,712;    0,955
1096,269;  862,793;    1,258;   -0,955
1096,810; 1162,520;   -0,197;    0,500
1097,350;  995,157;   -0,561;   -0,773
1097,890;  885,611;    2,985;    1,227
1098,430; 1129,702;    4,985;    2,864
1098,970; 1008,611;    1,894;    1,682
1099,510;  888,066;   -0,833;   -2,318
1100,050;  816,702;    0,258;   -1,591
1100,589;  777,520;    0,076;   -0,318
1101,129;  895,884;    0,894;   -0,955
1101,669; 1030,520;    2,803;    2,136
1102,209;  869,884;    1,530;    2,227
1102,748;  820,520;    3,439;    0,955
1103,288;  810,884;    0,712;   -1,227
1103,827;  830,429;    3,530;   -2,227
1104,367;  721,611;    1,712;   -2,409
1104,906;  693,066;   -1,015;   -1,136
1105,445;  754,793;    0,985;   -1,136
1105,985;  697,793;   -0,652;    1,500
1106,524;  737,702;    1,530;   -0,682
1107,063;  713,884;    1,167;    1,409
1107,602;  688,247;    1,894;   -1,500
1108,141;  612,429;    1,621;    1,500
1108,680;  714,702;    3,985;   -0,591
1109,219;  649,247;    0,167;   -0,500
1109,758;  653,520;    4,167;    0,682
1110,297;  635,520;   -1,106;   -0,682
1110,836;  588,884;    1,439;    0,955
1111,375;  737,793;    0,348;    0,409
1111,913;  737,975;    0,985;    0,773
1112,452;  686,429;    0,894;    0,136
1112,991;  577,611;    1,076;    1,955
1113,529;  533,975;    0,167;   -0,045
1114,068;  592,975;    0,439;    2,955
1114,606;  497,520;   -0,561;   -0,955
1115,144;  658,429;    1,530;    1,045
1115,683;  596,702;    1,985;    0,318
1116,221;  656,247;    2,076;   -0,864
1116,759;  561,520;    1,621;   -0,864
1117,297;  740,338;    1,621;    1,864
1117,836;  561,975;    1,985;   -1,227
1118,374;  558,702;    0,258;   -0,682
1118,912;  521,884;    0,439;    2,682
1119,450;  500,702;    0,985;    0,864
1119,988;  547,157;    3,348;    2,136
1120,525;  992,066;    7,258;    3,318
1121,063;  699,338;    0,530;    1,864
1121,601;  504,793;    1,076;   -1,227
1122,139;  471,702;    1,076;   -2,045
1122,676;  653,975;   -1,652;    2,773
1123,214;  593,975;    0,712;    4,409
1123,751;  413,247;    0,621;    2,227
1124,289;  534,157;    0,894;   -0,409
1124,826;  410,884;   -0,379;    0,227
1125,364;  341,429;    0,712;   -0,955
1125,901;  521,975;    6,258;    1,227
1126,438;  612,338;    3,530;    0,955
1126,975;  360,884;    2,985;   -0,773
1127,513;  425,429;    2,621;    2,136
1128,050;  343,611;   -0,561;   -0,682
1128,587;  428,338;    1,348;   -0,227
1129,124;  462,066;   -0,015;    1,318
1129,661;  352,975;   -1,924;    0,227
1130,198;  508,338;    2,439;    0,773
1130,734;  448,975;   -0,379;    1,409
1131,271;  314,611;   -1,197;    0,864
1131,808;  473,975;    1,621;    3,045
1132,345;  348,247;    4,530;    0,318
1132,881;  243,520;   -0,561;   -1,864
1133,418;  378,520;    0,348;   -1,136
1133,954;  313,611;    0,712;   -2,682
1134,491;  376,247;    1,712;   -0,773
1135,027;  287,247;    2,167;    0,864
1135,564;  362,793;    1,439;    2,955
1136,100;  348,611;   -0,742;    2,136
1136,636;  253,247;   -1,015;   -1,045
1137,172;  333,793;    0,894;   -1,045
1137,708;  266,429;   -1,561;   -1,045
1138,245;  269,429;    0,803;   -1,227
1138,781;  227,520;    1,803;   -3,318
1139,317;  281,066;    1,894;   -1,409
1139,852;  275,702;    3,076;    0,136
1140,388;  387,611;    2,076;   -0,409
1140,924;  277,429;    1,076;   -2,227
1141,460;  221,884;   -0,288;    0,136
1141,996;  156,247;   -0,652;    2,682
1142,531;  198,247;    1,076;    3,318
1143,067;  398,520;    1,167;    1,045
1143,602;  452,157;    3,439;   -0,318
1144,138;  314,247;    0,803;    1,045
1144,673;  189,247;    1,621;    1,409
1145,209;  247,157;    2,894;   -0,318
1145,744;  178,338;    0,803;    0,864
1146,279;  292,520;    1,530;   -0,136
1146,815;  219,338;    1,530;   -2,682
1147,350;  257,429;   -0,924;    0,045
1147,885;  177,611;   -1,924;   -1,318
1148,420;  179,520;    2,439;    0,773
1148,955;  163,247;   -1,470;    1,864
1149,490;  183,157;   -1,106;   -1,591
1150,025;  162,702;   -1,106;   -1,773
1150,560;  259,247;   -0,288;   -0,955
1151,094;  231,884;    0,258;   -0,591
1151,629;  243,247;   -3,742;    0,864
1152,164;  176,702;   -1,288;    1,318
1152,698;  141,338;    1,258;   -0,136
1153,233;   98,975;   -1,379;   -0,682
1153,767;  147,429;   -0,288;   -2,318
1154,302;  188,611;   -0,379;    1,773
1154,836;  181,793;    0,803;   -2,136
1155,371;  227,975;    2,258;    3,682
1155,905;  191,066;    1,985;    1,682
1156,439;  164,157;    0,530;   -0,500
1156,973;  190,793;    0,439;    0,318
1157,507;  126,611;   -1,742;    0,682
1158,042;  156,702;   -0,652;    1,045
1158,576;  201,157;   -0,561;    1,773
1159,110;  189,793;    0,076;    2,409
1159,643;  163,066;   -2,470;   -0,045
1160,177;  104,793;   -2,015;    1,500

