
Integration time [ms]:   0,050
Averaging Nr. [scans]: 11
Smoothing Nr. [pixels]: 0
Data measured with spectrometer [name]: 7318044SP
Wave   ;Sample   ;Dark     ;Reference
[nm]   ;[counts] ;[counts] ;[counts] 

186,757;   -8,844;   38,161;    1,318
187,357;   28,063;   26,706;    0,955
187,958;   10,905;   17,252;   -1,591
188,558;   62,671;   12,979;   -1,227
189,159;   33,562;   10,070;   -4,500
189,759;    4,784;    5,797;   -3,591
190,360;    5,565;    6,797;   -2,136
190,960;   47,078;    5,706;   -4,136
191,560;   58,204;    2,614;   -6,591
192,161;  296,936;    5,885;   -3,500
192,761;  133,176;    5,520;   -3,227
193,361;   86,292;    3,065;   -3,773
193,962;  144,234;    1,612;   -2,682
194,562;   73,162;   -0,114;   -3,955
195,162;  113,049;   -0,567;   -2,227
195,762;  275,960;    2,433;   -0,045
196,362;  216,866;    1,706;   -2,500
196,963;   87,699;    1,706;   -0,864
197,563;  165,595;    1,252;   -0,955
198,163;  118,332;   -0,111;   -0,682
198,763;  136,570;   -0,020;   -0,500
199,363;  238,397;    3,616;   -0,500
199,963;  202,872;    2,162;    0,409
200,563;  176,555;    6,344;   -1,409
201,163;  156,646;    5,435;   -0,227
201,763;  252,754;    1,435;    0,318
202,363;  195,761;    0,980;    1,500
202,963;  302,797;    1,526;    1,045
203,563;  422,396;    0,344;    0,500
204,162;  265,274;    1,889;   -1,864
204,762;  259,458;    2,071;    0,591
205,362;  237,352;    0,708;    1,955
205,962;  330,813;    3,435;    1,955
206,562;  336,708;    1,889;    2,318
207,161;  307,677;    1,708;    0,318
207,761;  461,743;    4,435;    2,409
208,361;  344,394;    1,889;    1,409
208,960;  427,613;    2,889;    1,500
209,560;  515,139;    0,435;    1,591
210,160;  493,112;    5,071;    1,864
210,759;  477,726;    0,708;    1,227
211,359;  473,543;   -0,474;    1,045
211,958;  761,612;    3,526;    2,045
212,558;  856,704;    0,799;    1,864
213,157;  683,170;   -0,929;    1,500
213,757; 1148,632;    5,617;   -0,227
214,356;  855,975;    1,708;   -0,409
214,956; 1201,418;    3,526;    0,409
215,555;  825,888;    0,617;    2,136
216,154;  756,378;   -0,292;   -0,591
216,754;  791,439;    1,253;    0,773
217,353;  929,183;   -0,383;   -1,045
217,952;  795,983;    2,072;    0,318
218,552; 1031,180;    0,254;   -0,773
219,151;  946,757;   -1,110;    0,955
219,750;  960,746;    0,890;   -0,227
220,349; 1147,310;   -2,292;    1,045
220,948; 1178,609;    1,163;    1,136
221,548; 1262,091;    0,617;    1,227
222,147; 1404,779;   -1,292;   -0,409
222,746; 1678,928;    1,254;   -0,955
223,345; 1563,366;   -1,019;    0,500
223,944; 1591,684;    1,163;    0,773
224,543; 1821,219;    4,072;   -1,409
225,142; 1942,446;    1,345;    0,136
225,741; 1873,935;    1,163;    1,045
226,340; 1911,863;    1,254;   -0,955
226,939; 2415,204;    2,708;   -0,136
227,538; 2503,289;    1,163;   -0,773
228,137; 2623,686;    0,435;    0,864
228,735; 2860,126;    0,435;    1,227
229,334; 2569,914;   -0,474;   -0,227
229,933; 2969,196;    0,799;    0,591
230,532; 3128,927;   -1,201;   -0,409
231,131; 3182,571;    1,253;    0,318
231,729; 3397,031;    1,163;   -2,318
232,328; 3636,042;    0,435;   -1,500
232,927; 3778,447;    4,526;   -0,500
233,525; 3956,924;    0,981;    0,045
234,124; 4206,165;    1,890;   -1,591
234,723; 4245,556;    1,617;   -1,045
235,321; 4484,031;    1,163;    0,136
235,920; 4801,319;    2,526;   -1,227
236,518; 5118,430;    1,072;    0,318
237,117; 5411,979;    2,890;   -0,227
237,715; 5625,348;    1,163;   -0,500
238,314; 5644,244;    1,708;   -2,318
238,912; 5733,371;    0,526;   -1,409
239,510; 5844,402;    1,162;   -1,227
240,109; 6073,545;   -0,474;    3,773
240,707; 6174,038;   -0,474;    1,227
241,305; 6664,996;   -0,383;    0,136
241,904; 6898,996;   -0,292;   -2,045
242,502; 6837,313;    3,253;   -0,227
243,100; 6815,410;    3,344;   -0,955
243,698; 7126,324;    2,799;    1,682
244,297; 7359,293;   -0,656;    0,682
244,895; 7176,547;   -0,474;   -2,318
245,493; 7535,206;    2,981;   -0,591
246,091; 7636,020;    5,163;   -1,318
246,689; 7648,551;    2,163;    0,591
247,287; 7854,410;   -0,019;   -1,136
247,885; 8239,889;   -1,019;    1,227
248,483; 8363,905;   -0,201;   -0,500
249,081; 8515,317;    0,981;    1,591
249,679; 8705,566;   -1,019;    1,682
250,277; 9042,057;   -2,292;    0,864
250,875; 9039,697;    0,617;   -1,045
251,473; 9110,120;   -0,019;    0,500
252,071; 9306,451;   -0,383;    1,045
252,669; 9518,957;   -1,565;    0,318
253,267; 9864,371;    1,618;    0,773
253,864; 9848,046;    0,617;    0,682
254,462; 9644,571;    1,526;    1,591
255,060; 9652,588;    0,072;    1,318
255,658;10078,321;   -3,292;   -0,136
256,255;10559,304;   -0,201;   -2,045
256,853;10399,616;    2,345;    1,409
257,451;10422,994;    1,981;    1,864
258,048;10664,829;    2,072;    1,864
258,646;10429,102;    0,436;   -1,045
259,243;10664,252;    2,981;    2,227
259,841;10736,937;    1,799;    0,318
260,438;10609,777;    0,254;    0,864
261,036;11491,616;    0,617;    1,409
261,633;11413,260;    1,526;    2,227
262,231;11146,675;   -0,110;   -0,045
262,828;11244,239;   -0,383;    1,136
263,425;11298,890;   -1,928;   -0,591
264,023;11593,043;    1,436;    0,045
264,620;11117,163;    1,526;   -0,318
265,217;11505,518;    2,890;    3,136
265,815;11643,833;    2,527;    2,136
266,412;11388,547;    0,072;    0,136
267,009;11445,252;    0,526;    0,773
267,606;11279,011;    0,345;   -0,955
268,203;11305,347;   -0,383;   -0,591
268,801;11676,796;   -0,474;    0,591
269,398;12003,514;   -0,564;    2,500
269,995;12015,693;    0,890;    1,591
270,592;11771,495;    0,799;   -0,500
271,189;12050,822;    1,981;    0,409
271,786;12189,759;    2,072;    1,227
272,383;11945,554;   -0,383;    0,227
272,980;12216,065;    1,617;    0,318
273,577;12796,771;    2,162;    1,227
274,174;12315,230;    1,435;    2,591
274,771;12320,230;    1,890;   -0,773
275,367;12434,938;    3,253;    1,409
275,964;12382,551;   -0,565;   -0,500
276,561;12540,093;   -2,474;   -1,045
277,158;12828,566;    1,799;   -1,773
277,755;12947,045;   -0,110;    0,409
278,351;12262,996;    0,436;   -1,500
278,948;12666,540;   -0,201;    0,045
279,545;12713,761;    0,527;    2,318
280,141;13370,935;    1,254;   -2,045
280,738;13249,746;    2,435;   -0,136
281,334;13589,332;   -0,383;    0,591
281,931;12913,514;    2,890;   -1,318
282,528;12975,293;    4,072;   -0,500
283,124;13832,844;    3,345;   -0,500
283,721;13780,818;    0,709;    1,409
284,317;13598,327;    0,163;    2,500
284,913;14185,813;   -0,110;    0,591
285,510;14468,995;    2,890;   -0,318
286,106;14450,676;    2,345;   -0,955
286,703;14006,188;    0,072;    1,955
287,299;14249,028;    1,254;   -0,591
287,895;14526,471;    0,890;   -1,045
288,491;15221,696;    0,163;    2,136
289,088;14876,431;    0,163;    2,409
289,684;14932,866;    2,890;    1,500
290,280;14956,163;    1,890;    0,682
290,876;15059,204;    0,163;    5,500
291,472;14929,874;    2,163;    2,227
292,068;15049,069;    1,254;    0,227
292,665;14739,210;   -0,564;    0,773
293,261;14268,943;   -1,292;    2,136
293,857;14745,952;    4,072;    2,136
294,453;14706,272;   -0,928;    0,955
295,049;14509,981;    0,253;    1,955
295,644;14505,543;   -1,292;    0,136
296,240;14430,073;    0,162;   -0,136
296,836;14559,747;   -0,747;    0,318
297,432;14897,515;    2,980;   -0,500
298,028;14882,676;    0,435;    0,773
298,624;15321,155;    0,889;    1,864
299,220;15678,895;    0,435;    0,591
299,815;15277,507;    0,526;   -0,409
300,411;15013,981;    0,435;    1,773
301,007;15082,722;    1,889;    0,227
301,602;15189,014;    2,071;   -2,318
302,198;15363,756;    1,435;   -0,773
302,794;15696,179;    1,526;   -0,500
303,389;15893,951;    1,071;    1,045
303,985;15958,960;    1,253;    1,409
304,580;15925,982;    0,889;    1,591
305,176;15908,036;    0,344;    0,136
305,771;15872,205;   -0,929;   -1,227
306,367;15594,183;    3,071;    0,136
306,962;16051,014;    2,889;    1,500
307,558;15781,943;    2,435;    0,136
308,153;15750,778;   -0,383;   -1,136
308,748;15989,109;    0,162;    1,682
309,344;15964,491;    0,253;   -1,318
309,939;16053,302;    2,071;   -1,318
310,534;16426,033;   -2,020;   -1,682
311,130;16396,012;   -0,656;   -2,500
311,725;16114,858;    0,526;   -0,500
312,320;16477,917;    1,253;    0,045
312,915;16275,411;    2,890;   -1,045
313,510;16327,726;    0,526;   -0,500
314,105;16950,236;   -3,565;    1,409
314,700;16284,446;   -1,656;   -1,045
315,295;15845,619;   -0,020;    0,045
315,890;15328,621;   -0,292;    0,864
316,485;15705,342;    0,253;   -0,318
317,080;15833,407;   -0,929;    1,591
317,675;16463,478;    3,071;   -0,682
318,270;15714,830;    6,889;    3,318
318,865;15752,179;    2,435;    3,045
319,460;15613,160;   -1,565;    0,591
320,055;15881,192;   -2,565;   -1,227
320,650;15501,628;   -1,838;   -0,591
321,244;15524,539;    0,889;   -1,409
321,839;16626,763;    0,980;   -0,227
322,434;16515,917;   -0,111;   -1,591
323,029;16071,667;   -0,474;    1,591
323,623;15900,018;    0,798;    0,773
324,218;15615,381;    2,707;    1,409
324,812;15512,830;    0,889;    1,591
325,407;15274,342;   -0,929;    2,045
326,002;15155,155;    0,526;   -0,409
326,596;15554,401;   -0,656;    1,318
327,191;15811,353;   -0,383;   -1,045
327,785;15329,674;   -0,747;   -0,227
328,379;15589,752;   -0,383;    0,136
328,974;15361,060;    1,798;   -3,955
329,568;15591,062;    2,889;   -2,409
330,163;15378,368;    2,435;    1,045
330,757;15788,079;    0,253;    1,591
331,351;15027,678;   -0,292;    0,682
331,945;15347,528;   -0,383;    1,409
332,540;14833,238;    1,617;   -0,591
333,134;14972,255;    3,344;    0,773
333,728;15272,930;    2,799;    0,318
334,322;15677,940;    0,889;   -0,864
334,916;14894,111;    0,344;    0,955
335,510;15228,593;   -0,111;   -0,136
336,105;15524,535;   -0,929;    1,591
336,699;15143,738;   -1,292;    0,591
337,293;15068,500;    1,071;    0,318
337,887;15256,862;    0,071;    1,955
338,481;15322,713;    2,980;    0,591
339,074;15482,096;    2,071;    2,682
339,668;15244,714;   -0,110;    1,227
340,262;15519,214;    7,708;    3,227
340,856;15033,951;    1,708;   -0,682
341,450;14278,413;    0,708;    1,864
342,044;15317,500;    1,799;    0,136
342,637;15050,545;    1,162;   -2,136
343,231;14899,610;   -1,474;    0,682
343,825;14812,268;   -0,747;   -0,591
344,419;14742,617;   -0,474;    0,500
345,012;14366,427;    2,889;    4,045
345,606;14383,212;   -0,656;    1,591
346,199;14229,782;   -0,111;   -0,227
346,793;13699,854;    2,525;    2,045
347,386;13901,689;    0,889;   -1,136
347,980;13887,620;   -0,838;   -0,045
348,573;13633,438;   -1,748;    0,409
349,167;13199,772;    6,161;    4,773
349,760;13577,473;    2,252;    2,682
350,354;13596,356;    1,616;    1,136
350,947;13286,703;    2,798;    1,682
351,540;12896,890;    0,616;   -1,409
352,134;12808,872;   -1,111;    1,136
352,727;12863,728;   -0,657;    1,136
353,320;12672,436;    2,343;    0,591
353,913;12512,015;   -1,929;    1,864
354,507;12681,271;    0,434;   -1,227
355,100;12692,000;    0,071;    0,864
355,693;11716,542;    4,798;    2,409
356,286;11777,584;    0,980;    2,773
356,879;12188,957;   -0,475;    1,227
357,472;11745,219;    0,980;    1,500
358,065;11936,855;    3,161;    2,500
358,658;11861,579;    0,798;    2,318
359,251;11444,063;    0,252;   -0,591
359,844;10801,902;    0,343;   -1,136
360,437;10941,267;    0,252;    0,045
361,030;11281,664;    0,525;   -0,682
361,623;10815,571;    0,434;    0,318
362,215;10815,573;    0,979;    2,045
362,808;10669,299;   -2,293;   -1,682
363,401;10865,599;    0,798;    0,136
363,994;10567,157;    3,252;   -1,500
364,586;10434,126;    0,888;   -1,500
365,179;10703,348;   -0,203;   -1,136
365,772;10136,232;   -0,930;    2,045
366,364;10483,986;    1,524;   -3,227
366,957;10642,939;    1,342;   -0,045
367,549;10670,160;   -0,203;   -0,864
368,142;10290,516;    0,978;   -1,500
368,734;10513,263;    2,523;   -2,136
369,327;10446,254;    2,341;   -0,500
369,919;10358,365;   -1,659;    0,409
370,512;10045,323;   -1,023;   -0,500
371,104; 9746,102;    2,704;    1,591
371,696; 9943,077;    1,703;   -0,955
372,289;10066,742;    0,157;    1,136
372,881;10227,938;    1,156;    1,318
373,473;10180,556;    4,064;    1,136
374,066; 9934,972;    1,336;    0,500
374,658; 9769,768;    0,879;    1,136
375,250;10163,090;   -1,668;   -1,409
375,842; 9969,164;   -0,124;   -0,045
376,434; 9843,793;   -2,762;   -0,409
377,026;10517,842;   -1,855;   -2,500
377,618;10366,635;    0,779;   -0,682
378,210;10234,132;    3,141;   -1,955
378,802;10078,463;    3,412;   -0,591
379,394; 9950,007;    3,411;    0,682
379,986;10687,243;    1,138;   -0,955
380,578;10819,974;    1,410;    0,773
381,170;10017,723;    0,320;    0,045
381,762; 9993,184;   -0,224;    1,409
382,354;10267,887;   -0,223;   -1,318
382,945;10358,943;    0,870;    0,318
383,537;10546,897;    1,144;   -1,955
384,129;10521,757;    0,963;   -1,136
384,721;10744,387;    0,418;    0,955
385,312;10694,456;   -1,399;   -0,955
385,904;10751,157;   -0,945;    1,591
386,496;10008,652;    0,691;    1,045
387,087;10200,746;    0,418;    2,500
387,679;10254,588;   -0,401;    0,045
388,270;10398,610;   -2,401;    2,045
388,862;10560,610;   -0,401;   -0,318
389,453;10440,734;    1,054;    1,045
390,045;10731,608;    3,236;   -2,682
390,636;10698,808;    0,144;   -0,591
391,227;10525,949;    2,054;   -0,045
391,819;10583,475;    0,781;    0,773
392,410;10660,432;    0,600;    0,045
393,001;10607,249;    1,600;   -1,591
393,593;10923,962;    0,600;   -0,045
394,184;10744,097;    0,873;   -0,409
394,775;10725,420;    1,146;    2,136
395,366;10921,577;    1,782;    0,773
395,957;10978,225;   -2,400;    0,136
396,548;11350,338;    1,054;    2,682
397,139;11720,198;    2,236;    0,591
397,730;11380,967;    0,873;    0,955
398,321;11403,778;    0,509;    0,955
398,912;11469,387;   -0,764;    0,136
399,503;11539,029;   -1,945;   -1,409
400,094;10877,301;   -1,582;    1,682
400,685;10754,936;    3,600;    0,045
401,276;10867,453;   -0,400;   -0,955
401,867;11215,826;   -1,127;    0,773
402,458;11361,206;    1,509;   -2,318
403,048;11314,748;    0,146;    0,591
403,639;10858,561;    1,509;    0,864
404,230;11066,359;    0,691;    0,318
404,821;10987,756;   -0,127;    0,045
405,411;11131,967;   -0,763;   -2,591
406,002;10667,995;    3,237;   -1,136
406,592;10430,185;    2,691;    0,045
407,183;10811,165;    0,328;   -1,500
407,774;10713,482;    1,419;   -0,136
408,364;11124,586;    2,600;    0,409
408,954;10647,895;   -0,036;    1,227
409,545;10711,396;    1,873;    1,045
410,135;10154,903;   -1,581;    0,500
410,726;10355,408;    0,783;    0,318
411,316;10766,747;    2,237;    0,773
411,906;10414,473;    0,146;   -0,409
412,497; 9825,504;   -0,490;   -0,045
413,087;10535,332;    0,783;   -0,227
413,677;10984,898;   -2,490;    3,864
414,267;10777,713;   -1,035;    1,409
414,857;10802,802;    0,419;    4,227
415,448;11088,078;   -0,763;    0,500
416,038;10752,642;   -2,945;   -0,591
416,628;10713,217;    0,965;    0,409
417,218;10060,390;   -1,762;    3,318
417,808;10391,297;    0,965;   -0,409
418,398;10951,529;   -1,035;    2,682
418,988;10968,386;   -2,217;    0,591
419,578;11279,861;    3,601;    1,409
420,168;11685,503;    0,692;   -0,955
420,757;11208,567;    0,964;   -1,500
421,347;10844,258;    1,601;   -0,227
421,937;11053,431;    3,329;    1,409
422,527;10930,260;    2,602;   -0,773
423,116;10751,004;    2,692;   -0,045
423,706;11217,071;    2,965;    0,318
424,296;11216,587;    1,601;    0,682
424,885;11620,223;    1,510;   -3,045
425,475;11978,082;    1,147;   -2,864
426,065;11899,633;   -1,489;   -0,318
426,654;11472,767;    0,329;   -0,318
427,244;11552,995;    1,147;    1,409
427,833;10956,164;    1,056;   -0,500
428,423;11517,659;    0,147;    1,136
429,012;12358,697;    2,420;   -1,136
429,601;11767,940;    2,057;    0,136
430,191;12075,680;    2,511;    4,318
430,780;11660,654;   -1,671;   -0,409
431,369;11534,682;    1,329;   -0,045
431,959;12286,610;    1,693;    0,500
432,548;12067,053;   -1,398;   -0,045
433,137;12238,777;    0,329;   -1,318
433,726;12809,825;    0,148;    0,500
434,315;12082,924;    0,148;    2,409
434,905;12178,280;    0,693;    1,409
435,494;12044,200;    3,148;    0,955
436,083;12590,591;    1,420;   -0,955
436,672;12417,406;    1,148;    0,500
437,261;11932,061;    0,512;   -1,955
437,850;12009,332;   -1,125;    0,682
438,439;11997,664;    2,239;    1,955
439,027;11781,510;    3,421;    1,773
439,616;12217,388;    2,239;    1,227
440,205;12133,525;    0,057;   -2,136
440,794;12272,008;   -0,306;   -0,045
441,383;12554,071;    1,603;   -0,591
441,971;12416,012;   -0,306;    0,591
442,560;12215,131;    0,603;   -1,773
443,149;12008,991;    3,060;   -1,318
443,737;12185,658;    0,968;   -2,318
444,326;12419,539;    0,331;    0,318
444,915;12474,682;   -1,851;    0,864
445,503;12929,064;    0,058;   -0,318
446,092;12132,546;    7,876;    2,136
446,680;12728,951;    1,876;    0,318
447,269;12961,868;   -1,487;   -0,318
447,857;12677,165;    2,240;   -1,773
448,445;12832,031;    2,149;    1,318
449,034;13091,977;    0,876;   -1,136
449,622;13208,901;    1,240;    3,500
450,210;12251,085;    3,149;    2,227
450,799;12864,735;    2,604;   -0,591
451,387;12814,980;    1,786;   -0,591
451,975;12399,271;   -1,305;    0,864
452,563;12479,786;    0,422;    2,318
453,151;12574,581;   -1,032;   -1,227
453,739;12465,791;   -1,577;    0,136
454,328;12270,381;    0,604;   -2,136
454,916;11955,199;    1,150;   -0,136
455,504;12148,011;    3,513;    1,227
456,092;12351,490;    2,150;   -1,591
456,679;12380,954;    0,604;    0,682
457,267;12172,524;    3,604;    1,045
457,855;12402,121;    3,241;    1,409
458,443;12186,478;   -0,304;    1,682
459,031;12303,346;    1,332;    2,409
459,619;12834,572;   -3,577;    2,864
460,206;13039,286;   -0,759;    2,045
460,794;13129,439;   -0,668;   -0,227
461,382;13365,919;    0,878;   -0,864
461,970;12879,667;    0,605;    1,864
462,557;12931,309;    0,878;   -0,682
463,145;13153,292;   -0,304;   -1,682
463,732;13331,767;    2,514;   -1,045
464,320;13272,614;    1,514;   -3,045
464,907;12857,536;    0,423;   -0,773
465,495;12746,668;    2,696;   -1,227
466,082;12898,786;    2,060;   -0,045
466,670;12810,664;    2,605;    1,227
467,257;13285,540;    0,060;    2,045
467,844;13434,618;    1,514;    0,045
468,432;13439,258;   -0,031;    3,500
469,019;12863,911;    1,606;   -1,773
469,606;13384,365;    0,969;    3,682
470,193;13139,138;    2,151;    0,227
470,780;12658,581;    0,333;    0,864
471,368;13053,611;   -1,212;   -0,773
471,955;12799,295;    1,060;   -0,682
472,542;12369,262;   -0,303;   -1,136
473,129;12642,076;   -0,485;    0,136
473,716;12364,028;    0,060;    0,591
474,303;12579,967;    1,333;   -0,864
474,890;12947,791;    2,333;   -0,500
475,477;12914,403;   -0,576;    0,409
476,064;12819,834;    0,697;   -1,591
476,650;12778,902;    2,152;    0,318
477,237;12610,630;    1,879;    0,955
477,824;12813,209;    3,879;    0,864
478,411;12850,149;    0,606;   -0,318
478,997;13047,491;    0,606;   -0,773
479,584;13167,537;   -0,666;   -0,409
480,171;13941,905;    1,243;   -0,773
480,757;13570,341;   -0,848;    0,773
481,344;13919,808;    0,334;    0,409
481,931;13411,431;   -0,393;    1,045
482,517;14536,017;    0,425;    0,318
483,104;15258,139;    1,334;    2,864
483,690;15720,729;    0,243;    0,045
484,276;16191,363;    0,698;    0,227
484,863;15919,261;    2,152;    1,136
485,449;16604,267;    0,152;    0,318
486,035;16617,089;   -0,666;   -0,136
486,622;17121,959;   -2,393;    0,045
487,208;17004,132;    1,334;    1,500
487,794;16860,631;    0,971;    0,318
488,380;16978,477;    0,698;   -1,409
488,967;17072,783;   -1,120;   -0,409
489,553;17109,308;   -1,029;   -1,409
490,139;17300,576;    0,971;    0,773
490,725;16650,741;    0,789;   -0,227
491,311;16102,722;    1,516;    3,045
491,897;15258,039;   -0,665;    1,500
492,483;14931,375;    0,426;    1,227
493,069;14541,336;    5,426;    0,864
493,655;14582,563;    1,789;    0,682
494,241;14489,453;    1,517;   -0,955
494,826;14947,021;    0,335;   -1,045
495,412;14375,238;    0,335;   -0,682
495,998;14535,904;    0,971;   -0,318
496,584;14705,928;    2,244;    1,045
497,169;14680,693;    2,335;   -0,682
497,755;14597,920;    1,244;    1,227
498,341;15208,405;    2,153;    0,318
498,926;14735,608;    2,881;    1,955
499,512;15008,180;   -0,028;    2,955
500,097;15162,129;   -0,574;   -0,318
500,683;15071,679;   -0,028;    2,136
501,268;15514,834;    1,881;   -0,955
501,854;15206,614;   -0,119;    1,227
502,439;15116,393;   -0,573;   -1,773
503,024;15331,788;    1,608;    0,500
503,610;15412,870;    1,335;   -0,682
504,195;15400,068;    1,245;    1,955
504,780;15483,439;    2,335;    1,227
505,366;15272,350;    4,063;    2,864
505,951;14967,275;   -1,119;    1,045
506,536;15010,403;    1,427;   -3,682
507,121;14987,169;    1,699;   -0,318
507,706;15565,122;   -0,392;    1,045
508,291;15991,926;   -2,937;    1,136
508,876;15455,414;   -0,482;    2,591
509,461;14825,466;    1,427;   -0,773
510,046;15272,897;   -0,391;    0,318
510,631;15519,644;   -0,119;   -0,773
511,216;15191,089;   -0,664;   -0,500
511,801;15582,867;   -0,755;    2,591
512,386;15927,819;    0,972;    0,500
512,971;15841,325;    0,427;    0,955
513,555;15363,008;    1,154;   -1,500
514,140;16238,693;    1,336;   -3,136
514,725;16209,769;    1,791;   -1,136
515,309;16364,771;    1,064;    0,318
515,894;15744,175;   -0,300;   -2,227
516,479;16239,960;    1,973;   -0,955
517,063;16070,735;    0,882;    1,227
517,648;16233,613;    0,155;   -1,136
518,232;15847,922;   -1,300;   -1,409
518,817;16171,371;    1,337;    1,682
519,401;16400,792;    0,700;    0,591
519,985;15871,491;    2,700;    1,136
520,570;15748,248;   -0,118;   -1,955
521,154;16086,330;    0,064;    0,591
521,738;16252,018;    1,064;    2,409
522,323;16876,059;   -0,390;    1,682
522,907;16595,484;    2,428;   -0,136
523,491;16312,074;    1,155;    0,955
524,075;16300,978;    0,428;    0,591
524,659;16372,670;    0,973;    0,591
525,243;15735,673;    0,883;    0,409
525,827;16044,139;    0,883;   -0,045
526,411;16986,579;    1,155;   -0,136
526,995;17227,328;    0,337;    1,409
527,579;16756,060;    1,974;   -1,045
528,163;17131,605;    0,428;   -1,500
528,747;17023,349;    1,065;   -0,773
529,331;17368,856;    0,883;   -1,409
529,915;17623,125;    2,338;    0,955
530,499;17557,089;    0,247;    1,227
531,082;17181,666;    1,065;    1,591
531,666;16543,027;    0,520;    0,773
532,250;17328,525;    0,428;    2,682
532,833;17747,826;    0,610;    2,773
533,417;17617,164;    1,247;    0,864
534,001;17539,027;    0,429;   -0,318
534,584;18331,828;    1,974;    0,500
535,168;18149,617;    3,247;    1,409
535,751;18227,713;    4,520;    0,045
536,334;17655,938;    4,520;   -0,409
536,918;18332,383;    1,974;    1,591
537,501;18434,954;    1,520;    1,318
538,085;18420,331;    1,702;    1,045
538,668;18602,326;    0,883;    2,409
539,251;18965,047;    3,156;    3,773
539,834;18974,624;    0,156;    0,773
540,418;18887,439;    3,247;    4,318
541,001;19067,558;    2,702;    1,773
541,584;19082,402;    1,429;    2,227
542,167;18719,261;    0,702;    2,955
542,750;18909,975;    0,793;   -0,773
543,333;18485,703;    1,429;    2,136
543,916;19337,866;   -0,298;    2,500
544,499;20020,979;    2,520;    0,227
545,082;20044,080;    0,248;    3,591
545,665;20220,541;   -0,207;    1,500
546,248;20571,430;    0,520;   -0,318
546,830;20204,684;   -1,752;    1,955
547,413;20642,173;    0,157;   -0,773
547,996;21189,239;    0,157;    0,500
548,579;20955,366;   -0,843;    0,955
549,161;20836,466;    0,884;    2,682
549,744;20639,774;    0,612;    0,409
550,326;21167,167;    0,885;   -1,136
550,909;20895,886;    2,339;    0,591
551,492;21342,806;    0,521;    0,227
552,074;21105,676;   -0,024;   -1,318
552,657;21706,656;    2,430;    0,045
553,239;21429,821;   -3,024;   -0,773
553,821;21351,615;   -1,570;    1,045
554,404;20838,060;   -0,024;    1,136
554,986;21228,784;    2,248;    1,045
555,568;21867,222;    0,430;   -0,955
556,151;20957,034;    4,067;   -0,227
556,733;21233,437;   -1,388;   -0,864
557,315;21728,185;    4,703;    0,500
557,897;21571,272;    0,521;   -0,500
558,479;21729,973;    1,703;    1,318
559,061;21829,237;    1,067;   -0,864
559,643;22203,812;   -0,297;    0,045
560,225;22621,231;   -0,388;    2,864
560,807;22653,357;    0,340;    0,318
561,389;22095,139;   -1,206;    2,318
561,971;22901,612;   -0,660;    2,136
562,553;22673,014;    0,613;    1,591
563,135;22859,187;    1,249;    1,136
563,717;22490,410;    3,158;    1,136
564,298;23285,321;    3,976;   -0,045
564,880;22971,378;    0,340;   -1,409
565,462;23202,015;    1,977;    1,318
566,043;24466,015;   -0,933;    2,318
566,625;23958,363;    4,067;    1,227
567,207;23857,358;    0,704;    1,682
567,788;25143,069;   -0,114;    1,500
568,370;26086,950;   -1,841;   -0,500
568,951;25922,501;   -0,569;    0,227
569,533;26929,885;    0,977;   -0,500
570,114;27483,820;   -0,296;    0,682
570,695;28038,308;   -0,478;   -1,318
571,277;28767,032;   -0,205;   -1,682
571,858;29633,646;    2,704;   -1,136
572,439;30651,508;    0,795;   -1,045
573,021;30916,422;    0,432;   -2,773
573,602;31522,865;    1,795;    0,318
574,183;32603,841;   -0,114;    2,227
574,764;32914,943;    2,068;    0,409
575,345;33544,743;    0,250;   -0,136
575,926;34173,371;    2,704;    0,136
576,507;34219,032;    2,704;   -0,227
577,088;35378,179;    1,704;    1,682
577,669;35470,880;    1,704;    1,955
578,250;36281,750;   -0,750;   -1,045
578,831;37165,038;   -0,841;   -2,227
579,412;37515,511;   -1,205;    0,955
579,993;38502,247;    1,432;    0,227
580,573;38837,116;   -0,023;   -0,955
581,154;37762,748;    1,613;   -0,591
581,735;38653,557;    0,341;    0,773
582,315;38161,194;    0,523;    2,136
582,896;38520,488;   -1,750;    1,227
583,477;37903,936;    0,614;    1,227
584,057;38146,394;    1,159;    0,955
584,638;38419,520;   -2,750;    2,318
585,218;38403,273;    2,886;    2,682
585,799;38556,190;    1,977;   -0,227
586,379;38471,815;    1,250;    1,591
586,959;37117,002;    2,613;    0,318
587,540;36292,615;    0,432;    2,227
588,120;35677,975;   -1,113;   -0,045
588,700;34519,578;    2,977;    2,136
589,281;34809,682;    1,250;   -0,955
589,861;34759,897;   -0,296;   -1,682
590,441;34588,257;   -1,477;   -2,682
591,021;33445,233;    1,432;   -2,591
591,601;33575,019;    0,431;    0,500
592,181;33554,904;   -1,296;   -0,773
592,761;32790,682;    2,250;    1,409
593,341;32611,134;    1,522;    0,045
593,921;32564,598;   -0,569;    1,591
594,501;32390,583;    1,250;    1,318
595,081;32257,058;    0,522;   -0,318
595,661;32613,186;    1,068;    0,955
596,240;33119,145;   -1,023;    0,136
596,820;32776,898;    2,613;    1,955
597,400;33046,449;    1,977;    0,773
597,980;33326,334;   -0,750;    1,045
598,559;33301,132;    0,341;   -0,227
599,139;32961,403;   -0,750;   -1,227
599,718;32836,494;    0,795;   -0,409
600,298;33111,167;   -2,387;    0,682
600,877;33356,833;    4,795;    1,409
601,457;33637,768;    0,340;    1,136
602,036;33500,822;    1,795;    2,045
602,616;33739,501;    2,250;    1,682
603,195;34075,753;    0,431;    3,500
603,774;33582,716;   -0,296;    2,045
604,354;33541,256;    2,522;   -0,500
604,933;32962,793;    0,250;    1,864
605,512;33088,447;    2,340;    0,591
606,091;33110,978;    1,886;    3,773
606,671;33861,930;    0,249;    0,773
607,250;32895,959;    1,431;    3,136
607,829;33195,981;    1,158;    3,227
608,408;33042,731;    4,613;    2,591
608,987;31970,089;    2,704;    3,409
609,566;32277,383;    0,341;   -2,500
610,145;32364,022;    2,885;    0,682
610,723;32835,026;    1,613;    6,864
611,302;31950,228;    1,067;    1,682
611,881;31413,892;    5,158;   11,227
612,460;32319,538;    0,795;    3,955
613,039;32748,367;    1,703;    2,045
613,617;31386,258;    0,886;    4,773
614,196;31585,482;    1,613;    1,227
614,775;31975,757;    1,249;    2,409
615,353;31900,558;   -1,660;    0,864
615,932;31501,294;    0,249;    2,409
616,510;32142,742;    0,158;    0,591
617,089;31552,213;    8,794;   17,591
617,667;31295,400;    4,885;    6,136
618,246;31097,894;   -1,115;    1,318
618,824;31286,372;    1,612;   -0,955
619,402;30837,114;    0,431;   -1,773
619,981;31326,285;    1,067;   -1,045
620,559;31198,662;    0,794;    1,682
621,137;30619,988;    3,067;    1,864
621,715;30594,628;    3,703;   -0,682
622,293;30531,574;    1,885;   -0,773
622,871;31007,457;    0,340;    0,500
623,450;30525,752;    0,430;   -0,864
624,028;30421,318;   -0,388;   -0,955
624,606;29918,645;    2,339;    1,682
625,183;30332,129;   -0,661;   -1,136
625,761;29993,659;    1,885;    1,136
626,339;30275,866;    2,339;    2,591
626,917;30679,438;    0,339;   -0,045
627,495;30698,245;    2,794;    1,318
628,073;30152,331;    5,248;    2,864
628,650;29766,197;    3,067;    2,136
629,228;30231,637;    1,248;    4,409
629,806;29555,500;   -0,024;    1,136
630,383;29880,030;    0,066;   -0,318
630,961;29574,990;   -2,206;   -0,955
631,539;29320,965;   -2,479;    0,227
632,116;28481,626;   12,703;   15,409
632,694;29148,969;    4,885;    6,500
633,271;29475,165;    1,975;    2,682
633,848;29360,646;    1,430;    2,045
634,426;29457,800;    1,521;    1,773
635,003;28548,775;   -0,207;   -0,409
635,580;28861,170;    1,884;    3,682
636,158;29376,278;    3,793;    1,227
636,735;29301,201;    3,339;   -0,500
637,312;29513,321;    0,521;   -0,682
637,889;29605,236;    2,248;   -0,682
638,466;29043,445;    0,066;   -0,409
639,043;29029,322;    1,702;   -1,136
639,620;29347,454;    0,611;   -0,955
640,197;29711,668;    1,612;    1,682
640,774;29848,114;    1,430;    1,136
641,351;30274,924;    0,612;    1,136
641,928;29608,279;    2,794;    1,409
642,505;29237,270;    0,794;   -0,500
643,082;29358,262;    1,885;    1,227
643,658;28334,708;    1,157;    1,500
644,235;29181,881;   -2,479;    2,500
644,812;29437,327;    1,794;    0,773
645,388;29193,136;    1,612;    1,409
645,965;29263,946;    1,521;    1,682
646,542;29313,028;    3,430;   -0,227
647,118;29326,656;    3,703;   -0,955
647,695;29666,193;    0,339;    1,136
648,271;29549,730;   -2,115;    0,500
648,848;29888,994;    0,248;    2,227
649,424;29683,349;    0,976;    1,318
650,000;29434,613;   -0,388;   -1,045
650,577;29284,241;    0,158;   -0,955
651,153;29816,141;   -1,115;    0,955
651,729;30853,042;    0,521;    0,864
652,305;31146,033;    1,339;    2,773
652,881;36494,025;   -1,297;    1,136
653,458;44621,562;    0,249;    0,227
654,034;49336,553;    0,703;    1,591
654,610;51193,272;    0,339;    0,773
655,186;52759,809;    1,612;    3,045
655,762;52468,073;   -1,842;    0,409
656,338;52553,064;    0,703;    0,136
656,913;53586,237;   -0,297;    0,409
657,489;52916,774;    0,249;   -0,318
658,065;52906,038;    0,794;   -1,591
658,641;53404,666;    2,158;   -0,864
659,217;52512,748;    2,067;    0,409
659,792;51897,285;   -1,751;   -0,409
660,368;52194,368;   -0,388;   -0,682
660,944;51688,177;    1,794;    1,227
661,519;46304,987;    0,522;    0,409
662,095;39010,524;   -0,206;    0,591
662,670;33397,515;   -0,206;   -0,136
663,246;31905,416;   -0,660;   -0,409
663,821;31085,043;    0,431;    1,682
664,396;30546,489;    0,613;    1,864
664,972;30758,481;   -0,660;   -0,500
665,547;31138,563;    3,794;    0,136
666,122;31146,827;    1,340;    0,318
666,698;31446,637;    2,431;    0,318
667,273;30752,719;    0,885;    0,136
667,848;31620,529;    0,340;    1,500
668,423;31382,156;    1,795;    2,318
668,998;31972,784;    0,976;   -0,682
669,573;32593,503;    2,067;   -1,500
670,148;32409,494;    1,885;   -0,682
670,723;32244,395;   -0,024;    0,318
671,298;32691,113;   -1,296;    1,045
671,873;32837,287;   -0,296;   -0,136
672,448;32793,369;    1,704;    0,136
673,023;33167,270;    0,249;   -0,227
673,597;33451,988;    2,704;    2,318
674,172;33121,707;    2,431;    0,318
674,747;32618,789;   -0,205;   -1,045
675,321;32532,872;   -0,933;    3,318
675,896;32126,954;    2,158;    1,045
676,471;33123,036;    2,522;    1,591
677,045;32895,300;   -0,296;    0,682
677,620;32947,655;    2,158;    1,136
678,194;33245,829;    0,249;    1,136
678,769;32747,093;    0,886;   -0,318
679,343;32999,630;   -0,023;    1,773
679,917;32909,257;    0,340;    1,955
680,492;33041,158;    0,249;    3,227
681,066;33170,877;    0,613;    0,409
681,640;33179,050;    1,795;   -0,318
682,214;34025,859;    2,340;    0,500
682,788;33512,942;    0,613;   -0,773
683,363;33529,206;    1,977;    1,682
683,937;33222,197;    0,886;   -0,318
684,511;34083,552;   -1,023;   -0,591
685,085;33744,816;   -1,478;    0,318
685,659;33497,444;    1,431;    0,864
686,232;33755,890;    1,159;   -0,318
686,806;33426,518;    2,159;    0,409
687,380;34107,964;   -1,932;    0,591
687,954;34329,410;    2,432;    1,136
688,528;34004,310;    2,613;    1,955
689,101;34885,756;    0,432;    1,045
689,675;34455,748;    0,886;   -0,136
690,249;33717,830;    3,432;    0,409
690,822;34028,730;    1,159;    0,318
691,396;34118,631;    2,068;    1,227
691,969;33502,532;    2,523;    0,136
692,543;33993,250;   -0,568;   -1,955
693,116;33667,242;   -0,659;   -1,409
693,690;33514,778;   -0,296;    0,500
694,263;34098,043;    2,341;    2,955
694,836;34163,761;    2,795;    3,591
695,410;32688,025;    1,159;    1,773
695,983;33220,199;    1,614;    0,591
696,556;33186,826;   -0,750;   -1,045
697,129;33584,818;   -1,114;    1,409
697,703;33135,173;    1,341;    1,955
698,276;33118,255;    1,705;   -0,773
698,849;32894,156;   -1,023;    1,409
699,422;33319,056;    1,250;    0,591
699,995;32977,411;   -0,659;    0,136
700,568;33499,584;   -0,204;    3,045
701,140;33536,849;   -1,841;    1,682
701,713;33214,113;    0,341;    2,409
702,286;32873,195;    0,796;    0,864
702,859;32802,096;    0,614;   -0,591
703,432;31893,996;   -0,841;    0,682
704,004;32472,078;    1,978;    0,318
704,577;32321,979;    1,068;    0,136
705,150;32918,607;    0,887;    2,500
705,722;32719,325;    1,523;   -3,227
706,295;32439,408;    1,432;   -0,591
706,867;32290,490;    0,250;    1,955
707,440;32535,118;   -0,113;   -0,409
708,012;32750,746;   -0,022;    0,591
708,584;32664,101;    2,705;    0,227
709,157;32996,910;    1,160;   -0,591
709,729;32648,992;    1,069;    2,045
710,301;33568,802;   -1,204;    0,045
710,874;33580,703;    0,341;   -0,227
711,446;32420,876;   -0,295;    0,864
712,018;32320,867;   -3,022;    0,500
712,590;31961,768;   -0,204;    1,682
713,162;32492,941;   -0,477;    1,318
713,734;32741,932;    1,796;   -2,045
714,306;32635,560;    0,342;   -0,409
714,878;31257,824;   -0,295;    0,864
715,450;32072,997;   -0,113;    0,864
716,022;32411,898;    2,433;    1,318
716,593;32557,980;    0,978;    0,591
717,165;32457,972;    1,796;   -1,227
717,737;32145,327;    0,796;    0,409
718,309;31826,045;    1,160;   -0,045
718,880;31737,310;   -1,295;   -1,409
719,452;32016,665;    0,887;   -1,591
720,024;31463,747;    1,705;   -0,591
720,595;32046,829;    2,978;    0,955
721,167;31598,002;    1,160;   -2,045
721,738;31058,721;    2,069;   -1,045
722,309;30954,713;    1,251;   -1,227
722,881;30788,431;    2,705;    0,773
723,452;31537,059;    1,251;    2,864
724,023;31674,050;    1,524;    2,682
724,595;31427,860;    2,342;    0,682
725,166;31154,488;    1,524;   -0,409
725,737;30771,206;    1,887;    0,227
726,308;30878,016;    0,797;    0,318
726,879;31282,735;    1,069;    1,227
727,450;31134,272;   -2,022;   -0,045
728,021;31103,172;    1,069;    0,682
728,592;30952,436;    1,160;    0,500
729,163;31270,428;    1,433;   -0,136
729,734;31298,146;    2,160;   -0,227
730,305;31617,320;    0,615;    0,136
730,876;31988,129;    0,888;    2,955
731,447;31651,302;    0,797;    2,682
732,017;31818,385;   -0,840;    1,864
732,588;31293,376;   -0,021;    1,227
733,159;31515,095;    3,615;   -1,045
733,729;31345,632;    1,251;    0,409
734,300;30586,169;    0,160;    0,864
734,870;30998,069;   -1,385;    0,591
735,441;31562,697;    0,888;   -0,591
736,011;31315,870;    1,070;   -1,591
736,582;31284,043;    1,251;    0,045
737,152;30704,217;    0,979;   -2,045
737,722;31174,208;    1,070;   -0,682
738,293;30921,018;   -2,021;    1,318
738,863;30740,100;    1,797;    2,318
739,433;30512,637;    4,524;    0,318
740,003;31176,901;    1,524;   -0,682
740,573;30551,074;    2,252;   -1,591
741,143;30492,156;    3,615;    0,318
741,713;31297,330;    0,252;   -0,500
742,283;30994,503;    1,706;    1,591
742,853;30640,312;    0,524;    1,591
743,423;30101,758;    0,161;    0,045
743,993;30228,568;    1,070;    1,500
744,563;29573,105;    2,524;   -0,864
745,133;29506,642;   -0,112;   -0,864
745,702;30222,906;    2,797;    1,773
746,272;29397,079;    0,434;    0,591
746,842;29163,161;   -0,748;   -0,591
747,411;29586,153;   -0,839;   -0,318
747,981;29759,962;   -0,930;    0,500
748,551;29791,136;   -0,021;   -1,045
749,120;29618,218;   -0,112;   -0,227
749,690;30075,846;    2,161;    2,409
750,259;30389,655;    0,979;    2,955
750,828;30315,101;    4,070;   -1,955
751,398;30555,365;   -0,112;   -0,045
751,967;30067,902;    2,888;    0,409
752,536;30262,712;    1,161;   -0,227
753,105;30730,067;   -1,384;    0,227
753,675;30543,149;   -0,112;    1,773
754,244;30452,141;    0,888;    3,591
754,813;30513,587;    0,979;    1,227
755,382;30153,942;    0,798;    0,955
755,951;30693,842;   -0,112;    3,682
756,520;30235,561;    2,525;    1,864
757,089;30817,916;    1,888;    0,500
757,658;31005,635;    2,434;    1,227
758,227;30971,535;   -1,111;    0,318
758,795;31340,345;   -1,021;    1,136
759,364;31544,063;    0,525;   -0,591
759,933;30484,964;    1,343;   -0,045
760,501;30011,501;    0,252;   -1,318
761,070;30481,310;   -0,293;   -1,409
761,639;31221,302;    1,434;    1,318
762,207;30522,657;    0,889;   -0,955
762,776;30438,375;    2,889;    0,864
763,344;30396,003;    0,071;    0,591
763,913;29480,449;    1,616;    1,409
764,481;30190,895;    1,980;   -0,136
765,049;29992,159;    0,616;    1,409
765,618;29884,060;    1,434;    0,318
766,186;29961,869;    2,434;    0,136
766,754;30134,315;    1,798;    1,864
767,322;29041,852;    1,162;    0,409
767,890;29135,571;    0,525;   -1,773
768,459;29513,471;    2,616;   -0,318
769,027;29689,099;    2,525;    3,409
769,595;28608,091;    2,616;    2,591
770,163;29033,446;    3,344;    2,955
770,730;28746,255;    2,525;   -0,136
771,298;28595,337;    1,162;   -1,409
771,866;28697,965;    0,253;    4,955
772,434;29000,411;    1,162;   -1,864
773,002;29189,130;    2,616;    0,682
773,569;28751,667;    1,071;    1,682
774,137;28594,022;    0,889;   -0,045
774,705;29397,922;   -0,747;   -0,136
775,272;28828,550;    0,253;    0,682
775,840;28576,360;   -0,111;    2,682
776,407;28108,897;   -0,293;    1,955
776,975;27662,797;    1,162;    0,318
777,542;28723,607;    2,162;   -0,045
778,110;28548,871;    0,707;   -0,045
778,677;28221,771;    1,071;   -0,864
779,244;27950,035;   -1,020;    1,045
779,812;28079,390;    0,980;    0,864
780,379;27899,018;    2,435;    1,136
780,946;28182,101;    2,617;   -0,773
781,513;28490,456;   -0,565;    0,318
782,080;27761,902;    1,253;    2,864
782,647;28560,438;    1,708;    3,045
783,214;28160,612;   -0,201;    3,864
783,781;27733,239;    1,708;   -0,682
784,348;27617,958;    0,253;    1,500
784,915;28111,222;   -1,474;    0,318
785,482;27838,123;    2,708;    2,591
786,049;28298,478;    1,071;   -0,591
786,615;28381,469;    1,708;   -0,955
787,182;28125,551;   -3,201;   -0,682
787,749;27793,907;   -2,201;    1,409
788,315;27047,807;    0,253;   -0,409
788,882;27321,980;    0,981;   -1,227
789,448;28020,063;    1,435;   -0,955
790,015;28088,872;    1,799;    3,227
790,581;27639,954;    0,708;    0,227
791,148;27466,764;    1,344;    1,045
791,714;27741,755;   -1,019;    3,136
792,280;27420,838;    3,708;    1,591
792,847;27011,738;   -0,928;    2,500
793,413;27543,912;   -0,110;   -0,318
793,979;27060,267;    1,526;   -1,318
794,545;27092,713;    2,981;    2,682
795,111;26485,795;    2,435;    1,318
795,678;26685,877;    3,526;   -1,682
796,244;26321,959;    2,799;    0,136
796,810;26864,678;    0,799;    0,773
797,375;26576,942;   -0,292;   -2,136
797,941;26577,661;   -1,110;    0,591
798,507;26753,743;    0,254;   -0,955
799,073;26282,462;    2,708;    0,591
799,639;26345,090;    1,435;    3,136
800,205;26356,172;   -1,565;    2,682
800,770;25861,436;    1,345;    1,773
801,336;25890,973;    2,981;   -0,955
801,901;25560,055;    6,072;    3,136
802,467;26203,047;    0,526;    2,045
803,033;25443,038;   -0,019;    0,864
803,598;25676,302;    1,072;   -1,045
804,163;25689,657;    0,708;   -0,318
804,729;25622,467;   -0,110;    1,136
805,294;26051,731;    1,072;    2,227
805,859;25893,995;    0,890;   -0,409
806,425;25292,078;    3,890;    2,682
806,990;24993,160;    1,890;    4,318
807,555;25495,424;   -0,110;    2,591
808,120;25370,688;   -1,292;   -0,409
808,685;25397,952;    1,072;   -2,500
809,250;24881,307;    2,072;   -0,500
809,815;25258,481;   -0,201;    0,682
810,380;25746,108;    0,981;    1,591
810,945;26243,009;    2,890;    2,045
811,510;25461,455;   -0,200;    1,591
812,075;25132,446;    2,800;   -1,409
812,640;25165,619;    3,709;    1,409
813,204;25219,429;    2,163;   -0,227
813,769;25728,057;    0,254;   -0,045
814,334;25049,685;    0,527;    0,864
814,898;25108,312;    1,981;    0,591
815,463;24985,758;    0,981;   -0,773
816,027;25042,204;    1,345;   -2,318
816,592;25100,287;    2,163;   -2,045
817,156;24526,460;   -2,200;    1,136
817,721;24307,360;    0,982;    2,318
818,285;24261,806;    0,618;    1,500
818,849;24956,161;   -0,018;    1,682
819,414;24859,425;    0,073;    2,955
819,978;24396,053;   -0,291;    1,773
820,542;25003,863;    2,891;    0,500
821,106;24712,218;    2,800;    0,682
821,670;24756,300;    2,709;    2,591
822,234;24446,292;    1,073;    1,409
822,798;23829,556;   -0,836;    0,500
823,362;23800,820;    1,527;    4,227
823,926;23048,811;   -0,018;    1,136
824,490;23295,348;    3,527;   -0,682
825,054;23767,067;    2,527;   -1,136
825,618;23323,604;   -1,200;   -1,500
826,181;23256,231;    0,982;   -1,318
826,745;23142,132;   -0,745;   -1,045
827,309;23480,851;    2,255;    1,318
827,872;22877,842;    0,527;    0,955
828,436;23911,015;    1,982;   -0,773
828,999;23995,189;    2,436;    1,227
829,563;22719,180;   -0,654;    1,136
830,126;22554,717;   -0,018;   -0,591
830,690;22528,981;    0,709;    2,864
831,253;21986,791;   -0,473;    2,227
831,816;22174,691;   -0,018;    0,500
832,380;22066,228;    1,164;    0,864
832,943;22253,856;    3,073;   -0,500
833,506;21792,665;    0,255;   -1,227
834,069;22562,475;    2,164;   -0,955
834,632;22623,830;   -2,200;    1,318
835,195;22501,458;    1,346;    0,955
835,758;21715,995;    0,709;    1,955
836,321;21512,986;    1,073;   -1,045
836,884;21587,432;   -1,291;   -0,955
837,447;21628,332;    0,528;    1,773
838,010;21874,506;    1,800;    3,227
838,573;22213,224;    0,528;    0,773
839,135;22134,579;   -0,109;   -0,955
839,698;21560,662;    2,528;    0,409
840,261;21100,835;    0,255;   -0,227
840,823;20931,735;   -0,927;    0,864
841,386;21214,727;   -0,018;   -2,409
841,948;21076,809;    0,255;    1,773
842,511;20785,346;    0,255;    1,682
843,073;20960,610;    2,982;    0,227
843,636;20727,329;    0,619;   -0,227
844,198;20627,957;    1,255;    0,591
844,760;20773,675;    0,619;    1,955
845,322;20386,121;    0,164;    1,136
845,885;20853,749;   -0,290;    0,591
846,447;21263,286;    0,710;    0,227
847,009;20769,550;    3,983;   -0,682
847,571;21164,541;    1,346;   -2,045
848,133;21291,806;   -0,199;   -1,864
848,695;21093,797;    2,346;    1,409
849,257;20643,243;    1,346;   -1,682
849,819;20800,780;    2,983;   -0,409
850,381;20788,317;    1,801;   -0,864
850,942;21217,126;    1,892;   -0,591
851,504;21153,754;    0,983;    0,227
852,066;21204,564;    1,619;   -1,591
852,628;20694,828;    0,165;    1,955
853,189;20246,183;    0,256;    2,682
853,751;20407,720;   -0,654;    1,409
854,312;20264,893;    1,256;   -1,682
854,874;20785,793;   -0,108;   -0,773
855,435;21308,330;    0,528;   -1,682
855,997;21434,231;    3,983;   -0,136
856,558;20670,313;    0,801;    1,773
857,119;20795,577;   -0,744;    2,864
857,681;20442,750;   -0,108;    0,318
858,242;20476,651;    1,347;   -2,136
858,803;20951,370;    1,074;   -0,773
859,364;21523,179;    0,892;   -4,773
859,925;20801,443;   -0,290;   -0,955
860,486;20734,798;    0,529;   -0,955
861,047;20454,153;    0,165;   -1,227
861,608;20180,963;    0,165;   -0,773
862,169;20336,682;   -0,562;   -0,045
862,730;20118,491;   -0,290;    1,409
863,291;20369,937;    0,438;   -0,500
863,852;20678,565;   -0,926;    1,955
864,412;20156,375;   -1,835;   -0,864
864,973;18649,639;    1,892;    0,500
865,534;18484,812;    2,074;    0,227
866,094;20067,622;    2,620;    0,227
866,655;19664,613;    4,711;    3,318
867,215;19960,059;    0,074;    0,136
867,776;19811,869;   -1,199;   -0,136
868,336;19950,951;    1,529;    0,136
868,897;19327,760;    3,438;    1,682
869,457;19099,843;    3,256;    0,318
870,017;19358,743;    2,438;   -1,227
870,578;19887,916;    1,893;    0,773
871,138;19504,090;    2,620;   -0,955
871,698;19019,263;   -0,562;   -1,318
872,258;18887,163;    0,711;   -2,864
872,818;19298,155;    2,347;    0,045
873,378;19224,601;   -2,198;    1,045
873,938;18811,592;    4,984;    0,500
874,498;19121,584;    1,256;   -1,955
875,058;18969,302;    4,347;    1,773
875,618;18849,385;    1,438;   -2,682
876,177;18798,558;   -0,471;    0,136
876,737;18360,186;   -0,289;    1,955
877,297;18350,632;    2,711;    1,955
877,856;18366,078;    2,529;    0,318
878,416;18315,523;    2,438;   -0,136
878,976;18551,879;    3,438;    0,409
879,535;18736,597;    4,529;    3,136
880,095;18481,861;    1,347;    0,045
880,654;18600,125;    0,347;    1,318
881,213;18647,117;    2,347;    1,500
881,773;18289,654;    1,984;    2,682
882,332;18653,463;    6,075;    5,136
882,891;18490,273;    0,711;    2,136
883,451;18944,537;   -2,016;    1,682
884,010;18450,528;   -1,107;   -0,409
884,569;18571,974;   -2,289;   -0,045
885,128;18681,602;   -0,743;   -1,864
885,687;18722,685;   -0,743;    0,682
886,246;18394,221;    2,620;    2,136
886,805;18147,758;    1,620;    2,045
887,364;18470,568;    1,166;   -0,500
887,922;18810,923;   -0,016;    0,045
888,481;18276,732;    1,530;    0,591
889,040;18622,360;    3,711;    2,136
889,599;19394,534;    2,166;    1,409
890,157;19435,252;    2,166;    2,409
890,716;19098,698;    2,166;    0,227
891,274;18876,508;    0,075;   -1,136
891,833;19324,863;    1,166;    0,864
892,391;19196,309;    1,802;    0,500
892,950;19306,482;    0,166;   -0,773
893,508;19639,110;    0,984;   -0,409
894,067;19005,919;   -0,379;    0,136
894,625;18927,365;   -1,016;   -1,500
895,183;19154,084;   -0,198;   -0,682
895,741;19066,075;    2,257;   -1,773
896,299;18899,794;    1,621;   -2,409
896,858;19096,149;    1,530;   -1,591
897,416;19158,504;    0,166;   -1,318
897,974;18901,859;   -2,197;    0,318
898,532;19064,214;    6,530;    2,682
899,089;18896,297;    0,621;   -0,682
899,647;18973,015;    0,530;    1,318
900,205;18702,007;    0,257;    1,045
900,763;18901,180;    2,166;    0,227
901,321;18857,171;    3,530;   -1,409
901,878;18277,254;    3,257;   -0,773
902,436;18143,427;    0,257;    1,318
902,994;18516,964;    6,712;    3,682
903,551;17908,228;    1,439;    0,409
904,109;18358,947;    1,530;   -1,409
904,666;17950,756;    1,439;    1,045
905,224;17683,838;    3,894;   -0,409
905,781;17387,921;   -0,470;   -0,318
906,338;17500,730;    0,167;    1,045
906,895;17412,631;    1,894;    2,045
907,453;17360,350;    2,348;    1,136
908,010;17376,795;    3,348;    0,409
908,567;17001,241;   -0,561;    0,591
909,124;16510,596;    2,439;   -1,500
909,681;16549,861;   -1,288;    0,682
910,238;16713,216;   -0,106;   -1,318
910,795;17049,389;   -1,561;   -1,136
911,352;16622,843;   -0,379;   -2,682
911,909;16025,025;    2,803;   -0,864
912,466;16525,571;    1,985;    1,500
913,022;16032,298;   -0,924;    0,500
913,579;16431,934;   -0,470;    2,045
914,136;16101,025;   -2,561;    0,955
914,692;16477,116;    1,530;   -1,227
915,249;16033,934;    0,530;    0,409
915,806;16252,480;    1,803;    1,955
916,362;15935,207;    0,894;    1,864
916,918;15433,207;    2,439;    1,045
917,475;15439,480;    1,621;    0,955
918,031;15597,934;    0,076;   -0,045
918,587;14966,298;    0,621;   -0,318
919,144;15136,116;   -0,379;    0,227
919,700;15525,025;    0,167;    0,773
920,256;15081,389;    0,439;    0,045
920,812;14625,571;    1,439;   -1,045
921,368;14614,298;    1,348;   -1,045
921,924;14271,116;    0,439;   -0,136
922,480;13787,480;    0,076;    1,227
923,036;14437,207;   -0,652;    1,955
923,592;14395,662;    0,621;    0,318
924,148;14292,389;    1,894;   -0,955
924,704;13550,662;    0,258;   -0,409
925,259;13857,298;   -0,561;    0,591
925,815;13540,662;    3,803;    0,500
926,371;13063,753;    3,530;    1,409
926,926;12936,843;    1,621;    0,591
927,482;12549,843;    1,621;    0,773
928,037;12412,207;   -0,833;    2,045
928,593;12697,843;    0,258;    1,045
929,148;12504,753;    1,167;   -1,500
929,704;12008,298;    2,439;   -0,500
930,259;12191,025;    0,894;   -0,136
930,814;11198,025;    1,803;    1,955
931,369;10885,116;    0,258;   -0,773
931,925;10786,571;   -1,924;    0,136
932,480;10635,662;    3,076;   -2,591
933,035;10497,116;    3,985;   -0,318
933,590;10250,934;   -1,742;   -1,773
934,145; 9841,298;   -1,288;   -0,318
934,700;10233,843;    0,348;   -0,591
935,255;10031,571;    4,803;    0,045
935,809; 9204,571;    6,258;    0,864
936,364; 8278,116;    2,167;   -0,136
936,919; 8233,389;    2,348;   -1,773
937,474; 8115,843;    1,348;    0,136
938,028; 7861,934;    3,076;    1,136
938,583; 7235,298;    6,348;    4,682
939,138; 7533,480;    0,167;    2,136
939,692; 6973,480;   -1,015;   -1,136
940,247; 6595,753;    1,167;   -1,045
940,801; 6129,389;    0,621;    0,227
941,355; 6024,298;    0,439;    2,591
941,910; 5666,298;    0,712;   -2,136
942,464; 5761,116;    2,712;   -0,318
943,018; 5500,116;    3,258;   -0,227
943,572; 5439,480;    2,803;   -0,682
944,126; 4795,207;   -0,924;   -0,409
944,681; 4680,116;    0,712;    0,227
945,235; 4667,207;    2,167;   -0,591
945,789; 4616,843;    1,258;   -1,864
946,342; 4647,571;   -0,561;   -0,591
946,896; 4480,298;    0,348;    0,955
947,450; 4243,025;   -0,561;   -0,227
948,004; 4407,571;    1,076;   -0,045
948,558; 4462,662;    1,258;   -0,864
949,111; 4360,753;   -1,197;   -0,318
949,665; 4364,843;   -0,106;   -0,682
950,219; 4233,025;    0,621;   -1,045
950,772; 4330,116;    0,258;    1,864
951,326; 4254,116;   -1,106;   -0,955
951,879; 4357,116;    1,076;   -2,318
952,433; 4358,298;    1,348;    2,227
952,986; 4198,843;    0,348;    0,682
953,539; 4137,753;    1,530;    0,591
954,093; 4079,116;    0,985;   -1,318
954,646; 4220,480;   -0,288;    1,318
955,199; 4020,753;    1,258;   -0,500
955,752; 3855,571;    1,985;    1,773
956,305; 3815,389;    0,894;    2,955
956,858; 3996,934;    0,621;   -0,318
957,411; 4196,116;    3,621;    2,136
957,964; 4022,298;    2,076;    2,136
958,517; 3998,298;    0,985;    3,136
959,070; 3812,207;   -1,197;    1,955
959,623; 3861,389;    1,076;    1,500
960,176; 3631,207;    0,712;    2,045
960,728; 3616,480;    1,712;    0,773
961,281; 3691,025;    2,258;    0,500
961,834; 3712,116;   -0,833;    0,864
962,386; 3649,025;    1,258;    1,045
962,939; 3564,389;    3,439;   -0,318
963,491; 3714,753;    2,621;    1,136
964,043; 3554,116;    0,076;    2,409
964,596; 3690,389;    1,712;    2,227
965,148; 3510,207;   -0,379;    1,773
965,700; 3452,843;   -0,015;   -0,227
966,253; 3631,116;   -0,833;    0,318
966,805; 3430,116;    1,894;    0,773
967,357; 3481,662;    0,439;   -1,500
967,909; 3406,934;    1,167;   -1,227
968,461; 3569,298;    0,894;    3,136
969,013; 3470,571;   -1,561;   -0,864
969,565; 3543,571;    1,803;   -1,136
970,117; 3587,753;    3,803;    1,045
970,669; 3426,480;    3,258;   -0,136
971,220; 3320,843;    2,167;   -1,500
971,772; 3241,389;    1,348;   -0,318
972,324; 3343,662;   -1,197;   -0,500
972,876; 3311,480;    0,167;   -0,045
973,427; 3427,753;   -1,197;   -1,045
973,979; 3388,207;    0,076;   -2,500
974,530; 3437,025;    0,803;    1,318
975,082; 3446,207;    2,167;    1,682
975,633; 3327,207;    2,894;    1,682
976,184; 3494,934;    2,076;    0,773
976,736; 3252,298;    0,348;    0,227
977,287; 3004,298;    0,258;   -0,500
977,838; 3226,207;   -0,924;   -0,318
978,389; 3285,298;    0,803;   -0,500
978,940; 3182,298;    1,258;   -0,409
979,491; 3202,753;    2,258;   -0,500
980,042; 3115,025;   -0,652;    3,045
980,593; 3202,662;    1,894;    0,227
981,144; 3256,662;    3,530;   -0,500
981,695; 3198,025;   -0,470;    1,500
982,246; 3168,298;   -1,833;    1,045
982,797; 3366,207;   -0,561;    0,682
983,347; 3476,116;    2,167;    0,591
983,898; 3619,298;    4,167;    0,409
984,449; 3411,116;    2,530;    0,773
984,999; 3352,116;    1,894;   -1,136
985,550; 3101,480;    3,167;   -0,318
986,100; 3162,207;    0,712;   -0,318
986,651; 3196,571;    0,258;    0,045
987,201; 3177,571;    0,894;   -0,591
987,751; 3256,207;   -0,288;    2,864
988,302; 3234,207;   -0,379;    1,500
988,852; 3265,480;    1,985;   -1,136
989,402; 3293,025;    0,985;    0,682
989,952; 3201,480;    1,621;    0,864
990,502; 3329,843;    1,076;    0,682
991,052; 3288,662;   -0,106;    0,045
991,602; 3141,662;    1,167;    1,318
992,152; 3136,298;    2,803;    0,682
992,702; 3114,934;    1,167;   -0,045
993,252; 3022,753;    0,076;   -0,500
993,802; 3108,662;    1,167;    1,318
994,352; 3384,116;   -0,742;    1,136
994,901; 3515,116;    1,076;    3,227
995,451; 3391,662;   -1,197;    0,318
996,000; 3495,480;    1,076;    0,318
996,550; 3159,662;    2,894;    0,227
997,100; 3170,207;   -0,561;   -0,045
997,649; 3470,571;   -0,197;    0,955
998,198; 3070,116;   -0,288;   -1,500
998,748; 3257,753;    0,348;   -2,318
999,297; 3179,389;    0,985;   -0,409
999,846; 3249,934;    1,894;   -0,773
1000,395; 3306,389;    1,530;    0,500
1000,945; 3230,753;    1,076;   -0,773
1001,494; 3314,116;    0,167;    0,682
1002,043; 3332,298;    0,712;    0,864
1002,592; 3168,662;    3,439;    1,955
1003,141; 3320,207;    2,439;   -0,682
1003,690; 3140,843;    1,258;    0,500
1004,238; 3249,934;   -0,106;   -0,045
1004,787; 2851,662;   -1,288;    1,227
1005,336; 3080,389;    1,621;    0,682
1005,885; 3242,207;   -0,197;   -2,773
1006,433; 3411,843;   -0,470;    0,955
1006,982; 3459,480;    2,167;    1,682
1007,531; 3394,480;    2,712;   -0,227
1008,079; 3358,571;    0,258;    0,500
1008,627; 3496,753;    1,621;    0,409
1009,176; 3213,934;    0,076;   -1,955
1009,724; 3258,753;   -2,742;    0,864
1010,273; 3271,389;    1,076;    0,500
1010,821; 3446,480;    1,076;    1,409
1011,369; 3156,480;    0,076;    1,318
1011,917; 3133,934;   -0,833;   -0,591
1012,465; 3434,662;    2,530;   -1,591
1013,013; 3569,480;    0,439;   -1,682
1013,561; 3410,843;   -1,288;   -0,773
1014,109; 3443,571;   -0,833;    1,682
1014,657; 3311,025;    1,348;    0,591
1015,205; 3461,480;    0,894;   -0,955
1015,753; 3508,116;    0,258;   -1,409
1016,301; 3532,298;    2,621;    3,045
1016,848; 3541,934;    2,167;    0,409
1017,396; 3598,207;    1,621;    0,045
1017,944; 3731,753;    2,621;    1,864
1018,491; 3480,298;   -0,197;    1,409
1019,039; 3577,934;   -0,652;    0,591
1019,586; 3537,116;    0,076;    1,682
1020,134; 3644,843;    0,712;    1,500
1020,681; 3642,298;    2,894;   -1,136
1021,228; 3664,298;   -0,561;   -2,227
1021,776; 3494,662;   -0,833;   -1,136
1022,323; 3694,571;    0,803;    0,773
1022,870; 3645,934;   -0,470;   -0,045
1023,417; 3535,480;    2,076;    1,864
1023,964; 3707,298;    0,621;    1,227
1024,511; 3507,025;   -0,652;    0,773
1025,058; 3290,207;    0,439;   -0,045
1025,605; 3361,934;   -1,742;    3,136
1026,152; 3559,298;   -0,106;   -0,591
1026,699; 3285,025;    0,167;    1,318
1027,245; 3494,571;    2,439;    0,318
1027,792; 3730,934;    0,712;    1,409
1028,339; 3561,843;    4,076;   -0,045
1028,885; 3412,207;    3,621;   -0,227
1029,432; 3362,025;   -0,106;    0,227
1029,978; 3416,389;    1,348;   -1,591
1030,525; 3311,207;    1,621;    0,409
1031,071; 3601,934;    0,348;    1,136
1031,618; 3669,389;    1,258;    1,682
1032,164; 3457,480;    2,076;    3,045
1032,710; 3496,298;    0,076;   -1,500
1033,256; 3429,116;    0,712;   -0,136
1033,803; 3429,298;   -0,288;    1,500
1034,349; 3151,207;    1,803;    0,136
1034,895; 3304,025;    2,621;   -0,318
1035,441; 3284,480;    0,439;    0,318
1035,987; 3273,389;   -2,288;   -0,682
1036,533; 3264,934;   -0,197;   -0,955
1037,078; 3462,480;    4,712;    1,682
1037,624; 3278,298;    2,439;   -0,955
1038,170; 3326,662;    1,712;   -0,318
1038,716; 3193,662;    2,167;   -0,409
1039,261; 3110,843;    2,167;   -0,773
1039,807; 3057,571;   -0,015;    3,409
1040,352; 3122,025;   -1,288;   -0,318
1040,898; 3149,116;    0,167;   -0,682
1041,443; 3055,116;    0,803;   -2,591
1041,989; 3055,480;    3,621;    1,591
1042,534; 2958,934;    0,985;    2,591
1043,079; 3106,116;    1,985;    0,955
1043,625; 2857,298;    0,258;    0,500
1044,170; 2894,753;    2,439;    1,045
1044,715; 3164,571;    0,167;    0,955
1045,260; 2972,389;   -0,833;   -0,955
1045,805; 3035,389;    0,258;   -0,591
1046,350; 2989,480;    0,530;   -0,409
1046,895; 2917,571;    0,803;    1,591
1047,440; 2841,116;    1,530;    0,409
1047,985; 2767,662;   -1,197;   -0,955
1048,530; 2676,298;    1,348;    1,227
1049,074; 2744,662;    2,803;    0,318
1049,619; 2712,116;   -0,924;    1,955
1050,164; 2485,298;    1,076;    0,227
1050,708; 2545,389;    2,621;    0,045
1051,253; 2905,480;    3,258;   -2,227
1051,797; 2622,662;   -0,197;   -1,318
1052,342; 2652,843;    1,348;    1,045
1052,886; 2627,025;    1,803;   -1,409
1053,430; 2531,753;    2,167;    0,136
1053,975; 2517,207;    0,894;   -0,318
1054,519; 2483,207;    1,803;    3,227
1055,063; 2494,389;    3,621;    1,318
1055,607; 2383,116;    1,348;    0,227
1056,151; 2412,934;    0,530;    1,682
1056,695; 2338,753;   -1,833;   -1,136
1057,239; 2407,116;   -1,197;   -0,682
1057,783; 2389,843;    2,258;   -1,500
1058,327; 2329,753;    3,076;    1,409
1058,871; 2557,298;    3,985;    1,318
1059,415; 2254,662;   -0,561;   -0,045
1059,958; 2494,389;    2,985;    2,591
1060,502; 2236,116;    1,348;   -0,773
1061,046; 2154,662;    1,712;   -0,955
1061,589; 2125,025;    2,803;   -1,136
1062,133; 2016,571;    0,985;    1,864
1062,676; 1934,753;    1,439;    0,864
1063,220; 1941,480;    0,985;    0,500
1063,763; 1932,389;    2,985;    1,136
1064,306; 2035,207;    0,985;    1,864
1064,849; 1917,116;    2,076;    0,591
1065,393; 1917,116;    2,894;   -1,500
1065,936; 2043,116;    2,530;   -0,409
1066,479; 1936,116;    2,621;    1,318
1067,022; 1962,934;    1,894;   -0,227
1067,565; 1855,571;   -1,197;   -1,318
1068,108; 1884,934;    1,258;   -0,591
1068,651; 1860,298;   -2,470;    1,409
1069,194; 1781,934;   -1,106;   -1,682
1069,736; 1749,116;    3,803;    0,955
1070,279; 1764,207;   -1,652;   -0,500
1070,822; 1811,753;    1,530;   -0,318
1071,364; 1853,662;    0,530;    1,318
1071,907; 1691,753;    0,348;    3,227
1072,450; 1622,480;    0,258;   -0,045
1072,992; 1598,843;   -0,561;    3,136
1073,535; 1716,025;    0,167;    2,136
1074,077; 1524,753;    2,985;    2,045
1074,619; 1477,389;    0,985;    0,591
1075,161; 1498,934;   -0,561;    1,500
1075,704; 1691,116;    0,258;    1,227
1076,246; 1500,480;    1,530;    0,682
1076,788; 1428,116;   -1,015;    1,773
1077,330; 1527,571;   -2,106;    2,136
1077,872; 1458,662;   -1,924;    0,955
1078,414; 1669,753;    3,712;    0,773
1078,956; 1391,662;    0,167;   -0,227
1079,498; 1647,843;    0,439;    0,318
1080,040; 1341,298;    0,985;   -1,318
1080,581; 1299,116;    0,621;   -0,318
1081,123; 1251,753;   -0,106;   -0,773
1081,665; 1292,571;    3,803;   -0,955
1082,206; 1581,480;    3,258;   -0,500
1082,748; 1444,480;    3,258;    2,045
1083,289; 1337,934;    0,167;    1,318
1083,831; 1228,753;    0,258;    0,227
1084,372; 1261,116;    0,894;    0,591
1084,913; 1241,843;    3,348;    0,864
1085,455; 1225,934;    1,530;   -2,045
1085,996; 1179,934;    0,530;    0,136
1086,537; 1199,571;    0,985;    0,864
1087,078; 1240,662;    0,439;   -2,136
1087,619; 1278,571;   -1,652;    0,227
1088,160; 1188,662;    1,439;    1,318
1088,701; 1176,480;   -0,742;    0,682
1089,242; 1123,116;   -0,561;   -2,227
1089,783; 1210,753;   -0,561;    1,409
1090,324; 1183,843;   -0,833;    0,682
1090,865; 1052,389;   -1,924;   -0,409
1091,405; 1047,843;   -0,561;    2,227
1091,946; 1074,480;   -0,197;   -0,955
1092,487;  993,298;   -1,288;   -1,409
1093,027; 1141,207;    1,803;   -1,500
1093,568;  987,934;    2,258;    1,227
1094,108; 1073,389;    0,621;    1,773
1094,649; 1029,843;   -0,470;    0,136
1095,189;  970,116;    1,167;   -0,682
1095,729;  916,207;    0,712;    0,955
1096,269;  935,025;    1,258;   -0,955
1096,810; 1234,662;   -0,197;    0,500
1097,350; 1058,480;   -0,561;   -0,773
1097,890;  964,298;    2,985;    1,227
1098,430; 1196,207;    4,985;    2,864
1098,970; 1070,662;    1,894;    1,682
1099,510;  946,843;   -0,833;   -2,318
1100,050;  875,480;    0,258;   -1,591
1100,589;  843,389;    0,076;   -0,318
1101,129;  962,843;    0,894;   -0,955
1101,669; 1091,571;    2,803;    2,136
1102,209;  924,389;    1,530;    2,227
1102,748;  893,843;    3,439;    0,955
1103,288;  868,025;    0,712;   -1,227
1103,827;  899,025;    3,530;   -2,227
1104,367;  779,843;    1,712;   -2,409
1104,906;  743,298;   -1,015;   -1,136
1105,445;  808,753;    0,985;   -1,136
1105,985;  744,571;   -0,652;    1,500
1106,524;  787,207;    1,530;   -0,682
1107,063;  767,843;    1,167;    1,409
1107,602;  747,389;    1,894;   -1,500
1108,141;  668,025;    1,621;    1,500
1108,680;  763,116;    3,985;   -0,591
1109,219;  706,025;    0,167;   -0,500
1109,758;  705,843;    4,167;    0,682
1110,297;  686,753;   -1,106;   -0,682
1110,836;  627,207;    1,439;    0,955
1111,375;  781,480;    0,348;    0,409
1111,913;  792,480;    0,985;    0,773
1112,452;  735,207;    0,894;    0,136
1112,991;  638,116;    1,076;    1,955
1113,529;  580,934;    0,167;   -0,045
1114,068;  641,480;    0,439;    2,955
1114,606;  537,934;   -0,561;   -0,955
1115,144;  701,480;    1,530;    1,045
1115,683;  633,389;    1,985;    0,318
1116,221;  680,662;    2,076;   -0,864
1116,759;  600,389;    1,621;   -0,864
1117,297;  783,298;    1,621;    1,864
1117,836;  596,298;    1,985;   -1,227
1118,374;  597,298;    0,258;   -0,682
1118,912;  549,207;    0,439;    2,682
1119,450;  534,480;    0,985;    0,864
1119,988;  583,389;    3,348;    2,136
1120,525; 1045,480;    7,258;    3,318
1121,063;  739,843;    0,530;    1,864
1121,601;  534,934;    1,076;   -1,227
1122,139;  496,116;    1,076;   -2,045
1122,676;  690,298;   -1,652;    2,773
1123,214;  631,753;    0,712;    4,409
1123,751;  440,480;    0,621;    2,227
1124,289;  568,116;    0,894;   -0,409
1124,826;  442,662;   -0,379;    0,227
1125,364;  367,753;    0,712;   -0,955
1125,901;  549,116;    6,258;    1,227
1126,438;  644,207;    3,530;    0,955
1126,975;  382,025;    2,985;   -0,773
1127,513;  457,571;    2,621;    2,136
1128,050;  370,934;   -0,561;   -0,682
1128,587;  455,025;    1,348;   -0,227
1129,124;  498,116;   -0,015;    1,318
1129,661;  375,207;   -1,924;    0,227
1130,198;  526,116;    2,439;    0,773
1130,734;  477,389;   -0,379;    1,409
1131,271;  345,207;   -1,197;    0,864
1131,808;  506,389;    1,621;    3,045
1132,345;  382,207;    4,530;    0,318
1132,881;  269,116;   -0,561;   -1,864
1133,418;  394,934;    0,348;   -1,136
1133,954;  343,389;    0,712;   -2,682
1134,491;  403,116;    1,712;   -0,773
1135,027;  308,571;    2,167;    0,864
1135,564;  383,662;    1,439;    2,955
1136,100;  376,025;   -0,742;    2,136
1136,636;  277,116;   -1,015;   -1,045
1137,172;  352,207;    0,894;   -1,045
1137,708;  283,934;   -1,561;   -1,045
1138,245;  286,207;    0,803;   -1,227
1138,781;  255,480;    1,803;   -3,318
1139,317;  309,389;    1,894;   -1,409
1139,852;  291,389;    3,076;    0,136
1140,388;  397,843;    2,076;   -0,409
1140,924;  295,207;    1,076;   -2,227
1141,460;  234,480;   -0,288;    0,136
1141,996;  168,480;   -0,652;    2,682
1142,531;  214,207;    1,076;    3,318
1143,067;  425,480;    1,167;    1,045
1143,602;  482,298;    3,439;   -0,318
1144,138;  321,298;    0,803;    1,045
1144,673;  201,025;    1,621;    1,409
1145,209;  260,389;    2,894;   -0,318
1145,744;  181,934;    0,803;    0,864
1146,279;  308,753;    1,530;   -0,136
1146,815;  231,662;    1,530;   -2,682
1147,350;  269,571;   -0,924;    0,045
1147,885;  186,571;   -1,924;   -1,318
1148,420;  194,571;    2,439;    0,773
1148,955;  181,753;   -1,470;    1,864
1149,490;  198,389;   -1,106;   -1,591
1150,025;  172,116;   -1,106;   -1,773
1150,560;  279,298;   -0,288;   -0,955
1151,094;  250,116;    0,258;   -0,591
1151,629;  247,662;   -3,742;    0,864
1152,164;  192,116;   -1,288;    1,318
1152,698;  150,571;    1,258;   -0,136
1153,233;  106,207;   -1,379;   -0,682
1153,767;  156,571;   -0,288;   -2,318
1154,302;  199,571;   -0,379;    1,773
1154,836;  203,662;    0,803;   -2,136
1155,371;  247,389;    2,258;    3,682
1155,905;  212,662;    1,985;    1,682
1156,439;  182,025;    0,530;   -0,500
1156,973;  203,389;    0,439;    0,318
1157,507;  146,207;   -1,742;    0,682
1158,042;  170,298;   -0,652;    1,045
1158,576;  209,662;   -0,561;    1,773
1159,110;  198,207;    0,076;    2,409
1159,643;  182,207;   -2,470;   -0,045
1160,177;  119,753;   -2,015;    1,500

