
Integration time [ms]:   0,050
Averaging Nr. [scans]: 11
Smoothing Nr. [pixels]: 0
Data measured with spectrometer [name]: 7318044SP
Wave   ;Sample   ;Dark     ;Reference
[nm]   ;[counts] ;[counts] ;[counts] 

186,757;  -21,882;   38,161;    1,318
187,357;    0,830;   26,706;    0,955
187,958;  -10,818;   17,252;   -1,591
188,558;   26,835;   12,979;   -1,227
189,159;    0,027;   10,070;   -4,500
189,759;  -15,283;    5,797;   -3,591
190,360;  -19,443;    6,797;   -2,136
190,960;    4,236;    5,706;   -4,136
191,560;   14,041;    2,614;   -6,591
192,161;  203,306;    5,885;   -3,500
192,761;   76,690;    5,520;   -3,227
193,361;   27,716;    3,065;   -3,773
193,962;   74,127;    1,612;   -2,682
194,562;   10,647;   -0,114;   -3,955
195,162;   20,294;   -0,567;   -2,227
195,762;  138,900;    2,433;   -0,045
196,362;   85,052;    1,706;   -2,500
196,963;   -3,465;    1,706;   -0,864
197,563;   47,385;    1,252;   -0,955
198,163;    0,959;   -0,111;   -0,682
198,763;    8,086;   -0,020;   -0,500
199,363;   60,979;    3,616;   -0,500
199,963;   33,687;    2,162;    0,409
200,563;   24,240;    6,344;   -1,409
201,163;    8,263;    5,435;   -0,227
201,763;   37,601;    1,435;    0,318
202,363;    8,979;    0,980;    1,500
202,963;   40,942;    1,526;    1,045
203,563;   98,918;    0,344;    0,500
204,162;   25,848;    1,889;   -1,864
204,762;   25,158;    2,071;    0,591
205,362;    7,221;    0,708;    1,955
205,962;   41,349;    3,435;    1,955
206,562;   41,662;    1,889;    2,318
207,161;   28,091;    1,708;    0,318
207,761;  110,239;    4,435;    2,409
208,361;   31,313;    1,889;    1,409
208,960;   57,064;    2,889;    1,500
209,560;   73,537;    0,435;    1,591
210,160;   78,011;    5,071;    1,864
210,759;   53,719;    0,708;    1,227
211,359;   43,250;   -0,474;    1,045
211,958;  182,390;    3,526;    2,045
212,558;  193,178;    0,799;    1,864
213,157;  116,335;   -0,929;    1,500
213,757;  318,553;    5,617;   -0,227
214,356;  159,867;    1,708;   -0,409
214,956;  308,687;    3,526;    0,409
215,555;  127,670;    0,617;    2,136
216,154;   90,247;   -0,292;   -0,591
216,754;   92,237;    1,253;    0,773
217,353;  137,098;   -0,383;   -1,045
217,952;   45,836;    2,072;    0,318
218,552;  165,841;    0,254;   -0,773
219,151;   95,752;   -1,110;    0,955
219,750;   97,186;    0,890;   -0,227
220,349;   82,652;   -2,292;    1,045
220,948;  188,269;    1,163;    1,136
221,548;  114,447;    0,617;    1,227
222,147;  157,817;   -1,292;   -0,409
222,746;  300,618;    1,254;   -0,955
223,345;  190,189;   -1,019;    0,500
223,944;  193,242;    1,163;    0,773
224,543;  227,357;    4,072;   -1,409
225,142;  238,531;    1,345;    0,136
225,741;  216,336;    1,163;    1,045
226,340;  191,939;    1,254;   -0,955
226,939;  316,443;    2,708;   -0,136
227,538;  180,716;    1,163;   -0,773
228,137;  317,552;    0,435;    0,864
228,735;  257,274;    0,435;    1,227
229,334;  131,900;   -0,474;   -0,227
229,933;  330,883;    0,799;    0,591
230,532;  343,913;   -1,201;   -0,409
231,131;  385,813;    1,253;    0,318
231,729;  266,767;    1,163;   -2,318
232,328;  202,356;    0,435;   -1,500
232,927;  200,296;    4,526;   -0,500
233,525;  167,543;    0,981;    0,045
234,124;  208,336;    1,890;   -1,591
234,723;  148,831;    1,617;   -1,045
235,321;  135,790;    1,163;    0,136
235,920;  168,227;    2,526;   -1,227
236,518;  314,458;    1,072;    0,318
237,117;  180,601;    2,890;   -0,227
237,715;  193,691;    1,163;   -0,500
238,314;  233,565;    1,708;   -2,318
238,912;  364,688;    0,526;   -1,409
239,510;  261,031;    1,162;   -1,227
240,109;  372,469;   -0,474;    3,773
240,707;  345,190;   -0,474;    1,227
241,305;  221,531;   -0,383;    0,136
241,904;  333,712;   -0,292;   -2,045
242,502;  452,637;    3,253;   -0,227
243,100;  365,227;    3,344;   -0,955
243,698;  320,408;    2,799;    1,682
244,297;  387,087;   -0,656;    0,682
244,895;  418,961;   -0,474;   -2,318
245,493;  661,980;    2,981;   -0,591
246,091;  676,292;    5,163;   -1,318
246,689;  637,741;    2,163;    0,591
247,287;  630,886;   -0,019;   -1,136
247,885;  645,533;   -1,019;    1,227
248,483;  639,849;   -0,201;   -0,500
249,081;  781,325;    0,981;    1,591
249,679;  884,882;   -1,019;    1,682
250,277;  796,770;   -2,292;    0,864
250,875;  984,323;    0,617;   -1,045
251,473;  919,002;   -0,019;    0,500
252,071; 1072,940;   -0,383;    1,045
252,669; 1058,696;   -1,565;    0,318
253,267; 1077,415;    1,618;    0,773
253,864; 1090,522;    0,617;    0,682
254,462; 1339,700;    1,526;    1,591
255,060; 1136,311;    0,072;    1,318
255,658; 1175,696;   -3,292;   -0,136
256,255; 1388,426;   -0,201;   -2,045
256,853; 1436,442;    2,345;    1,409
257,451; 1432,879;    1,981;    1,864
258,048; 2006,672;    2,072;    1,864
258,646; 1587,876;    0,436;   -1,045
259,243; 1760,806;    2,981;    2,227
259,841; 1704,578;    1,799;    0,318
260,438; 1585,415;    0,254;    0,864
261,036; 1858,306;    0,617;    1,409
261,633; 1880,615;    1,526;    2,227
262,231; 1820,349;   -0,110;   -0,045
262,828; 1902,179;   -0,383;    1,136
263,425; 1957,480;   -1,928;   -0,591
264,023; 2071,311;    1,436;    0,045
264,620; 2081,412;    1,526;   -0,318
265,217; 2275,065;    2,890;    3,136
265,815; 2186,952;    2,527;    2,136
266,412; 2255,984;    0,072;    0,136
267,009; 2304,601;    0,526;    0,773
267,606; 2449,422;    0,345;   -0,955
268,203; 2256,086;   -0,383;   -0,591
268,801; 2416,450;   -0,474;    0,591
269,398; 2486,217;   -0,564;    2,500
269,995; 2566,907;    0,890;    1,591
270,592; 2421,841;    0,799;   -0,500
271,189; 2503,794;    1,981;    0,409
271,786; 2561,608;    2,072;    1,227
272,383; 2722,044;   -0,383;    0,227
272,980; 2628,034;    1,617;    0,318
273,577; 2776,780;    2,162;    1,227
274,174; 2524,742;    1,435;    2,591
274,771; 2539,787;    1,890;   -0,773
275,367; 2941,957;    3,253;    1,409
275,964; 2829,718;   -0,565;   -0,500
276,561; 2745,439;   -2,474;   -1,045
277,158; 2745,337;    1,799;   -1,773
277,755; 2937,416;   -0,110;    0,409
278,351; 2549,962;    0,436;   -1,500
278,948; 2725,470;   -0,201;    0,045
279,545; 2644,986;    0,527;    2,318
280,141; 3159,313;    1,254;   -2,045
280,738; 2922,595;    2,435;   -0,136
281,334; 2873,581;   -0,383;    0,591
281,931; 2651,535;    2,890;   -1,318
282,528; 2797,814;    4,072;   -0,500
283,124; 3187,791;    3,345;   -0,500
283,721; 3112,151;    0,709;    1,409
284,317; 2967,331;    0,163;    2,500
284,913; 3359,856;   -0,110;    0,591
285,510; 3678,766;    2,890;   -0,318
286,106; 3613,122;    2,345;   -0,955
286,703; 3181,241;    0,072;    1,955
287,299; 3345,669;    1,254;   -0,591
287,895; 3579,171;    0,890;   -1,045
288,491; 3930,762;    0,163;    2,136
289,088; 3880,685;    0,163;    2,409
289,684; 3983,514;    2,890;    1,500
290,280; 4139,207;    1,890;    0,682
290,876; 4267,556;    0,163;    5,500
291,472; 4292,369;    2,163;    2,227
292,068; 4448,677;    1,254;    0,227
292,665; 4317,215;   -0,564;    0,773
293,261; 4281,986;   -1,292;    2,136
293,857; 4611,106;    4,072;    2,136
294,453; 4680,606;   -0,928;    0,955
295,049; 4742,662;    0,253;    1,955
295,644; 4902,682;   -1,292;    0,136
296,240; 4967,745;    0,162;   -0,136
296,836; 5174,087;   -0,747;    0,318
297,432; 5500,209;    2,980;   -0,500
298,028; 5685,455;    0,435;    0,773
298,624; 5982,557;    0,889;    1,864
299,220; 6299,025;    0,435;    0,591
299,815; 6108,241;    0,526;   -0,409
300,411; 6135,298;    0,435;    1,773
301,007; 6247,712;    1,889;    0,227
301,602; 6258,611;    2,071;   -2,318
302,198; 6490,298;    1,435;   -0,773
302,794; 6837,068;    1,526;   -0,500
303,389; 7010,629;    1,071;    1,045
303,985; 7105,158;    1,253;    1,409
304,580; 7148,790;    0,889;    1,591
305,176; 7144,903;    0,344;    0,136
305,771; 7140,526;   -0,929;   -1,227
306,367; 7142,439;    3,071;    0,136
306,962; 7379,793;    2,889;    1,500
307,558; 7128,001;    2,435;    0,136
308,153; 7089,908;   -0,383;   -1,136
308,748; 7220,754;    0,162;    1,682
309,344; 7206,107;    0,253;   -1,318
309,939; 7330,093;    2,071;   -1,318
310,534; 7491,509;   -2,020;   -1,682
311,130; 7343,005;   -0,656;   -2,500
311,725; 7074,500;    0,526;   -0,500
312,320; 7272,316;    1,253;    0,045
312,915; 7194,696;    2,890;   -1,045
313,510; 7188,174;    0,526;   -0,500
314,105; 7456,733;   -3,565;    1,409
314,700; 6874,319;   -1,656;   -1,045
315,295; 6636,790;   -0,020;    0,045
315,890; 6195,237;   -0,292;    0,864
316,485; 6339,874;    0,253;   -0,318
317,080; 6418,803;   -0,929;    1,591
317,675; 6750,685;    3,071;   -0,682
318,270; 6305,596;    6,889;    3,318
318,865; 6303,591;    2,435;    3,045
319,460; 6051,397;   -1,565;    0,591
320,055; 6142,149;   -2,565;   -1,227
320,650; 5862,001;   -1,838;   -0,591
321,244; 5839,993;    0,889;   -1,409
321,839; 6501,698;    0,980;   -0,227
322,434; 6331,771;   -0,111;   -1,591
323,029; 6093,744;   -0,474;    1,591
323,623; 5979,754;    0,798;    0,773
324,218; 5889,618;    2,707;    1,409
324,812; 5824,437;    0,889;    1,591
325,407; 5718,033;   -0,929;    2,045
326,002; 5683,557;    0,526;   -0,409
326,596; 5964,486;   -0,656;    1,318
327,191; 6125,350;   -0,383;   -1,045
327,785; 5858,486;   -0,747;   -0,227
328,379; 6139,564;   -0,383;    0,136
328,974; 5986,777;    1,798;   -3,955
329,568; 6319,383;    2,889;   -2,409
330,163; 6295,878;    2,435;    1,045
330,757; 6629,312;    0,253;    1,591
331,351; 6239,106;   -0,292;    0,682
331,945; 6598,063;   -0,383;    1,409
332,540; 6426,202;    1,617;   -0,591
333,134; 6611,018;    3,344;    0,773
333,728; 6846,352;    2,799;    0,318
334,322; 7246,404;    0,889;   -0,864
334,916; 6763,769;    0,344;    0,955
335,510; 7198,492;   -0,111;   -0,136
336,105; 7558,441;   -0,929;    1,591
336,699; 7373,218;   -1,292;    0,591
337,293; 7457,909;    1,071;    0,318
337,887; 7656,076;    0,071;    1,955
338,481; 7854,775;    2,980;    0,591
339,074; 8155,582;    2,071;    2,682
339,668; 8144,797;   -0,110;    1,227
340,262; 8553,327;    7,708;    3,227
340,856; 8203,788;    1,708;   -0,682
341,450; 7766,256;    0,708;    1,864
342,044; 8635,818;    1,799;    0,136
342,637; 8582,469;    1,162;   -2,136
343,231; 8527,307;   -1,474;    0,682
343,825; 8570,394;   -0,747;   -0,591
344,419; 8662,185;   -0,474;    0,500
345,012; 8634,807;    2,889;    4,045
345,606; 8734,472;   -0,656;    1,591
346,199; 8662,347;   -0,111;   -0,227
346,793; 8360,834;    2,525;    2,045
347,386; 8617,854;    0,889;   -1,136
347,980; 8676,714;   -0,838;   -0,045
348,573; 8578,055;   -1,748;    0,409
349,167; 8353,295;    6,161;    4,773
349,760; 8727,519;    2,252;    2,682
350,354; 8765,039;    1,616;    1,136
350,947; 8548,632;    2,798;    1,682
351,540; 8304,200;    0,616;   -1,409
352,134; 8251,551;   -1,111;    1,136
352,727; 8359,689;   -0,657;    1,136
353,320; 8184,881;    2,343;    0,591
353,913; 8082,853;   -1,929;    1,864
354,507; 8299,788;    0,434;   -1,227
355,100; 8340,212;    0,071;    0,864
355,693; 7575,296;    4,798;    2,409
356,286; 7625,546;    0,980;    2,773
356,879; 7990,166;   -0,475;    1,227
357,472; 7599,213;    0,980;    1,500
358,065; 7814,190;    3,161;    2,500
358,658; 7759,342;    0,798;    2,318
359,251; 7390,171;    0,252;   -0,591
359,844; 6899,084;    0,343;   -1,136
360,437; 7081,099;    0,252;    0,045
361,030; 7295,412;    0,525;   -0,682
361,623; 6890,033;    0,434;    0,318
362,215; 6910,752;    0,979;    2,045
362,808; 6796,692;   -2,293;   -1,682
363,401; 6919,960;    0,798;    0,136
363,994; 6685,701;    3,252;   -1,500
364,586; 6585,857;    0,888;   -1,500
365,179; 6769,070;   -0,203;   -1,136
365,772; 6286,476;   -0,930;    2,045
366,364; 6513,426;    1,524;   -3,227
366,957; 6699,555;    1,342;   -0,045
367,549; 6658,980;   -0,203;   -0,864
368,142; 6338,853;    0,978;   -1,500
368,734; 6504,721;    2,523;   -2,136
369,327; 6458,169;    2,341;   -0,500
369,919; 6371,242;   -1,659;    0,409
370,512; 6162,393;   -1,023;   -0,500
371,104; 5929,831;    2,704;    1,591
371,696; 6067,161;    1,703;   -0,955
372,289; 6122,535;    0,157;    1,136
372,881; 6260,290;    1,156;    1,318
373,473; 6150,907;    4,064;    1,136
374,066; 5961,201;    1,336;    0,500
374,658; 5834,493;    0,879;    1,136
375,250; 6086,840;   -1,668;   -1,409
375,842; 5953,949;   -0,124;   -0,045
376,434; 5824,928;   -2,762;   -0,409
377,026; 6358,571;   -1,855;   -2,500
377,618; 6228,393;    0,779;   -0,682
378,210; 6046,636;    3,141;   -1,955
378,802; 5866,339;    3,412;   -0,591
379,394; 5883,339;    3,411;    0,682
379,986; 6378,716;    1,138;   -0,955
380,578; 6449,996;    1,410;    0,773
381,170; 5867,068;    0,320;    0,045
381,762; 5815,272;   -0,224;    1,409
382,354; 5970,927;   -0,223;   -1,318
382,945; 6058,448;    0,870;    0,318
383,537; 6226,039;    1,144;   -1,955
384,129; 6223,956;    0,963;   -1,136
384,721; 6359,215;    0,418;    0,955
385,312; 6280,173;   -1,399;   -0,955
385,904; 6362,079;   -0,945;    1,591
386,496; 5795,179;    0,691;    1,045
387,087; 5932,140;    0,418;    2,500
387,679; 5921,538;   -0,401;    0,045
388,270; 6080,602;   -2,401;    2,045
388,862; 6186,080;   -0,401;   -0,318
389,453; 6001,029;    1,054;    1,045
390,045; 6269,178;    3,236;   -2,682
390,636; 6222,100;    0,144;   -0,591
391,227; 6077,546;    2,054;   -0,045
391,819; 6170,087;    0,781;    0,773
392,410; 6252,632;    0,600;    0,045
393,001; 6209,844;    1,600;   -1,591
393,593; 6420,680;    0,600;   -0,045
394,184; 6264,582;    0,873;   -0,409
394,775; 6152,801;    1,146;    2,136
395,366; 6394,040;    1,782;    0,773
395,957; 6356,492;   -2,400;    0,136
396,548; 6633,534;    1,054;    2,682
397,139; 6901,239;    2,236;    0,591
397,730; 6613,270;    0,873;    0,955
398,321; 6642,756;    0,509;    0,955
398,912; 6626,738;   -0,764;    0,136
399,503; 6788,487;   -1,945;   -1,409
400,094; 6286,782;   -1,582;    1,682
400,685; 6150,677;    3,600;    0,045
401,276; 6175,091;   -0,400;   -0,955
401,867; 6438,915;   -1,127;    0,773
402,458; 6529,230;    1,509;   -2,318
403,048; 6510,223;    0,146;    0,591
403,639; 6117,520;    1,509;    0,864
404,230; 6367,447;    0,691;    0,318
404,821; 6298,123;   -0,127;    0,045
405,411; 6363,702;   -0,763;   -2,591
406,002; 5953,629;    3,237;   -1,136
406,592; 5875,120;    2,691;    0,045
407,183; 6083,593;    0,328;   -1,500
407,774; 5907,404;    1,419;   -0,136
408,364; 6161,962;    2,600;    0,409
408,954; 5831,623;   -0,036;    1,227
409,545; 5837,244;    1,873;    1,045
410,135; 5348,932;   -1,581;    0,500
410,726; 5484,310;    0,783;    0,318
411,316; 5756,731;    2,237;    0,773
411,906; 5400,330;    0,146;   -0,409
412,497; 4939,446;   -0,490;   -0,045
413,087; 5389,611;    0,783;   -0,227
413,677; 5665,615;   -2,490;    3,864
414,267; 5455,653;   -1,035;    1,409
414,857; 5338,957;    0,419;    4,227
415,448; 5517,305;   -0,763;    0,500
416,038; 5194,998;   -2,945;   -0,591
416,628; 5070,327;    0,965;    0,409
417,218; 4691,003;   -1,762;    3,318
417,808; 4812,215;    0,965;   -0,409
418,398; 4989,888;   -1,035;    2,682
418,988; 4883,518;   -2,217;    0,591
419,578; 4949,886;    3,601;    1,409
420,168; 5148,885;    0,692;   -0,955
420,757; 4786,155;    0,964;   -1,500
421,347; 4409,994;    1,601;   -0,227
421,937; 4416,193;    3,329;    1,409
422,527; 4359,441;    2,602;   -0,773
423,116; 4175,006;    2,692;   -0,045
423,706; 4274,041;    2,965;    0,318
424,296; 4084,121;    1,601;    0,682
424,885; 4362,212;    1,510;   -3,045
425,475; 4445,471;    1,147;   -2,864
426,065; 4253,401;   -1,489;   -0,318
426,654; 3955,402;    0,329;   -0,318
427,244; 4054,432;    1,147;    1,409
427,833; 3630,487;    1,056;   -0,500
428,423; 3703,768;    0,147;    1,136
429,012; 4100,542;    2,420;   -1,136
429,601; 3732,555;    2,057;    0,136
430,191; 3699,909;    2,511;    4,318
430,780; 3322,928;   -1,671;   -0,409
431,369; 3405,105;    1,329;   -0,045
431,959; 3609,981;    1,693;    0,500
432,548; 3360,937;   -1,398;   -0,045
433,137; 3281,999;    0,329;   -1,318
433,726; 3500,226;    0,148;    0,500
434,315; 3134,603;    0,148;    2,409
434,905; 3169,566;    0,693;    1,409
435,494; 3131,405;    3,148;    0,955
436,083; 3106,492;    1,420;   -0,955
436,672; 2912,917;    1,148;    0,500
437,261; 2726,815;    0,512;   -1,955
437,850; 2932,005;   -1,125;    0,682
438,439; 2844,252;    2,239;    1,955
439,027; 2781,111;    3,421;    1,773
439,616; 2786,973;    2,239;    1,227
440,205; 2413,207;    0,057;   -2,136
440,794; 2211,362;   -0,306;   -0,045
441,383; 2134,094;    1,603;   -0,591
441,971; 1925,800;   -0,306;    0,591
442,560; 1833,591;    0,603;   -1,773
443,149; 1621,607;    3,060;   -1,318
443,737; 1668,920;    0,968;   -2,318
444,326; 1637,061;    0,331;    0,318
444,915; 1613,522;   -1,851;    0,864
445,503; 1610,739;    0,058;   -0,318
446,092; 1775,143;    7,876;    2,136
446,680; 1722,583;    1,876;    0,318
447,269; 1602,325;   -1,487;   -0,318
447,857; 1432,699;    2,240;   -1,773
448,445; 1343,040;    2,149;    1,318
449,034; 1275,950;    0,876;   -1,136
449,622; 1185,955;    1,240;    3,500
450,210; 1555,266;    3,149;    2,227
450,799; 1415,847;    2,604;   -0,591
451,387; 1221,374;    1,786;   -0,591
451,975; 1167,954;   -1,305;    0,864
452,563; 1282,376;    0,422;    2,318
453,151;  927,887;   -1,032;   -1,227
453,739;  964,701;   -1,577;    0,136
454,328; 1133,694;    0,604;   -2,136
454,916;  932,625;    1,150;   -0,136
455,504;  909,490;    3,513;    1,227
456,092;  759,001;    2,150;   -1,591
456,679;  638,439;    0,604;    0,682
457,267; 1282,723;    3,604;    1,045
457,855;  759,207;    3,241;    1,409
458,443;  478,056;   -0,304;    1,682
459,031;  778,616;    1,332;    2,409
459,619;  699,700;   -3,577;    2,864
460,206;  513,323;   -0,759;    2,045
460,794;  498,154;   -0,668;   -0,227
461,382;  593,157;    0,878;   -0,864
461,970;  521,093;    0,605;    1,864
462,557;  411,842;    0,878;   -0,682
463,145;  613,572;   -0,304;   -1,682
463,732;  932,735;    2,514;   -1,045
464,320;  578,799;    1,514;   -3,045
464,907;  773,448;    0,423;   -0,773
465,495;  634,479;    2,696;   -1,227
466,082;  499,724;    2,060;   -0,045
466,670;  498,290;    2,605;    1,227
467,257;  338,796;    0,060;    2,045
467,844;  504,146;    1,514;    0,045
468,432;  465,744;   -0,031;    3,500
469,019;  357,582;    1,606;   -1,773
469,606;  461,923;    0,969;    3,682
470,193;  496,620;    2,151;    0,227
470,780;  428,350;    0,333;    0,864
471,368;  308,746;   -1,212;   -0,773
471,955;  454,246;    1,060;   -0,682
472,542;  369,956;   -0,303;   -1,136
473,129;  183,062;   -0,485;    0,136
473,716;  189,722;    0,060;    0,591
474,303;  218,732;    1,333;   -0,864
474,890;  224,186;    2,333;   -0,500
475,477;  340,129;   -0,576;    0,409
476,064;  196,913;    0,697;   -1,591
476,650;  330,417;    2,152;    0,318
477,237;  213,599;    1,879;    0,955
477,824;  175,753;    3,879;    0,864
478,411;   63,096;    0,606;   -0,318
478,997;   43,577;    0,606;   -0,773
479,584;  -28,211;   -0,666;   -0,409
480,171;  188,637;    1,243;   -0,773
480,757;  252,534;   -0,848;    0,773
481,344;  110,524;    0,334;    0,409
481,931;   -2,459;   -0,393;    1,045
482,517;  142,459;    0,425;    0,318
483,104;  231,666;    1,334;    2,864
483,690;   79,045;    0,243;    0,045
484,276;   43,916;    0,698;    0,227
484,863;  268,032;    2,152;    1,136
485,449;   93,917;    0,152;    0,318
486,035;   49,242;   -0,666;   -0,136
486,622;  141,590;   -2,393;    0,045
487,208;   54,993;    1,334;    1,500
487,794;  -33,515;    0,971;    0,318
488,380;  -35,747;    0,698;   -1,409
488,967;  -26,275;   -1,120;   -0,409
489,553;   -8,779;   -1,029;   -1,409
490,139;   64,563;    0,971;    0,773
490,725;  -11,957;    0,789;   -0,227
491,311;   41,712;    1,516;    3,045
491,897;   23,455;   -0,665;    1,500
492,483;   26,437;    0,426;    1,227
493,069;  504,716;    5,426;    0,864
493,655;  190,572;    1,789;    0,682
494,241;   64,333;    1,517;   -0,955
494,826;   77,488;    0,335;   -1,045
495,412;  151,793;    0,335;   -0,682
495,998;   63,417;    0,971;   -0,318
496,584;  141,655;    2,244;    1,045
497,169;  161,498;    2,335;   -0,682
497,755;   94,558;    1,244;    1,227
498,341;  286,220;    2,153;    0,318
498,926;  466,360;    2,881;    1,955
499,512;  159,432;   -0,028;    2,955
500,097;  184,349;   -0,574;   -0,318
500,683;  246,924;   -0,028;    2,136
501,268;  212,148;    1,881;   -0,955
501,854;  275,814;   -0,119;    1,227
502,439;  290,048;   -0,573;   -1,773
503,024;  437,004;    1,608;    0,500
503,610;  552,930;    1,335;   -0,682
504,195;  474,837;    1,245;    1,955
504,780;  724,623;    2,335;    1,227
505,366;  974,229;    4,063;    2,864
505,951;  940,870;   -1,119;    1,045
506,536;  984,781;    1,427;   -3,682
507,121; 1186,206;    1,699;   -0,318
507,706; 1356,221;   -0,392;    1,045
508,291; 1542,421;   -2,937;    1,136
508,876; 1693,006;   -0,482;    2,591
509,461; 1870,445;    1,427;   -0,773
510,046; 2313,365;   -0,391;    0,318
510,631; 2647,824;   -0,119;   -0,773
511,216; 2834,954;   -0,664;   -0,500
511,801; 3499,400;   -0,755;    2,591
512,386; 3927,560;    0,972;    0,500
512,971; 4320,703;    0,427;    0,955
513,555; 4555,756;    1,154;   -1,500
514,140; 5483,096;    1,336;   -3,136
514,725; 5878,409;    1,791;   -1,136
515,309; 6391,833;    1,064;    0,318
515,894; 6558,978;   -0,300;   -2,227
516,479; 7337,029;    1,973;   -0,955
517,063; 7575,074;    0,882;    1,227
517,648; 8180,367;    0,155;   -1,136
518,232; 8216,376;   -1,300;   -1,409
518,817; 8963,627;    1,337;    1,682
519,401; 9578,837;    0,700;    0,591
519,985; 9453,342;    2,700;    1,136
520,570; 9722,557;   -0,118;   -1,955
521,154;10350,687;    0,064;    0,591
521,738;10809,012;    1,064;    2,409
522,323;11676,838;   -0,390;    1,682
522,907;11722,873;    2,428;   -0,136
523,491;11713,798;    1,155;    0,955
524,075;11925,140;    0,428;    0,591
524,659;12230,176;    0,973;    0,591
525,243;11912,228;    0,883;    0,409
525,827;12319,931;    0,883;   -0,045
526,411;13334,903;    1,155;   -0,136
526,995;13748,195;    0,337;    1,409
527,579;13477,929;    1,974;   -1,045
528,163;13860,861;    0,428;   -1,500
528,747;13967,108;    1,065;   -0,773
529,331;14368,660;    0,883;   -1,409
529,915;14714,267;    2,338;    0,955
530,499;14763,325;    0,247;    1,227
531,082;14487,646;    1,065;    1,591
531,666;14001,480;    0,520;    0,773
532,250;14801,904;    0,428;    2,682
532,833;15205,604;    0,610;    2,773
533,417;15167,737;    1,247;    0,864
534,001;15187,139;    0,429;   -0,318
534,584;15927,278;    1,974;    0,500
535,168;15775,995;    3,247;    1,409
535,751;15854,335;    4,520;    0,045
536,334;15365,927;    4,520;   -0,409
536,918;15999,943;    1,974;    1,591
537,501;16146,560;    1,520;    1,318
538,085;16185,232;    1,702;    1,045
538,668;16370,119;    0,883;    2,409
539,251;16730,189;    3,156;    3,773
539,834;16745,441;    0,156;    0,773
540,418;16729,161;    3,247;    4,318
541,001;16903,179;    2,702;    1,773
541,584;16902,296;    1,429;    2,227
542,167;16576,486;    0,702;    2,955
542,750;16749,019;    0,793;   -0,773
543,333;16371,610;    1,429;    2,136
543,916;17232,620;   -0,298;    2,500
544,499;17845,457;    2,520;    0,227
545,082;17832,623;    0,248;    3,591
545,665;18014,159;   -0,207;    1,500
546,248;18353,882;    0,520;   -0,318
546,830;18021,734;   -1,752;    1,955
547,413;18484,637;    0,157;   -0,773
547,996;19067,672;    0,157;    0,500
548,579;18800,363;   -0,843;    0,955
549,161;18608,164;    0,884;    2,682
549,744;18408,128;    0,612;    0,409
550,326;18933,684;    0,885;   -1,136
550,909;18642,269;    2,339;    0,591
551,492;19105,926;    0,521;    0,227
552,074;18909,796;   -0,024;   -1,318
552,657;19478,405;    2,430;    0,045
553,239;19230,158;   -3,024;   -0,773
553,821;19181,693;   -1,570;    1,045
554,404;18690,005;   -0,024;    1,136
554,986;19058,520;    2,248;    1,045
555,568;19667,910;    0,430;   -0,955
556,151;18804,706;    4,067;   -0,227
556,733;19042,586;   -1,388;   -0,864
557,315;19550,840;    4,703;    0,500
557,897;19327,060;    0,521;   -0,500
558,479;19498,012;    1,703;    1,318
559,061;19619,983;    1,067;   -0,864
559,643;19914,607;   -0,297;    0,045
560,225;20307,984;   -0,388;    2,864
560,807;20370,152;    0,340;    0,318
561,389;19865,242;   -1,206;    2,318
561,971;20641,890;   -0,660;    2,136
562,553;20460,838;    0,613;    1,591
563,135;20611,037;    1,249;    1,136
563,717;20172,272;    3,158;    1,136
564,298;20926,173;    3,976;   -0,045
564,880;20608,724;    0,340;   -1,409
565,462;20802,633;    1,977;    1,318
566,043;22018,224;   -0,933;    2,318
566,625;21526,583;    4,067;    1,227
567,207;21387,311;    0,704;    1,682
567,788;22558,427;   -0,114;    1,500
568,370;23492,523;   -1,841;   -0,500
568,951;23285,977;   -0,569;    0,227
569,533;24204,776;    0,977;   -0,500
570,114;24661,120;   -0,296;    0,682
570,695;25203,865;   -0,478;   -1,318
571,277;25760,471;   -0,205;   -1,682
571,858;26579,816;    2,704;   -1,136
572,439;27489,900;    0,795;   -1,045
573,021;27665,202;    0,432;   -2,773
573,602;28205,954;    1,795;    0,318
574,183;29173,261;   -0,114;    2,227
574,764;29364,032;    2,068;    0,409
575,345;29947,633;    0,250;   -0,136
575,926;30562,960;    2,704;    0,136
576,507;30598,312;    2,704;   -0,227
577,088;31749,280;    1,704;    1,682
577,669;31794,800;    1,704;    1,955
578,250;32548,443;   -0,750;   -1,045
578,831;33279,130;   -0,841;   -2,227
579,412;33542,778;   -1,205;    0,955
579,993;34487,761;    1,432;    0,227
580,573;34849,162;   -0,023;   -0,955
581,154;33759,110;    1,613;   -0,591
581,735;34655,854;    0,341;    0,773
582,315;34143,672;    0,523;    2,136
582,896;34502,214;   -1,750;    1,227
583,477;33917,972;    0,614;    1,227
584,057;34095,184;    1,159;    0,955
584,638;34383,307;   -2,750;    2,318
585,218;34348,083;    2,886;    2,682
585,799;34538,983;    1,977;   -0,227
586,379;34496,462;    1,250;    1,591
586,959;33303,870;    2,613;    0,318
587,540;32568,109;    0,432;    2,227
588,120;31999,466;   -1,113;   -0,045
588,700;30905,835;    2,977;    2,136
589,281;31214,825;    1,250;   -0,955
589,861;31170,161;   -0,296;   -1,682
590,441;30988,836;   -1,477;   -2,682
591,021;29873,120;    1,432;   -2,591
591,601;30172,458;    0,431;    0,500
592,181;30139,834;   -1,296;   -0,773
592,761;29369,871;    2,250;    1,409
593,341;29298,106;    1,522;    0,045
593,921;29271,248;   -0,569;    1,591
594,501;29123,175;    1,250;    1,318
595,081;29004,634;    0,522;   -0,318
595,661;29307,931;    1,068;    0,955
596,240;29809,763;   -1,023;    0,136
596,820;29400,335;    2,613;    1,955
597,400;29662,402;    1,977;    0,773
597,980;29902,391;   -0,750;    1,045
598,559;29942,659;    0,341;   -0,227
599,139;29613,781;   -0,750;   -1,227
599,718;29499,690;    0,795;   -0,409
600,298;29782,964;   -2,387;    0,682
600,877;29976,042;    4,795;    1,409
601,457;30269,978;    0,340;    1,136
602,036;30183,999;    1,795;    2,045
602,616;30416,749;    2,250;    1,682
603,195;30708,791;    0,431;    3,500
603,774;30244,335;   -0,296;    2,045
604,354;30145,858;    2,522;   -0,500
604,933;29648,443;    0,250;    1,864
605,512;29746,296;    2,340;    0,591
606,091;29747,359;    1,886;    3,773
606,671;30612,223;    0,249;    0,773
607,250;29649,143;    1,431;    3,136
607,829;29877,844;    1,158;    3,227
608,408;29730,135;    4,613;    2,591
608,987;28716,977;    2,704;    3,409
609,566;29049,754;    0,341;   -2,500
610,145;29107,329;    2,885;    0,682
610,723;29564,472;    1,613;    6,864
611,302;28773,749;    1,067;    1,682
611,881;28288,063;    5,158;   11,227
612,460;29112,046;    0,795;    3,955
613,039;29581,249;    1,703;    2,045
613,617;28235,805;    0,886;    4,773
614,196;28406,624;    1,613;    1,227
614,775;28772,752;    1,249;    2,409
615,353;28766,119;   -1,660;    0,864
615,932;28366,647;    0,249;    2,409
616,510;28957,111;    0,158;    0,591
617,089;28466,722;    8,794;   17,591
617,667;28254,743;    4,885;    6,136
618,246;28053,169;   -1,115;    1,318
618,824;28260,430;    1,612;   -0,955
619,402;27819,799;    0,431;   -1,773
619,981;28305,369;    1,067;   -1,045
620,559;28148,563;    0,794;    1,682
621,137;27659,653;    3,067;    1,864
621,715;27651,342;    3,703;   -0,682
622,293;27582,252;    1,885;   -0,773
622,871;28101,658;    0,340;    0,500
623,450;27618,995;    0,430;   -0,864
624,028;27526,409;   -0,388;   -0,955
624,606;27130,839;    2,339;    1,682
625,183;27542,281;   -0,661;   -1,136
625,761;27146,094;    1,885;    1,136
626,339;27393,651;    2,339;    2,591
626,917;27791,714;    0,339;   -0,045
627,495;27879,216;    2,794;    1,318
628,073;27348,263;    5,248;    2,864
628,650;27021,717;    3,067;    2,136
629,228;27451,189;    1,248;    4,409
629,806;26745,545;   -0,024;    1,136
630,383;27028,063;    0,066;   -0,318
630,961;26814,122;   -2,206;   -0,955
631,539;26556,839;   -2,479;    0,227
632,116;25759,759;   12,703;   15,409
632,694;26384,346;    4,885;    6,500
633,271;26677,578;    1,975;    2,682
633,848;26644,831;    1,430;    2,045
634,426;26704,222;    1,521;    1,773
635,003;25823,643;   -0,207;   -0,409
635,580;26111,895;    1,884;    3,682
636,158;26657,006;    3,793;    1,227
636,735;26636,974;    3,339;   -0,500
637,312;26773,643;    0,521;   -0,682
637,889;26848,256;    2,248;   -0,682
638,466;26341,410;    0,066;   -0,409
639,043;26344,203;    1,702;   -1,136
639,620;26666,348;    0,611;   -0,955
640,197;26994,084;    1,612;    1,682
640,774;27208,141;    1,430;    1,136
641,351;27590,109;    0,612;    1,136
641,928;26945,257;    2,794;    1,409
642,505;26575,861;    0,794;   -0,500
643,082;26681,282;    1,885;    1,227
643,658;25659,613;    1,157;    1,500
644,235;26414,853;   -2,479;    2,500
644,812;26689,184;    1,794;    0,773
645,388;26489,514;    1,612;    1,409
645,965;26556,754;    1,521;    1,682
646,542;26667,994;    3,430;   -0,227
647,118;26611,506;    3,703;   -0,955
647,695;26967,655;    0,339;    1,136
648,271;26821,531;   -2,115;    0,500
648,848;27134,771;    0,248;    2,227
649,424;27019,011;    0,976;    1,318
650,000;26745,978;   -0,388;   -1,045
650,577;26557,218;    0,158;   -0,955
651,153;27027,730;   -1,115;    0,955
651,729;27970,516;    0,521;    0,864
652,305;28241,392;    1,339;    2,773
652,881;32851,268;   -1,297;    1,136
653,458;40015,599;    0,249;    0,227
654,034;44127,747;    0,703;    1,591
654,610;45693,714;    0,339;    0,773
655,186;47050,136;    1,612;    3,045
655,762;46791,012;   -1,842;    0,409
656,338;46862,525;    0,703;    0,136
656,913;47941,310;   -0,297;    0,409
657,489;47186,004;    0,249;   -0,318
658,065;47203,153;    0,794;   -1,591
658,641;47769,029;    2,158;   -0,864
659,217;46955,178;    2,067;    0,409
659,792;46317,418;   -1,751;   -0,409
660,368;46627,385;   -0,388;   -0,682
660,944;46301,625;    1,794;    1,227
661,519;41582,955;    0,522;    0,409
662,095;35199,195;   -0,206;    0,591
662,670;30235,344;   -0,206;   -0,136
663,246;28999,857;   -0,660;   -0,409
663,821;28260,096;    0,431;    1,682
664,396;27706,609;    0,613;    1,864
664,972;28002,303;   -0,660;   -0,500
665,547;28304,998;    3,794;    0,136
666,122;28324,146;    1,340;    0,318
666,698;28625,204;    2,431;    0,318
667,273;27911,171;    0,885;    0,136
667,848;28805,866;    0,340;    1,500
668,423;28560,378;    1,795;    2,318
668,998;29102,345;    0,976;   -0,682
669,573;29600,131;    2,067;   -1,500
670,148;29447,734;    1,885;   -0,682
670,723;29308,610;   -0,024;    0,318
671,298;29746,759;   -1,296;    1,045
671,873;29881,817;   -0,296;   -0,136
672,448;29798,966;    1,704;    0,136
673,023;30142,297;    0,249;   -0,227
673,597;30438,991;    2,704;    2,318
674,172;30187,140;    2,431;    0,318
674,747;29707,470;   -0,205;   -1,045
675,321;29545,438;   -0,933;    3,318
675,896;29080,768;    2,158;    1,045
676,471;30094,463;    2,522;    1,591
677,045;29864,157;   -0,296;    0,682
677,620;29900,033;    2,158;    1,136
678,194;30258,091;    0,249;    1,136
678,769;29788,513;    0,886;   -0,318
679,343;29953,661;   -0,023;    1,773
679,917;29818,901;    0,340;    1,955
680,492;29980,686;    0,249;    3,227
681,066;30109,290;    0,613;    0,409
681,640;30168,621;    1,795;   -0,318
682,214;30934,224;    2,340;    0,500
682,788;30499,373;    0,613;   -0,773
683,363;30426,794;    1,977;    1,682
683,937;30111,216;    0,886;   -0,318
684,511;30900,638;   -1,023;   -0,591
685,085;30598,423;   -1,478;    0,318
685,659;30359,026;    1,431;    0,864
686,232;30566,266;    1,159;   -0,318
686,806;30317,051;    2,159;    0,409
687,380;30997,746;   -1,932;    0,591
687,954;31251,713;    2,432;    1,136
688,528;30911,589;    2,613;    1,955
689,101;31700,556;    0,432;    1,045
689,675;31307,250;    0,886;   -0,136
690,249;30640,126;    3,432;    0,409
690,822;30936,548;    1,159;    0,318
691,396;31026,424;    2,068;    1,227
691,969;30473,573;    2,523;    0,136
692,543;31012,086;   -0,568;   -1,955
693,116;30581,053;   -0,659;   -1,409
693,690;30402,565;   -0,296;    0,500
694,263;30991,987;    2,341;    2,955
694,836;31035,681;    2,795;    3,591
695,410;29644,284;    1,159;    1,773
695,983;30158,161;    1,614;    0,591
696,556;30097,128;   -0,750;   -1,045
697,129;30498,095;   -1,114;    1,409
697,703;30133,153;    1,341;    1,955
698,276;30129,483;    1,705;   -0,773
698,849;29891,541;   -1,023;    1,409
699,422;30289,963;    1,250;    0,591
699,995;29967,839;   -0,659;    0,136
700,568;30519,624;   -0,204;    3,045
701,140;30466,682;   -1,841;    1,682
701,713;30241,286;    0,341;    2,409
702,286;29965,889;    0,796;    0,864
702,859;29813,038;    0,614;   -0,591
703,432;28942,187;   -0,841;    0,682
704,004;29484,063;    1,978;    0,318
704,577;29391,485;    1,068;    0,136
705,150;29916,088;    0,887;    2,500
705,722;29712,782;    1,523;   -3,227
706,295;29474,295;    1,432;   -0,591
706,867;29263,262;    0,250;    1,955
707,440;29488,320;   -0,113;   -0,409
708,012;29764,378;   -0,022;    0,591
708,584;29682,163;    2,705;    0,227
709,157;29980,857;    1,160;   -0,591
709,729;29667,188;    1,069;    2,045
710,301;30497,701;   -1,204;    0,045
710,874;30522,122;    0,341;   -0,227
711,446;29375,544;   -0,295;    0,864
712,018;29299,693;   -3,022;    0,500
712,590;29011,932;   -0,204;    1,682
713,162;29519,990;   -0,477;    1,318
713,734;29808,503;    1,796;   -2,045
714,306;29650,743;    0,342;   -0,409
714,878;28351,892;   -0,295;    0,864
715,450;29179,768;   -0,113;    0,864
716,022;29514,371;    2,433;    1,318
716,593;29613,702;    0,978;    0,591
717,165;29533,578;    1,796;   -1,227
717,737;29232,909;    0,796;    0,409
718,309;28899,239;    1,160;   -0,045
718,880;28863,570;   -1,295;   -1,409
719,452;29121,719;    0,887;   -1,591
720,024;28654,504;    1,705;   -0,591
720,595;29165,744;    2,978;    0,955
721,167;28682,256;    1,160;   -2,045
721,738;28185,405;    2,069;   -1,045
722,309;28113,009;    1,251;   -1,227
722,881;27898,067;    2,705;    0,773
723,452;28612,579;    1,251;    2,864
724,023;28813,637;    1,524;    2,682
724,595;28572,604;    2,342;    0,682
725,166;28320,208;    1,524;   -0,409
725,737;27894,447;    1,887;    0,227
726,308;28027,778;    0,797;    0,318
726,879;28478,745;    1,069;    1,227
727,450;28301,349;   -2,022;   -0,045
728,021;28312,588;    1,069;    0,682
728,592;28146,283;    1,160;    0,500
729,163;28455,250;    1,433;   -0,136
729,734;28397,308;    2,160;   -0,227
730,305;28740,729;    0,615;    0,136
730,876;29151,605;    0,888;    2,955
731,447;28822,482;    0,797;    2,682
732,017;28910,267;   -0,840;    1,864
732,588;28419,416;   -0,021;    1,227
733,159;28591,110;    3,615;   -1,045
733,729;28379,168;    1,251;    0,409
734,300;27615,135;    0,160;    0,864
734,870;28092,648;   -1,385;    0,591
735,441;28671,160;    0,888;   -0,591
736,011;28397,854;    1,070;   -1,591
736,582;28332,458;    1,251;    0,045
737,152;27789,334;    0,979;   -2,045
737,722;28259,483;    1,070;   -0,682
738,293;27994,723;   -2,021;    1,318
738,863;27854,962;    1,797;    2,318
739,433;27660,293;    4,524;    0,318
740,003;28288,533;    1,524;   -0,682
740,573;27746,682;    2,252;   -1,591
741,143;27662,376;    3,615;    0,318
741,713;28375,434;    0,252;   -0,500
742,283;28061,128;    1,706;    1,591
742,853;27853,095;    0,524;    1,591
743,423;27329,881;    0,161;    0,045
743,993;27444,211;    1,070;    1,500
744,563;26791,088;    2,524;   -0,864
745,133;26800,509;   -0,112;   -0,864
745,702;27505,113;    2,797;    1,773
746,272;26667,080;    0,434;    0,591
746,842;26436,774;   -0,748;   -0,591
747,411;26887,377;   -0,839;   -0,318
747,981;27067,708;   -0,930;    0,500
748,551;27077,221;   -0,021;   -1,045
749,120;26951,188;   -0,112;   -0,227
749,690;27309,246;    2,161;    2,409
750,259;27610,758;    0,979;    2,955
750,828;27539,089;    4,070;   -1,955
751,398;27784,601;   -0,112;   -0,045
751,967;27298,023;    2,888;    0,409
752,536;27465,354;    1,161;   -0,227
753,105;27942,684;   -1,384;    0,227
753,675;27751,651;   -0,112;    1,773
754,244;27711,073;    0,888;    3,591
754,813;27732,767;    0,979;    1,227
755,382;27314,916;    0,798;    0,955
755,951;27869,338;   -0,112;    3,682
756,520;27391,032;    2,525;    1,864
757,089;27971,908;    1,888;    0,500
757,658;28039,784;    2,434;    1,227
758,227;28009,933;   -1,111;    0,318
758,795;28401,446;   -1,021;    1,136
759,364;28666,049;    0,525;   -0,591
759,933;27646,380;    1,343;   -0,045
760,501;27193,165;    0,252;   -1,318
761,070;27603,041;   -0,293;   -1,409
761,639;28363,463;    1,434;    1,318
762,207;27624,248;    0,889;   -0,955
762,776;27594,488;    2,889;    0,864
763,344;27547,364;    0,071;    0,591
763,913;26648,786;    1,616;    1,409
764,481;27413,389;    1,980;   -0,136
765,049;27209,083;    0,616;    1,409
765,618;27083,414;    1,434;    0,318
766,186;27192,472;    2,434;    0,136
766,754;27337,439;    1,798;    1,864
767,322;26273,224;    1,162;    0,409
767,890;26335,100;    0,525;   -1,773
768,459;26813,704;    2,616;   -0,318
769,027;26962,580;    2,525;    3,409
769,595;25932,547;    2,616;    2,591
770,163;26283,969;    3,344;    2,955
770,730;26011,663;    2,525;   -0,136
771,298;25879,357;    1,162;   -1,409
771,866;25971,143;    0,253;    4,955
772,434;26276,019;    1,162;   -1,864
773,002;26470,077;    2,616;    0,682
773,569;26102,316;    1,071;    1,682
774,137;25855,738;    0,889;   -0,045
774,705;26679,796;   -0,747;   -0,136
775,272;26136,945;    0,253;    0,682
775,840;25996,003;   -0,111;    2,682
776,407;25470,424;   -0,293;    1,955
776,975;25035,573;    1,162;    0,318
777,542;26101,359;    2,162;   -0,045
778,110;25943,598;    0,707;   -0,045
778,677;25560,202;    1,071;   -0,864
779,244;25354,987;   -1,020;    1,045
779,812;25451,409;    0,980;    0,864
780,379;25268,648;    2,435;    1,136
780,946;25519,615;    2,617;   -0,773
781,513;25856,946;   -0,565;    0,318
782,080;25221,459;    1,253;    2,864
782,647;25978,789;    1,708;    3,045
783,214;25540,120;   -0,201;    3,864
783,781;25136,814;    1,708;   -0,682
784,348;25076,145;    0,253;    1,500
784,915;25523,930;   -1,474;    0,318
785,482;25198,443;    2,708;    2,591
786,049;25654,228;    1,071;   -0,591
786,615;25734,468;    1,708;   -0,955
787,182;25515,162;   -3,201;   -0,682
787,749;25212,129;   -2,201;    1,409
788,315;24481,460;    0,253;   -0,409
788,882;24801,427;    0,981;   -1,227
789,448;25507,667;    1,435;   -0,955
790,015;25540,361;    1,799;    3,227
790,581;25053,964;    0,708;    0,227
791,148;24927,659;    1,344;    1,045
791,714;25186,717;   -1,019;    3,136
792,280;24910,593;    3,708;    1,591
792,847;24446,833;   -0,928;    2,500
793,413;25018,527;   -0,110;   -0,318
793,979;24528,949;    1,526;   -1,318
794,545;24604,734;    2,981;    2,682
795,111;23991,974;    2,435;    1,318
795,678;24205,577;    3,526;   -1,682
796,244;23841,908;    2,799;    0,136
796,810;24455,238;    0,799;    0,773
797,375;24093,205;   -0,292;   -2,136
797,941;24115,263;   -1,110;    0,591
798,507;24334,776;    0,254;   -0,955
799,073;23850,379;    2,708;    0,591
799,639;23936,437;    1,435;    3,136
800,205;23917,859;   -1,565;    2,682
800,770;23468,735;    1,345;    1,773
801,336;23524,793;    2,981;   -0,955
801,901;23166,487;    6,072;    3,136
802,467;23741,363;    0,526;    2,045
803,033;23047,512;   -0,019;    0,864
803,598;23272,298;    1,072;   -1,045
804,163;23325,083;    0,708;   -0,318
804,729;23270,504;   -0,110;    1,136
805,294;23681,381;    1,072;    2,227
805,859;23466,893;    0,890;   -0,409
806,425;22903,315;    3,890;    2,682
806,990;22577,918;    1,890;    4,318
807,555;23097,703;   -0,110;    2,591
808,120;23017,761;   -1,292;   -0,409
808,685;23034,819;    1,072;   -2,500
809,250;22507,423;    2,072;   -0,500
809,815;22821,299;   -0,201;    0,682
810,380;23358,175;    0,981;    1,591
810,945;23868,142;    2,890;    2,045
811,510;23109,018;   -0,200;    1,591
812,075;22797,622;    2,800;   -1,409
812,640;22852,316;    3,709;    1,409
813,204;22897,738;    2,163;   -0,227
813,769;23380,250;    0,254;   -0,045
814,334;22758,035;    0,527;    0,864
814,898;22829,275;    1,981;    0,591
815,463;22669,151;    0,981;   -0,773
816,027;22664,027;    1,345;   -2,318
816,592;22752,722;    2,163;   -2,045
817,156;22181,507;   -2,200;    1,136
817,721;22031,474;    0,982;    2,318
818,285;21954,350;    0,618;    1,500
818,849;22658,499;   -0,018;    1,682
819,414;22546,284;    0,073;    2,955
819,978;22104,069;   -0,291;    1,773
820,542;22713,491;    2,891;    0,500
821,106;22438,094;    2,800;    0,682
821,670;22510,425;    2,709;    2,591
822,234;22237,938;    1,073;    1,409
822,798;21611,450;   -0,836;    0,500
823,362;21595,690;    1,527;    4,227
823,926;20860,930;   -0,018;    1,136
824,490;21120,170;    3,527;   -0,682
825,054;21509,955;    2,527;   -1,136
825,618;21160,467;   -1,200;   -1,500
826,181;21117,343;    0,982;   -1,318
826,745;20977,674;   -0,745;   -1,045
827,309;21358,005;    2,255;    1,318
827,872;20767,881;    0,527;    0,955
828,436;21762,666;    1,982;   -0,773
828,999;21866,633;    2,436;    1,227
829,563;20649,237;   -0,654;    1,136
830,126;20450,567;   -0,018;   -0,591
830,690;20428,989;    0,709;    2,864
831,253;19952,865;   -0,473;    2,227
831,816;20119,105;   -0,018;    0,500
832,380;20016,163;    1,164;    0,864
832,943;20203,130;    3,073;   -0,500
833,506;19749,279;    0,255;   -1,227
834,069;20546,609;    2,164;   -0,955
834,632;20630,304;   -2,200;    1,318
835,195;20521,634;    1,346;    0,955
835,758;19707,147;    0,709;    1,955
836,321;19533,023;    1,073;   -1,045
836,884;19626,808;   -1,291;   -0,955
837,447;19658,048;    0,528;    1,773
838,010;19903,015;    1,800;    3,227
838,573;20250,164;    0,528;    0,773
839,135;20158,586;   -0,109;   -0,955
839,698;19583,371;    2,528;    0,409
840,261;19091,702;    0,255;   -0,227
840,823;18990,941;   -0,927;    0,864
841,386;19250,545;   -0,018;   -2,409
841,948;19102,603;    0,255;    1,773
842,511;18850,479;    0,255;    1,682
843,073;19015,991;    2,982;    0,227
843,636;18835,504;    0,619;   -0,227
844,198;18717,289;    1,255;    0,591
844,760;18893,893;    0,619;    1,955
845,322;18520,860;    0,164;    1,136
845,885;18909,645;   -0,290;    0,591
846,447;19347,703;    0,710;    0,227
847,009;18922,215;    3,983;   -0,682
847,571;19273,001;    1,346;   -2,045
848,133;19315,877;   -0,199;   -1,864
848,695;19117,571;    2,346;    1,409
849,257;18689,629;    1,346;   -1,682
849,819;18856,142;    2,983;   -0,409
850,381;18886,745;    1,801;   -0,864
850,942;19309,985;    1,892;   -0,591
851,504;19208,225;    0,983;    0,227
852,066;19228,282;    1,619;   -1,591
852,628;18785,613;    0,165;    1,955
853,189;18355,126;    0,256;    2,682
853,751;18503,911;   -0,654;    1,409
854,312;18291,151;    1,256;   -1,682
854,874;18839,663;   -0,108;   -0,773
855,435;19321,448;    0,528;   -1,682
855,997;19460,143;    3,983;   -0,136
856,558;18748,019;    0,801;    1,773
857,119;18906,895;   -0,744;    2,864
857,681;18543,862;   -0,108;    0,318
858,242;18552,829;    1,347;   -2,136
858,803;19047,705;    1,074;   -0,773
859,364;19595,036;    0,892;   -4,773
859,925;18916,003;   -0,290;   -0,955
860,486;18860,697;    0,529;   -0,955
861,047;18584,846;    0,165;   -1,227
861,608;18359,813;    0,165;   -0,773
862,169;18519,780;   -0,562;   -0,045
862,730;18291,566;   -0,290;    1,409
863,291;18492,714;    0,438;   -0,500
863,852;18797,682;   -0,926;    1,955
864,412;18273,012;   -1,835;   -0,864
864,973;16832,525;    1,892;    0,500
865,534;16722,855;    2,074;    0,227
866,094;18237,095;    2,620;    0,227
866,655;17898,880;    4,711;    3,318
867,215;18160,575;    0,074;    0,136
867,776;18052,178;   -1,199;   -0,136
868,336;18146,782;    1,529;    0,136
868,897;17540,021;    3,438;    1,682
869,457;17322,625;    3,256;    0,318
870,017;17537,137;    2,438;   -1,227
870,578;18087,559;    1,893;    0,773
871,138;17707,253;    2,620;   -0,955
871,698;17240,402;   -0,562;   -1,318
872,258;17096,278;    0,711;   -2,864
872,818;17499,154;    2,347;    0,045
873,378;17483,394;   -2,198;    1,045
873,938;17039,270;    4,984;    0,500
874,498;17343,146;    1,256;   -1,955
875,058;17218,659;    4,347;    1,773
875,618;17041,081;    1,438;   -2,682
876,177;17053,593;   -0,471;    0,136
876,737;16604,106;   -0,289;    1,955
877,297;16592,618;    2,711;    1,955
877,856;16607,858;    2,529;    0,318
878,416;16553,189;    2,438;   -0,136
878,976;16816,519;    3,438;    0,409
879,535;17023,850;    4,529;    3,136
880,095;16720,908;    1,347;    0,045
880,654;16858,966;    0,347;    1,318
881,213;16950,206;    2,347;    1,500
881,773;16586,900;    1,984;    2,682
882,332;16926,776;    6,075;    5,136
882,891;16796,925;    0,711;    2,136
883,451;17206,619;   -2,016;    1,682
884,010;16693,859;   -1,107;   -0,409
884,569;16798,826;   -2,289;   -0,045
885,128;16903,884;   -0,743;   -1,864
885,687;16957,397;   -0,743;    0,682
886,246;16675,273;    2,620;    2,136
886,805;16440,967;    1,620;    2,045
887,364;16748,661;    1,166;   -0,500
887,922;17091,538;   -0,016;    0,045
888,481;16601,232;    1,530;    0,591
889,040;16897,926;    3,711;    2,136
889,599;17585,166;    2,166;    1,409
890,157;17671,315;    2,166;    2,409
890,716;17355,918;    2,166;    0,227
891,274;17103,613;    0,075;   -1,136
891,833;17505,580;    1,166;    0,864
892,391;17396,547;    1,802;    0,500
892,950;17473,150;    0,166;   -0,773
893,508;17825,117;    0,984;   -0,409
894,067;17177,084;   -0,379;    0,136
894,625;17098,779;   -1,016;   -1,500
895,183;17292,746;   -0,198;   -0,682
895,741;17247,895;    2,257;   -1,773
896,299;17060,862;    1,621;   -2,409
896,858;17233,647;    1,530;   -1,591
897,416;17355,705;    0,166;   -1,318
897,974;17135,217;   -2,197;    0,318
898,532;17244,275;    6,530;    2,682
899,089;17157,333;    0,621;   -0,682
899,647;17234,300;    0,530;    1,318
900,205;16934,813;    0,257;    1,045
900,763;17140,234;    2,166;    0,227
901,321;17151,201;    3,530;   -1,409
901,878;16540,441;    3,257;   -0,773
902,436;16406,590;    0,257;    1,318
902,994;16829,103;    6,712;    3,682
903,551;16253,706;    1,439;    0,409
904,109;16644,037;    1,530;   -1,409
904,666;16292,731;    1,439;    1,045
905,224;16099,971;    3,894;   -0,409
905,781;15781,847;   -0,470;   -0,318
906,338;15860,087;    0,167;    1,045
906,895;15819,872;    1,894;    2,045
907,453;15707,566;    2,348;    1,136
908,010;15763,533;    3,348;    0,409
908,567;15404,955;   -0,561;    0,591
909,124;14956,922;    2,439;   -1,500
909,681;15035,435;   -1,288;    0,682
910,238;15158,402;   -0,106;   -1,318
910,795;15453,823;   -1,561;   -1,136
911,352;15123,096;   -0,379;   -2,682
911,909;14527,732;    2,803;   -0,864
912,466;15005,551;    1,985;    1,500
913,022;14489,005;   -0,924;    0,500
913,579;14890,005;   -0,470;    2,045
914,136;14572,460;   -2,561;    0,955
914,692;14917,460;    1,530;   -1,227
915,249;14500,278;    0,530;    0,409
915,806;14714,551;    1,803;    1,955
916,362;14466,914;    0,894;    1,864
916,918;14005,187;    2,439;    1,045
917,475;13992,641;    1,621;    0,955
918,031;14121,914;    0,076;   -0,045
918,587;13545,460;    0,621;   -0,318
919,144;13742,823;   -0,379;    0,227
919,700;14074,551;    0,167;    0,773
920,256;13603,914;    0,439;    0,045
920,812;13230,732;    1,439;   -1,045
921,368;13256,187;    1,348;   -1,045
921,924;12936,369;    0,439;   -0,136
922,480;12478,914;    0,076;    1,227
923,036;13073,278;   -0,652;    1,955
923,592;13027,551;    0,621;    0,318
924,148;12920,551;    1,894;   -0,955
924,704;12283,369;    0,258;   -0,409
925,259;12558,460;   -0,561;    0,591
925,815;12302,732;    3,803;    0,500
926,371;11833,005;    3,530;    1,409
926,926;11740,460;    1,621;    0,591
927,482;11370,005;    1,621;    0,773
928,037;11261,369;   -0,833;    2,045
928,593;11567,732;    0,258;    1,045
929,148;11318,005;    1,167;   -1,500
929,704;10880,005;    2,439;   -0,500
930,259;11062,551;    0,894;   -0,136
930,814;10161,914;    1,803;    1,955
931,369; 9856,278;    0,258;   -0,773
931,925; 9748,005;   -1,924;    0,136
932,480; 9598,187;    3,076;   -2,591
933,035; 9478,914;    3,985;   -0,318
933,590; 9248,914;   -1,742;   -1,773
934,145; 8918,005;   -1,288;   -0,318
934,700; 9265,914;    0,348;   -0,591
935,255; 9060,732;    4,803;    0,045
935,809; 8307,460;    6,258;    0,864
936,364; 7462,914;    2,167;   -0,136
936,919; 7430,096;    2,348;   -1,773
937,474; 7325,732;    1,348;    0,136
938,028; 7099,914;    3,076;    1,136
938,583; 6524,732;    6,348;    4,682
939,138; 6844,914;    0,167;    2,136
939,692; 6312,732;   -1,015;   -1,136
940,247; 5981,551;    1,167;   -1,045
940,801; 5540,823;    0,621;    0,227
941,355; 5434,460;    0,439;    2,591
941,910; 5113,551;    0,712;   -2,136
942,464; 5215,732;    2,712;   -0,318
943,018; 4993,460;    3,258;   -0,227
943,572; 4936,278;    2,803;   -0,682
944,126; 4334,641;   -0,924;   -0,409
944,681; 4207,369;    0,712;    0,227
945,235; 4225,369;    2,167;   -0,591
945,789; 4172,096;    1,258;   -1,864
946,342; 4250,369;   -0,561;   -0,591
946,896; 4062,641;    0,348;    0,955
947,450; 3824,278;   -0,561;   -0,227
948,004; 4035,823;    1,076;   -0,045
948,558; 4039,005;    1,258;   -0,864
949,111; 3956,278;   -1,197;   -0,318
949,665; 3983,187;   -0,106;   -0,682
950,219; 3857,278;    0,621;   -1,045
950,772; 3941,732;    0,258;    1,864
951,326; 3859,369;   -1,106;   -0,955
951,879; 3952,187;    1,076;   -2,318
952,433; 3984,823;    1,348;    2,227
952,986; 3812,096;    0,348;    0,682
953,539; 3734,278;    1,530;    0,591
954,093; 3676,732;    0,985;   -1,318
954,646; 3828,460;   -0,288;    1,318
955,199; 3649,096;    1,258;   -0,500
955,752; 3524,914;    1,985;    1,773
956,305; 3479,369;    0,894;    2,955
956,858; 3629,914;    0,621;   -0,318
957,411; 3831,096;    3,621;    2,136
957,964; 3652,278;    2,076;    2,136
958,517; 3621,278;    0,985;    3,136
959,070; 3447,369;   -1,197;    1,955
959,623; 3537,096;    1,076;    1,500
960,176; 3313,823;    0,712;    2,045
960,728; 3288,823;    1,712;    0,773
961,281; 3349,823;    2,258;    0,500
961,834; 3367,641;   -0,833;    0,864
962,386; 3289,005;    1,258;    1,045
962,939; 3207,914;    3,439;   -0,318
963,491; 3362,732;    2,621;    1,136
964,043; 3224,823;    0,076;    2,409
964,596; 3357,187;    1,712;    2,227
965,148; 3188,278;   -0,379;    1,773
965,700; 3132,187;   -0,015;   -0,227
966,253; 3295,460;   -0,833;    0,318
966,805; 3099,914;    1,894;    0,773
967,357; 3157,823;    0,439;   -1,500
967,909; 3105,369;    1,167;   -1,227
968,461; 3216,187;    0,894;    3,136
969,013; 3171,460;   -1,561;   -0,864
969,565; 3238,278;    1,803;   -1,136
970,117; 3289,551;    3,803;    1,045
970,669; 3131,369;    3,258;   -0,136
971,220; 2994,096;    2,167;   -1,500
971,772; 2925,914;    1,348;   -0,318
972,324; 3034,369;   -1,197;   -0,500
972,876; 2994,096;    0,167;   -0,045
973,427; 3101,914;   -1,197;   -1,045
973,979; 3084,278;    0,076;   -2,500
974,530; 3133,823;    0,803;    1,318
975,082; 3135,005;    2,167;    1,682
975,633; 3014,278;    2,894;    1,682
976,184; 3180,278;    2,076;    0,773
976,736; 2963,641;    0,348;    0,227
977,287; 2736,914;    0,258;   -0,500
977,838; 2942,460;   -0,924;   -0,318
978,389; 3000,369;    0,803;   -0,500
978,940; 2864,369;    1,258;   -0,409
979,491; 2879,732;    2,258;   -0,500
980,042; 2844,005;   -0,652;    3,045
980,593; 2914,278;    1,894;    0,227
981,144; 2958,096;    3,530;   -0,500
981,695; 2912,914;   -0,470;    1,500
982,246; 2896,823;   -1,833;    1,045
982,797; 3048,005;   -0,561;    0,682
983,347; 3173,641;    2,167;    0,591
983,898; 3318,187;    4,167;    0,409
984,449; 3133,641;    2,530;    0,773
984,999; 3034,732;    1,894;   -1,136
985,550; 2815,278;    3,167;   -0,318
986,100; 2870,096;    0,712;   -0,318
986,651; 2907,369;    0,258;    0,045
987,201; 2874,096;    0,894;   -0,591
987,751; 2960,187;   -0,288;    2,864
988,302; 2947,187;   -0,379;    1,500
988,852; 2981,369;    1,985;   -1,136
989,402; 3005,278;    0,985;    0,682
989,952; 2913,096;    1,621;    0,864
990,502; 3026,641;    1,076;    0,682
991,052; 2993,914;   -0,106;    0,045
991,602; 2842,187;    1,167;    1,318
992,152; 2837,914;    2,803;    0,682
992,702; 2828,187;    1,167;   -0,045
993,252; 2756,732;    0,076;   -0,500
993,802; 2837,460;    1,167;    1,318
994,352; 3067,278;   -0,742;    1,136
994,901; 3183,551;    1,076;    3,227
995,451; 3092,823;   -1,197;    0,318
996,000; 3171,641;    1,076;    0,318
996,550; 2878,460;    2,894;    0,227
997,100; 2884,369;   -0,561;   -0,045
997,649; 3171,278;   -0,197;    0,955
998,198; 2801,278;   -0,288;   -1,500
998,748; 2990,460;    0,348;   -2,318
999,297; 2898,278;    0,985;   -0,409
999,846; 2978,551;    1,894;   -0,773
1000,395; 3020,551;    1,530;    0,500
1000,945; 2964,369;    1,076;   -0,773
1001,494; 3041,732;    0,167;    0,682
1002,043; 3025,914;    0,712;    0,864
1002,592; 2877,460;    3,439;    1,955
1003,141; 3032,187;    2,439;   -0,682
1003,690; 2863,641;    1,258;    0,500
1004,238; 2952,641;   -0,106;   -0,045
1004,787; 2571,732;   -1,288;    1,227
1005,336; 2797,369;    1,621;    0,682
1005,885; 2958,823;   -0,197;   -2,773
1006,433; 3106,278;   -0,470;    0,955
1006,982; 3169,005;    2,167;    1,682
1007,531; 3094,914;    2,712;   -0,227
1008,079; 3048,005;    0,258;    0,500
1008,627; 3173,914;    1,621;    0,409
1009,176; 2909,914;    0,076;   -1,955
1009,724; 2953,187;   -2,742;    0,864
1010,273; 2992,460;    1,076;    0,500
1010,821; 3118,460;    1,076;    1,409
1011,369; 2859,096;    0,076;    1,318
1011,917; 2826,641;   -0,833;   -0,591
1012,465; 3117,096;    2,530;   -1,591
1013,013; 3220,732;    0,439;   -1,682
1013,561; 3104,460;   -1,288;   -0,773
1014,109; 3150,460;   -0,833;    1,682
1014,657; 3027,187;    1,348;    0,591
1015,205; 3122,914;    0,894;   -0,955
1015,753; 3179,914;    0,258;   -1,409
1016,301; 3220,278;    2,621;    3,045
1016,848; 3235,914;    2,167;    0,409
1017,396; 3251,096;    1,621;    0,045
1017,944; 3392,823;    2,621;    1,864
1018,491; 3142,914;   -0,197;    1,409
1019,039; 3307,823;   -0,652;    0,591
1019,586; 3205,914;    0,076;    1,682
1020,134; 3312,823;    0,712;    1,500
1020,681; 3313,732;    2,894;   -1,136
1021,228; 3343,460;   -0,561;   -2,227
1021,776; 3177,005;   -0,833;   -1,136
1022,323; 3403,823;    0,803;    0,773
1022,870; 3340,369;   -0,470;   -0,045
1023,417; 3233,096;    2,076;    1,864
1023,964; 3362,096;    0,621;    1,227
1024,511; 3193,369;   -0,652;    0,773
1025,058; 2973,641;    0,439;   -0,045
1025,605; 3027,732;   -1,742;    3,136
1026,152; 3248,460;   -0,106;   -0,591
1026,699; 3010,369;    0,167;    1,318
1027,245; 3169,278;    2,439;    0,318
1027,792; 3403,369;    0,712;    1,409
1028,339; 3271,732;    4,076;   -0,045
1028,885; 3119,914;    3,621;   -0,227
1029,432; 3060,732;   -0,106;    0,227
1029,978; 3122,187;    1,348;   -1,591
1030,525; 2998,732;    1,621;    0,409
1031,071; 3253,369;    0,348;    1,136
1031,618; 3362,096;    1,258;    1,682
1032,164; 3148,551;    2,076;    3,045
1032,710; 3186,914;    0,076;   -1,500
1033,256; 3122,369;    0,712;   -0,136
1033,803; 3100,823;   -0,288;    1,500
1034,349; 2840,823;    1,803;    0,136
1034,895; 2982,096;    2,621;   -0,318
1035,441; 2959,369;    0,439;    0,318
1035,987; 2972,460;   -2,288;   -0,682
1036,533; 2974,278;   -0,197;   -0,955
1037,078; 3171,823;    4,712;    1,682
1037,624; 2985,732;    2,439;   -0,955
1038,170; 3010,641;    1,712;   -0,318
1038,716; 2899,823;    2,167;   -0,409
1039,261; 2814,823;    2,167;   -0,773
1039,807; 2759,005;   -0,015;    3,409
1040,352; 2836,369;   -1,288;   -0,318
1040,898; 2882,823;    0,167;   -0,682
1041,443; 2796,732;    0,803;   -2,591
1041,989; 2805,278;    3,621;    1,591
1042,534; 2692,732;    0,985;    2,591
1043,079; 2825,278;    1,985;    0,955
1043,625; 2600,641;    0,258;    0,500
1044,170; 2630,096;    2,439;    1,045
1044,715; 2892,187;    0,167;    0,955
1045,260; 2712,551;   -0,833;   -0,955
1045,805; 2770,641;    0,258;   -0,591
1046,350; 2715,641;    0,530;   -0,409
1046,895; 2666,641;    0,803;    1,591
1047,440; 2622,187;    1,530;    0,409
1047,985; 2505,096;   -1,197;   -0,955
1048,530; 2436,641;    1,348;    1,227
1049,074; 2514,732;    2,803;    0,318
1049,619; 2488,278;   -0,924;    1,955
1050,164; 2290,460;    1,076;    0,227
1050,708; 2331,005;    2,621;    0,045
1051,253; 2682,823;    3,258;   -2,227
1051,797; 2409,187;   -0,197;   -1,318
1052,342; 2425,732;    1,348;    1,045
1052,886; 2406,187;    1,803;   -1,409
1053,430; 2301,005;    2,167;    0,136
1053,975; 2303,005;    0,894;   -0,318
1054,519; 2271,187;    1,803;    3,227
1055,063; 2305,460;    3,621;    1,318
1055,607; 2198,278;    1,348;    0,227
1056,151; 2205,278;    0,530;    1,682
1056,695; 2137,460;   -1,833;   -1,136
1057,239; 2193,641;   -1,197;   -0,682
1057,783; 2193,278;    2,258;   -1,500
1058,327; 2149,096;    3,076;    1,409
1058,871; 2390,096;    3,985;    1,318
1059,415; 2094,551;   -0,561;   -0,045
1059,958; 2343,187;    2,985;    2,591
1060,502; 2072,460;    1,348;   -0,773
1061,046; 1971,641;    1,712;   -0,955
1061,589; 1959,551;    2,803;   -1,136
1062,133; 1834,187;    0,985;    1,864
1062,676; 1767,369;    1,439;    0,864
1063,220; 1777,641;    0,985;    0,500
1063,763; 1800,005;    2,985;    1,136
1064,306; 1870,278;    0,985;    1,864
1064,849; 1757,278;    2,076;    0,591
1065,393; 1764,823;    2,894;   -1,500
1065,936; 1875,823;    2,530;   -0,409
1066,479; 1758,914;    2,621;    1,318
1067,022; 1781,551;    1,894;   -0,227
1067,565; 1693,914;   -1,197;   -1,318
1068,108; 1721,187;    1,258;   -0,591
1068,651; 1705,823;   -2,470;    1,409
1069,194; 1637,187;   -1,106;   -1,682
1069,736; 1628,096;    3,803;    0,955
1070,279; 1598,551;   -1,652;   -0,500
1070,822; 1645,278;    1,530;   -0,318
1071,364; 1718,823;    0,530;    1,318
1071,907; 1543,369;    0,348;    3,227
1072,450; 1471,278;    0,258;   -0,045
1072,992; 1472,551;   -0,561;    3,136
1073,535; 1595,551;    0,167;    2,136
1074,077; 1389,278;    2,985;    2,045
1074,619; 1349,005;    0,985;    0,591
1075,161; 1376,823;   -0,561;    1,500
1075,704; 1562,732;    0,258;    1,227
1076,246; 1379,641;    1,530;    0,682
1076,788; 1296,096;   -1,015;    1,773
1077,330; 1376,369;   -2,106;    2,136
1077,872; 1342,278;   -1,924;    0,955
1078,414; 1557,187;    3,712;    0,773
1078,956; 1288,460;    0,167;   -0,227
1079,498; 1533,914;    0,439;    0,318
1080,040; 1234,005;    0,985;   -1,318
1080,581; 1209,187;    0,621;   -0,318
1081,123; 1145,914;   -0,106;   -0,773
1081,665; 1191,551;    3,803;   -0,955
1082,206; 1461,369;    3,258;   -0,500
1082,748; 1322,278;    3,258;    2,045
1083,289; 1211,732;    0,167;    1,318
1083,831; 1122,732;    0,258;    0,227
1084,372; 1148,005;    0,894;    0,591
1084,913; 1144,187;    3,348;    0,864
1085,455; 1132,460;    1,530;   -2,045
1085,996; 1103,914;    0,530;    0,136
1086,537; 1126,641;    0,985;    0,864
1087,078; 1149,551;    0,439;   -2,136
1087,619; 1191,369;   -1,652;    0,227
1088,160; 1108,460;    1,439;    1,318
1088,701; 1089,641;   -0,742;    0,682
1089,242; 1021,187;   -0,561;   -2,227
1089,783; 1112,551;   -0,561;    1,409
1090,324; 1092,641;   -0,833;    0,682
1090,865;  971,732;   -1,924;   -0,409
1091,405;  955,823;   -0,561;    2,227
1091,946;  988,460;   -0,197;   -0,955
1092,487;  917,096;   -1,288;   -1,409
1093,027; 1062,005;    1,803;   -1,500
1093,568;  920,369;    2,258;    1,227
1094,108; 1006,187;    0,621;    1,773
1094,649;  953,005;   -0,470;    0,136
1095,189;  902,096;    1,167;   -0,682
1095,729;  846,278;    0,712;    0,955
1096,269;  869,551;    1,258;   -0,955
1096,810; 1163,278;   -0,197;    0,500
1097,350;  983,914;   -0,561;   -0,773
1097,890;  898,732;    2,985;    1,227
1098,430; 1138,096;    4,985;    2,864
1098,970; 1011,369;    1,894;    1,682
1099,510;  886,096;   -0,833;   -2,318
1100,050;  814,278;    0,258;   -1,591
1100,589;  778,278;    0,076;   -0,318
1101,129;  897,005;    0,894;   -0,955
1101,669; 1034,732;    2,803;    2,136
1102,209;  872,278;    1,530;    2,227
1102,748;  817,096;    3,439;    0,955
1103,288;  801,369;    0,712;   -1,227
1103,827;  828,369;    3,530;   -2,227
1104,367;  716,641;    1,712;   -2,409
1104,906;  694,551;   -1,015;   -1,136
1105,445;  762,369;    0,985;   -1,136
1105,985;  700,914;   -0,652;    1,500
1106,524;  736,823;    1,530;   -0,682
1107,063;  710,914;    1,167;    1,409
1107,602;  686,914;    1,894;   -1,500
1108,141;  625,096;    1,621;    1,500
1108,680;  716,005;    3,985;   -0,591
1109,219;  651,369;    0,167;   -0,500
1109,758;  660,278;    4,167;    0,682
1110,297;  629,914;   -1,106;   -0,682
1110,836;  579,278;    1,439;    0,955
1111,375;  726,460;    0,348;    0,409
1111,913;  744,914;    0,985;    0,773
1112,452;  690,005;    0,894;    0,136
1112,991;  578,460;    1,076;    1,955
1113,529;  529,096;    0,167;   -0,045
1114,068;  594,460;    0,439;    2,955
1114,606;  500,369;   -0,561;   -0,955
1115,144;  658,096;    1,530;    1,045
1115,683;  600,005;    1,985;    0,318
1116,221;  650,641;    2,076;   -0,864
1116,759;  567,732;    1,621;   -0,864
1117,297;  739,914;    1,621;    1,864
1117,836;  557,551;    1,985;   -1,227
1118,374;  560,641;    0,258;   -0,682
1118,912;  521,551;    0,439;    2,682
1119,450;  501,187;    0,985;    0,864
1119,988;  542,823;    3,348;    2,136
1120,525;  986,732;    7,258;    3,318
1121,063;  689,187;    0,530;    1,864
1121,601;  516,732;    1,076;   -1,227
1122,139;  475,551;    1,076;   -2,045
1122,676;  654,278;   -1,652;    2,773
1123,214;  592,641;    0,712;    4,409
1123,751;  410,460;    0,621;    2,227
1124,289;  525,914;    0,894;   -0,409
1124,826;  411,732;   -0,379;    0,227
1125,364;  337,278;    0,712;   -0,955
1125,901;  525,641;    6,258;    1,227
1126,438;  623,460;    3,530;    0,955
1126,975;  367,369;    2,985;   -0,773
1127,513;  428,460;    2,621;    2,136
1128,050;  338,369;   -0,561;   -0,682
1128,587;  427,187;    1,348;   -0,227
1129,124;  472,005;   -0,015;    1,318
1129,661;  349,096;   -1,924;    0,227
1130,198;  496,551;    2,439;    0,773
1130,734;  444,914;   -0,379;    1,409
1131,271;  316,096;   -1,197;    0,864
1131,808;  484,096;    1,621;    3,045
1132,345;  356,641;    4,530;    0,318
1132,881;  245,641;   -0,561;   -1,864
1133,418;  370,187;    0,348;   -1,136
1133,954;  314,278;    0,712;   -2,682
1134,491;  379,914;    1,712;   -0,773
1135,027;  285,732;    2,167;    0,864
1135,564;  359,187;    1,439;    2,955
1136,100;  346,460;   -0,742;    2,136
1136,636;  253,369;   -1,015;   -1,045
1137,172;  323,278;    0,894;   -1,045
1137,708;  267,187;   -1,561;   -1,045
1138,245;  271,823;    0,803;   -1,227
1138,781;  226,823;    1,803;   -3,318
1139,317;  289,460;    1,894;   -1,409
1139,852;  274,732;    3,076;    0,136
1140,388;  380,823;    2,076;   -0,409
1140,924;  274,187;    1,076;   -2,227
1141,460;  213,732;   -0,288;    0,136
1141,996;  166,732;   -0,652;    2,682
1142,531;  202,823;    1,076;    3,318
1143,067;  403,732;    1,167;    1,045
1143,602;  440,187;    3,439;   -0,318
1144,138;  307,187;    0,803;    1,045
1144,673;  186,641;    1,621;    1,409
1145,209;  244,914;    2,894;   -0,318
1145,744;  169,278;    0,803;    0,864
1146,279;  285,732;    1,530;   -0,136
1146,815;  214,823;    1,530;   -2,682
1147,350;  254,369;   -0,924;    0,045
1147,885;  175,187;   -1,924;   -1,318
1148,420;  174,641;    2,439;    0,773
1148,955;  159,278;   -1,470;    1,864
1149,490;  178,823;   -1,106;   -1,591
1150,025;  155,005;   -1,106;   -1,773
1150,560;  257,914;   -0,288;   -0,955
1151,094;  230,823;    0,258;   -0,591
1151,629;  240,096;   -3,742;    0,864
1152,164;  173,914;   -1,288;    1,318
1152,698;  142,460;    1,258;   -0,136
1153,233;   96,823;   -1,379;   -0,682
1153,767;  137,278;   -0,288;   -2,318
1154,302;  187,914;   -0,379;    1,773
1154,836;  191,187;    0,803;   -2,136
1155,371;  230,551;    2,258;    3,682
1155,905;  192,096;    1,985;    1,682
1156,439;  160,187;    0,530;   -0,500
1156,973;  184,187;    0,439;    0,318
1157,507;  136,278;   -1,742;    0,682
1158,042;  159,096;   -0,652;    1,045
1158,576;  197,732;   -0,561;    1,773
1159,110;  187,096;    0,076;    2,409
1159,643;  165,187;   -2,470;   -0,045
1160,177;  108,096;   -2,015;    1,500

