
Integration time [ms]:   0,040
Averaging Nr. [scans]: 11
Smoothing Nr. [pixels]: 0
Data measured with spectrometer [name]: 7318044SP
Wave   ;Sample   ;Dark     ;Reference
[nm]   ;[counts] ;[counts] ;[counts] 

186,757;    3,124;   31,551;    1,318
187,357;   26,562;   22,551;    0,955
187,958;    4,641;   15,460;   -1,591
188,558;   46,932;    8,915;   -1,227
189,159;   14,395;    6,733;   -4,500
189,759;   -7,915;    7,278;   -3,591
190,360;   -9,806;    2,824;   -2,136
190,960;   16,234;    2,915;   -4,136
191,560;   28,213;    3,189;   -6,591
192,161;  235,279;    4,372;   -3,500
192,761;   90,375;    4,010;   -3,227
193,361;   40,309;    1,556;   -3,773
193,962;   88,002;    2,010;   -2,682
194,562;    9,451;    1,189;   -3,955
195,162;   23,018;   -2,448;   -2,227
195,762;  134,992;   -3,176;   -0,045
196,362;   82,872;    1,370;   -2,500
196,963;    4,810;    2,006;   -0,864
197,563;   46,028;    1,551;   -0,955
198,163;   -1,032;    0,096;   -0,682
198,763;    7,731;    1,733;   -0,500
199,363;   56,441;    3,096;   -0,500
199,963;   23,244;    0,369;    0,409
200,563;   12,434;    2,823;   -1,409
201,163;    2,458;    3,277;   -0,227
201,763;   32,977;    3,732;    0,318
202,363;   -2,735;    1,459;    1,500
202,963;   28,503;    1,459;    1,045
203,563;   81,841;    0,277;    0,500
204,162;   15,317;    2,096;   -1,864
204,762;   11,539;    0,550;    0,591
205,362;  -10,035;    3,004;    1,955
205,962;   15,725;    3,096;    1,955
206,562;    4,223;    1,823;    2,318
207,161;    4,655;   -0,087;    0,318
207,761;   75,255;    1,277;    2,409
208,361;    7,145;   -0,268;    1,409
208,960;   32,170;    0,459;    1,500
209,560;   26,828;    1,277;    1,591
210,160;   38,300;    0,550;    1,864
210,759;   15,553;    4,186;    1,227
211,359;    8,542;    1,459;    1,045
211,958;  105,589;    1,277;    2,045
212,558;  107,376;    1,732;    1,864
213,157;   34,898;    1,822;    1,500
213,757;  170,118;    3,822;   -0,227
214,356;   57,158;    1,277;   -0,409
214,956;  153,249;    3,095;    0,409
215,555;   38,689;    2,095;    2,136
216,154;    9,540;   -2,723;   -0,591
216,754;    6,257;    0,277;    0,773
217,353;   16,934;   -0,268;   -1,045
217,952;  -22,234;   -0,178;    0,318
218,552;   38,681;    1,368;   -0,773
219,151;    0,502;    0,277;    0,955
219,750;    5,664;    0,004;   -0,227
220,349;  -10,144;   -0,451;    1,045
220,948;   48,201;   -1,360;    1,136
221,548;   -2,441;    0,913;    1,227
222,147;    7,201;   -0,087;   -0,409
222,746;   78,822;   -0,451;   -0,955
223,345;   25,848;    0,731;    0,500
223,944;   21,718;   -0,451;    0,773
224,543;   33,287;    1,004;   -1,409
225,142;   21,738;    0,094;    0,136
225,741;   28,813;   -0,814;    1,045
226,340;   20,507;   -0,451;   -0,955
226,939;   67,918;   -0,996;   -0,136
227,538;   12,920;   -0,360;   -0,773
228,137;   72,299;   -0,814;    0,864
228,735;   51,476;   -0,541;    1,227
229,334;  -17,080;   -0,905;   -0,227
229,933;   68,631;    0,459;    0,591
230,532;   75,750;    1,186;   -0,409
231,131;  118,286;    1,732;    0,318
231,729;   42,787;   -2,450;   -2,318
232,328;   10,739;   -0,723;   -1,500
232,927;   22,769;    1,004;   -0,500
233,525;   17,473;    3,640;    0,045
234,124;   24,900;    2,368;   -1,591
234,723;   -6,059;    0,913;   -1,045
235,321;  -12,917;    2,277;    0,136
235,920;    8,155;    1,186;   -1,227
236,518;   74,388;    3,459;    0,318
237,117;   11,441;    0,004;   -0,227
237,715;   21,620;    0,640;   -0,500
238,314;   18,493;   -0,087;   -2,318
238,912;   73,525;   -0,723;   -1,409
239,510;   37,050;    0,459;   -1,227
240,109;   90,487;    0,004;    3,773
240,707;   67,753;   -0,996;    1,227
241,305;    6,640;    0,550;    0,136
241,904;   38,003;   -0,178;   -2,045
242,502;  103,655;   -0,632;   -0,227
243,100;   47,610;   -0,087;   -0,955
243,698;    6,971;    0,732;    1,682
244,297;   28,107;   -0,632;    0,682
244,895;   22,527;   -0,269;   -2,318
245,493;   85,184;    2,186;   -0,591
246,091;   98,040;    1,368;   -1,318
246,689;   60,853;    1,004;    0,591
247,287;   50,088;    0,822;   -1,136
247,885;   28,010;   -1,451;    1,227
248,483;   11,142;    1,822;   -0,500
249,081;   42,168;    0,185;    1,591
249,679;   47,542;   -0,178;    1,682
250,277;    3,065;   -1,723;    0,864
250,875;   48,161;   -1,087;   -1,045
251,473;   11,842;   -1,178;    0,500
252,071;   56,779;    1,459;    1,045
252,669;   18,354;   -1,814;    0,318
253,267;   -2,379;   -0,087;    0,773
253,864;   24,270;   -0,360;    0,682
254,462;   75,086;    1,640;    1,591
255,060;    6,605;   -0,269;    1,318
255,658;   -4,282;    0,822;   -0,136
256,255;   14,538;    0,186;   -2,045
256,853;   37,283;   -0,269;    1,409
257,451;   11,355;    0,822;    1,864
258,048;  180,238;    1,822;    1,864
258,646;   77,899;    1,731;   -1,045
259,243;  112,647;   -0,087;    2,227
259,841;   62,691;   -0,814;    0,318
260,438;    1,983;   -0,087;    0,864
261,036;   41,599;   -1,905;    1,409
261,633;   11,092;   -0,087;    2,227
262,231;   -3,629;    2,731;   -0,045
262,828;  -16,892;   -0,905;    1,136
263,425;   -1,681;    0,913;   -0,591
264,023;    2,060;    0,186;    0,045
264,620;   53,706;   -0,360;   -0,318
265,217;   93,450;   -2,087;    3,136
265,815;   22,066;   -1,905;    2,136
266,412;   48,188;    0,731;    0,136
267,009;   35,895;   -1,451;    0,773
267,606;   68,899;    0,822;   -0,955
268,203;   14,742;   -0,269;   -0,591
268,801;   26,745;    1,731;    0,591
269,398;    1,876;   -0,360;    2,500
269,995;   41,562;    0,277;    1,591
270,592;   30,497;   -0,632;   -0,500
271,189;    1,272;    0,186;    0,409
271,786;  -10,917;   -0,632;    1,227
272,383;   57,882;   -1,087;    0,227
272,980;   13,237;    0,277;    0,318
273,577;   -6,019;    0,004;    1,227
274,174;  -11,058;    0,822;    2,591
274,771;   38,809;   -0,814;   -0,773
275,367;  202,248;    2,277;    1,409
275,964;   93,920;    0,731;   -0,500
276,561;   17,915;    1,549;   -1,045
277,158;  -12,821;    0,095;   -1,773
277,755;   68,713;    2,185;    0,409
278,351;   36,348;   -0,451;   -1,500
278,948;   62,949;   -0,815;    0,045
279,545;   36,191;   -1,360;    2,318
280,141;   78,516;   -1,723;   -2,045
280,738;   86,980;   -0,451;   -0,136
281,334;   27,421;   -1,633;    0,591
281,931;   13,742;   -0,087;   -1,318
282,528;   59,748;    0,822;   -0,500
283,124;   80,449;   -1,087;   -0,500
283,721;   81,449;   -0,451;    1,409
284,317;   29,993;    0,185;    2,500
284,913;   85,609;   -1,360;    0,591
285,510;  148,245;    0,640;   -0,318
286,106;   87,964;   -2,269;   -0,955
286,703;   42,174;   -0,360;    1,955
287,299;   11,600;   -1,451;   -0,591
287,895;   14,920;    0,822;   -1,045
288,491;    5,421;    0,186;    2,136
289,088;   28,072;   -2,360;    2,409
289,684;   44,445;   -1,723;    1,500
290,280;  110,410;    0,368;    0,682
290,876;   77,396;    1,822;    5,500
291,472;   55,938;    1,276;    2,227
292,068;   69,247;    1,367;    0,227
292,665;   35,873;    2,095;    0,773
293,261;    1,191;    0,276;    2,136
293,857;   60,945;    2,913;    2,136
294,453;   27,262;    3,550;    0,955
295,049;  105,041;   -0,268;    1,955
295,644;   48,063;    0,095;    0,136
296,240;    0,125;   -0,905;   -0,136
296,836;   34,011;   -0,995;    0,318
297,432;   64,041;    1,096;   -0,500
298,028;   65,468;    0,732;    0,773
298,624;   37,481;    1,459;    1,864
299,220;   34,857;    2,368;    0,591
299,815;   16,074;    1,005;   -0,409
300,411;   57,677;    0,914;    1,773
301,007;   78,907;    1,368;    0,227
301,602;   19,535;   -0,541;   -2,318
302,198;   74,037;    0,732;   -0,773
302,794;   27,446;    1,187;   -0,500
303,389;   -9,993;   -1,177;    1,045
303,985;   15,263;    0,550;    1,409
304,580;   70,440;    1,459;    1,591
305,176;   29,463;   -3,086;    0,136
305,771;  -19,003;   -1,268;   -1,227
306,367;  140,546;    4,095;    0,136
306,962;   51,626;    0,641;    1,500
307,558;   67,925;   -0,450;    0,136
308,153;   52,923;    1,095;   -1,136
308,748;   -1,140;   -0,814;    1,682
309,344;  132,760;   -0,632;   -1,318
309,939;  112,382;   -1,905;   -1,318
310,534;   25,162;   -0,086;   -1,682
311,130;   11,475;    0,459;   -2,500
311,725;    5,516;    1,004;   -0,500
312,320;   19,695;    2,459;    0,045
312,915;   54,804;    1,459;   -1,045
313,510;  138,281;    1,550;   -0,500
314,105;   34,292;    1,096;    1,409
314,700;    0,242;   -3,086;   -1,045
315,295;   14,804;   -0,904;    0,045
315,890;    1,524;    1,277;    0,864
316,485;   42,254;   -0,359;   -0,318
317,080;   -3,364;   -3,086;    1,591
317,675;  122,064;    2,005;   -0,682
318,270;  228,154;    5,550;    3,318
318,865;  151,785;    3,278;    3,045
319,460;   83,503;   -0,904;    0,591
320,055;   17,252;   -0,541;   -1,227
320,650;   16,103;   -1,995;   -0,591
321,244;   24,278;   -0,177;   -1,409
321,839;   22,439;   -1,541;   -0,227
322,434;   33,058;   -1,086;   -1,591
323,029;   11,303;    1,732;    1,591
323,623;    4,496;    1,550;    0,773
324,218;  100,994;    2,368;    1,409
324,812;   63,633;    1,096;    1,591
325,407;   52,957;   -0,814;    2,045
326,002;  118,754;    0,277;   -0,409
326,596;   78,681;    0,914;    1,318
327,191;   19,000;    0,823;   -1,045
327,785;   30,408;   -0,813;   -0,227
328,379;   13,487;    1,368;    0,136
328,974;   26,610;    0,914;   -3,955
329,568;   50,579;    0,186;   -2,409
330,163;   77,436;    2,096;    1,045
330,757;   15,965;    2,459;    1,591
331,351;  -13,788;    0,459;    0,682
331,945;  -16,196;    0,914;    1,409
332,540;   39,127;   -1,723;   -0,591
333,134;   30,216;   -1,086;    0,773
333,728;   40,458;    0,005;    0,318
334,322;   -3,946;   -1,177;   -0,864
334,916;    1,059;    0,277;    0,955
335,510;   59,870;   -0,450;   -0,136
336,105;   46,637;   -1,086;    1,591
336,699;    3,051;   -1,086;    0,591
337,293;   21,744;   -1,723;    0,318
337,887;    0,454;   -2,723;    1,955
338,481;   48,335;    0,459;    0,591
339,074;   91,690;   -0,359;    2,682
339,668;   78,359;   -1,632;    1,227
340,262;  344,617;    1,732;    3,227
340,856;  141,442;    1,822;   -0,682
341,450;   22,639;    1,004;    1,864
342,044;   43,016;    1,459;    0,136
342,637;   92,123;    0,913;   -2,136
343,231;   43,237;   -2,360;    0,682
343,825;   32,682;   -1,086;   -0,591
344,419;   38,471;   -1,995;    0,500
345,012;  300,639;    2,459;    4,045
345,606;  188,394;    4,641;    1,591
346,199;   46,177;   -1,813;   -0,227
346,793;  108,301;    1,914;    2,045
347,386;   28,050;   -0,813;   -1,136
347,980;   -6,184;   -0,268;   -0,045
348,573;   40,974;    2,278;    0,409
349,167;  227,667;    5,278;    4,773
349,760;  128,800;    2,914;    2,682
350,354;  116,861;   -0,813;    1,136
350,947;  142,093;    1,096;    1,682
351,540;   82,933;   -0,358;   -1,409
352,134;   22,196;    1,096;    1,136
352,727;   37,335;   -0,086;    1,136
353,320;   45,526;    0,005;    0,591
353,913;   10,498;   -1,995;    1,864
354,507;  121,706;    0,823;   -1,227
355,100;   54,493;    0,460;    0,864
355,693;  326,211;    2,005;    2,409
356,286;  170,827;    0,823;    2,773
356,879;   85,901;   -0,722;    1,227
357,472;   95,676;   -0,904;    1,500
358,065;  108,834;   -0,722;    2,500
358,658;   22,987;   -0,540;    2,318
359,251;   22,725;   -1,631;   -0,591
359,844;  126,727;   -1,904;   -1,136
360,437;  160,108;   -2,995;    0,045
361,030;   56,602;    1,369;   -0,682
361,623;   59,585;    2,824;    0,318
362,215;  206,305;   -0,086;    2,045
362,808;   99,700;   -2,358;   -1,682
363,401;   58,966;   -2,449;    0,136
363,994;  203,251;   -0,631;   -1,500
364,586;   77,405;    0,824;   -1,500
365,179;   41,344;   -0,449;   -1,136
365,772;  -25,063;   -1,995;    2,045
366,364;   52,246;    1,915;   -3,227
366,957;   75,917;    2,279;   -0,045
367,549;   48,796;    2,188;   -0,864
368,142;   59,121;    1,825;   -1,500
368,734;   35,257;    0,734;   -2,136
369,327;   -2,114;    1,643;   -0,500
369,919;   22,774;   -1,538;    0,409
370,512;   33,103;   -1,083;   -0,500
371,104;  223,444;   -0,901;    1,591
371,696;  230,220;    1,191;   -0,955
372,289;  125,589;    0,373;    1,136
372,881;   88,972;   -2,080;    1,318
373,473;   15,581;   -2,170;    1,136
374,066;   90,952;   -0,169;    0,500
374,658;   69,407;    0,378;    1,136
375,250;    2,829;    0,653;   -1,409
375,842;   43,736;    0,473;   -0,045
376,434;    2,426;   -0,435;   -0,409
377,026;  -27,042;    0,204;   -2,500
377,618;   17,760;   -0,158;   -0,682
378,210;  -51,743;   -0,338;   -1,955
378,802;  -61,598;    0,754;   -0,591
379,394;  302,846;    1,846;    0,682
379,986;   65,306;    1,393;   -0,955
380,578;  -19,053;   -0,153;    0,773
381,170;  225,664;   -0,972;    0,045
381,762;  137,786;    0,755;    1,409
382,354;  107,275;   -0,065;   -1,318
382,945;   31,629;   -2,976;    0,318
383,537;  -18,764;   -2,705;   -1,955
384,129;  -15,197;   -2,160;   -1,136
384,721;   98,793;   -0,252;    0,955
385,312;   39,936;   -0,161;   -0,955
385,904;  103,476;   -2,706;    1,591
386,496;   40,482;   -0,979;    1,045
387,087;  162,984;    1,022;    2,500
387,679;   96,379;   -1,160;    0,045
388,270;   65,896;    2,840;    2,045
388,862;   47,011;    1,295;   -0,318
389,453;   35,414;   -0,887;    1,045
390,045;   44,837;   -0,705;   -2,682
390,636;  -68,608;    0,204;   -0,591
391,227;   -4,341;   -0,523;   -0,045
391,819;  -31,162;    0,204;    0,773
392,410;  206,930;    1,022;    0,045
393,001;   29,330;   -0,979;   -1,591
393,593;   98,440;    1,930;   -0,045
394,184;  133,068;    1,385;   -0,409
394,775;   23,559;    1,839;    2,136
395,366;  -49,023;    1,385;    0,773
395,957;  111,518;    0,113;    0,136
396,548;    3,289;   -0,342;    2,682
397,139;  106,536;   -2,433;    0,591
397,730;   34,935;   -1,888;    0,955
398,321;   53,059;   -1,252;    0,955
398,912;   -1,140;   -0,615;    0,136
399,503;  -16,755;   -3,524;   -1,409
400,094;   27,633;    0,294;    1,682
400,685;   27,616;   -0,433;    0,045
401,276;  -18,516;    0,930;   -0,955
401,867;  -36,782;   -0,888;    0,773
402,458;  -78,195;   -2,251;   -2,318
403,048;   61,982;    1,112;    0,591
403,639;    4,367;    0,840;    0,864
404,230;  105,661;    2,476;    0,318
404,821;  161,245;   -0,615;    0,045
405,411;   77,007;    1,203;   -2,591
406,002;   -5,067;   -1,252;   -1,136
406,592;  200,336;    2,294;    0,045
407,183;   74,266;    0,566;   -1,500
407,774;   59,803;    3,475;   -0,136
408,364;    8,906;    0,930;    0,409
408,954;  118,749;    0,384;    1,227
409,545;  119,188;    1,021;    1,045
410,135;   73,515;    1,293;    0,500
410,726;   27,715;    1,838;    0,318
411,316;  201,406;    0,111;    0,773
411,906;   57,825;   -0,253;   -0,409
412,497;   64,574;   -1,070;   -0,045
413,087;   12,012;   -1,980;   -0,227
413,677;  -48,980;   -0,707;    3,864
414,267;  -50,396;    0,656;    1,409
414,857;  -78,183;   -2,980;    4,227
415,448;  -80,021;    0,839;    0,500
416,038;  -48,599;    0,020;   -0,591
416,628;   -9,086;   -0,889;    0,409
417,218;   50,863;    0,565;    3,318
417,808;  200,621;    0,202;   -0,409
418,398;   78,931;    0,020;    2,682
418,988;  -28,529;    2,020;    0,591
419,578;   55,928;   -0,707;    1,409
420,168;   -5,801;   -1,343;   -0,955
420,757;  124,011;   -1,343;   -1,500
421,347;   26,767;    0,111;   -0,227
421,937;   -1,308;    2,292;    1,409
422,527;  127,759;    0,838;   -0,773
423,116;  250,595;   -0,253;   -0,045
423,706;   -1,643;   -1,889;    0,318
424,296;  -41,835;    1,384;    0,682
424,885;   62,801;   -0,071;   -3,045
425,475;   40,788;    1,474;   -2,864
426,065;  -50,917;   -0,980;   -0,318
426,654;  -56,459;   -0,435;   -0,318
427,244;  184,023;    0,020;    1,409
427,833;  147,077;    1,383;   -0,500
428,423;   15,634;   -0,526;    1,136
429,012;   17,774;   -0,344;   -1,136
429,601;  150,878;   -1,344;    0,136
430,191;   39,594;    1,292;    4,318
430,780;  -39,479;   -0,344;   -0,409
431,369;  122,611;    0,746;   -0,045
431,959;   21,941;   -1,254;    0,500
432,548;  -37,557;   -1,163;   -0,045
433,137;  -87,858;   -1,254;   -1,318
433,726;  -16,178;    0,292;    0,500
434,315;    2,746;   -0,526;    2,409
434,905;  102,167;   -1,254;    1,409
435,494;   87,096;    0,746;    0,955
436,083;  -28,729;   -0,981;   -0,955
436,672;   65,242;    0,110;    0,500
437,261;   21,415;    0,292;   -1,955
437,850;  234,422;    1,383;    0,682
438,439;  284,400;    3,291;    1,955
439,027;  381,896;    3,655;    1,773
439,616;  311,941;    2,927;    1,227
440,205;   94,992;    0,200;   -2,136
440,794;   45,330;    2,109;   -0,045
441,383;  -12,754;   -1,346;   -0,591
441,971;  -37,139;   -2,436;    0,591
442,560;  -18,709;    0,563;   -1,773
443,149; -108,489;    0,379;   -1,318
443,737;  -61,647;   -0,074;   -2,318
444,326;  -41,694;    0,018;    0,318
444,915;   -3,233;   -1,982;    0,864
445,503;    2,892;   -2,891;   -0,318
446,092;  251,297;    0,382;    2,136
446,680;  193,465;    0,382;    0,318
447,269;   90,934;   -0,346;   -0,318
447,857;   77,311;    0,018;   -1,773
448,445;   37,197;    0,563;    1,318
449,034;  -17,256;   -1,528;   -1,136
449,622;  -12,433;   -1,073;    3,500
450,210;  254,517;    2,017;    2,227
450,799;  169,553;    0,290;   -0,591
451,387;  143,172;    1,381;   -0,591
451,975;  122,661;    2,654;    0,864
452,563;  194,990;    3,472;    2,318
453,151;   22,595;   -0,528;   -1,227
453,739;   65,593;   -1,347;    0,136
454,328;  178,948;    2,381;   -2,136
454,916;  102,791;    2,562;   -0,136
455,504;  121,927;    1,017;    1,227
456,092;   11,437;    0,017;   -1,591
456,679;  -14,580;    1,472;    0,682
457,267;  378,979;    4,017;    1,045
457,855;   77,918;    1,017;    1,409
458,443;  -61,685;   -0,165;    1,682
459,031;   85,692;    0,108;    2,409
459,619;   54,047;   -1,801;    2,864
460,206;  -33,511;    0,835;    2,045
460,794;  -38,588;   -2,983;   -0,227
461,382;    9,145;   -0,529;   -0,864
461,970;   14,626;    1,198;    1,864
462,557;  -58,443;   -0,711;   -0,682
463,145;   48,286;   -3,165;   -1,682
463,732;  286,815;    2,016;   -1,045
464,320;   64,245;   -0,075;   -3,045
464,907;  201,075;    2,743;   -0,773
465,495;  118,383;    0,743;   -1,227
466,082;   45,443;   -1,984;   -0,045
466,670;   66,100;   -2,529;    1,227
467,257;  -30,848;   -1,711;    2,045
467,844;   65,685;   -0,075;    0,045
468,432;   41,374;    0,834;    3,500
469,019;   -4,422;    0,925;   -1,773
469,606;   81,736;    0,470;    3,682
470,193;  111,163;   -1,439;    0,227
470,780;   62,890;   -2,075;    0,864
471,368;   -8,621;   -1,257;   -0,773
471,955;  106,332;    1,379;   -0,682
472,542;   67,953;    0,652;   -1,136
473,129;  -48,123;   -0,166;    0,136
473,716;  -27,555;    1,470;    0,591
474,303;   -1,090;    0,652;   -0,864
474,890;   10,185;   -1,439;   -0,500
475,477;  109,220;   -1,621;    0,409
476,064;   14,280;    1,106;   -1,591
476,650;  125,963;    0,288;    0,318
477,237;   40,327;   -0,258;    0,955
477,824;   16,754;   -1,076;    0,864
478,411;  -65,358;   -1,894;   -0,318
478,997;  -72,148;    0,560;   -0,773
479,584; -114,570;    1,196;   -0,409
480,171;   53,459;   -0,440;   -0,773
480,757;  106,176;    2,651;    0,773
481,344;    5,983;    0,469;    0,409
481,931;  -81,448;    1,105;    1,045
482,517;   42,467;   -1,258;    0,318
483,104;  120,671;    1,106;    2,864
483,690;   -2,768;   -1,804;    0,045
484,276;  -24,804;   -0,895;    0,227
484,863;  180,401;    2,469;    1,136
485,449;   37,380;   -0,077;    0,318
486,035;   -8,113;   -1,986;   -0,136
486,622;   70,779;   -0,895;    0,045
487,208;  -10,090;    1,378;    1,500
487,794;  -78,232;    0,741;    0,318
488,380;  -76,555;    0,105;   -1,409
488,967;  -72,989;   -1,168;   -0,409
489,553;  -56,858;   -1,895;   -1,409
490,139;   13,029;    1,559;    0,773
490,725;  -53,308;    0,741;   -0,227
491,311;  -10,093;    3,287;    3,045
491,897;  -22,714;   -0,986;    1,500
492,483;  -11,732;    0,105;    1,227
493,069;  395,093;    3,923;    0,864
493,655;  126,314;    1,650;    0,682
494,241;    9,347;    1,377;   -0,955
494,826;   16,773;    0,287;   -1,045
495,412;   76,442;    2,559;   -0,682
495,998;  -11,294;   -0,805;   -0,318
496,584;   48,671;    0,377;    1,045
497,169;   61,332;    1,014;   -0,682
497,755;    1,032;    0,650;    1,227
498,341;  130,963;    0,559;    0,318
498,926;  237,923;    1,832;    1,955
499,512;   -7,908;    1,286;    2,955
500,097;   -0,630;    0,195;   -0,318
500,683;   21,217;   -0,350;    2,136
501,268;  -34,377;   -0,169;   -0,955
501,854;   -1,347;   -0,169;    1,227
502,439;  -16,838;   -0,624;   -1,773
503,024;    1,299;    0,195;    0,500
503,610;   23,679;   -0,078;   -0,682
504,195;  -16,596;    0,558;    1,955
504,780;   60,007;    2,922;    1,227
505,366;  145,703;    3,013;    2,864
505,951;   76,805;    0,740;    1,045
506,536;   -2,103;   -3,260;   -3,682
507,121;   58,594;    0,285;   -0,318
507,706;   12,336;    2,376;    1,045
508,291;  -40,099;    2,649;    1,136
508,876;  -37,328;   -0,988;    2,591
509,461;    6,927;   -0,169;   -0,773
510,046;   43,757;    0,194;    0,318
510,631;   54,850;   -0,351;   -0,773
511,216;  -23,382;    2,467;   -0,500
511,801;   30,153;   -0,442;    2,591
512,386;   53,405;    0,740;    0,500
512,971;   60,368;   -2,988;    0,955
513,555;   88,965;   -0,897;   -1,500
514,140;   46,852;   -0,442;   -3,136
514,725;  155,622;   -0,715;   -1,136
515,309;   73,045;   -0,533;    0,318
515,894;   -9,628;   -0,624;   -2,227
516,479;   18,514;   -0,624;   -0,955
517,063;   18,286;    0,376;    1,227
517,648;  -11,693;    1,012;   -1,136
518,232;  -26,498;   -0,261;   -1,409
518,817;   54,389;   -0,079;    1,682
519,401;  151,053;    2,194;    0,591
519,985;  137,375;    1,103;    1,136
520,570;   42,410;    0,830;   -1,955
521,154;  148,814;    2,102;    0,591
521,738;  346,504;   -2,352;    2,409
522,323;  203,692;   -0,170;    1,682
522,907;  261,730;    0,466;   -0,136
523,491;  209,836;    0,557;    0,955
524,075;  224,269;    2,284;    0,591
524,659;  542,486;    1,466;    0,591
525,243;  545,175;    1,739;    0,409
525,827;  566,878;    0,648;   -0,045
526,411;  730,667;   -1,989;   -0,136
526,995; 1056,414;   -0,352;    1,409
527,579; 1268,606;   -0,443;   -1,045
528,163; 1392,176;    0,375;   -1,500
528,747; 1802,513;    2,466;   -0,773
529,331; 2039,429;   -0,080;   -1,409
529,915; 2154,582;    1,738;    0,955
530,499; 2551,913;   -0,807;    1,227
531,082; 2899,141;   -0,534;    1,591
531,666; 3123,251;    1,374;    0,773
532,250; 3686,219;    1,284;    2,682
532,833; 4263,557;    0,920;    2,773
533,417; 4578,145;   -1,807;    0,864
534,001; 4907,457;    1,647;   -0,318
534,584; 5772,689;    0,374;    0,500
535,168; 6086,679;    0,465;    1,409
535,751; 6608,925;    0,647;    0,045
536,334; 6558,608;   -0,898;   -0,409
536,918; 7436,624;    0,011;    1,591
537,501; 7896,970;   -0,899;    1,318
538,085; 8281,097;   -0,444;    1,045
538,668; 8726,075;    0,829;    2,409
539,251; 9362,781;    1,829;    3,773
539,834; 9771,851;    0,101;    0,773
540,418;10064,483;   -1,990;    4,318
541,001;10400,136;   -0,990;    1,773
541,584;10683,530;    2,101;    2,227
542,167;10738,899;    1,374;    2,955
542,750;11068,432;    1,919;   -0,773
543,333;10915,753;    0,555;    2,136
543,916;11857,489;    0,192;    2,500
544,499;12581,145;   -1,354;    0,227
545,082;12794,220;    1,374;    3,591
545,665;13120,756;    1,919;    1,500
546,248;13597,753;    1,010;   -0,318
546,830;13467,968;   -0,445;    1,955
547,413;14001,691;    1,010;   -0,773
547,996;14638,545;    0,555;    0,500
548,579;14557,146;    0,919;    0,955
549,161;14524,221;    1,828;    2,682
549,744;14417,640;   -0,809;    0,409
550,326;14996,742;   -0,809;   -1,136
550,909;14950,600;    2,737;    0,591
551,492;15428,620;   -0,263;    0,227
552,074;15306,310;   -0,173;   -1,318
552,657;15932,192;    2,373;    0,045
553,239;15839,218;   -0,173;   -0,773
553,821;15832,024;   -1,082;    1,045
554,404;15405,701;    1,282;    1,136
554,986;15827,217;    0,464;    1,045
555,568;16511,061;    1,191;   -0,955
556,151;15801,858;    1,191;   -0,227
556,733;16073,010;   -0,264;   -0,864
557,315;16569,812;    0,100;    0,500
557,897;16418,304;    0,554;   -0,500
558,479;16588,710;   -1,991;    1,318
559,061;16759,866;   -0,719;   -0,864
559,643;17148,216;   -0,264;    0,045
560,225;17534,590;    1,645;    2,864
560,807;17586,761;    0,918;    0,318
561,389;17130,669;    0,554;    2,318
561,971;17900,139;    0,463;    2,136
562,553;17752,358;   -1,628;    1,591
563,135;17928,556;   -0,537;    1,136
563,717;17570,155;    3,372;    1,136
564,298;18263,693;    3,645;   -0,045
564,880;18080,248;    0,645;   -1,409
565,462;18236,793;    0,645;    1,318
566,043;19418,927;   -0,446;    2,318
566,625;18960,558;    1,918;    1,227
567,207;18892,106;    1,099;    1,682
567,788;20018,677;   -1,264;    1,500
568,370;20795,048;    1,917;   -0,500
568,951;20641,591;    0,190;    0,227
569,533;21530,029;   -0,628;   -0,500
570,114;21982,824;   -0,446;    0,682
570,695;22501,208;   -0,174;   -1,318
571,277;23020,906;   -0,265;   -1,682
571,858;23761,432;    2,008;   -1,136
572,439;24628,878;    1,554;   -1,045
573,021;24824,639;    2,099;   -2,773
573,602;25405,572;   -1,265;    0,318
574,183;26265,243;   -2,083;    2,227
574,764;26416,741;   -1,629;    0,409
575,345;26991,344;    0,917;   -0,136
575,926;27565,669;   -0,356;    0,136
576,507;27581,658;    1,099;   -0,227
577,088;28729,625;    3,099;    1,682
577,669;28735,874;    0,735;    1,955
578,250;29521,243;    0,644;   -1,045
578,831;30161,660;   -1,356;   -2,227
579,412;30438,670;   -0,810;    0,955
579,993;31364,836;    1,008;    0,227
580,573;31751,327;   -0,629;   -0,955
581,154;30773,820;    0,735;   -0,591
581,735;31588,564;    0,644;    0,773
582,315;31109,291;   -0,629;    2,136
582,896;31467,469;   -0,174;    1,227
583,477;30927,775;    0,189;    1,227
584,057;31163,531;    0,553;    0,955
584,638;31441,745;    2,553;    2,318
585,218;31425,793;   -0,538;    2,682
585,799;31679,420;    0,281;   -0,227
586,379;31646,353;    0,372;    1,591
586,959;30406,035;    0,735;    0,318
587,540;29765,640;   -0,629;    2,227
588,120;29345,726;    1,007;   -0,045
588,700;28408,639;    2,553;    2,136
589,281;28718,536;    0,462;   -0,955
589,861;28677,872;    0,099;   -1,682
590,441;28476,274;    2,371;   -2,682
591,021;27536,285;   -0,265;   -2,591
591,601;27750,712;   -0,537;    0,500
592,181;27764,723;   -0,719;   -0,773
592,761;27096,493;    0,007;    1,409
593,341;27010,361;   -0,901;    0,045
593,921;27023,957;   -0,265;    1,591
594,501;26963,249;   -0,538;    1,318
595,081;26840,524;    0,917;   -0,318
595,661;27161,549;   -1,447;    0,955
596,240;27664,290;   -0,537;    0,136
596,820;27363,496;    0,372;    1,955
597,400;27550,838;    2,008;    0,773
597,980;27767,735;    2,008;    1,045
598,559;27765,368;    2,735;   -0,227
599,139;27489,945;   -0,174;   -1,227
599,718;27422,127;   -0,174;   -0,409
600,298;27731,400;    0,735;    0,682
600,877;27954,114;    2,917;    1,409
601,457;28174,502;    2,281;    1,136
602,036;28134,707;    0,190;    2,045
602,616;28388,821;    0,644;    1,682
603,195;28722,133;   -0,355;    3,500
603,774;28301,860;   -0,901;    2,045
604,354;28190,838;    0,826;   -0,500
604,933;27690,515;    0,463;    1,864
605,512;27891,821;    3,554;    0,591
606,091;27894,701;   -0,537;    3,773
606,671;28721,475;    0,281;    0,773
607,250;27780,940;    1,644;    3,136
607,829;28062,912;    2,372;    3,227
608,408;27934,659;    1,190;    2,591
608,987;26944,226;    1,281;    3,409
609,566;27264,191;   -1,265;   -2,500
610,145;27390,851;   -1,082;    0,682
610,723;27788,903;    4,372;    6,864
611,302;27084,452;   -0,446;    1,682
611,881;26597,493;    5,008;   11,227
612,460;27426,477;    1,645;    3,955
613,039;27834,769;   -0,082;    2,045
613,617;26635,237;    1,736;    4,773
614,196;26815,872;    1,099;    1,227
614,775;27145,272;    1,009;    2,409
615,353;27093,728;    0,736;    0,864
615,932;26852,530;    0,100;    2,409
616,510;27406,448;    0,554;    0,591
617,089;26959,241;    7,100;   17,591
617,667;26664,717;    2,372;    6,136
618,246;26545,323;   -1,537;    1,318
618,824;26774,130;   -3,355;   -0,955
619,402;26301,681;   -2,900;   -1,773
619,981;26840,432;   -0,173;   -1,045
620,559;26674,444;    0,009;    1,682
621,137;26228,079;   -0,718;    1,864
621,715;26263,223;   -1,173;   -0,682
622,293;26108,315;   -0,537;   -0,773
622,871;26570,903;   -0,718;    0,500
623,450;26220,693;    0,373;   -0,864
624,028;26145,562;    0,191;   -0,955
624,606;25824,446;   -1,718;    1,682
625,183;26202,887;   -1,536;   -1,136
625,761;25769,518;    1,009;    1,136
626,339;26048,894;    1,373;    2,591
626,917;26464,136;   -0,172;   -0,045
627,495;26535,457;   -0,354;    1,318
628,073;25937,593;   -0,263;    2,864
628,650;25628,685;    0,100;    2,136
629,228;26097,340;    0,373;    4,409
629,806;25562,514;    2,282;    1,136
630,383;25784,121;    1,464;   -0,318
630,961;25607,273;    2,555;   -0,955
631,539;25348,987;    2,464;    0,227
632,116;24736,818;   11,373;   15,409
632,694;25291,222;    2,555;    6,500
633,271;25582,179;    0,828;    2,682
633,848;25493,434;    1,828;    2,045
634,426;25552,004;   -1,081;    1,773
635,003;24630,422;    1,101;   -0,409
635,580;24982,674;    1,192;    3,682
636,158;25559,060;    3,737;    1,227
636,735;25557,575;    0,555;   -0,500
637,312;25624,064;   -0,809;   -0,682
637,889;25774,765;   -4,354;   -0,682
638,466;25285,916;   -3,990;   -0,409
639,043;25289,889;    2,101;   -1,136
639,620;25600,215;   -2,262;   -0,955
640,197;25894,776;    1,100;    1,682
640,774;26058,562;   -0,172;    1,136
641,351;26463,438;    0,737;    1,136
641,928;25874,860;   -0,627;    1,409
642,505;25529,464;    0,828;   -0,500
643,082;25644,885;   -1,718;    1,227
643,658;24657,034;   -0,718;    1,500
644,235;25416,456;    1,191;    2,500
644,812;25721,696;    1,918;    0,773
645,388;25501,936;   -0,991;    1,409
645,965;25564,176;   -0,809;    1,682
646,542;25671,507;   -1,445;   -0,227
647,118;25624,747;    1,009;   -0,955
647,695;25950,532;   -0,263;    1,136
648,271;25869,591;   -0,536;    0,500
648,848;26203,649;    0,736;    2,227
649,424;26036,161;    0,827;    1,318
650,000;25779,311;   -0,354;   -1,045
650,577;25646,551;   -0,627;   -0,955
651,153;26067,427;   -1,809;    0,955
651,729;27089,576;    1,191;    0,864
652,305;27381,452;    0,645;    2,773
652,881;32052,329;   -0,082;    1,136
653,458;39008,387;    1,100;    0,227
654,034;42826,990;    0,282;    1,591
654,610;44302,776;    0,554;    0,773
655,186;45582,470;    0,645;    3,045
655,762;45188,074;   -0,991;    0,409
656,338;45198,132;    0,100;    0,136
656,913;46125,918;   -0,082;    0,409
657,489;45420,339;    0,827;   -0,318
658,065;45313,216;   -0,173;   -1,591
658,641;46004,728;   -0,900;   -0,864
659,217;45284,514;   -0,991;    0,409
659,792;44659,118;    0,645;   -0,409
660,368;44894,630;   -2,173;   -0,682
660,944;44504,507;   -2,082;    1,227
661,519;39765,474;   -0,628;    0,409
662,095;33738,623;   -1,719;    0,591
662,670;29218,499;    1,281;   -0,136
663,246;28078,648;    1,009;   -0,409
663,821;27375,525;    0,281;    1,682
664,396;26912,946;    0,009;    1,864
664,972;27247,641;    0,009;   -0,500
665,547;27498,245;    1,372;    0,136
666,122;27590,848;   -1,082;    0,318
666,698;27859,725;   -0,173;    0,318
667,273;27179,783;   -0,173;    0,136
667,848;28026,659;    2,372;    1,500
668,423;27801,535;    2,190;    2,318
668,998;28419,685;    2,827;   -0,682
669,573;28958,652;   -3,264;   -1,500
670,148;28767,710;   -1,446;   -0,682
670,723;28557,223;   -1,810;    0,318
671,298;28967,735;    2,372;    1,045
671,873;29084,066;   -0,082;   -0,136
672,448;29030,579;    0,645;    0,136
673,023;29311,001;   -1,992;   -0,227
673,597;29622,786;    0,827;    2,318
674,172;29442,208;   -0,355;    0,318
674,747;28920,175;    0,372;   -1,045
675,321;28764,142;   -0,628;    3,318
675,896;28376,746;    0,645;    1,045
676,471;29359,077;    2,645;    1,591
677,045;29124,044;   -1,264;    0,682
677,620;29209,284;    0,190;    1,136
678,194;29547,524;   -2,628;    1,136
678,769;29113,673;   -1,083;   -0,318
679,343;29347,004;   -0,628;    1,773
679,917;29262,244;   -1,446;    1,955
680,492;29336,575;    0,826;    3,227
681,066;29425,906;    3,372;    0,409
681,640;29487,328;    1,463;   -0,318
682,214;30272,204;    0,735;    0,500
682,788;29830,899;   -1,356;   -0,773
683,363;29775,593;   -1,810;    1,682
683,937;29474,651;   -1,719;   -0,318
684,511;30237,800;    0,463;   -0,591
685,085;29956,404;   -1,356;    0,318
685,659;29689,644;   -2,538;    0,864
686,232;29967,611;   -0,356;   -0,318
686,806;29652,488;   -0,901;    0,409
687,380;30336,546;   -0,174;    0,591
687,954;30563,331;   -1,174;    1,136
688,528;30226,753;   -0,719;    1,955
689,101;31007,447;   -3,992;    1,045
689,675;30591,869;   -0,356;   -0,136
690,249;29965,018;   -0,719;    0,409
690,822;30284,713;    0,280;    0,318
691,396;30415,407;   -0,265;    1,227
691,969;29859,829;    1,280;    0,136
692,543;30326,251;   -0,447;   -1,955
693,116;29978,673;   -0,265;   -1,409
693,690;29805,095;    0,099;    0,500
694,263;30360,335;   -1,083;    2,955
694,836;30435,302;    1,371;    3,591
695,410;29097,451;   -0,265;    1,773
695,983;29557,236;    0,189;    0,591
696,556;29502,022;   -0,447;   -1,045
697,129;29878,807;   -0,356;    1,409
697,703;29563,593;   -1,629;    1,955
698,276;29498,924;    1,462;   -0,773
698,849;29332,345;    1,280;    1,409
699,422;29692,767;   -1,083;    0,591
699,995;29416,007;    0,007;    0,136
700,568;29872,520;   -0,629;    3,045
701,140;29902,123;   -2,811;    1,682
701,713;29649,000;   -0,174;    2,409
702,286;29400,240;   -0,538;    0,864
702,859;29319,662;   -0,902;   -0,591
703,432;28495,992;    0,825;    0,682
704,004;28996,051;    0,462;    0,318
704,577;28840,109;   -0,629;    0,136
705,150;29422,985;    0,189;    2,500
705,722;29180,952;   -0,356;   -3,227
706,295;28954,829;   -0,175;   -0,591
706,867;28824,978;   -0,175;    1,955
707,440;29030,400;   -1,720;   -0,409
708,012;29299,458;    0,462;    0,591
708,584;29208,425;    2,462;    0,227
709,157;29478,665;    1,825;   -0,591
709,729;29126,905;    2,280;    2,045
710,301;29963,600;    0,734;    0,045
710,874;30004,567;   -1,447;   -0,227
711,446;28868,443;    0,371;    0,864
712,018;28774,047;    0,098;    0,500
712,590;28489,650;   -1,993;    1,682
713,162;28985,981;    0,825;    1,318
713,734;29262,312;    1,825;   -2,045
714,306;29175,007;   -1,902;   -0,409
714,878;27860,428;    0,825;    0,864
715,450;28676,578;    0,643;    0,864
716,022;28906,818;    1,552;    1,318
716,593;29050,512;    0,189;    0,591
717,165;29020,297;   -3,175;   -1,227
717,737;28701,265;    0,280;    0,409
718,309;28353,232;    0,280;   -0,045
718,880;28288,017;   -0,539;   -1,409
719,452;28580,894;   -0,175;   -1,591
720,024;28142,679;    0,734;   -0,591
720,595;28729,737;   -2,902;    0,955
721,167;28268,341;    0,370;   -2,045
721,738;27853,581;   -0,812;   -1,045
722,309;27798,276;   -0,993;   -1,227
722,881;27579,515;   -1,357;    0,773
723,452;28234,665;   -2,630;    2,864
724,023;28406,359;   -0,721;    2,682
724,595;28121,508;    0,007;    0,682
725,166;27919,657;    0,007;   -0,409
725,737;27618,715;    1,734;    0,227
726,308;27628,137;   -0,266;    0,318
726,879;28080,741;   -1,630;    1,227
727,450;27960,617;    0,552;   -0,045
728,021;27895,130;    3,097;    0,682
728,592;27664,370;    0,734;    0,500
729,163;28029,610;    0,643;   -0,136
729,734;28039,032;    0,188;   -0,227
730,305;28393,090;    1,734;    0,136
730,876;28748,966;    0,188;    2,955
731,447;28413,842;    2,188;    2,682
732,017;28549,810;    1,097;    1,864
732,588;28028,868;    0,734;    1,227
733,159;28268,199;    0,643;   -1,045
733,729;28061,802;    0,006;    0,409
734,300;27293,133;    0,915;    0,864
734,870;27740,373;    3,461;    0,591
735,441;28277,704;    0,370;   -0,591
736,011;28124,671;    0,643;   -1,591
736,582;28071,911;   -0,812;    0,045
737,152;27519,242;   -1,721;   -2,045
737,722;27918,300;   -0,267;   -0,682
738,293;27622,904;   -1,358;    1,318
738,863;27519,235;    2,461;    2,318
739,433;27317,020;    5,279;    0,318
740,003;27945,260;   -0,994;   -0,682
740,573;27364,319;    2,097;   -1,591
741,143;27334,104;   -1,085;    0,318
741,713;28121,071;    1,188;   -0,500
742,283;27821,129;    0,915;    1,591
742,853;27601,733;    1,915;    1,591
743,423;27032,791;    1,733;    0,045
743,993;27161,304;   -0,358;    1,500
744,563;26548,908;    0,097;   -0,864
745,133;26511,511;   -0,812;   -0,864
745,702;27172,751;   -0,267;    1,773
746,272;26381,900;   -0,176;    0,591
746,842;26173,686;   -1,358;   -0,591
747,411;26572,653;   -0,267;   -0,318
747,981;26720,075;    0,097;    0,500
748,551;26829,406;    2,278;   -1,045
749,120;26687,555;    0,642;   -0,227
749,690;27062,158;   -0,631;    2,409
750,259;27371,944;    1,369;    2,955
750,828;27305,002;    1,551;   -1,955
751,398;27545,787;    1,278;   -0,045
751,967;27007,845;    2,187;    0,409
752,536;27269,540;   -0,813;   -0,227
753,105;27699,780;    0,096;    0,227
753,675;27507,747;    0,096;    1,773
754,244;27426,714;   -0,904;    3,591
754,813;27443,409;    0,551;    1,227
755,382;27014,376;    0,460;    0,955
755,951;27621,253;    1,551;    3,682
756,520;27122,765;   -0,085;    1,864
757,089;27701,369;    0,278;    0,500
757,658;27852,245;    1,733;    1,227
758,227;27845,667;    1,096;    0,318
758,795;28155,816;    1,187;    1,136
759,364;28359,602;   -0,086;   -0,591
759,933;27397,842;   -1,176;   -0,045
760,501;26950,809;    0,733;   -1,318
761,070;27404,231;   -2,813;   -1,409
761,639;28127,198;   -1,904;    1,318
762,207;27465,801;    1,551;   -0,955
762,776;27356,860;    0,369;    0,864
763,344;27377,100;   -0,995;    0,591
763,913;26442,885;   -0,722;    1,409
764,481;27200,034;    1,005;   -0,136
765,049;26985,638;   -1,358;    1,409
765,618;26895,060;   -0,086;    0,318
766,186;26927,027;    0,278;    0,136
766,754;27127,903;    0,005;    1,864
767,322;26105,143;   -1,995;    0,409
767,890;26126,747;   -0,722;   -1,773
768,459;26543,441;   -2,177;   -0,318
769,027;26726,499;    1,641;    3,409
769,595;25683,558;    3,278;    2,591
770,163;26105,707;    3,823;    2,955
770,730;25827,128;    0,732;   -0,136
771,298;25692,823;    0,187;   -1,409
771,866;25784,154;   -1,541;    4,955
772,434;26075,667;   -0,631;   -1,864
773,002;26233,907;    0,005;    0,682
773,569;25877,147;    0,914;    1,682
774,137;25770,023;   -0,268;   -0,045
774,705;26585,990;    0,278;   -0,136
775,272;26029,048;    0,641;    0,682
775,840;25767,016;   -0,177;    2,682
776,407;25272,983;    0,277;    1,955
776,975;24870,314;   -0,632;    0,318
777,542;25900,281;   -1,086;   -0,045
778,110;25749,612;   -1,268;   -0,045
778,677;25448,579;   -2,359;   -0,864
779,244;25196,910;    2,186;    1,045
779,812;25298,514;    1,823;    0,864
780,379;25153,481;    0,005;    1,136
780,946;25409,448;    1,005;   -0,773
781,513;25764,688;   -1,450;    0,318
782,080;25141,383;   -0,086;    2,864
782,647;25878,259;   -0,268;    3,045
783,214;25378,135;   -0,177;    3,864
783,781;25032,739;   -0,723;   -0,682
784,348;24896,524;   -0,632;    1,500
784,915;25394,764;   -3,177;    0,318
785,482;25141,913;    1,368;    2,591
786,049;25564,972;    0,186;   -0,591
786,615;25639,302;    0,277;   -0,955
787,182;25395,452;    0,186;   -0,682
787,749;25067,601;   -2,814;    1,409
788,315;24406,750;   -1,632;   -0,409
788,882;24732,262;    1,550;   -1,227
789,448;25409,139;    1,732;   -0,955
790,015;25447,015;    1,095;    3,227
790,581;25017,255;    1,459;    0,227
791,148;24881,768;    0,641;    1,045
791,714;25134,917;   -0,541;    3,136
792,280;24797,339;    0,186;    1,591
792,847;24348,124;    0,550;    2,500
793,413;24900,455;   -0,269;   -0,318
793,979;24446,059;    3,459;   -1,318
794,545;24597,117;    4,459;    2,682
795,111;23970,266;    2,186;    1,318
795,678;24152,233;    0,731;   -1,682
796,244;23795,382;    3,368;    0,136
796,810;24311,440;    1,731;    0,773
797,375;24066,226;    0,549;   -2,136
797,941;24051,011;   -0,541;    0,591
798,507;24220,524;   -0,451;   -0,955
799,073;23814,218;   -0,360;    0,591
799,639;23856,368;   -2,632;    3,136
800,205;23886,698;    0,095;    2,682
800,770;23416,847;    0,640;    1,773
801,336;23517,360;    1,368;   -0,955
801,901;23208,146;    4,549;    3,136
802,467;23741,931;   -0,542;    2,045
803,033;23070,626;   -0,087;    0,864
803,598;23294,684;    1,913;   -1,045
804,163;23294,015;    1,095;   -0,318
804,729;23256,800;   -0,178;    1,136
805,294;23710,404;    0,822;    2,227
805,859;23474,371;    0,731;   -0,409
806,425;22940,065;    1,186;    2,682
806,990;22598,942;    2,186;    4,318
807,555;23103,545;   -1,451;    2,591
808,120;23007,513;    0,822;   -0,409
808,685;23010,844;    0,185;   -2,500
809,250;22531,084;    0,004;   -0,500
809,815;22861,596;    1,913;    0,682
810,380;23439,836;   -0,269;    1,591
810,945;23962,440;   -1,087;    2,045
811,510;23081,316;    2,094;    1,591
812,075;22811,556;   -0,633;   -1,409
812,640;22837,887;    2,003;    1,409
813,204;22891,036;    0,822;   -0,227
813,769;23358,913;    2,094;   -0,045
814,334;22812,425;    0,458;    0,864
814,898;22845,938;    0,367;    0,591
815,463;22719,632;    1,276;   -0,773
816,027;22676,054;   -0,724;   -2,318
816,592;22726,567;    0,640;   -2,045
817,156;22278,080;    2,094;    1,136
817,721;22146,047;    4,276;    2,318
818,285;22051,378;    2,912;    1,500
818,849;22718,072;   -1,451;    1,682
819,414;22616,312;   -0,269;    2,955
819,978;22233,098;   -1,269;    1,773
820,542;22813,974;    2,003;    0,500
821,106;22507,487;   -0,815;    0,682
821,670;22590,909;   -0,815;    2,591
822,234;22301,421;   -0,270;    1,409
822,798;21674,389;    0,003;    0,500
823,362;21668,447;   -0,633;    4,227
823,926;20970,596;    0,094;    1,136
824,490;21222,654;   -0,997;   -0,682
825,054;21630,621;   -0,088;   -1,136
825,618;21228,225;   -1,542;   -1,500
826,181;21168,374;    0,458;   -1,318
826,745;21085,614;    1,367;   -1,045
827,309;21440,672;    1,185;    1,318
827,872;20870,003;    1,367;    0,955
828,436;21887,152;    1,185;   -0,773
828,999;21873,028;   -0,997;    1,227
829,563;20680,723;   -0,179;    1,136
830,126;20522,599;   -0,179;   -0,591
830,690;20535,021;   -1,997;    2,864
831,253;20035,261;   -0,543;    2,227
831,816;20224,046;   -1,906;    0,500
832,380;20146,832;    0,185;    0,864
832,943;20347,163;   -1,361;   -0,500
833,506;19783,766;    2,639;   -1,227
834,069;20581,279;    3,912;   -0,955
834,632;20671,337;    1,730;    1,318
835,195;20539,577;    1,003;    0,955
835,758;19759,908;   -0,997;    1,955
836,321;19610,148;    0,730;   -1,045
836,884;19686,752;   -0,725;   -0,955
837,447;19716,264;   -2,816;    1,773
838,010;19971,232;    0,366;    3,227
838,573;20247,017;   -1,179;    0,773
839,135;20220,984;   -1,361;   -0,955
839,698;19679,133;    1,275;    0,409
840,261;19210,737;    1,003;   -0,227
840,823;19041,523;   -0,543;    0,864
841,386;19312,126;   -0,452;   -2,409
841,948;19194,366;   -1,361;    1,773
842,511;18962,061;    0,912;    1,682
843,073;19093,210;    1,912;    0,227
843,636;18905,632;   -0,361;   -0,227
844,198;18851,690;    0,911;    0,591
844,760;18950,384;    1,093;    1,955
845,322;18599,442;    0,548;    1,136
845,885;19059,682;    0,730;    0,591
846,447;19491,650;   -1,998;    0,227
847,009;19028,799;    1,911;   -0,682
847,571;19376,220;    0,820;   -2,045
848,133;19498,370;   -1,089;   -1,864
848,695;19296,519;   -0,543;    1,409
849,257;18875,577;   -1,089;   -1,682
849,819;19004,999;   -0,998;   -0,409
850,381;19042,239;   -0,725;   -0,864
850,942;19409,024;    1,093;   -0,591
851,504;19382,355;    1,184;    0,227
852,066;19407,959;    1,275;   -1,591
852,628;18943,653;   -0,180;    1,955
853,189;18502,257;    1,638;    2,682
853,751;18613,769;   -0,907;    1,409
854,312;18414,918;   -0,453;   -1,682
854,874;18913,704;   -2,089;   -0,773
855,435;19479,489;   -0,907;   -1,682
855,997;19638,093;   -1,816;   -0,136
856,558;18892,969;    0,366;    1,773
857,119;19038,482;    0,820;    2,864
857,681;18632,449;    0,002;    0,318
858,242;18694,053;    1,911;   -2,136
858,803;19207,202;    0,456;   -0,773
859,364;19715,533;    0,184;   -4,773
859,925;19057,227;   -2,453;   -0,955
860,486;18955,649;   -0,453;   -0,955
861,047;18661,798;   -0,544;   -1,227
861,608;18492,493;   -1,089;   -0,773
862,169;18606,460;    0,638;   -0,045
862,730;18381,064;    0,456;    1,409
863,291;18613,849;   -0,635;   -0,500
863,852;19001,725;   -0,635;    1,955
864,412;18500,420;   -0,271;   -0,864
864,973;17055,024;   -0,089;    0,500
865,534;16916,991;   -1,726;    0,227
866,094;18448,322;    1,820;    0,227
866,655;18090,834;    1,274;    3,318
867,215;18349,893;    0,274;    0,136
867,776;18220,223;    0,547;   -0,136
868,336;18320,463;   -1,453;    0,136
868,897;17783,976;    2,638;    1,682
869,457;17485,489;    1,365;    0,318
870,017;17696,729;    0,547;   -1,227
870,578;18221,878;   -0,817;    0,773
871,138;17951,209;   -2,089;   -0,955
871,698;17490,176;   -0,817;   -1,318
872,258;17331,689;   -0,453;   -2,864
872,818;17708,383;    2,729;    0,045
873,378;17703,896;    0,638;    1,045
873,938;17228,227;    0,547;    0,500
874,498;17532,740;    0,274;   -1,955
875,058;17503,343;    2,183;    1,773
875,618;17331,765;    1,910;   -2,682
876,177;17232,823;    1,274;    0,136
876,737;16874,154;   -0,090;    1,955
877,297;16913,485;    0,183;    1,955
877,856;16916,543;   -0,362;    0,318
878,416;16825,056;    1,183;   -0,136
878,976;17069,841;   -1,817;    0,409
879,535;17257,263;    0,092;    3,136
880,095;16952,867;   -0,544;    0,045
880,654;17077,198;   -1,090;    1,318
881,213;17206,074;    2,456;    1,500
881,773;16817,859;    2,637;    2,682
882,332;17178,554;    3,365;    5,136
882,891;17037,157;    3,092;    2,136
883,451;17494,216;   -1,272;    1,682
884,010;16931,365;   -2,908;   -0,409
884,569;17005,787;   -0,999;   -0,045
885,128;17147,572;    2,819;   -1,864
885,687;17237,812;    4,455;    0,682
886,246;16948,688;    1,455;    2,136
886,805;16709,292;    2,455;    2,045
887,364;16985,623;   -0,999;   -0,500
887,922;17383,317;   -1,181;    0,045
888,481;16866,921;   -1,545;    0,591
889,040;17163,797;    1,183;    2,136
889,599;17869,855;    2,455;    1,409
890,157;17883,368;    1,455;    2,409
890,716;17585,154;   -0,090;    0,227
891,274;17376,757;    0,092;   -1,136
891,833;17791,724;    1,546;    0,864
892,391;17719,783;   -0,454;    0,500
892,950;17794,477;    1,819;   -0,773
893,508;18135,172;    0,455;   -0,409
894,067;17499,412;    0,637;    0,136
894,625;17406,924;   -0,636;   -1,500
895,183;17623,346;   -0,363;   -0,682
895,741;17509,950;    1,728;   -1,773
896,299;17338,463;   -0,545;   -2,409
896,858;17508,975;    0,819;   -1,591
897,416;17673,397;    2,728;   -1,318
897,974;17415,546;    1,819;    0,318
898,532;17560,877;    6,091;    2,682
899,089;17459,481;    2,091;   -0,682
899,647;17477,993;   -1,454;    1,318
900,205;17187,506;    1,182;    1,045
900,763;17370,837;   -0,454;    0,227
901,321;17385,531;    2,364;   -1,409
901,878;16830,590;   -1,000;   -0,773
902,436;16712,648;   -1,363;    1,318
902,994;17082,615;    4,728;    3,682
903,551;16489,673;    0,728;    0,409
904,109;16908,004;    0,182;   -1,409
904,666;16506,880;    2,455;    1,045
905,224;16322,575;    0,182;   -0,409
905,781;16078,179;    0,727;   -0,318
906,338;16177,873;   -1,363;    1,045
906,895;16067,113;    0,637;    2,045
907,453;16001,808;    1,727;    1,136
908,010;16052,048;   -0,909;    0,409
908,567;15695,833;    1,273;    0,591
909,124;15195,709;    0,364;   -1,500
909,681;15274,040;   -2,909;    0,682
910,238;15412,189;    0,636;   -1,318
910,795;15713,702;   -0,273;   -1,136
911,352;15319,611;   -2,909;   -2,682
911,909;14718,884;   -1,364;   -0,864
912,466;15222,338;   -3,182;    1,500
913,022;14783,611;   -1,636;    0,500
913,579;15135,884;   -0,909;    2,045
914,136;14835,884;    1,636;    0,955
914,692;15196,157;    0,091;   -1,227
915,249;14814,793;    1,455;    0,409
915,806;15023,157;    0,182;    1,955
916,362;14780,611;    1,909;    1,864
916,918;14321,157;    2,000;    1,045
917,475;14287,338;   -1,182;    0,955
918,031;14378,066;    3,364;   -0,045
918,587;13811,429;   -0,909;   -0,318
919,144;14035,338;   -2,273;    0,227
919,700;14336,975;    1,727;    0,773
920,256;13929,247;    0,727;    0,045
920,812;13564,247;   -0,727;   -1,045
921,368;13517,793;   -1,727;   -1,045
921,924;13178,429;    0,182;   -0,136
922,480;12749,429;   -0,545;    1,227
923,036;13349,702;    1,273;    1,955
923,592;13296,702;    0,455;    0,318
924,148;13202,884;    0,455;   -0,955
924,704;12509,066;   -1,364;   -0,409
925,259;12785,702;   -0,273;    0,591
925,815;12559,793;    1,455;    0,500
926,371;12080,975;    2,909;    1,409
926,926;11967,975;    2,091;    0,591
927,482;11608,702;   -1,364;    0,773
928,037;11483,066;    0,909;    2,045
928,593;11751,520;    1,636;    1,045
929,148;11562,975;   -1,818;   -1,500
929,704;11086,611;   -1,455;   -0,500
930,259;11292,884;    0,091;   -0,136
930,814;10337,793;   -0,818;    1,955
931,369;10021,702;    1,091;   -0,773
931,925; 9887,520;   -0,091;    0,136
932,480; 9817,520;   -2,818;   -2,591
933,035; 9680,884;    0,545;   -0,318
933,590; 9444,702;    0,364;   -1,773
934,145; 9072,066;   -1,364;   -0,318
934,700; 9408,066;    0,455;   -0,591
935,255; 9225,975;   -0,091;    0,045
935,809; 8504,247;    3,182;    0,864
936,364; 7622,520;   -0,455;   -0,136
936,919; 7601,338;    0,455;   -1,773
937,474; 7487,520;    1,455;    0,136
938,028; 7234,157;   -1,636;    1,136
938,583; 6702,429;    1,818;    4,682
939,138; 6959,247;    2,091;    2,136
939,692; 6423,247;    1,636;   -1,136
940,247; 6121,247;   -0,727;   -1,045
940,801; 5656,611;   -0,636;    0,227
941,355; 5551,611;   -0,364;    2,591
941,910; 5174,338;   -0,273;   -2,136
942,464; 5294,157;   -0,818;   -0,318
943,018; 5063,702;    1,000;   -0,227
943,572; 5034,702;    2,545;   -0,682
944,126; 4441,975;    0,091;   -0,409
944,681; 4332,793;    3,091;    0,227
945,235; 4318,247;    1,000;   -0,591
945,789; 4262,702;    0,364;   -1,864
946,342; 4353,247;    0,455;   -0,591
946,896; 4157,884;   -2,273;    0,955
947,450; 3911,157;    1,545;   -0,227
948,004; 4115,884;    1,727;   -0,045
948,558; 4109,975;    0,273;   -0,864
949,111; 4036,793;   -0,273;   -0,318
949,665; 4043,611;    1,636;   -0,682
950,219; 3923,793;   -0,091;   -1,045
950,772; 3999,793;   -1,909;    1,864
951,326; 3901,702;    0,545;   -0,955
951,879; 4022,066;    0,727;   -2,318
952,433; 4020,429;    0,000;    2,227
952,986; 3861,429;    2,909;    0,682
953,539; 3831,429;   -0,273;    0,591
954,093; 3755,338;    0,545;   -1,318
954,646; 3894,702;    0,909;    1,318
955,199; 3703,611;    0,000;   -0,500
955,752; 3571,975;   -0,455;    1,773
956,305; 3550,702;   -0,091;    2,955
956,858; 3718,884;    0,818;   -0,318
957,411; 3880,429;   -0,545;    2,136
957,964; 3693,611;    1,364;    2,136
958,517; 3680,884;   -1,545;    3,136
959,070; 3518,793;   -0,455;    1,955
959,623; 3593,157;    1,091;    1,500
960,176; 3366,066;    1,727;    2,045
960,728; 3336,066;   -2,727;    0,773
961,281; 3395,702;    0,545;    0,500
961,834; 3458,611;   -0,909;    0,864
962,386; 3365,338;    1,727;    1,045
962,939; 3284,884;    0,364;   -0,318
963,491; 3430,975;    0,455;    1,136
964,043; 3289,884;    1,182;    2,409
964,596; 3430,338;   -1,000;    2,227
965,148; 3263,611;   -1,000;    1,773
965,700; 3190,793;    1,091;   -0,227
966,253; 3351,611;   -0,636;    0,318
966,805; 3171,702;   -2,273;    0,773
967,357; 3232,793;    1,091;   -1,500
967,909; 3197,247;    0,455;   -1,227
968,461; 3311,611;    0,545;    3,136
969,013; 3222,247;   -0,182;   -0,864
969,565; 3288,702;   -0,455;   -1,136
970,117; 3354,611;   -0,364;    1,045
970,669; 3200,702;    0,182;   -0,136
971,220; 3065,702;   -0,455;   -1,500
971,772; 2985,157;   -0,636;   -0,318
972,324; 3106,520;    0,091;   -0,500
972,876; 3064,157;    0,818;   -0,045
973,427; 3199,520;    1,909;   -1,045
973,979; 3149,247;   -0,727;   -2,500
974,530; 3189,611;    1,818;    1,318
975,082; 3219,520;   -0,545;    1,682
975,633; 3113,611;    1,091;    1,682
976,184; 3253,157;    0,909;    0,773
976,736; 3022,884;    0,091;    0,227
977,287; 2817,975;   -0,909;   -0,500
977,838; 3009,520;    0,909;   -0,318
978,389; 3063,884;   -1,000;   -0,500
978,940; 2947,611;    0,545;   -0,409
979,491; 2984,520;    0,091;   -0,500
980,042; 2923,702;    0,182;    3,045
980,593; 2990,066;   -2,545;    0,227
981,144; 3022,338;    2,545;   -0,500
981,695; 3003,429;    1,455;    1,500
982,246; 2956,247;   -0,273;    1,045
982,797; 3137,884;   -1,727;    0,682
983,347; 3226,702;    0,364;    0,591
983,898; 3395,066;    3,091;    0,409
984,449; 3210,884;    2,182;    0,773
984,999; 3122,066;    1,455;   -1,136
985,550; 2898,975;    0,182;   -0,318
986,100; 2935,338;   -0,455;   -0,318
986,651; 2971,520;   -0,818;    0,045
987,201; 2953,066;   -1,000;   -0,591
987,751; 3017,884;    0,818;    2,864
988,302; 3009,611;    2,636;    1,500
988,852; 3026,793;    0,455;   -1,136
989,402; 3053,611;    0,091;    0,682
989,952; 2979,520;   -2,182;    0,864
990,502; 3101,429;   -0,091;    0,682
991,052; 3048,247;   -0,727;    0,045
991,602; 2916,429;   -2,909;    1,318
992,152; 2909,975;    0,455;    0,682
992,702; 2896,702;    1,364;   -0,045
993,252; 2837,338;   -3,000;   -0,500
993,802; 2922,338;   -0,273;    1,318
994,352; 3155,338;   -1,545;    1,136
994,901; 3247,429;   -0,182;    3,227
995,451; 3148,975;   -0,182;    0,318
996,000; 3242,520;    1,636;    0,318
996,550; 2946,338;    2,273;    0,227
997,100; 2942,247;    1,273;   -0,045
997,649; 3232,066;    2,182;    0,955
998,198; 2857,702;    1,727;   -1,500
998,748; 3061,247;    1,091;   -2,318
999,297; 2971,884;   -0,818;   -0,409
999,846; 3012,611;    1,000;   -0,773
1000,395; 3060,520;   -0,818;    0,500
1000,945; 3029,429;    1,818;   -0,773
1001,494; 3112,429;    2,364;    0,682
1002,043; 3113,884;    4,636;    0,864
1002,592; 2946,793;   -1,091;    1,955
1003,141; 3108,975;   -0,455;   -0,682
1003,690; 2964,884;    1,727;    0,500
1004,238; 3048,520;    1,455;   -0,045
1004,787; 2676,702;    1,364;    1,227
1005,336; 2915,611;    0,364;    0,682
1005,885; 3050,429;    1,364;   -2,773
1006,433; 3200,066;    0,545;    0,955
1006,982; 3248,338;    0,455;    1,682
1007,531; 3158,066;   -1,818;   -0,227
1008,079; 3085,884;   -2,273;    0,500
1008,627; 3253,884;   -1,455;    0,409
1009,176; 2987,520;    0,000;   -1,955
1009,724; 3038,793;    1,091;    0,864
1010,273; 3099,611;    1,273;    0,500
1010,821; 3209,338;    0,091;    1,409
1011,369; 2954,975;   -1,364;    1,318
1011,917; 2920,793;   -1,364;   -0,591
1012,465; 3178,247;    1,273;   -1,591
1013,013; 3297,429;    2,091;   -1,682
1013,561; 3179,702;    0,455;   -0,773
1014,109; 3243,338;   -1,909;    1,682
1014,657; 3123,338;    0,364;    0,591
1015,205; 3240,702;    1,636;   -0,955
1015,753; 3278,429;   -0,545;   -1,409
1016,301; 3298,793;   -2,636;    3,045
1016,848; 3315,611;   -1,273;    0,409
1017,396; 3347,520;    2,545;    0,045
1017,944; 3478,157;    1,182;    1,864
1018,491; 3240,066;    0,273;    1,409
1019,039; 3377,247;    0,455;    0,591
1019,586; 3307,247;   -1,364;    1,682
1020,134; 3409,157;    0,455;    1,500
1020,681; 3435,157;    0,182;   -1,136
1021,228; 3420,702;    2,909;   -2,227
1021,776; 3259,338;    1,182;   -1,136
1022,323; 3483,702;    0,455;    0,773
1022,870; 3408,884;   -1,000;   -0,045
1023,417; 3307,429;    2,636;    1,864
1023,964; 3454,793;    2,636;    1,227
1024,511; 3297,520;    1,000;    0,773
1025,058; 3094,975;    3,182;   -0,045
1025,605; 3146,611;   -2,273;    3,136
1026,152; 3365,157;    1,727;   -0,591
1026,699; 3092,066;    1,818;    1,318
1027,245; 3267,884;   -0,091;    0,318
1027,792; 3470,520;   -1,000;    1,409
1028,339; 3348,884;    2,364;   -0,045
1028,885; 3182,884;    1,000;   -0,227
1029,432; 3147,520;   -0,091;    0,227
1029,978; 3213,066;   -1,000;   -1,591
1030,525; 3114,520;    1,000;    0,409
1031,071; 3361,520;   -1,364;    1,136
1031,618; 3452,611;    0,364;    1,682
1032,164; 3238,702;   -0,091;    3,045
1032,710; 3279,793;    1,636;   -1,500
1033,256; 3195,975;   -0,636;   -0,136
1033,803; 3201,429;   -0,545;    1,500
1034,349; 2925,702;   -1,364;    0,136
1034,895; 3073,157;    0,000;   -0,318
1035,441; 3059,066;   -0,818;    0,318
1035,987; 3044,338;   -2,364;   -0,682
1036,533; 3029,429;   -1,455;   -0,955
1037,078; 3249,884;    1,455;    1,682
1037,624; 3085,975;    2,455;   -0,955
1038,170; 3099,793;    0,455;   -0,318
1038,716; 2983,157;    1,636;   -0,409
1039,261; 2912,975;   -2,273;   -0,773
1039,807; 2848,793;   -0,091;    3,409
1040,352; 2909,793;   -1,909;   -0,318
1040,898; 2945,975;   -1,545;   -0,682
1041,443; 2843,793;   -1,455;   -2,591
1041,989; 2869,702;    1,091;    1,591
1042,534; 2766,338;   -0,364;    2,591
1043,079; 2876,157;    2,909;    0,955
1043,625; 2671,338;    1,818;    0,500
1044,170; 2713,793;   -1,364;    1,045
1044,715; 2964,247;    2,455;    0,955
1045,260; 2785,975;    2,182;   -0,955
1045,805; 2824,520;    1,182;   -0,591
1046,350; 2767,611;    1,364;   -0,409
1046,895; 2720,884;    2,909;    1,591
1047,440; 2666,066;    5,364;    0,409
1047,985; 2558,157;    2,818;   -0,955
1048,530; 2478,520;    1,545;    1,227
1049,074; 2545,338;    0,000;    0,318
1049,619; 2527,884;   -1,364;    1,955
1050,164; 2329,247;    0,455;    0,227
1050,708; 2369,066;   -0,455;    0,045
1051,253; 2736,884;    1,273;   -2,227
1051,797; 2454,066;    0,818;   -1,318
1052,342; 2461,975;   -1,182;    1,045
1052,886; 2455,793;    0,364;   -1,409
1053,430; 2335,247;   -1,364;    0,136
1053,975; 2355,884;   -0,818;   -0,318
1054,519; 2355,611;   -0,727;    3,227
1055,063; 2367,702;    0,909;    1,318
1055,607; 2234,611;   -0,182;    0,227
1056,151; 2253,338;    2,909;    1,682
1056,695; 2184,157;    2,273;   -1,136
1057,239; 2229,157;   -1,727;   -0,682
1057,783; 2231,338;    0,818;   -1,500
1058,327; 2179,702;    0,000;    1,409
1058,871; 2405,611;   -0,545;    1,318
1059,415; 2131,157;   -0,818;   -0,045
1059,958; 2398,338;    1,455;    2,591
1060,502; 2121,702;   -1,000;   -0,773
1061,046; 2010,793;    0,364;   -0,955
1061,589; 1985,884;   -3,000;   -1,136
1062,133; 1875,611;   -1,273;    1,864
1062,676; 1812,338;    1,182;    0,864
1063,220; 1813,247;    1,091;    0,500
1063,763; 1842,611;    0,909;    1,136
1064,306; 1930,975;   -0,909;    1,864
1064,849; 1813,429;   -0,909;    0,591
1065,393; 1811,884;    2,000;   -1,500
1065,936; 1922,611;    0,182;   -0,409
1066,479; 1818,611;   -1,455;    1,318
1067,022; 1835,157;   -0,273;   -0,227
1067,565; 1732,338;   -0,091;   -1,318
1068,108; 1749,884;    0,727;   -0,591
1068,651; 1732,611;   -0,636;    1,409
1069,194; 1654,884;   -0,455;   -1,682
1069,736; 1653,611;   -1,273;    0,955
1070,279; 1637,884;   -1,364;   -0,500
1070,822; 1687,247;   -2,000;   -0,318
1071,364; 1767,975;   -0,364;    1,318
1071,907; 1600,338;   -0,727;    3,227
1072,450; 1507,520;    0,000;   -0,045
1072,992; 1496,338;   -0,273;    3,136
1073,535; 1647,702;    2,091;    2,136
1074,077; 1438,611;   -0,727;    2,045
1074,619; 1398,611;   -1,364;    0,591
1075,161; 1416,338;   -1,091;    1,500
1075,704; 1614,884;    1,545;    1,227
1076,246; 1410,157;   -0,182;    0,682
1076,788; 1330,793;   -0,364;    1,773
1077,330; 1407,884;    1,273;    2,136
1077,872; 1345,611;    0,909;    0,955
1078,414; 1579,338;    2,727;    0,773
1078,956; 1332,157;    1,273;   -0,227
1079,498; 1585,157;    1,636;    0,318
1080,040; 1293,157;    1,909;   -1,318
1080,581; 1232,066;    1,636;   -0,318
1081,123; 1155,066;    0,091;   -0,773
1081,665; 1219,793;   -1,182;   -0,955
1082,206; 1519,611;    1,364;   -0,500
1082,748; 1367,338;    0,727;    2,045
1083,289; 1241,429;   -2,000;    1,318
1083,831; 1155,157;   -0,545;    0,227
1084,372; 1185,338;    0,000;    0,591
1084,913; 1184,157;    1,091;    0,864
1085,455; 1140,247;   -1,909;   -2,045
1085,996; 1123,066;   -2,273;    0,136
1086,537; 1137,793;   -0,091;    0,864
1087,078; 1163,157;   -0,909;   -2,136
1087,619; 1210,429;   -1,273;    0,227
1088,160; 1133,520;    0,000;    1,318
1088,701; 1120,975;   -1,091;    0,682
1089,242; 1067,247;    1,364;   -2,227
1089,783; 1157,793;   -0,273;    1,409
1090,324; 1124,884;    0,455;    0,682
1090,865; 1006,338;    2,727;   -0,409
1091,405;  963,611;    0,727;    2,227
1091,946;  997,338;    0,182;   -0,955
1092,487;  926,793;    0,818;   -1,409
1093,027; 1090,611;   -1,364;   -1,500
1093,568;  951,702;   -0,364;    1,227
1094,108; 1044,702;    0,273;    1,773
1094,649;  976,702;   -1,182;    0,136
1095,189;  917,793;   -0,636;   -0,682
1095,729;  864,702;   -0,091;    0,955
1096,269;  876,520;    0,727;   -0,955
1096,810; 1195,884;   -1,364;    0,500
1097,350; 1019,157;    1,364;   -0,773
1097,890;  911,702;    0,364;    1,227
1098,430; 1172,157;    2,364;    2,864
1098,970; 1034,975;    2,182;    1,682
1099,510;  902,611;    0,545;   -2,318
1100,050;  839,338;    1,000;   -1,591
1100,589;  804,975;   -0,727;   -0,318
1101,129;  921,429;    0,818;   -0,955
1101,669; 1072,429;    1,727;    2,136
1102,209;  887,793;   -0,091;    2,227
1102,748;  851,702;    0,000;    0,955
1103,288;  841,793;    1,273;   -1,227
1103,827;  876,066;    3,091;   -2,227
1104,367;  745,066;   -0,091;   -2,409
1104,906;  708,975;    1,364;   -1,136
1105,445;  780,520;    0,636;   -1,136
1105,985;  719,884;   -0,727;    1,500
1106,524;  762,611;   -1,727;   -0,682
1107,063;  741,066;   -2,727;    1,409
1107,602;  720,066;   -1,909;   -1,500
1108,141;  640,611;   -1,909;    1,500
1108,680;  745,066;   -3,455;   -0,591
1109,219;  672,520;   -0,909;   -0,500
1109,758;  680,429;    0,455;    0,682
1110,297;  653,793;    1,000;   -0,682
1110,836;  597,702;   -0,727;    0,955
1111,375;  773,611;   -2,545;    0,409
1111,913;  779,611;   -1,000;    0,773
1112,452;  715,157;   -0,273;    0,136
1112,991;  597,884;    1,091;    1,955
1113,529;  551,338;   -0,818;   -0,045
1114,068;  627,429;   -0,273;    2,955
1114,606;  522,520;   -0,364;   -0,955
1115,144;  692,066;   -1,273;    1,045
1115,683;  621,884;   -0,727;    0,318
1116,221;  675,247;   -0,455;   -0,864
1116,759;  584,793;    0,636;   -0,864
1117,297;  778,429;    0,000;    1,864
1117,836;  592,520;   -2,182;   -1,227
1118,374;  598,793;    0,182;   -0,682
1118,912;  542,247;    0,909;    2,682
1119,450;  522,702;    1,000;    0,864
1119,988;  577,066;    1,545;    2,136
1120,525; 1035,611;    5,091;    3,318
1121,063;  736,975;    1,182;    1,864
1121,601;  537,975;   -0,909;   -1,227
1122,139;  487,702;   -0,727;   -2,045
1122,676;  679,975;   -0,727;    2,773
1123,214;  621,338;   -1,182;    4,409
1123,751;  433,338;    1,727;    2,227
1124,289;  569,338;   -0,091;   -0,409
1124,826;  426,520;    1,727;    0,227
1125,364;  350,793;    1,727;   -0,955
1125,901;  549,247;    1,182;    1,227
1126,438;  663,793;    0,818;    0,955
1126,975;  386,247;   -0,727;   -0,773
1127,513;  452,793;    0,273;    2,136
1128,050;  357,157;    1,636;   -0,682
1128,587;  453,429;    2,000;   -0,227
1129,124;  504,975;    0,091;    1,318
1129,661;  369,520;    0,273;    0,227
1130,198;  536,884;    1,636;    0,773
1130,734;  479,338;    0,182;    1,409
1131,271;  334,066;   -0,909;    0,864
1131,808;  507,611;    2,909;    3,045
1132,345;  382,884;    1,545;    0,318
1132,881;  250,975;   -1,545;   -1,864
1133,418;  388,793;    0,727;   -1,136
1133,954;  328,066;    2,455;   -2,682
1134,491;  410,247;    1,364;   -0,773
1135,027;  305,338;    2,364;    0,864
1135,564;  402,793;    0,273;    2,955
1136,100;  372,247;    0,364;    2,136
1136,636;  263,975;   -1,273;   -1,045
1137,172;  370,338;    0,000;   -1,045
1137,708;  284,975;   -1,364;   -1,045
1138,245;  291,157;    1,273;   -1,227
1138,781;  232,520;    1,091;   -3,318
1139,317;  306,066;    1,273;   -1,409
1139,852;  299,975;    3,091;    0,136
1140,388;  408,793;   -1,182;   -0,409
1140,924;  299,520;   -1,091;   -2,227
1141,460;  236,338;   -1,636;    0,136
1141,996;  168,157;   -1,364;    2,682
1142,531;  215,520;    1,364;    3,318
1143,067;  441,247;    1,182;    1,045
1143,602;  495,157;   -0,091;   -0,318
1144,138;  332,429;   -2,636;    1,045
1144,673;  197,975;   -1,455;    1,409
1145,209;  264,611;   -1,909;   -0,318
1145,744;  182,975;   -0,727;    0,864
1146,279;  322,247;    1,818;   -0,136
1146,815;  233,157;    1,545;   -2,682
1147,350;  263,793;   -1,364;    0,045
1147,885;  191,157;   -0,818;   -1,318
1148,420;  187,520;   -2,273;    0,773
1148,955;  171,338;   -1,727;    1,864
1149,490;  196,884;   -0,909;   -1,591
1150,025;  181,793;    0,455;   -1,773
1150,560;  293,793;    1,091;   -0,955
1151,094;  262,157;    1,455;   -0,591
1151,629;  265,793;    1,636;    0,864
1152,164;  186,429;    1,364;    1,318
1152,698;  144,884;   -0,182;   -0,136
1153,233;  104,975;    0,091;   -0,682
1153,767;  151,884;   -3,000;   -2,318
1154,302;  211,066;   -1,455;    1,773
1154,836;  206,520;   -0,455;   -2,136
1155,371;  262,247;   -1,364;    3,682
1155,905;  207,611;   -0,636;    1,682
1156,439;  173,702;   -0,636;   -0,500
1156,973;  211,157;    0,364;    0,318
1157,507;  147,520;   -0,364;    0,682
1158,042;  172,066;   -0,727;    1,045
1158,576;  223,520;    0,182;    1,773
1159,110;  208,066;   -0,818;    2,409
1159,643;  185,884;    0,636;   -0,045
1160,177;  117,520;   -1,545;    1,500

