
Integration time [ms]:   0,040
Averaging Nr. [scans]: 11
Smoothing Nr. [pixels]: 0
Data measured with spectrometer [name]: 7318044SP
Wave   ;Sample   ;Dark     ;Reference
[nm]   ;[counts] ;[counts] ;[counts] 

186,757;   17,242;   31,551;    1,318
187,357;   55,831;   22,551;    0,955
187,958;   31,448;   15,460;   -1,591
188,558;   77,145;    8,915;   -1,227
189,159;   48,749;    6,733;   -4,500
189,759;   14,169;    7,278;   -3,591
190,360;   11,739;    2,824;   -2,136
190,960;   48,971;    2,915;   -4,136
191,560;   75,897;    3,189;   -6,591
192,161;  328,512;    4,372;   -3,500
192,761;  159,950;    4,010;   -3,227
193,361;  102,016;    1,556;   -3,773
193,962;  162,279;    2,010;   -2,682
194,562;   89,333;    1,189;   -3,955
195,162;  124,796;   -2,448;   -2,227
195,762;  295,727;   -3,176;   -0,045
196,362;  239,762;    1,370;   -2,500
196,963;   89,116;    2,006;   -0,864
197,563;  173,148;    1,551;   -0,955
198,163;  115,282;    0,096;   -0,682
198,763;  139,718;    1,733;   -0,500
199,363;  246,423;    3,096;   -0,500
199,963;  203,789;    0,369;    0,409
200,563;  176,132;    2,823;   -1,409
201,163;  162,664;    3,277;   -0,227
201,763;  252,559;    3,732;    0,318
202,363;  192,463;    1,459;    1,500
202,963;  305,027;    1,459;    1,045
203,563;  423,662;    0,277;    0,500
204,162;  261,583;    2,096;   -1,864
204,762;  255,255;    0,550;    0,591
205,362;  220,719;    3,004;    1,955
205,962;  326,570;    3,096;    1,955
206,562;  322,360;    1,823;    2,318
207,161;  287,528;   -0,087;    0,318
207,761;  449,846;    1,277;    2,409
208,361;  325,316;   -0,268;    1,409
208,960;  432,317;    0,459;    1,500
209,560;  502,354;    1,277;    1,591
210,160;  473,222;    0,550;    1,864
210,759;  442,588;    4,186;    1,227
211,359;  452,944;    1,459;    1,045
211,958;  725,231;    1,277;    2,045
212,558;  802,304;    1,732;    1,864
213,157;  641,433;    1,822;    1,500
213,757; 1103,143;    3,822;   -0,227
214,356;  794,673;    1,277;   -0,409
214,956; 1143,102;    3,095;    0,409
215,555;  747,249;    2,095;    2,136
216,154;  690,825;   -2,723;   -0,591
216,754;  703,183;    0,277;    0,773
217,353;  835,818;   -0,268;   -1,045
217,952;  686,461;   -0,178;    0,318
218,552;  940,827;    1,368;   -0,773
219,151;  834,166;    0,277;    0,955
219,750;  835,557;    0,004;   -0,227
220,349;  976,720;   -0,451;    1,045
220,948; 1039,397;   -1,360;    1,136
221,548; 1069,264;    0,913;    1,227
222,147; 1179,644;   -0,087;   -0,409
222,746; 1471,570;   -0,451;   -0,955
223,345; 1356,857;    0,731;    0,500
223,944; 1360,680;   -0,451;    0,773
224,543; 1556,732;    1,004;   -1,409
225,142; 1664,885;    0,094;    0,136
225,741; 1578,305;   -0,814;    1,045
226,340; 1617,715;   -0,451;   -0,955
226,939; 2079,002;   -0,996;   -0,136
227,538; 2057,873;   -0,360;   -0,773
228,137; 2192,675;   -0,814;    0,864
228,735; 2380,399;   -0,541;    1,227
229,334; 2101,302;   -0,905;   -0,227
229,933; 2492,189;    0,459;    0,591
230,532; 2608,972;    1,186;   -0,409
231,131; 2659,798;    1,732;    0,318
231,729; 2826,265;   -2,450;   -2,318
232,328; 2966,680;   -0,723;   -1,500
232,927; 3066,204;    1,004;   -0,500
233,525; 3218,267;    3,640;    0,045
234,124; 3428,213;    2,368;   -1,591
234,723; 3445,782;    0,913;   -1,045
235,321; 3605,798;    2,277;    0,136
235,920; 3855,086;    1,186;   -1,227
236,518; 4118,738;    3,459;    0,318
237,117; 4328,509;    0,004;   -0,227
237,715; 4492,547;    0,640;   -0,500
238,314; 4539,163;   -0,087;   -2,318
238,912; 4620,467;   -0,723;   -1,409
239,510; 4678,455;    0,459;   -1,227
240,109; 4865,030;    0,004;    3,773
240,707; 4896,649;   -0,996;    1,227
241,305; 5305,065;    0,550;    0,136
241,904; 5537,701;   -0,178;   -2,045
242,502; 5453,528;   -0,632;   -0,227
243,100; 5411,541;   -0,087;   -0,955
243,698; 5649,034;    0,732;    1,682
244,297; 5842,578;   -0,632;    0,682
244,895; 5684,428;   -0,269;   -2,318
245,493; 6022,881;    2,186;   -0,591
246,091; 6068,747;    1,368;   -1,318
246,689; 6030,290;    1,004;    0,591
247,287; 6206,801;    0,822;   -1,136
247,885; 6507,496;   -1,451;    1,227
248,483; 6617,039;    1,822;   -0,500
249,081; 6744,429;    0,185;    1,591
249,679; 6896,085;   -0,178;    1,682
250,277; 7138,839;   -1,723;    0,864
250,875; 7123,635;   -1,087;   -1,045
251,473; 7155,815;   -1,178;    0,500
252,071; 7358,676;    1,459;    1,045
252,669; 7508,680;   -1,814;    0,318
253,267; 7783,961;   -0,087;    0,773
253,864; 7745,528;   -0,360;    0,682
254,462; 7577,851;    1,640;    1,591
255,060; 7562,018;   -0,269;    1,318
255,658; 7908,589;    0,822;   -0,136
256,255; 8335,071;    0,186;   -2,045
256,853; 8199,314;   -0,269;    1,409
257,451; 8191,966;    0,822;    1,864
258,048; 8432,406;    1,822;    1,864
258,646; 8210,211;    1,731;   -1,045
259,243; 8416,405;   -0,087;    2,227
259,841; 8473,651;   -0,814;    0,318
260,438; 8362,922;   -0,087;    0,864
261,036; 9081,976;   -1,905;    1,409
261,633; 8981,322;   -0,087;    2,227
262,231; 8724,157;    2,731;   -0,045
262,828; 8806,592;   -0,905;    1,136
263,425; 8837,036;    0,913;   -0,591
264,023; 9114,563;    0,186;    0,045
264,620; 8675,478;   -0,360;   -0,318
265,217; 9048,501;   -2,087;    3,136
265,815; 9119,969;   -1,905;    2,136
266,412; 8902,961;    0,731;    0,136
267,009; 8931,599;   -1,451;    0,773
267,606; 8835,302;    0,822;   -0,955
268,203; 8825,564;   -0,269;   -0,591
268,801; 9114,435;    1,731;    0,591
269,398; 9406,536;   -0,360;    2,500
269,995; 9381,319;    0,277;    1,591
270,592; 9150,788;   -0,632;   -0,500
271,189; 9367,113;    0,186;    0,409
271,786; 9475,343;   -0,632;    1,227
272,383; 9289,164;   -1,087;    0,227
272,980; 9527,392;    0,277;    0,318
273,577; 9996,026;    0,004;    1,227
274,174; 9545,887;    0,822;    2,591
274,771; 9541,771;   -0,814;   -0,773
275,367; 9692,477;    2,277;    1,409
275,964; 9621,848;    0,731;   -0,500
276,561; 9706,325;    1,549;   -1,045
277,158; 9981,994;    0,095;   -1,773
277,755;10085,702;    2,185;    0,409
278,351; 9470,390;   -0,451;   -1,500
278,948; 9820,668;   -0,815;    0,045
279,545; 9782,300;   -1,360;    2,318
280,141;10432,772;   -1,723;   -2,045
280,738;10319,401;   -0,451;   -0,136
281,334;10545,900;   -1,633;    0,591
281,931; 9906,147;   -0,087;   -1,318
282,528;10036,618;    0,822;   -0,500
283,124;10733,214;   -1,087;   -0,500
283,721;10659,317;   -0,451;    1,409
284,317;10483,576;    0,185;    2,500
284,913;10986,655;   -1,360;    0,591
285,510;11180,201;    0,640;   -0,318
286,106;11228,586;   -2,269;   -0,955
286,703;10849,082;   -0,360;    1,955
287,299;11036,651;   -1,451;   -0,591
287,895;11231,237;    0,822;   -1,045
288,491;11779,900;    0,186;    2,136
289,088;11515,076;   -2,360;    2,409
289,684;11584,680;   -1,723;    1,500
290,280;11582,218;    0,368;    0,682
290,876;11711,444;    1,822;    5,500
291,472;11586,935;    1,276;    2,227
292,068;11652,228;    1,367;    0,227
292,665;11370,924;    2,095;    0,773
293,261;10984,209;    0,276;    2,136
293,857;11375,667;    2,913;    2,136
294,453;11329,095;    3,550;    0,955
295,049;11189,906;   -0,268;    1,955
295,644;11201,593;    0,095;    0,136
296,240;11109,330;   -0,905;   -0,136
296,836;11170,174;   -0,995;    0,318
297,432;11457,880;    1,096;   -0,500
298,028;11484,670;    0,732;    0,773
298,624;11868,183;    1,459;    1,864
299,220;12137,853;    2,368;    0,591
299,815;11816,951;    1,005;   -0,409
300,411;11593,997;    0,914;    1,773
301,007;11577,025;    1,368;    0,227
301,602;11637,240;   -0,541;   -2,318
302,198;11807,723;    0,732;   -0,773
302,794;12138,267;    1,187;   -0,500
303,389;12268,367;   -1,177;    1,045
303,985;12374,254;    0,550;    1,409
304,580;12310,083;    1,459;    1,591
305,176;12246,511;   -3,086;    0,136
305,771;12197,387;   -1,268;   -1,227
306,367;12023,467;    4,095;    0,136
306,962;12376,604;    0,641;    1,500
307,558;12115,450;   -0,450;    0,136
308,153;12066,786;    1,095;   -1,136
308,748;12279,010;   -0,814;    1,682
309,344;12261,225;   -0,632;   -1,318
309,939;12310,412;   -1,905;   -1,318
310,534;12585,455;   -0,086;   -1,682
311,130;12498,076;    0,459;   -2,500
311,725;12237,736;    1,004;   -0,500
312,320;12587,851;    2,459;    0,045
312,915;12390,276;    1,459;   -1,045
313,510;12484,042;    1,550;   -0,500
314,105;13021,309;    1,096;    1,409
314,700;12398,878;   -3,086;   -1,045
315,295;11994,083;   -0,904;    0,045
315,890;11597,507;    1,277;    0,864
316,485;11992,469;   -0,359;   -0,318
317,080;12104,609;   -3,086;    1,591
317,675;12621,490;    2,005;   -0,682
318,270;12027,919;    5,550;    3,318
318,865;12099,826;    3,278;    3,045
319,460;11920,209;   -0,904;    0,591
320,055;12132,859;   -0,541;   -1,227
320,650;11770,813;   -1,995;   -0,591
321,244;11809,237;   -0,177;   -1,409
321,839;12792,978;   -1,541;   -0,227
322,434;12686,396;   -1,086;   -1,591
323,029;12303,784;    1,732;    1,591
323,623;12141,738;    1,550;    0,773
324,218;11873,308;    2,368;    1,409
324,812;11760,634;    1,096;    1,591
325,407;11583,936;   -0,814;    2,045
326,002;11488,638;    0,277;   -0,409
326,596;11760,688;    0,914;    1,318
327,191;11969,169;    0,823;   -1,045
327,785;11547,960;   -0,813;   -0,227
328,379;11802,109;    1,368;    0,136
328,974;11591,595;    0,914;   -3,955
329,568;11769,577;    0,186;   -2,409
330,163;11608,366;    2,096;    1,045
330,757;11953,083;    2,459;    1,591
331,351;11295,718;    0,459;    0,682
331,945;11577,083;    0,914;    1,409
332,540;11187,266;   -1,723;   -0,591
333,134;11373,512;   -1,086;    0,773
333,728;11628,417;    0,005;    0,318
334,322;11929,225;   -1,177;   -0,864
334,916;11189,058;    0,277;    0,955
335,510;11539,562;   -0,450;   -0,136
336,105;11817,441;   -1,086;    1,591
336,699;11476,366;   -1,086;    0,591
337,293;11418,566;   -1,723;    0,318
337,887;11593,519;   -2,723;    1,955
338,481;11680,113;    0,459;    0,591
339,074;11838,964;   -0,359;    2,682
339,668;11650,282;   -1,632;    1,227
340,262;11898,455;    1,732;    3,227
340,856;11388,056;    1,822;   -0,682
341,450;10759,869;    1,004;    1,864
342,044;11643,294;    1,459;    0,136
342,637;11435,666;    0,913;   -2,136
343,231;11338,756;   -2,360;    0,682
343,825;11271,272;   -1,086;   -0,591
344,419;11222,646;   -1,995;    0,500
345,012;11025,651;    2,459;    4,045
345,606;11032,056;    4,641;    1,591
346,199;10850,777;   -1,813;   -0,227
346,793;10380,276;    1,914;    2,045
347,386;10574,963;   -0,813;   -1,136
347,980;10598,363;   -0,268;   -0,045
348,573;10396,285;    2,278;    0,409
349,167;10006,565;    5,278;    4,773
349,760;10373,693;    2,914;    2,682
350,354;10359,495;   -0,813;    1,136
350,947;10092,134;    1,096;    1,682
351,540; 9759,068;   -0,358;   -1,409
352,134; 9693,179;    1,096;    1,136
352,727; 9779,712;   -0,086;    1,136
353,320; 9570,134;    0,005;    0,591
353,913; 9420,637;   -1,995;    1,864
354,507; 9611,288;    0,823;   -1,227
355,100; 9641,452;    0,460;    0,864
355,693; 8883,253;    2,005;    2,409
356,286; 8901,630;    0,823;    2,773
356,879; 9246,244;   -0,722;    1,227
357,472; 8846,102;   -0,904;    1,500
358,065; 9076,297;   -0,722;    2,500
358,658; 8985,514;   -0,540;    2,318
359,251; 8628,520;   -1,631;   -0,591
359,844; 8107,743;   -1,904;   -1,136
360,437; 8295,427;   -2,995;    0,045
361,030; 8580,398;    1,369;   -0,682
361,623; 8148,441;    2,824;    0,318
362,215; 8222,138;   -0,086;    2,045
362,808; 8045,882;   -2,358;   -1,682
363,401; 8247,477;   -2,449;    0,136
363,994; 7952,874;   -0,631;   -1,500
364,586; 7868,729;    0,824;   -1,500
365,179; 8071,980;   -0,449;   -1,136
365,772; 7600,239;   -1,995;    2,045
366,364; 7871,314;    1,915;   -3,227
366,957; 8068,815;    2,279;   -0,045
367,549; 8109,539;    2,188;   -0,864
368,142; 7735,193;    1,825;   -1,500
368,734; 7918,805;    0,734;   -2,136
369,327; 7877,749;    1,643;   -0,500
369,919; 7832,439;   -1,538;    0,409
370,512; 7616,148;   -1,083;   -0,500
371,104; 7404,229;   -0,901;    1,591
371,696; 7567,234;    1,191;   -0,955
372,289; 7642,200;    0,373;    1,136
372,881; 7783,019;   -2,080;    1,318
373,473; 7703,292;   -2,170;    1,136
374,066; 7519,055;   -0,169;    0,500
374,658; 7370,478;    0,378;    1,136
375,250; 7708,479;    0,653;   -1,409
375,842; 7548,485;    0,473;   -0,045
376,434; 7438,158;   -0,435;   -0,409
377,026; 8036,470;    0,204;   -2,500
377,618; 7940,027;   -0,158;   -0,682
378,210; 7770,032;   -0,338;   -1,955
378,802; 7615,353;    0,754;   -0,591
379,394; 7573,546;    1,846;    0,682
379,986; 8152,228;    1,393;   -0,955
380,578; 8249,114;   -0,153;    0,773
381,170; 7592,793;   -0,972;    0,045
381,762; 7561,990;    0,755;    1,409
382,354; 7764,432;   -0,065;   -1,318
382,945; 7870,642;   -2,976;    0,318
383,537; 8020,697;   -2,705;   -1,955
384,129; 8030,626;   -2,160;   -1,136
384,721; 8207,853;   -0,252;    0,955
385,312; 8139,634;   -0,161;   -0,955
385,904; 8250,061;   -2,706;    1,591
386,496; 7594,870;   -0,979;    1,045
387,087; 7755,692;    1,022;    2,500
387,679; 7820,334;   -1,160;    0,045
388,270; 7931,085;    2,840;    2,045
388,862; 8045,799;    1,295;   -0,318
389,453; 7924,679;   -0,887;    1,045
390,045; 8211,284;   -0,705;   -2,682
390,636; 8121,265;    0,204;   -0,591
391,227; 8003,091;   -0,523;   -0,045
391,819; 8100,232;    0,204;    0,773
392,410; 8178,998;    1,022;    0,045
393,001; 8104,692;   -0,979;   -1,591
393,593; 8368,040;    1,930;   -0,045
394,184; 8233,425;    1,385;   -0,409
394,775; 8151,460;    1,839;    2,136
395,366; 8344,505;    1,385;    0,773
395,957; 8356,854;    0,113;    0,136
396,548; 8702,839;   -0,342;    2,682
397,139; 8996,085;   -2,433;    0,591
397,730; 8719,558;   -1,888;    0,955
398,321; 8762,083;   -1,252;    0,955
398,912; 8786,411;   -0,615;    0,136
399,503; 8874,527;   -3,524;   -1,409
400,094; 8331,969;    0,294;    1,682
400,685; 8141,194;   -0,433;    0,045
401,276; 8253,716;    0,930;   -0,955
401,867; 8583,862;   -0,888;    0,773
402,458; 8686,588;   -2,251;   -2,318
403,048; 8657,792;    1,112;    0,591
403,639; 8230,883;    0,840;    0,864
404,230; 8480,193;    2,476;    0,318
404,821; 8423,891;   -0,615;    0,045
405,411; 8595,247;    1,203;   -2,591
406,002; 8173,011;   -1,252;   -1,136
406,592; 8030,357;    2,294;    0,045
407,183; 8311,212;    0,566;   -1,500
407,774; 8224,870;    3,475;   -0,136
408,364; 8565,631;    0,930;    0,409
408,954; 8148,450;    0,384;    1,227
409,545; 8237,623;    1,021;    1,045
410,135; 7757,614;    1,293;    0,500
410,726; 7916,701;    1,838;    0,318
411,316; 8276,837;    0,111;    0,773
411,906; 7949,751;   -0,253;   -0,409
412,497; 7474,037;   -1,070;   -0,045
413,087; 8090,469;   -1,980;   -0,227
413,677; 8513,641;   -0,707;    3,864
414,267; 8346,234;    0,656;    1,409
414,857; 8333,979;   -2,980;    4,227
415,448; 8612,788;    0,839;    0,500
416,038; 8299,652;    0,020;   -0,591
416,628; 8260,632;   -0,889;    0,409
417,218; 7707,097;    0,565;    3,318
417,808; 8000,569;    0,202;   -0,409
418,398; 8477,421;    0,020;    2,682
418,988; 8490,950;    2,020;    0,591
419,578; 8760,536;   -0,707;    1,409
420,168; 9061,211;   -1,343;   -0,955
420,757; 8636,092;   -1,343;   -1,500
421,347; 8323,833;    0,111;   -0,227
421,937; 8518,401;    2,292;    1,409
422,527; 8444,984;    0,838;   -0,773
423,116; 8250,722;   -0,253;   -0,045
423,706; 8629,093;   -1,889;    0,318
424,296; 8608,359;    1,384;    0,682
424,885; 9004,996;   -0,071;   -3,045
425,475; 9311,403;    1,474;   -2,864
426,065; 9227,429;   -0,980;   -0,318
426,654; 8864,157;   -0,435;   -0,318
427,244; 8989,628;    0,020;    1,409
427,833; 8467,971;    1,383;   -0,500
428,423; 8928,730;   -0,526;    1,136
429,012; 9675,173;   -0,344;   -1,136
429,601; 9175,881;   -1,344;    0,136
430,191; 9399,564;    1,292;    4,318
430,780; 9038,068;   -0,344;   -0,409
431,369; 8992,339;    0,746;   -0,045
431,959; 9625,748;   -1,254;    0,500
432,548; 9389,334;   -1,163;   -0,045
433,137; 9530,733;   -1,254;   -1,318
433,726;10049,979;    0,292;    0,500
434,315; 9417,610;   -0,526;    2,409
434,905; 9513,577;   -1,254;    1,409
435,494; 9407,732;    0,746;    0,955
436,083; 9909,690;   -0,981;   -0,955
436,672; 9769,179;    0,110;    0,500
437,261; 9335,758;    0,292;   -1,955
437,850; 9423,425;    1,383;    0,682
438,439; 9414,229;    3,291;    1,955
439,027; 9245,343;    3,655;    1,773
439,616; 9606,524;    2,927;    1,227
440,205; 9463,346;    0,200;   -2,136
440,794; 9581,084;    2,109;   -0,045
441,383; 9856,672;   -1,346;   -0,591
441,971; 9692,024;   -2,436;    0,591
442,560; 9560,489;    0,563;   -1,773
443,149; 9310,892;    0,379;   -1,318
443,737; 9450,470;   -0,074;   -2,318
444,326; 9709,043;    0,018;    0,318
444,915; 9772,878;   -1,982;    0,864
445,503;10180,937;   -2,891;   -0,318
446,092; 9429,142;    0,382;    2,136
446,680; 9991,186;    0,382;    0,318
447,269;10158,908;   -0,346;   -0,318
447,857; 9928,239;    0,018;   -1,773
448,445;10044,382;    0,563;    1,318
449,034;10280,578;   -1,528;   -1,136
449,622;10411,035;   -1,073;    3,500
450,210; 9622,707;    2,017;    2,227
450,799;10187,000;    0,290;   -0,591
451,387;10144,873;    1,381;   -0,591
451,975; 9761,659;    2,654;    0,864
452,563; 9841,847;    3,472;    2,318
453,151; 9909,751;   -0,528;   -1,227
453,739; 9838,567;   -1,347;    0,136
454,328; 9696,225;    2,381;   -2,136
454,916; 9438,394;    2,562;   -0,136
455,504; 9612,017;    1,017;    1,227
456,092; 9749,011;    0,017;   -1,591
456,679; 9752,988;    1,472;    0,682
457,267; 9672,956;    4,017;    1,045
457,855; 9862,505;    1,017;    1,409
458,443; 9613,666;   -0,165;    1,682
459,031; 9724,986;    0,108;    2,409
459,619;10193,826;   -1,801;    2,864
460,206;10336,611;    0,835;    2,045
460,794;10408,228;   -2,983;   -0,227
461,382;10647,620;   -0,529;   -0,864
461,970;10242,103;    1,198;    1,864
462,557;10247,401;   -0,711;   -0,682
463,145;10463,065;   -3,165;   -1,682
463,732;10626,432;    2,016;   -1,045
464,320;10542,533;   -0,075;   -3,045
464,907;10222,566;    2,743;   -0,773
465,495;10102,130;    0,743;   -1,227
466,082;10267,919;   -1,984;   -0,045
466,670;10207,022;   -2,529;    1,227
467,257;10603,324;   -1,711;    2,045
467,844;10732,018;   -0,075;    0,045
468,432;10744,697;    0,834;    3,500
469,019;10252,657;    0,925;   -1,773
469,606;10727,397;    0,470;    3,682
470,193;10573,835;   -1,439;    0,227
470,780;10108,264;   -2,075;    0,864
471,368;10464,985;   -1,257;   -0,773
471,955;10249,595;    1,379;   -0,682
472,542; 9910,702;    0,652;   -1,136
473,129;10168,308;   -0,166;    0,136
473,716; 9887,166;    1,470;    0,591
474,303;10086,171;    0,652;   -0,864
474,890;10393,249;   -1,439;   -0,500
475,477;10401,529;   -1,621;    0,409
476,064;10307,614;    1,106;   -1,591
476,650;10284,901;    0,288;    0,318
477,237;10092,083;   -0,258;    0,955
477,824;10257,950;   -1,076;    0,864
478,411;10264,484;   -1,894;   -0,318
478,997;10467,733;    0,560;   -0,773
479,584;10551,244;    1,196;   -0,409
480,171;11268,573;   -0,440;   -0,773
480,757;10905,138;    2,651;    0,773
481,344;11223,911;    0,469;    0,409
481,931;10753,026;    1,105;    1,045
482,517;11784,472;   -1,258;    0,318
483,104;12376,486;    1,106;    2,864
483,690;12677,585;   -1,804;    0,045
484,276;13053,681;   -0,895;    0,227
484,863;12780,098;    2,469;    1,136
485,449;13372,098;   -0,077;    0,318
486,035;13389,050;   -1,986;   -0,136
486,622;13795,079;   -0,895;    0,045
487,208;13740,452;    1,378;    1,500
487,794;13613,539;    0,741;    0,318
488,380;13685,290;    0,105;   -1,409
488,967;13757,859;   -1,168;   -0,409
489,553;13816,298;   -1,895;   -1,409
490,139;14001,727;    1,559;    0,773
490,725;13406,105;    0,741;   -0,227
491,311;12981,968;    3,287;    3,045
491,897;12316,159;   -0,986;    1,500
492,483;12080,123;    0,105;    1,227
493,069;11876,594;    3,923;    0,864
493,655;11896,136;    1,650;    0,682
494,241;11775,726;    1,377;   -0,955
494,826;12192,749;    0,287;   -1,045
495,412;11618,599;    2,559;   -0,682
495,998;11785,748;   -0,805;   -0,318
496,584;11920,469;    0,377;    1,045
497,169;11910,833;    1,014;   -0,682
497,755;11899,271;    0,650;    1,227
498,341;12457,740;    0,559;    0,318
498,926;12008,301;    1,832;    1,955
499,512;12165,200;    1,286;    2,955
500,097;12357,646;    0,195;   -0,318
500,683;12271,883;   -0,350;    2,136
501,268;12619,011;   -0,169;   -0,955
501,854;12385,197;   -0,169;    1,227
502,439;12320,915;   -0,624;   -1,773
503,024;12501,371;    0,195;    0,500
503,610;12547,757;   -0,078;   -0,682
504,195;12538,366;    0,558;    1,955
504,780;12662,114;    2,922;    1,227
505,366;12494,005;    3,013;    2,864
505,951;12225,503;    0,740;    1,045
506,536;12243,880;   -3,260;   -3,682
507,121;12259,422;    0,285;   -0,318
507,706;12760,521;    2,376;    1,045
508,291;13153,960;    2,649;    1,136
508,876;12619,244;   -0,988;    2,591
509,461;12080,364;   -0,169;   -0,773
510,046;12448,383;    0,194;    0,318
510,631;12736,788;   -0,351;   -0,773
511,216;12401,071;    2,467;   -0,500
511,801;12710,585;   -0,442;    2,591
512,386;13045,871;    0,740;    0,500
512,971;13006,317;   -2,988;    0,955
513,555;12546,957;   -0,897;   -1,500
514,140;13336,282;   -0,442;   -3,136
514,725;13362,253;   -0,715;   -1,136
515,309;13493,781;   -0,533;    0,318
515,894;12935,838;   -0,624;   -2,227
516,479;13371,867;   -0,624;   -0,955
517,063;13232,113;    0,376;    1,227
517,648;13352,943;    1,012;   -1,136
518,232;12996,664;   -0,261;   -1,409
518,817;13332,093;   -0,079;    1,682
519,401;13536,771;    2,194;    0,591
519,985;13065,566;    1,103;    1,136
520,570;12965,832;    0,830;   -1,955
521,154;13232,114;    2,102;    0,591
521,738;13403,833;   -2,352;    2,409
522,323;13970,097;   -0,170;    1,682
522,907;13707,338;    0,466;   -0,136
523,491;13426,710;    0,557;    0,955
524,075;13418,503;    2,284;    0,591
524,659;13510,030;    1,466;    0,591
525,243;12951,346;    1,739;    0,409
525,827;13225,657;    0,648;   -0,045
526,411;14079,394;   -1,989;   -0,136
526,995;14270,937;   -0,352;    1,409
527,579;13873,409;   -0,443;   -1,045
528,163;14206,397;    0,375;   -1,500
528,747;14077,836;    2,466;   -0,773
529,331;14362,217;   -0,080;   -1,409
529,915;14630,706;    1,738;    0,955
530,499;14585,402;   -0,807;    1,227
531,082;14285,676;   -0,534;    1,591
531,666;13738,049;    1,374;    0,773
532,250;14388,720;    1,284;    2,682
532,833;14712,822;    0,920;    2,773
533,417;14586,950;   -1,807;    0,864
534,001;14553,128;    1,647;   -0,318
534,584;15269,857;    0,374;    0,500
535,168;15076,942;    0,465;    1,409
535,751;15189,265;    0,647;    0,045
536,334;14615,655;   -0,898;   -0,409
536,918;15184,951;    0,011;    1,591
537,501;15317,901;   -0,899;    1,318
538,085;15272,194;   -0,444;    1,045
538,668;15457,350;    0,829;    2,409
539,251;15768,780;    1,829;    3,773
539,834;15812,677;    0,101;    0,773
540,418;15763,608;   -1,990;    4,318
541,001;15825,463;   -0,990;    1,773
541,584;15836,478;    2,101;    2,227
542,167;15538,651;    1,374;    2,955
542,750;15671,164;    1,919;   -0,773
543,333;15259,956;    0,555;    2,136
543,916;16080,014;    0,192;    2,500
544,499;16685,194;   -1,354;    0,227
545,082;16679,444;    1,374;    3,591
545,665;16818,816;    1,919;    1,500
546,248;17139,684;    1,010;   -0,318
546,830;16803,547;   -0,445;    1,955
547,413;17236,401;    1,010;   -0,773
547,996;17753,135;    0,555;    0,500
548,579;17502,972;    0,919;    0,955
549,161;17301,768;    1,828;    2,682
549,744;17102,695;   -0,809;    0,409
550,326;17636,337;   -0,809;   -1,136
550,909;17422,256;    2,737;    0,591
551,492;17783,956;   -0,263;    0,227
552,074;17549,675;   -0,173;   -1,318
552,657;18147,373;    2,373;    0,045
553,239;17893,388;   -0,173;   -0,773
553,821;17767,420;   -1,082;    1,045
554,404;17308,067;    1,282;    1,136
554,986;17735,920;    0,464;    1,045
555,568;18325,753;    1,191;   -0,955
556,151;17538,909;    1,191;   -0,227
556,733;17707,178;   -0,264;   -0,864
557,315;18183,544;    0,100;    0,500
557,897;18020,229;    0,554;   -0,500
558,479;18134,539;   -1,991;    1,318
559,061;18255,354;   -0,719;   -0,864
559,643;18575,827;   -0,264;    0,045
560,225;18994,276;    1,645;    2,864
560,807;19001,372;    0,918;    0,318
561,389;18450,722;    0,554;    2,318
561,971;19206,925;    0,463;    2,136
562,553;19011,843;   -1,628;    1,591
563,135;19162,229;   -0,537;    1,136
563,717;18770,194;    3,372;    1,136
564,298;19465,710;    3,645;   -0,045
564,880;19205,441;    0,645;   -1,409
565,462;19364,804;    0,645;    1,318
566,043;20491,012;   -0,446;    2,318
566,625;20040,009;    1,918;    1,227
567,207;19912,425;    1,099;    1,682
567,788;21034,076;   -1,264;    1,500
568,370;21884,209;    1,917;   -0,500
568,951;21685,156;    0,190;    0,227
569,533;22512,250;   -0,628;   -0,500
570,114;22944,524;   -0,446;    0,682
570,695;23487,456;   -0,174;   -1,318
571,277;24009,673;   -0,265;   -1,682
571,858;24738,039;    2,008;   -1,136
572,439;25688,697;    1,554;   -1,045
573,021;25814,247;    2,099;   -2,773
573,602;26292,482;   -1,265;    0,318
574,183;27251,670;   -2,083;    2,227
574,764;27375,448;   -1,629;    0,409
575,345;27894,935;    0,917;   -0,136
575,926;28444,407;   -0,356;    0,136
576,507;28479,206;    1,099;   -0,227
577,088;29577,629;    3,099;    1,682
577,669;29584,744;    0,735;    1,955
578,250;30386,579;    0,644;   -1,045
578,831;31004,648;   -1,356;   -2,227
579,412;31268,719;   -0,810;    0,955
579,993;32136,697;    1,008;    0,227
580,573;32472,640;   -0,629;   -0,955
581,154;31442,142;    0,735;   -0,591
581,735;32308,710;    0,644;    0,773
582,315;31834,619;   -0,629;    2,136
582,896;32153,266;   -0,174;    1,227
583,477;31586,155;    0,189;    1,227
584,057;31775,120;    0,553;    0,955
584,638;32071,878;    2,553;    2,318
585,218;32100,659;   -0,538;    2,682
585,799;32265,304;    0,281;   -0,227
586,379;32160,447;    0,372;    1,591
586,959;30983,551;    0,735;    0,318
587,540;30288,000;   -0,629;    2,227
588,120;29837,658;    1,007;   -0,045
588,700;28817,895;    2,553;    2,136
589,281;29157,395;    0,462;   -0,955
589,861;29122,353;    0,099;   -1,682
590,441;28914,765;    2,371;   -2,682
591,021;27864,875;   -0,265;   -2,591
591,601;28087,367;   -0,537;    0,500
592,181;28112,750;   -0,719;   -0,773
592,761;27415,461;    0,007;    1,409
593,341;27352,062;   -0,901;    0,045
593,921;27295,052;   -0,265;    1,591
594,501;27268,855;   -0,538;    1,318
595,081;27105,169;    0,917;   -0,318
595,661;27446,988;   -1,447;    0,955
596,240;27893,671;   -0,537;    0,136
596,820;27570,829;    0,372;    1,955
597,400;27737,919;    2,008;    0,773
597,980;27971,588;    2,008;    1,045
598,559;27990,274;    2,735;   -0,227
599,139;27751,019;   -0,174;   -1,227
599,718;27621,019;   -0,174;   -0,409
600,298;27894,124;    0,735;    0,682
600,877;28127,142;    2,917;    1,409
601,457;28343,845;    2,281;    1,136
602,036;28259,364;    0,190;    2,045
602,616;28477,585;    0,644;    1,682
603,195;28784,661;   -0,355;    3,500
603,774;28328,829;   -0,901;    2,045
604,354;28244,985;    0,826;   -0,500
604,933;27752,358;    0,463;    1,864
605,512;27857,872;    3,554;    0,591
606,091;27899,245;   -0,537;    3,773
606,671;28725,090;    0,281;    0,773
607,250;27830,096;    1,644;    3,136
607,829;28093,574;    2,372;    3,227
608,408;27943,844;    1,190;    2,591
608,987;26995,572;    1,281;    3,409
609,566;27282,354;   -1,265;   -2,500
610,145;27380,734;   -1,082;    0,682
610,723;27741,595;    4,372;    6,864
611,302;27011,818;   -0,446;    1,682
611,881;26535,114;    5,008;   11,227
612,460;27389,001;    1,645;    3,955
613,039;27793,246;   -0,082;    2,045
613,617;26523,253;    1,736;    4,773
614,196;26719,214;    1,099;    1,227
614,775;27062,391;    1,009;    2,409
615,353;27014,509;    0,736;    0,864
615,932;26750,305;    0,100;    2,409
616,510;27291,297;    0,554;    0,591
617,089;26793,555;    7,100;   17,591
617,667;26537,944;    2,372;    6,136
618,246;26461,304;   -1,537;    1,318
618,824;26619,557;   -3,355;   -0,955
619,402;26157,560;   -2,900;   -1,773
619,981;26682,976;   -0,173;   -1,045
620,559;26475,919;    0,009;    1,682
621,137;26001,269;   -0,718;    1,864
621,715;26047,039;   -1,173;   -0,682
622,293;25962,598;   -0,537;   -0,773
622,871;26393,544;   -0,718;    0,500
623,450;26024,113;    0,373;   -0,864
624,028;25940,311;    0,191;   -0,955
624,606;25552,401;   -1,718;    1,682
625,183;25905,056;   -1,536;   -1,136
625,761;25543,689;    1,009;    1,136
626,339;25853,748;    1,373;    2,591
626,917;26208,264;   -0,172;   -0,045
627,495;26272,668;   -0,354;    1,318
628,073;25756,291;   -0,263;    2,864
628,650;25446,421;    0,100;    2,136
629,228;25882,224;    0,373;    4,409
629,806;25262,064;    2,282;    1,136
630,383;25532,528;    1,464;   -0,318
630,961;25315,368;    2,555;   -0,955
631,539;25063,764;    2,464;    0,227
632,116;24399,186;   11,373;   15,409
632,694;24982,352;    2,555;    6,500
633,271;25308,744;    0,828;    2,682
633,848;25288,967;    1,828;    2,045
634,426;25289,684;   -1,081;    1,773
635,003;24427,910;    1,101;   -0,409
635,580;24743,899;    1,192;    3,682
636,158;25253,495;    3,737;    1,227
636,735;25233,048;    0,555;   -0,500
637,312;25383,041;   -0,809;   -0,682
637,889;25515,547;   -4,354;   -0,682
638,466;24901,881;   -3,990;   -0,409
639,043;24919,282;    2,101;   -1,136
639,620;25242,611;   -2,262;   -0,955
640,197;25560,503;    1,100;    1,682
640,774;25703,555;   -0,172;    1,136
641,351;26143,971;    0,737;    1,136
641,928;25612,842;   -0,627;    1,409
642,505;25203,804;    0,828;   -0,500
643,082;25309,493;   -1,718;    1,227
643,658;24333,182;   -0,718;    1,500
644,235;25115,780;    1,191;    2,500
644,812;25399,923;    1,918;    0,773
645,388;25183,521;   -0,991;    1,409
645,965;25256,665;   -0,809;    1,682
646,542;25362,808;   -1,445;   -0,227
647,118;25307,951;    1,009;   -0,955
647,695;25593,640;   -0,263;    1,136
648,271;25491,784;   -0,536;    0,500
648,848;25779,109;    0,736;    2,227
649,424;25635,889;    0,827;    1,318
650,000;25390,850;   -0,354;   -1,045
650,577;25266,358;   -0,627;   -0,955
651,153;25717,501;   -1,809;    0,955
651,729;26697,463;    1,191;    0,864
652,305;26993,697;    0,645;    2,773
652,881;31559,931;   -0,082;    1,136
653,458;38382,620;    1,100;    0,227
654,034;42063,491;    0,282;    1,591
654,610;43481,816;    0,554;    0,773
655,186;44754,687;    0,645;    3,045
655,762;44449,467;   -0,991;    0,409
656,338;44460,247;    0,100;    0,136
656,913;45391,572;   -0,082;    0,409
657,489;44622,261;    0,827;   -0,318
658,065;44589,404;   -0,173;   -1,591
658,641;45176,639;   -0,900;   -0,864
659,217;44512,328;   -0,991;    0,409
659,792;43829,744;    0,645;   -0,409
660,368;44092,796;   -2,173;   -0,682
660,944;43696,394;   -2,082;    1,227
661,519;38997,447;   -0,628;    0,409
662,095;33108,681;   -1,719;    0,591
662,670;28687,370;    1,281;   -0,136
663,246;27589,604;    1,009;   -0,409
663,821;26933,657;    0,281;    1,682
664,396;26438,164;    0,009;    1,864
664,972;26718,035;    0,009;   -0,500
665,547;27013,360;    1,372;    0,136
666,122;27054,685;   -1,082;    0,318
666,698;27357,011;   -0,173;    0,318
667,273;26656,881;   -0,173;    0,136
667,848;27458,661;    2,372;    1,500
668,423;27242,714;    2,190;    2,318
668,998;27848,493;    2,827;   -0,682
669,573;28394,273;   -3,264;   -1,500
670,148;28241,053;   -1,446;   -0,682
670,723;28040,924;   -1,810;    0,318
671,298;28432,340;    2,372;    1,045
671,873;28581,938;   -0,082;   -0,136
672,448;28487,718;    0,645;    0,136
673,023;28811,407;   -1,992;   -0,227
673,597;29125,550;    0,827;    2,318
674,172;28898,239;   -0,355;    0,318
674,747;28388,019;    0,372;   -1,045
675,321;28216,981;   -0,628;    3,318
675,896;27768,669;    0,645;    1,045
676,471;28776,177;    2,645;    1,591
677,045;28565,229;   -1,264;    0,682
677,620;28645,100;    0,190;    1,136
678,194;28963,880;   -2,628;    1,136
678,769;28520,932;   -1,083;   -0,318
679,343;28771,257;   -0,628;    1,773
679,917;28664,401;   -1,446;    1,955
680,492;28717,363;    0,826;    3,227
681,066;28847,233;    3,372;    0,409
681,640;28923,922;    1,463;   -0,318
682,214;29706,702;    0,735;    0,500
682,788;29202,118;   -1,356;   -0,773
683,363;29182,716;   -1,810;    1,682
683,937;28920,132;   -1,719;   -0,318
684,511;29623,912;    0,463;   -0,591
685,085;29313,692;   -1,356;    0,318
685,659;29102,745;   -2,538;    0,864
686,232;29401,615;   -0,356;   -0,318
686,806;29081,850;   -0,901;    0,409
687,380;29737,811;   -0,174;    0,591
687,954;29903,773;   -1,174;    1,136
688,528;29600,644;   -0,719;    1,955
689,101;30374,423;   -3,992;    1,045
689,675;29998,658;   -0,356;   -0,136
690,249;29365,710;   -0,719;    0,409
690,822;29667,763;    0,280;    0,318
691,396;29756,906;   -0,265;    1,227
691,969;29228,868;    1,280;    0,136
692,543;29700,830;   -0,447;   -1,955
693,116;29298,155;   -0,265;   -1,409
693,690;29192,026;    0,099;    0,500
694,263;29760,260;   -1,083;    2,955
694,836;29761,767;    1,371;    3,591
695,410;28463,183;   -0,265;    1,773
695,983;28946,963;    0,189;    0,591
696,556;28859,834;   -0,447;   -1,045
697,129;29276,159;   -0,356;    1,409
697,703;28896,939;   -1,629;    1,955
698,276;28793,082;    1,462;   -0,773
698,849;28696,498;    1,280;    1,409
699,422;29062,551;   -1,083;    0,591
699,995;28796,604;    0,007;    0,136
700,568;29285,474;   -0,629;    3,045
701,140;29278,345;   -2,811;    1,682
701,713;29077,488;   -0,174;    2,409
702,286;28816,632;   -0,538;    0,864
702,859;28685,412;   -0,902;   -0,591
703,432;27818,555;    0,825;    0,682
704,004;28302,153;    0,462;    0,318
704,577;28222,297;   -0,629;    0,136
705,150;28792,986;    0,189;    2,500
705,722;28532,402;   -0,356;   -3,227
706,295;28299,818;   -0,175;   -0,591
706,867;28210,961;   -0,175;    1,955
707,440;28393,287;   -1,720;   -0,409
708,012;28670,794;    0,462;    0,591
708,584;28590,573;    2,462;    0,227
709,157;28870,535;    1,825;   -0,591
709,729;28482,406;    2,280;    2,045
710,301;29396,095;    0,734;    0,045
710,874;29359,147;   -1,447;   -0,227
711,446;28199,200;    0,371;    0,864
712,018;28119,798;    0,098;    0,500
712,590;27851,032;   -1,993;    1,682
713,162;28401,994;    0,825;    1,318
713,734;28635,410;    1,825;   -2,045
714,306;28558,917;   -1,902;   -0,409
714,878;27248,151;    0,825;    0,864
715,450;28091,477;    0,643;    0,864
716,022;28341,893;    1,552;    1,318
716,593;28484,309;    0,189;    0,591
717,165;28341,998;   -3,175;   -1,227
717,737;28126,596;    0,280;    0,409
718,309;27755,649;    0,280;   -0,045
718,880;27709,974;   -0,539;   -1,409
719,452;27950,208;   -0,175;   -1,591
720,024;27520,079;    0,734;   -0,591
720,595;28090,586;   -2,902;    0,955
721,167;27615,002;    0,370;   -2,045
721,738;27211,237;   -0,812;   -1,045
722,309;27195,380;   -0,993;   -1,227
722,881;26938,887;   -1,357;    0,773
723,452;27618,667;   -2,630;    2,864
724,023;27791,719;   -0,721;    2,682
724,595;27535,317;    0,007;    0,682
725,166;27286,006;    0,007;   -0,409
725,737;26952,332;    1,734;    0,227
726,308;26988,111;   -0,266;    0,318
726,879;27444,164;   -1,630;    1,227
727,450;27287,126;    0,552;   -0,045
728,021;27263,178;    3,097;    0,682
728,592;27033,140;    0,734;    0,500
729,163;27394,647;    0,643;   -0,136
729,734;27417,154;    0,188;   -0,227
730,305;27701,206;    1,734;    0,136
730,876;28078,714;    0,188;    2,955
731,447;27806,493;    2,188;    2,682
732,017;27963,546;    1,097;    1,864
732,588;27398,326;    0,734;    1,227
733,159;27595,651;    0,643;   -1,045
733,729;27413,249;    0,006;    0,409
734,300;26702,120;    0,915;    0,864
734,870;27138,627;    3,461;    0,591
735,441;27717,407;    0,370;   -0,591
736,011;27496,005;    0,643;   -1,591
736,582;27360,330;   -0,812;    0,045
737,152;26850,110;   -1,721;   -2,045
737,722;27310,344;   -0,267;   -0,682
738,293;27039,124;   -1,358;    1,318
738,863;26920,267;    2,461;    2,318
739,433;26733,411;    5,279;    0,318
740,003;27358,918;   -0,994;   -0,682
740,573;26780,152;    2,097;   -1,591
741,143;26708,568;   -1,085;    0,318
741,713;27478,712;    1,188;   -0,500
742,283;27186,674;    0,915;    1,591
742,853;26955,635;    1,915;    1,591
743,423;26365,506;    1,733;    0,045
743,993;26541,740;   -0,358;    1,500
744,563;25930,520;    0,097;   -0,864
745,133;25875,300;   -0,812;   -0,864
745,702;26584,989;   -0,267;    1,773
746,272;25779,132;   -0,176;    0,591
746,842;25510,367;   -1,358;   -0,591
747,411;25981,874;   -0,267;   -0,318
747,981;26198,744;    0,097;    0,500
748,551;26167,797;    2,278;   -1,045
749,120;26018,849;    0,642;   -0,227
749,690;26409,629;   -0,631;    2,409
750,259;26750,955;    1,369;    2,955
750,828;26673,553;    1,551;   -1,955
751,398;26944,514;    1,278;   -0,045
751,967;26469,658;    2,187;    0,409
752,536;26664,256;   -0,813;   -0,227
753,105;27105,308;    0,096;    0,227
753,675;26890,906;    0,096;    1,773
754,244;26852,686;   -0,904;    3,591
754,813;26883,011;    0,551;    1,227
755,382;26456,064;    0,460;    0,955
755,951;27002,389;    1,551;    3,682
756,520;26477,896;   -0,085;    1,864
757,089;27007,131;    0,278;    0,500
757,658;27203,092;    1,733;    1,227
758,227;27172,236;    1,096;    0,318
758,795;27568,925;    1,187;    1,136
759,364;27759,068;   -0,086;   -0,591
759,933;26733,757;   -1,176;   -0,045
760,501;26271,991;    0,733;   -1,318
761,070;26757,407;   -2,813;   -1,409
761,639;27400,278;   -1,904;    1,318
762,207;26769,149;    1,551;   -0,955
762,776;26720,929;    0,369;    0,864
763,344;26690,163;   -0,995;    0,591
763,913;25831,579;   -0,722;    1,409
764,481;26536,450;    1,005;   -0,136
765,049;26345,412;   -1,358;    1,409
765,618;26211,373;   -0,086;    0,318
766,186;26275,335;    0,278;    0,136
766,754;26474,933;    0,005;    1,864
767,322;25452,440;   -1,995;    0,409
767,890;25533,038;   -0,722;   -1,773
768,459;25906,090;   -2,177;   -0,318
769,027;26088,325;    1,641;    3,409
769,595;25013,468;    3,278;    2,591
770,163;25449,248;    3,823;    2,955
770,730;25196,573;    0,732;   -0,136
771,298;24999,353;    0,187;   -1,409
771,866;25105,769;   -1,541;    4,955
772,434;25460,549;   -0,631;   -1,864
773,002;25657,056;    0,005;    0,682
773,569;25315,927;    0,914;    1,682
774,137;25179,525;   -0,268;   -0,045
774,705;25907,759;    0,278;   -0,136
775,272;25422,085;    0,641;    0,682
775,840;25190,046;   -0,177;    2,682
776,407;24721,735;    0,277;    1,955
776,975;24348,970;   -0,632;    0,318
777,542;25319,658;   -1,086;   -0,045
778,110;25129,893;   -1,268;   -0,045
778,677;24795,491;   -2,359;   -0,864
779,244;24576,907;    2,186;    1,045
779,812;24677,050;    1,823;    0,864
780,379;24559,103;    0,005;    1,136
780,946;24782,974;    1,005;   -0,773
781,513;25154,572;   -1,450;    0,318
782,080;24515,806;   -0,086;    2,864
782,647;25238,222;   -0,268;    3,045
783,214;24831,548;   -0,177;    3,864
783,781;24406,600;   -0,723;   -0,682
784,348;24301,471;   -0,632;    1,500
784,915;24759,160;   -3,177;    0,318
785,482;24509,303;    1,368;    2,591
786,049;24987,628;    0,186;   -0,591
786,615;25119,954;    0,277;   -0,955
787,182;24838,097;    0,186;   -0,682
787,749;24497,331;   -2,814;    1,409
788,315;23816,748;   -1,632;   -0,409
788,882;24108,982;    1,550;   -1,227
789,448;24865,398;    1,732;   -0,955
790,015;24868,360;    1,095;    3,227
790,581;24455,958;    1,459;    0,227
791,148;24357,192;    0,641;    1,045
791,714;24541,336;   -0,541;    3,136
792,280;24216,115;    0,186;    1,591
792,847;23748,259;    0,550;    2,500
793,413;24324,493;   -0,269;   -0,318
793,979;23914,909;    3,459;   -1,318
794,545;23978,962;    4,459;    2,682
795,111;23385,105;    2,186;    1,318
795,678;23531,976;    0,731;   -1,682
796,244;23174,574;    3,368;    0,136
796,810;23708,718;    1,731;    0,773
797,375;23438,407;    0,549;   -2,136
797,941;23461,732;   -0,541;    0,591
798,507;23632,784;   -0,451;   -0,955
799,073;23197,291;   -0,360;    0,591
799,639;23256,980;   -2,632;    3,136
800,205;23285,033;    0,095;    2,682
800,770;22830,540;    0,640;    1,773
801,336;22896,138;    1,368;   -0,955
801,901;22620,554;    4,549;    3,136
802,467;23163,061;   -0,542;    2,045
803,033;22488,568;   -0,087;    0,864
803,598;22677,894;    1,913;   -1,045
804,163;22733,310;    1,095;   -0,318
804,729;22685,544;   -0,178;    1,136
805,294;23112,960;    0,822;    2,227
805,859;22858,740;    0,731;   -0,409
806,425;22366,520;    1,186;    2,682
806,990;22001,209;    2,186;    4,318
807,555;22514,716;   -1,451;    2,591
808,120;22416,041;    0,822;   -0,409
808,685;22487,639;    0,185;   -2,500
809,250;21978,237;    0,004;   -0,500
809,815;22267,835;    1,913;    0,682
810,380;22827,706;   -0,269;    1,591
810,945;23423,849;   -1,087;    2,045
811,510;22564,902;    2,094;    1,591
812,075;22247,682;   -0,633;   -1,409
812,640;22254,916;    2,003;    1,409
813,204;22344,060;    0,822;   -0,227
813,769;22828,658;    2,094;   -0,045
814,334;22219,437;    0,458;    0,864
814,898;22271,217;    0,367;    0,591
815,463;22127,724;    1,276;   -0,773
816,027;22168,777;   -0,724;   -2,318
816,592;22232,284;    0,640;   -2,045
817,156;21742,791;    2,094;    1,136
817,721;21596,571;    4,276;    2,318
818,285;21535,078;    2,912;    1,500
818,849;22223,676;   -1,451;    1,682
819,414;22084,728;   -0,269;    2,955
819,978;21719,690;   -1,269;    1,773
820,542;22259,197;    2,003;    0,500
821,106;21988,886;   -0,815;    0,682
821,670;22085,484;   -0,815;    2,591
822,234;21817,537;   -0,270;    1,409
822,798;21170,407;    0,003;    0,500
823,362;21108,096;   -0,633;    4,227
823,926;20420,603;    0,094;    1,136
824,490;20718,201;   -0,997;   -0,682
825,054;21126,799;   -0,088;   -1,136
825,618;20759,579;   -1,542;   -1,500
826,181;20652,632;    0,458;   -1,318
826,745;20603,230;    1,367;   -1,045
827,309;20957,373;    1,185;    1,318
827,872;20377,335;    1,367;    0,955
828,436;21373,660;    1,185;   -0,773
828,999;21422,894;   -0,997;    1,227
829,563;20198,856;   -0,179;    1,136
830,126;20074,272;   -0,179;   -0,591
830,690;20061,052;   -1,997;    2,864
831,253;19550,286;   -0,543;    2,227
831,816;19700,157;   -1,906;    0,500
832,380;19594,210;    0,185;    0,864
832,943;19867,353;   -1,361;   -0,500
833,506;19338,769;    2,639;   -1,227
834,069;20121,549;    3,912;   -0,955
834,632;20142,329;    1,730;    1,318
835,195;20085,381;    1,003;    0,955
835,758;19254,070;   -0,997;    1,955
836,321;19117,214;    0,730;   -1,045
836,884;19198,175;   -0,725;   -0,955
837,447;19225,773;   -2,816;    1,773
838,010;19520,371;    0,366;    3,227
838,573;19814,969;   -1,179;    0,773
839,135;19737,386;   -1,361;   -0,955
839,698;19227,529;    1,275;    0,409
840,261;18730,582;    1,003;   -0,227
840,823;18552,452;   -0,543;    0,864
841,386;18866,141;   -0,452;   -2,409
841,948;18737,830;   -1,361;    1,773
842,511;18492,065;    0,912;    1,682
843,073;18597,663;    1,912;    0,227
843,636;18405,442;   -0,361;   -0,227
844,198;18329,768;    0,911;    0,591
844,760;18480,638;    1,093;    1,955
845,322;18176,327;    0,548;    1,136
845,885;18587,834;    0,730;    0,591
846,447;19016,614;   -1,998;    0,227
847,009;18635,848;    1,911;   -0,682
847,571;18986,992;    0,820;   -2,045
848,133;19024,499;   -1,089;   -1,864
848,695;18814,188;   -0,543;    1,409
849,257;18385,604;   -1,089;   -1,682
849,819;18573,748;   -0,998;   -0,409
850,381;18590,255;   -0,725;   -0,864
850,942;18972,762;    1,093;   -0,591
851,504;18924,723;    1,184;    0,227
852,066;18994,503;    1,275;   -1,591
852,628;18495,828;   -0,180;    1,955
853,189;18070,154;    1,638;    2,682
853,751;18171,479;   -0,907;    1,409
854,312;17975,259;   -0,453;   -1,682
854,874;18479,402;   -2,089;   -0,773
855,435;18979,728;   -0,907;   -1,682
855,997;19141,507;   -1,816;   -0,136
856,558;18416,651;    0,366;    1,773
857,119;18525,885;    0,820;    2,864
857,681;18180,483;    0,002;    0,318
858,242;18251,899;    1,911;   -2,136
858,803;18688,225;    0,456;   -0,773
859,364;19302,732;    0,184;   -4,773
859,925;18599,148;   -2,453;   -0,955
860,486;18452,019;   -0,453;   -0,955
861,047;18184,162;   -0,544;   -1,227
861,608;18021,578;   -1,089;   -0,773
862,169;18121,631;    0,638;   -0,045
862,730;17922,320;    0,456;    1,409
863,291;18173,736;   -0,635;   -0,500
863,852;18548,152;   -0,635;    1,955
864,412;18056,750;   -0,271;   -0,864
864,973;16606,530;   -0,089;    0,500
865,534;16436,673;   -1,726;    0,227
866,094;17975,635;    1,820;    0,227
866,655;17679,051;    1,274;    3,318
867,215;17932,285;    0,274;    0,136
867,776;17769,883;    0,547;   -0,136
868,336;17880,027;   -1,453;    0,136
868,897;17339,170;    2,638;    1,682
869,457;17081,314;    1,365;    0,318
870,017;17286,639;    0,547;   -1,227
870,578;17782,964;   -0,817;    0,773
871,138;17469,835;   -2,089;   -0,955
871,698;16970,979;   -0,817;   -1,318
872,258;16896,213;   -0,453;   -2,864
872,818;17274,356;    2,729;    0,045
873,378;17238,954;    0,638;    1,045
873,938;16748,552;    0,547;    0,500
874,498;17140,878;    0,274;   -1,955
875,058;17040,385;    2,183;    1,773
875,618;16864,528;    1,910;   -2,682
876,177;16784,672;    1,274;    0,136
876,737;16420,361;   -0,090;    1,955
877,297;16484,595;    0,183;    1,955
877,856;16452,829;   -0,362;    0,318
878,416;16392,064;    1,183;   -0,136
878,976;16642,389;   -1,817;    0,409
879,535;16782,169;    0,092;    3,136
880,095;16541,403;   -0,544;    0,045
880,654;16653,183;   -1,090;    1,318
881,213;16745,599;    2,456;    1,500
881,773;16369,197;    2,637;    2,682
882,332;16728,159;    3,365;    5,136
882,891;16596,848;    3,092;    2,136
883,451;17093,264;   -1,272;    1,682
884,010;16555,225;   -2,908;   -0,409
884,569;16614,187;   -0,999;   -0,045
885,128;16771,694;    2,819;   -1,864
885,687;16829,929;    4,455;    0,682
886,246;16574,708;    1,455;    2,136
886,805;16306,852;    2,455;    2,045
887,364;16561,450;   -0,999;   -0,500
887,922;16911,957;   -1,181;    0,045
888,481;16439,100;   -1,545;    0,591
889,040;16748,880;    1,183;    2,136
889,599;17425,842;    2,455;    1,409
890,157;17489,349;    1,455;    2,409
890,716;17148,038;   -0,090;    0,227
891,274;16920,999;    0,092;   -1,136
891,833;17386,234;    1,546;    0,864
892,391;17240,104;   -0,454;    0,500
892,950;17337,157;    1,819;   -0,773
893,508;17703,573;    0,455;   -0,409
894,067;17030,262;    0,637;    0,136
894,625;16969,587;   -0,636;   -1,500
895,183;17184,458;   -0,363;   -0,682
895,741;17068,329;    1,728;   -1,773
896,299;16950,200;   -0,545;   -2,409
896,858;17142,707;    0,819;   -1,591
897,416;17225,941;    2,728;   -1,318
897,974;16980,903;    1,819;    0,318
898,532;17150,410;    6,091;    2,682
899,089;17051,008;    2,091;   -0,682
899,647;17048,697;   -1,454;    1,318
900,205;16776,022;    1,182;    1,045
900,763;16968,984;   -0,454;    0,227
901,321;17027,854;    2,364;   -1,409
901,878;16408,452;   -1,000;   -0,773
902,436;16268,050;   -1,363;    1,318
902,994;16689,466;    4,728;    3,682
903,551;16149,519;    0,728;    0,409
904,109;16533,481;    0,182;   -1,409
904,666;16075,624;    2,455;    1,045
905,224;15962,768;    0,182;   -0,409
905,781;15692,547;    0,727;   -0,318
906,338;15785,873;   -1,363;    1,045
906,895;15708,471;    0,637;    2,045
907,453;15620,432;    1,727;    1,136
908,010;15644,667;   -0,909;    0,409
908,567;15297,174;    1,273;    0,591
909,124;14802,317;    0,364;   -1,500
909,681;14878,733;   -2,909;    0,682
910,238;15043,786;    0,636;   -1,318
910,795;15339,293;   -0,273;   -1,136
911,352;14944,111;   -2,909;   -2,682
911,909;14393,929;   -1,364;   -0,864
912,466;14873,566;   -3,182;    1,500
913,022;14429,838;   -1,636;    0,500
913,579;14800,747;   -0,909;    2,045
914,136;14506,747;    1,636;    0,955
914,692;14801,293;    0,091;   -1,227
915,249;14429,838;    1,455;    0,409
915,806;14654,747;    0,182;    1,955
916,362;14417,657;    1,909;    1,864
916,918;13966,657;    2,000;    1,045
917,475;13957,566;   -1,182;    0,955
918,031;14027,929;    3,364;   -0,045
918,587;13461,202;   -0,909;   -0,318
919,144;13715,657;   -2,273;    0,227
919,700;14027,202;    1,727;    0,773
920,256;13585,747;    0,727;    0,045
920,812;13201,657;   -0,727;   -1,045
921,368;13189,838;   -1,727;   -1,045
921,924;12850,475;    0,182;   -0,136
922,480;12429,929;   -0,545;    1,227
923,036;13057,384;    1,273;    1,955
923,592;12989,747;    0,455;    0,318
924,148;12909,566;    0,455;   -0,955
924,704;12175,838;   -1,364;   -0,409
925,259;12475,111;   -0,273;    0,591
925,815;12285,475;    1,455;    0,500
926,371;11789,657;    2,909;    1,409
926,926;11667,384;    2,091;    0,591
927,482;11327,293;   -1,364;    0,773
928,037;11228,293;    0,909;    2,045
928,593;11509,838;    1,636;    1,045
929,148;11275,475;   -1,818;   -1,500
929,704;10813,475;   -1,455;   -0,500
930,259;11043,747;    0,091;   -0,136
930,814;10094,838;   -0,818;    1,955
931,369; 9762,293;    1,091;   -0,773
931,925; 9678,202;   -0,091;    0,136
932,480; 9576,566;   -2,818;   -2,591
933,035; 9459,202;    0,545;   -0,318
933,590; 9235,111;    0,364;   -1,773
934,145; 8866,020;   -1,364;   -0,318
934,700; 9209,747;    0,455;   -0,591
935,255; 9043,384;   -0,091;    0,045
935,809; 8344,475;    3,182;    0,864
936,364; 7440,838;   -0,455;   -0,136
936,919; 7414,293;    0,455;   -1,773
937,474; 7307,020;    1,455;    0,136
938,028; 7053,657;   -1,636;    1,136
938,583; 6541,293;    1,818;    4,682
939,138; 6805,747;    2,091;    2,136
939,692; 6227,838;    1,636;   -1,136
940,247; 5968,657;   -0,727;   -1,045
940,801; 5524,838;   -0,636;    0,227
941,355; 5413,475;   -0,364;    2,591
941,910; 5063,202;   -0,273;   -2,136
942,464; 5164,566;   -0,818;   -0,318
943,018; 4952,657;    1,000;   -0,227
943,572; 4908,384;    2,545;   -0,682
944,126; 4320,838;    0,091;   -0,409
944,681; 4201,475;    3,091;    0,227
945,235; 4205,566;    1,000;   -0,591
945,789; 4133,838;    0,364;   -1,864
946,342; 4222,475;    0,455;   -0,591
946,896; 4036,929;   -2,273;    0,955
947,450; 3797,293;    1,545;   -0,227
948,004; 4010,475;    1,727;   -0,045
948,558; 4005,838;    0,273;   -0,864
949,111; 3924,475;   -0,273;   -0,318
949,665; 3972,384;    1,636;   -0,682
950,219; 3824,747;   -0,091;   -1,045
950,772; 3900,293;   -1,909;    1,864
951,326; 3802,747;    0,545;   -0,955
951,879; 3917,293;    0,727;   -2,318
952,433; 3938,747;    0,000;    2,227
952,986; 3757,475;    2,909;    0,682
953,539; 3747,111;   -0,273;    0,591
954,093; 3680,111;    0,545;   -1,318
954,646; 3817,293;    0,909;    1,318
955,199; 3619,111;    0,000;   -0,500
955,752; 3508,929;   -0,455;    1,773
956,305; 3462,111;   -0,091;    2,955
956,858; 3629,566;    0,818;   -0,318
957,411; 3782,566;   -0,545;    2,136
957,964; 3629,475;    1,364;    2,136
958,517; 3610,111;   -1,545;    3,136
959,070; 3437,293;   -0,455;    1,955
959,623; 3539,747;    1,091;    1,500
960,176; 3277,566;    1,727;    2,045
960,728; 3253,838;   -2,727;    0,773
961,281; 3329,475;    0,545;    0,500
961,834; 3371,747;   -0,909;    0,864
962,386; 3301,475;    1,727;    1,045
962,939; 3204,384;    0,364;   -0,318
963,491; 3365,293;    0,455;    1,136
964,043; 3238,202;    1,182;    2,409
964,596; 3361,475;   -1,000;    2,227
965,148; 3196,202;   -1,000;    1,773
965,700; 3117,202;    1,091;   -0,227
966,253; 3271,747;   -0,636;    0,318
966,805; 3112,747;   -2,273;    0,773
967,357; 3157,293;    1,091;   -1,500
967,909; 3130,657;    0,455;   -1,227
968,461; 3213,747;    0,545;    3,136
969,013; 3154,566;   -0,182;   -0,864
969,565; 3224,929;   -0,455;   -1,136
970,117; 3293,566;   -0,364;    1,045
970,669; 3128,657;    0,182;   -0,136
971,220; 2993,202;   -0,455;   -1,500
971,772; 2929,838;   -0,636;   -0,318
972,324; 3038,657;    0,091;   -0,500
972,876; 2999,384;    0,818;   -0,045
973,427; 3128,747;    1,909;   -1,045
973,979; 3091,747;   -0,727;   -2,500
974,530; 3123,566;    1,818;    1,318
975,082; 3131,566;   -0,545;    1,682
975,633; 3024,475;    1,091;    1,682
976,184; 3178,475;    0,909;    0,773
976,736; 2967,838;    0,091;    0,227
977,287; 2763,202;   -0,909;   -0,500
977,838; 2947,838;    0,909;   -0,318
978,389; 3003,384;   -1,000;   -0,500
978,940; 2861,657;    0,545;   -0,409
979,491; 2891,475;    0,091;   -0,500
980,042; 2860,838;    0,182;    3,045
980,593; 2929,384;   -2,545;    0,227
981,144; 2973,838;    2,545;   -0,500
981,695; 2925,929;    1,455;    1,500
982,246; 2899,020;   -0,273;    1,045
982,797; 3040,020;   -1,727;    0,682
983,347; 3164,020;    0,364;    0,591
983,898; 3326,838;    3,091;    0,409
984,449; 3143,384;    2,182;    0,773
984,999; 3048,475;    1,455;   -1,136
985,550; 2839,657;    0,182;   -0,318
986,100; 2869,838;   -0,455;   -0,318
986,651; 2897,293;   -0,818;    0,045
987,201; 2880,566;   -1,000;   -0,591
987,751; 2963,929;    0,818;    2,864
988,302; 2938,293;    2,636;    1,500
988,852; 2964,111;    0,455;   -1,136
989,402; 3017,202;    0,091;    0,682
989,952; 2935,293;   -2,182;    0,864
990,502; 3035,838;   -0,091;    0,682
991,052; 2983,384;   -0,727;    0,045
991,602; 2866,020;   -2,909;    1,318
992,152; 2851,657;    0,455;    0,682
992,702; 2847,202;    1,364;   -0,045
993,252; 2775,475;   -3,000;   -0,500
993,802; 2845,111;   -0,273;    1,318
994,352; 3086,838;   -1,545;    1,136
994,901; 3157,657;   -0,182;    3,227
995,451; 3083,475;   -0,182;    0,318
996,000; 3160,475;    1,636;    0,318
996,550; 2897,384;    2,273;    0,227
997,100; 2890,929;    1,273;   -0,045
997,649; 3154,929;    2,182;    0,955
998,198; 2787,929;    1,727;   -1,500
998,748; 2992,657;    1,091;   -2,318
999,297; 2905,475;   -0,818;   -0,409
999,846; 2950,111;    1,000;   -0,773
1000,395; 3003,566;   -0,818;    0,500
1000,945; 2974,566;    1,818;   -0,773
1001,494; 3072,929;    2,364;    0,682
1002,043; 3054,475;    4,636;    0,864
1002,592; 2881,293;   -1,091;    1,955
1003,141; 3030,111;   -0,455;   -0,682
1003,690; 2882,747;    1,727;    0,500
1004,238; 2969,929;    1,455;   -0,045
1004,787; 2617,202;    1,364;    1,227
1005,336; 2835,475;    0,364;    0,682
1005,885; 2972,838;    1,364;   -2,773
1006,433; 3098,111;    0,545;    0,955
1006,982; 3163,838;    0,455;    1,682
1007,531; 3078,747;   -1,818;   -0,227
1008,079; 3023,202;   -2,273;    0,500
1008,627; 3167,475;   -1,455;    0,409
1009,176; 2928,657;    0,000;   -1,955
1009,724; 2959,657;    1,091;    0,864
1010,273; 3010,566;    1,273;    0,500
1010,821; 3116,111;    0,091;    1,409
1011,369; 2856,657;   -1,364;    1,318
1011,917; 2848,838;   -1,364;   -0,591
1012,465; 3126,838;    1,273;   -1,591
1013,013; 3212,020;    2,091;   -1,682
1013,561; 3086,747;    0,455;   -0,773
1014,109; 3158,202;   -1,909;    1,682
1014,657; 3036,384;    0,364;    0,591
1015,205; 3139,111;    1,636;   -0,955
1015,753; 3189,475;   -0,545;   -1,409
1016,301; 3216,202;   -2,636;    3,045
1016,848; 3239,657;   -1,273;    0,409
1017,396; 3276,475;    2,545;    0,045
1017,944; 3406,020;    1,182;    1,864
1018,491; 3165,202;    0,273;    1,409
1019,039; 3314,293;    0,455;    0,591
1019,586; 3219,566;   -1,364;    1,682
1020,134; 3323,111;    0,455;    1,500
1020,681; 3347,747;    0,182;   -1,136
1021,228; 3347,384;    2,909;   -2,227
1021,776; 3168,293;    1,182;   -1,136
1022,323; 3393,202;    0,455;    0,773
1022,870; 3328,111;   -1,000;   -0,045
1023,417; 3213,838;    2,636;    1,864
1023,964; 3361,202;    2,636;    1,227
1024,511; 3198,202;    1,000;    0,773
1025,058; 2999,202;    3,182;   -0,045
1025,605; 3075,566;   -2,273;    3,136
1026,152; 3297,747;    1,727;   -0,591
1026,699; 3010,293;    1,818;    1,318
1027,245; 3177,747;   -0,091;    0,318
1027,792; 3385,566;   -1,000;    1,409
1028,339; 3290,202;    2,364;   -0,045
1028,885; 3141,747;    1,000;   -0,227
1029,432; 3078,111;   -0,091;    0,227
1029,978; 3137,929;   -1,000;   -1,591
1030,525; 3030,202;    1,000;    0,409
1031,071; 3267,020;   -1,364;    1,136
1031,618; 3378,929;    0,364;    1,682
1032,164; 3164,747;   -0,091;    3,045
1032,710; 3198,838;    1,636;   -1,500
1033,256; 3118,657;   -0,636;   -0,136
1033,803; 3111,475;   -0,545;    1,500
1034,349; 2830,293;   -1,364;    0,136
1034,895; 2975,020;    0,000;   -0,318
1035,441; 2979,293;   -0,818;    0,318
1035,987; 2955,475;   -2,364;   -0,682
1036,533; 2951,384;   -1,455;   -0,955
1037,078; 3165,020;    1,455;    1,682
1037,624; 2992,838;    2,455;   -0,955
1038,170; 3012,475;    0,455;   -0,318
1038,716; 2924,566;    1,636;   -0,409
1039,261; 2849,202;   -2,273;   -0,773
1039,807; 2795,566;   -0,091;    3,409
1040,352; 2856,838;   -1,909;   -0,318
1040,898; 2885,384;   -1,545;   -0,682
1041,443; 2800,657;   -1,455;   -2,591
1041,989; 2827,929;    1,091;    1,591
1042,534; 2707,293;   -0,364;    2,591
1043,079; 2812,838;    2,909;    0,955
1043,625; 2610,838;    1,818;    0,500
1044,170; 2656,929;   -1,364;    1,045
1044,715; 2920,566;    2,455;    0,955
1045,260; 2743,657;    2,182;   -0,955
1045,805; 2777,747;    1,182;   -0,591
1046,350; 2691,566;    1,364;   -0,409
1046,895; 2656,475;    2,909;    1,591
1047,440; 2627,747;    5,364;    0,409
1047,985; 2519,020;    2,818;   -0,955
1048,530; 2420,657;    1,545;    1,227
1049,074; 2510,657;    0,000;    0,318
1049,619; 2477,566;   -1,364;    1,955
1050,164; 2282,293;    0,455;    0,227
1050,708; 2324,384;   -0,455;    0,045
1051,253; 2692,202;    1,273;   -2,227
1051,797; 2400,929;    0,818;   -1,318
1052,342; 2408,475;   -1,182;    1,045
1052,886; 2413,747;    0,364;   -1,409
1053,430; 2282,293;   -1,364;    0,136
1053,975; 2296,384;   -0,818;   -0,318
1054,519; 2278,838;   -0,727;    3,227
1055,063; 2286,747;    0,909;    1,318
1055,607; 2180,293;   -0,182;    0,227
1056,151; 2216,838;    2,909;    1,682
1056,695; 2121,566;    2,273;   -1,136
1057,239; 2184,657;   -1,727;   -0,682
1057,783; 2207,111;    0,818;   -1,500
1058,327; 2150,111;    0,000;    1,409
1058,871; 2380,566;   -0,545;    1,318
1059,415; 2084,384;   -0,818;   -0,045
1059,958; 2338,293;    1,455;    2,591
1060,502; 2059,747;   -1,000;   -0,773
1061,046; 1973,566;    0,364;   -0,955
1061,589; 1958,111;   -3,000;   -1,136
1062,133; 1849,929;   -1,273;    1,864
1062,676; 1791,929;    1,182;    0,864
1063,220; 1780,929;    1,091;    0,500
1063,763; 1799,747;    0,909;    1,136
1064,306; 1877,838;   -0,909;    1,864
1064,849; 1776,020;   -0,909;    0,591
1065,393; 1784,384;    2,000;   -1,500
1065,936; 1896,838;    0,182;   -0,409
1066,479; 1785,747;   -1,455;    1,318
1067,022; 1792,384;   -0,273;   -0,227
1067,565; 1692,475;   -0,091;   -1,318
1068,108; 1720,747;    0,727;   -0,591
1068,651; 1700,657;   -0,636;    1,409
1069,194; 1626,747;   -0,455;   -1,682
1069,736; 1623,838;   -1,273;    0,955
1070,279; 1589,202;   -1,364;   -0,500
1070,822; 1645,111;   -2,000;   -0,318
1071,364; 1748,384;   -0,364;    1,318
1071,907; 1563,020;   -0,727;    3,227
1072,450; 1467,293;    0,000;   -0,045
1072,992; 1450,747;   -0,273;    3,136
1073,535; 1608,929;    2,091;    2,136
1074,077; 1400,384;   -0,727;    2,045
1074,619; 1354,838;   -1,364;    0,591
1075,161; 1393,657;   -1,091;    1,500
1075,704; 1576,566;    1,545;    1,227
1076,246; 1375,475;   -0,182;    0,682
1076,788; 1302,929;   -0,364;    1,773
1077,330; 1384,475;    1,273;    2,136
1077,872; 1347,929;    0,909;    0,955
1078,414; 1576,384;    2,727;    0,773
1078,956; 1304,293;    1,273;   -0,227
1079,498; 1556,293;    1,636;    0,318
1080,040; 1267,657;    1,909;   -1,318
1080,581; 1211,293;    1,636;   -0,318
1081,123; 1134,202;    0,091;   -0,773
1081,665; 1185,747;   -1,182;   -0,955
1082,206; 1491,747;    1,364;   -0,500
1082,748; 1335,202;    0,727;    2,045
1083,289; 1204,020;   -2,000;    1,318
1083,831; 1125,293;   -0,545;    0,227
1084,372; 1163,747;    0,000;    0,591
1084,913; 1172,293;    1,091;    0,864
1085,455; 1130,293;   -1,909;   -2,045
1085,996; 1105,747;   -2,273;    0,136
1086,537; 1131,020;   -0,091;    0,864
1087,078; 1161,020;   -0,909;   -2,136
1087,619; 1199,475;   -1,273;    0,227
1088,160; 1115,657;    0,000;    1,318
1088,701; 1100,747;   -1,091;    0,682
1089,242; 1041,747;    1,364;   -2,227
1089,783; 1146,202;   -0,273;    1,409
1090,324; 1115,657;    0,455;    0,682
1090,865;  987,929;    2,727;   -0,409
1091,405;  942,111;    0,727;    2,227
1091,946;  967,747;    0,182;   -0,955
1092,487;  901,747;    0,818;   -1,409
1093,027; 1073,838;   -1,364;   -1,500
1093,568;  924,566;   -0,364;    1,227
1094,108; 1023,657;    0,273;    1,773
1094,649;  963,293;   -1,182;    0,136
1095,189;  888,657;   -0,636;   -0,682
1095,729;  839,293;   -0,091;    0,955
1096,269;  843,657;    0,727;   -0,955
1096,810; 1168,929;   -1,364;    0,500
1097,350;  998,929;    1,364;   -0,773
1097,890;  898,838;    0,364;    1,227
1098,430; 1152,747;    2,364;    2,864
1098,970; 1017,475;    2,182;    1,682
1099,510;  883,475;    0,545;   -2,318
1100,050;  813,020;    1,000;   -1,591
1100,589;  786,838;   -0,727;   -0,318
1101,129;  903,657;    0,818;   -0,955
1101,669; 1053,747;    1,727;    2,136
1102,209;  865,929;   -0,091;    2,227
1102,748;  834,747;    0,000;    0,955
1103,288;  821,838;    1,273;   -1,227
1103,827;  856,384;    3,091;   -2,227
1104,367;  737,384;   -0,091;   -2,409
1104,906;  687,657;    1,364;   -1,136
1105,445;  762,929;    0,636;   -1,136
1105,985;  707,566;   -0,727;    1,500
1106,524;  762,475;   -1,727;   -0,682
1107,063;  729,020;   -2,727;    1,409
1107,602;  700,020;   -1,909;   -1,500
1108,141;  626,111;   -1,909;    1,500
1108,680;  729,111;   -3,455;   -0,591
1109,219;  665,929;   -0,909;   -0,500
1109,758;  662,838;    0,455;    0,682
1110,297;  634,020;    1,000;   -0,682
1110,836;  587,657;   -0,727;    0,955
1111,375;  748,020;   -2,545;    0,409
1111,913;  758,747;   -1,000;    0,773
1112,452;  705,929;   -0,273;    0,136
1112,991;  580,566;    1,091;    1,955
1113,529;  545,202;   -0,818;   -0,045
1114,068;  607,111;   -0,273;    2,955
1114,606;  506,566;   -0,364;   -0,955
1115,144;  670,566;   -1,273;    1,045
1115,683;  610,202;   -0,727;    0,318
1116,221;  661,838;   -0,455;   -0,864
1116,759;  562,747;    0,636;   -0,864
1117,297;  763,747;    0,000;    1,864
1117,836;  571,020;   -2,182;   -1,227
1118,374;  578,384;    0,182;   -0,682
1118,912;  516,384;    0,909;    2,682
1119,450;  506,202;    1,000;    0,864
1119,988;  566,293;    1,545;    2,136
1120,525; 1028,293;    5,091;    3,318
1121,063;  729,747;    1,182;    1,864
1121,601;  527,475;   -0,909;   -1,227
1122,139;  479,020;   -0,727;   -2,045
1122,676;  687,747;   -0,727;    2,773
1123,214;  620,838;   -1,182;    4,409
1123,751;  416,566;    1,727;    2,227
1124,289;  553,838;   -0,091;   -0,409
1124,826;  414,293;    1,727;    0,227
1125,364;  348,657;    1,727;   -0,955
1125,901;  538,020;    1,182;    1,227
1126,438;  648,838;    0,818;    0,955
1126,975;  373,657;   -0,727;   -0,773
1127,513;  451,929;    0,273;    2,136
1128,050;  351,838;    1,636;   -0,682
1128,587;  452,111;    2,000;   -0,227
1129,124;  491,838;    0,091;    1,318
1129,661;  356,838;    0,273;    0,227
1130,198;  533,838;    1,636;    0,773
1130,734;  469,020;    0,182;    1,409
1131,271;  323,202;   -0,909;    0,864
1131,808;  508,657;    2,909;    3,045
1132,345;  380,657;    1,545;    0,318
1132,881;  241,293;   -1,545;   -1,864
1133,418;  385,111;    0,727;   -1,136
1133,954;  327,020;    2,455;   -2,682
1134,491;  394,111;    1,364;   -0,773
1135,027;  299,111;    2,364;    0,864
1135,564;  396,293;    0,273;    2,955
1136,100;  369,384;    0,364;    2,136
1136,636;  260,475;   -1,273;   -1,045
1137,172;  360,111;    0,000;   -1,045
1137,708;  275,566;   -1,364;   -1,045
1138,245;  280,475;    1,273;   -1,227
1138,781;  231,293;    1,091;   -3,318
1139,317;  307,929;    1,273;   -1,409
1139,852;  285,838;    3,091;    0,136
1140,388;  407,566;   -1,182;   -0,409
1140,924;  289,747;   -1,091;   -2,227
1141,460;  229,111;   -1,636;    0,136
1141,996;  167,111;   -1,364;    2,682
1142,531;  210,202;    1,364;    3,318
1143,067;  423,293;    1,182;    1,045
1143,602;  487,566;   -0,091;   -0,318
1144,138;  326,475;   -2,636;    1,045
1144,673;  193,111;   -1,455;    1,409
1145,209;  260,838;   -1,909;   -0,318
1145,744;  184,566;   -0,727;    0,864
1146,279;  318,020;    1,818;   -0,136
1146,815;  231,657;    1,545;   -2,682
1147,350;  274,202;   -1,364;    0,045
1147,885;  183,475;   -0,818;   -1,318
1148,420;  184,566;   -2,273;    0,773
1148,955;  164,747;   -1,727;    1,864
1149,490;  186,929;   -0,909;   -1,591
1150,025;  173,838;    0,455;   -1,773
1150,560;  294,475;    1,091;   -0,955
1151,094;  256,293;    1,455;   -0,591
1151,629;  257,566;    1,636;    0,864
1152,164;  186,202;    1,364;    1,318
1152,698;  136,111;   -0,182;   -0,136
1153,233;   97,384;    0,091;   -0,682
1153,767;  145,202;   -3,000;   -2,318
1154,302;  197,111;   -1,455;    1,773
1154,836;  196,202;   -0,455;   -2,136
1155,371;  254,384;   -1,364;    3,682
1155,905;  205,202;   -0,636;    1,682
1156,439;  167,747;   -0,636;   -0,500
1156,973;  196,747;    0,364;    0,318
1157,507;  138,202;   -0,364;    0,682
1158,042;  175,747;   -0,727;    1,045
1158,576;  221,293;    0,182;    1,773
1159,110;  210,475;   -0,818;    2,409
1159,643;  174,747;    0,636;   -0,045
1160,177;  108,566;   -1,545;    1,500

