
Integration time [ms]:   0,040
Averaging Nr. [scans]: 11
Smoothing Nr. [pixels]: 0
Data measured with spectrometer [name]: 7318044SP
Wave   ;Sample   ;Dark     ;Reference
[nm]   ;[counts] ;[counts] ;[counts] 

186,757;   27,429;   31,551;    1,318
187,357;   63,886;   22,551;    0,955
187,958;   40,781;   15,460;   -1,591
188,558;   83,057;    8,915;   -1,227
189,159;   50,899;    6,733;   -4,500
189,759;   16,317;    7,278;   -3,591
190,360;   10,275;    2,824;   -2,136
190,960;   56,074;    2,915;   -4,136
191,560;   74,668;    3,189;   -6,591
192,161;  328,333;    4,372;   -3,500
192,761;  155,748;    4,010;   -3,227
193,361;  110,513;    1,556;   -3,773
193,962;  167,764;    2,010;   -2,682
194,562;   88,303;    1,189;   -3,955
195,162;  119,962;   -2,448;   -2,227
195,762;  298,439;   -3,176;   -0,045
196,362;  233,947;    1,370;   -2,500
196,963;   94,419;    2,006;   -0,864
197,563;  175,879;    1,551;   -0,955
198,163;  115,886;    0,096;   -0,682
198,763;  132,660;    1,733;   -0,500
199,363;  251,278;    3,096;   -0,500
199,963;  209,966;    0,369;    0,409
200,563;  181,965;    2,823;   -1,409
201,163;  157,796;    3,277;   -0,227
201,763;  257,864;    3,732;    0,318
202,363;  187,782;    1,459;    1,500
202,963;  305,372;    1,459;    1,045
203,563;  419,627;    0,277;    0,500
204,162;  257,645;    2,096;   -1,864
204,762;  247,110;    0,550;    0,591
205,362;  219,729;    3,004;    1,955
205,962;  321,882;    3,096;    1,955
206,562;  317,630;    1,823;    2,318
207,161;  282,036;   -0,087;    0,318
207,761;  444,753;    1,277;    2,409
208,361;  321,108;   -0,268;    1,409
208,960;  434,398;    0,459;    1,500
209,560;  510,396;    1,277;    1,591
210,160;  474,061;    0,550;    1,864
210,759;  441,502;    4,186;    1,227
211,359;  449,917;    1,459;    1,045
211,958;  719,074;    1,277;    2,045
212,558;  804,047;    1,732;    1,864
213,157;  636,105;    1,822;    1,500
213,757; 1107,399;    3,822;   -0,227
214,356;  799,450;    1,277;   -0,409
214,956; 1131,925;    3,095;    0,409
215,555;  743,967;    2,095;    2,136
216,154;  687,998;   -2,723;   -0,591
216,754;  704,899;    0,277;    0,773
217,353;  829,864;   -0,268;   -1,045
217,952;  692,392;   -0,178;    0,318
218,552;  939,215;    1,368;   -0,773
219,151;  825,664;    0,277;    0,955
219,750;  833,267;    0,004;   -0,227
220,349;  970,387;   -0,451;    1,045
220,948; 1025,995;   -1,360;    1,136
221,548; 1060,097;    0,913;    1,227
222,147; 1166,834;   -0,087;   -0,409
222,746; 1463,982;   -0,451;   -0,955
223,345; 1355,368;    0,731;    0,500
223,944; 1368,069;   -0,451;    0,773
224,543; 1544,375;    1,004;   -1,409
225,142; 1650,880;    0,094;    0,136
225,741; 1556,796;   -0,814;    1,045
226,340; 1598,305;   -0,451;   -0,955
226,939; 2060,280;   -0,996;   -0,136
227,538; 2033,542;   -0,360;   -0,773
228,137; 2186,848;   -0,814;    0,864
228,735; 2365,298;   -0,541;    1,227
229,334; 2107,471;   -0,905;   -0,227
229,933; 2481,180;    0,459;    0,591
230,532; 2589,490;    1,186;   -0,409
231,131; 2636,032;    1,732;    0,318
231,729; 2817,703;   -2,450;   -2,318
232,328; 2935,840;   -0,723;   -1,500
232,927; 3040,155;    1,004;   -0,500
233,525; 3181,647;    3,640;    0,045
234,124; 3400,095;    2,368;   -1,591
234,723; 3425,858;    0,913;   -1,045
235,321; 3589,988;    2,277;    0,136
235,920; 3862,617;    1,186;   -1,227
236,518; 4121,020;    3,459;    0,318
237,117; 4308,161;    0,004;   -0,227
237,715; 4454,535;    0,640;   -0,500
238,314; 4502,504;   -0,087;   -2,318
238,912; 4614,172;   -0,723;   -1,409
239,510; 4676,245;    0,459;   -1,227
240,109; 4862,696;    0,004;    3,773
240,707; 4904,051;   -0,996;    1,227
241,305; 5270,205;    0,550;    0,136
241,904; 5515,295;   -0,178;   -2,045
242,502; 5480,491;   -0,632;   -0,227
243,100; 5409,071;   -0,087;   -0,955
243,698; 5681,536;    0,732;    1,682
244,297; 5871,567;   -0,632;    0,682
244,895; 5674,707;   -0,269;   -2,318
245,493; 6027,083;    2,186;   -0,591
246,091; 6070,761;    1,368;   -1,318
246,689; 6084,575;    1,004;    0,591
247,287; 6226,357;    0,822;   -1,136
247,885; 6480,900;   -1,451;    1,227
248,483; 6625,502;    1,822;   -0,500
249,081; 6778,590;    0,185;    1,591
249,679; 6941,422;   -0,178;    1,682
250,277; 7191,778;   -1,723;    0,864
250,875; 7186,349;   -1,087;   -1,045
251,473; 7198,015;   -1,178;    0,500
252,071; 7392,229;    1,459;    1,045
252,669; 7555,524;   -1,814;    0,318
253,267; 7834,494;   -0,087;    0,773
253,864; 7817,538;   -0,360;    0,682
254,462; 7624,069;    1,640;    1,591
255,060; 7592,047;   -0,269;    1,318
255,658; 7957,524;    0,822;   -0,136
256,255; 8398,988;    0,186;   -2,045
256,853; 8228,537;   -0,269;    1,409
257,451; 8246,165;    0,822;    1,864
258,048; 8493,325;    1,822;    1,864
258,646; 8253,064;    1,731;   -1,045
259,243; 8446,628;   -0,087;    2,227
259,841; 8523,315;   -0,814;    0,318
260,438; 8392,419;   -0,087;    0,864
261,036; 9139,967;   -1,905;    1,409
261,633; 9029,442;   -0,087;    2,227
262,231; 8779,542;    2,731;   -0,045
262,828; 8873,481;   -0,905;    1,136
263,425; 8921,043;    0,913;   -0,591
264,023; 9199,047;    0,186;    0,045
264,620; 8755,055;   -0,360;   -0,318
265,217; 9129,074;   -2,087;    3,136
265,815; 9214,763;   -1,905;    2,136
266,412; 8989,992;    0,731;    0,136
267,009; 9032,706;   -1,451;    0,773
267,606; 8909,337;    0,822;   -0,955
268,203; 8870,016;   -0,269;   -0,591
268,801; 9189,006;    1,731;    0,591
269,398; 9459,400;   -0,360;    2,500
269,995; 9487,390;    0,277;    1,591
270,592; 9265,958;   -0,632;   -0,500
271,189; 9440,159;    0,186;    0,409
271,786; 9556,443;   -0,632;    1,227
272,383; 9382,976;   -1,087;    0,227
272,980; 9588,411;    0,277;    0,318
273,577;10096,631;    0,004;    1,227
274,174; 9662,590;    0,822;    2,591
274,771; 9623,069;   -0,814;   -0,773
275,367; 9760,081;    2,277;    1,409
275,964; 9742,835;    0,731;   -0,500
276,561; 9850,446;    1,549;   -1,045
277,158;10072,331;    0,095;   -1,773
277,755;10191,772;    2,185;    0,409
278,351; 9579,242;   -0,451;   -1,500
278,948; 9871,099;   -0,815;    0,045
279,545; 9897,350;   -1,360;    2,318
280,141;10528,602;   -1,723;   -2,045
280,738;10421,060;   -0,451;   -0,136
281,334;10650,037;   -1,633;    0,591
281,931;10009,970;   -0,087;   -1,318
282,528;10098,071;    0,822;   -0,500
283,124;10848,342;   -1,087;   -0,500
283,721;10742,680;   -0,451;    1,409
284,317;10584,675;    0,185;    2,500
284,913;11134,384;   -1,360;    0,591
285,510;11312,475;    0,640;   -0,318
286,106;11337,022;   -2,269;   -0,955
286,703;10952,418;   -0,360;    1,955
287,299;11127,406;   -1,451;   -0,591
287,895;11379,633;    0,822;   -1,045
288,491;11933,127;    0,186;    2,136
289,088;11631,500;   -2,360;    2,409
289,684;11724,978;   -1,723;    1,500
290,280;11722,316;    0,368;    0,682
290,876;11843,565;    1,822;    5,500
291,472;11727,272;    1,276;    2,227
292,068;11810,485;    1,367;    0,227
292,665;11499,315;    2,095;    0,773
293,261;11123,986;    0,276;    2,136
293,857;11540,034;    2,913;    2,136
294,453;11483,267;    3,550;    0,955
295,049;11344,630;   -0,268;    1,955
295,644;11354,814;    0,095;    0,136
296,240;11260,979;   -0,905;   -0,136
296,836;11318,790;   -0,995;    0,318
297,432;11621,014;    1,096;   -0,500
298,028;11635,532;    0,732;    0,773
298,624;12023,440;    1,459;    1,864
299,220;12284,913;    2,368;    0,591
299,815;11966,576;    1,005;   -0,409
300,411;11718,721;    0,914;    1,773
301,007;11735,428;    1,368;    0,227
301,602;11821,040;   -0,541;   -2,318
302,198;11996,838;    0,732;   -0,773
302,794;12322,686;    1,187;   -0,500
303,389;12397,063;   -1,177;    1,045
303,985;12489,136;    0,550;    1,409
304,580;12498,772;    1,459;    1,591
305,176;12448,871;   -3,086;    0,136
305,771;12350,216;   -1,268;   -1,227
306,367;12218,670;    4,095;    0,136
306,962;12545,949;    0,641;    1,500
307,558;12245,431;   -0,450;    0,136
308,153;12187,421;    1,095;   -1,136
308,748;12447,817;   -0,814;    1,682
309,344;12406,610;   -0,632;   -1,318
309,939;12482,511;   -1,905;   -1,318
310,534;12775,379;   -0,086;   -1,682
311,130;12718,885;    0,459;   -2,500
311,725;12443,466;    1,004;   -0,500
312,320;12761,653;    2,459;    0,045
312,915;12563,656;    1,459;   -1,045
313,510;12671,048;    1,550;   -0,500
314,105;13195,718;    1,096;    1,409
314,700;12612,481;   -3,086;   -1,045
315,295;12221,591;   -0,904;    0,045
315,890;11774,940;    1,277;    0,864
316,485;12152,748;   -0,359;   -0,318
317,080;12240,321;   -3,086;    1,591
317,675;12831,112;    2,005;   -0,682
318,270;12222,042;    5,550;    3,318
318,865;12214,764;    3,278;    3,045
319,460;12055,826;   -0,904;    0,591
320,055;12312,238;   -0,541;   -1,227
320,650;11961,820;   -1,995;   -0,591
321,244;12009,533;   -0,177;   -1,409
321,839;13006,767;   -1,541;   -0,227
322,434;12850,108;   -1,086;   -1,591
323,029;12467,914;    1,732;    1,591
323,623;12283,817;    1,550;    0,773
324,218;12054,428;    2,368;    1,409
324,812;11933,054;    1,096;    1,591
325,407;11728,917;   -0,814;    2,045
326,002;11658,803;    0,277;   -0,409
326,596;11937,377;    0,914;    1,318
327,191;12151,508;    0,823;   -1,045
327,785;11716,286;   -0,813;   -0,227
328,379;11939,540;    1,368;    0,136
328,974;11749,844;    0,914;   -3,955
329,568;11962,272;    0,186;   -2,409
330,163;11778,955;    2,096;    1,045
330,757;12146,638;    2,459;    1,591
331,351;11452,985;    0,459;    0,682
331,945;11761,500;    0,914;    1,409
332,540;11368,989;   -1,723;   -0,591
333,134;11524,252;   -1,086;    0,773
333,728;11769,048;    0,005;    0,318
334,322;12114,563;   -1,177;   -0,864
334,916;11363,360;    0,277;    0,955
335,510;11699,826;   -0,450;   -0,136
336,105;11984,235;   -1,086;    1,591
336,699;11657,911;   -1,086;    0,591
337,293;11592,592;   -1,723;    0,318
337,887;11765,412;   -2,723;    1,955
338,481;11873,653;    0,459;    0,591
339,074;12017,537;   -0,359;    2,682
339,668;11812,574;   -1,632;    1,227
340,262;12076,833;    1,732;    3,227
340,856;11553,828;    1,822;   -0,682
341,450;10919,927;    1,004;    1,864
342,044;11841,228;    1,459;    0,136
342,637;11594,878;    0,913;   -2,136
343,231;11458,592;   -2,360;    0,682
343,825;11428,816;   -1,086;   -0,591
344,419;11373,436;   -1,995;    0,500
345,012;11190,064;    2,459;    4,045
345,606;11175,005;    4,641;    1,591
346,199;11020,706;   -1,813;   -0,227
346,793;10552,015;    1,914;    2,045
347,386;10730,927;   -0,813;   -1,136
347,980;10727,630;   -0,268;   -0,045
348,573;10516,163;    2,278;    0,409
349,167;10212,142;    5,278;    4,773
349,760;10540,819;    2,914;    2,682
350,354;10505,822;   -0,813;    1,136
350,947;10240,130;    1,096;    1,682
351,540; 9923,880;   -0,358;   -1,409
352,134; 9865,032;    1,096;    1,136
352,727; 9907,880;   -0,086;    1,136
353,320; 9675,086;    0,005;    0,591
353,913; 9557,600;   -1,995;    1,864
354,507; 9754,076;    0,823;   -1,227
355,100; 9750,050;    0,460;    0,864
355,693; 8987,793;    2,005;    2,409
356,286; 9036,573;    0,823;    2,773
356,879; 9411,373;   -0,722;    1,227
357,472; 8993,418;   -0,904;    1,500
358,065; 9195,860;   -0,722;    2,500
358,658; 9120,914;   -0,540;    2,318
359,251; 8770,287;   -1,631;   -0,591
359,844; 8245,392;   -1,904;   -1,136
360,437; 8418,481;   -2,995;    0,045
361,030; 8677,437;    1,369;   -0,682
361,623; 8266,711;    2,824;    0,318
362,215; 8332,424;   -0,086;    2,045
362,808; 8154,542;   -2,358;   -1,682
363,401; 8374,917;   -2,449;    0,136
363,994; 8090,481;   -0,631;   -1,500
364,586; 8018,747;    0,824;   -1,500
365,179; 8207,607;   -0,449;   -1,136
365,772; 7694,243;   -1,995;    2,045
366,364; 8014,229;    1,915;   -3,227
366,957; 8204,842;    2,279;   -0,045
367,549; 8247,547;    2,188;   -0,864
368,142; 7898,981;    1,825;   -1,500
368,734; 8101,516;    0,734;   -2,136
369,327; 8049,977;    1,643;   -0,500
369,919; 7961,888;   -1,538;    0,409
370,512; 7719,069;   -1,083;   -0,500
371,104; 7502,562;   -0,901;    1,591
371,696; 7670,593;    1,191;   -0,955
372,289; 7775,734;    0,373;    1,136
372,881; 7944,288;   -2,080;    1,318
373,473; 7845,236;   -2,170;    1,136
374,066; 7633,276;   -0,169;    0,500
374,658; 7481,984;    0,378;    1,136
375,250; 7824,105;    0,653;   -1,409
375,842; 7677,187;    0,473;   -0,045
376,434; 7576,106;   -0,435;   -0,409
377,026; 8143,099;    0,204;   -2,500
377,618; 8044,718;   -0,158;   -0,682
378,210; 7877,376;   -0,338;   -1,955
378,802; 7714,998;    0,754;   -0,591
379,394; 7669,898;    1,846;    0,682
379,986; 8293,883;    1,393;   -0,955
380,578; 8376,908;   -0,153;    0,773
381,170; 7714,919;   -0,972;    0,045
381,762; 7701,041;    0,755;    1,409
382,354; 7867,672;   -0,065;   -1,318
382,945; 7986,986;   -2,976;    0,318
383,537; 8160,175;   -2,705;   -1,955
384,129; 8168,899;   -2,160;   -1,136
384,721; 8337,577;   -0,252;    0,955
385,312; 8285,055;   -0,161;   -0,955
385,904; 8379,071;   -2,706;    1,591
386,496; 7743,101;   -0,979;    1,045
387,087; 7897,465;    1,022;    2,500
387,679; 7957,426;   -1,160;    0,045
388,270; 8055,687;    2,840;    2,045
388,862; 8179,972;    1,295;   -0,318
389,453; 8064,018;   -0,887;    1,045
390,045; 8339,350;   -0,705;   -2,682
390,636; 8246,289;    0,204;   -0,591
391,227; 8107,441;   -0,523;   -0,045
391,819; 8231,607;    0,204;    0,773
392,410; 8299,410;    1,022;    0,045
393,001; 8224,123;   -0,979;   -1,591
393,593; 8538,222;    1,930;   -0,045
394,184; 8414,314;    1,385;   -0,409
394,775; 8328,441;    1,839;    2,136
395,366; 8503,430;    1,385;    0,773
395,957; 8500,996;    0,113;    0,136
396,548; 8793,931;   -0,342;    2,682
397,139; 9118,843;   -2,433;    0,591
397,730; 8883,389;   -1,888;    0,955
398,321; 8911,678;   -1,252;    0,955
398,912; 8951,928;   -0,615;    0,136
399,503; 9012,860;   -3,524;   -1,409
400,094; 8442,054;    0,294;    1,682
400,685; 8288,420;   -0,433;    0,045
401,276; 8381,293;    0,930;   -0,955
401,867; 8717,287;   -0,888;    0,773
402,458; 8826,161;   -2,251;   -2,318
403,048; 8812,955;    1,112;    0,591
403,639; 8399,725;    0,840;    0,864
404,230; 8656,268;    2,476;    0,318
404,821; 8567,951;   -0,615;    0,045
405,411; 8695,517;    1,203;   -2,591
406,002; 8296,814;   -1,252;   -1,136
406,592; 8128,834;    2,294;    0,045
407,183; 8437,286;    0,566;   -1,500
407,774; 8360,287;    3,475;   -0,136
408,364; 8705,943;    0,930;    0,409
408,954; 8299,596;    0,384;    1,227
409,545; 8357,128;    1,021;    1,045
410,135; 7908,981;    1,293;    0,500
410,726; 8052,600;    1,838;    0,318
411,316; 8439,316;    0,111;    0,773
411,906; 8086,537;   -0,253;   -0,409
412,497; 7597,585;   -1,070;   -0,045
413,087; 8208,749;   -1,980;   -0,227
413,677; 8610,450;   -0,707;    3,864
414,267; 8437,582;    0,656;    1,409
414,857; 8440,154;   -2,980;    4,227
415,448; 8736,621;    0,839;    0,500
416,038; 8420,857;    0,020;   -0,591
416,628; 8379,800;   -0,889;    0,409
417,218; 7845,285;    0,565;    3,318
417,808; 8112,221;    0,202;   -0,409
418,398; 8577,439;    0,020;    2,682
418,988; 8607,975;    2,020;    0,591
419,578; 8875,718;   -0,707;    1,409
420,168; 9220,364;   -1,343;   -0,955
420,757; 8788,744;   -1,343;   -1,500
421,347; 8434,074;    0,111;   -0,227
421,937; 8665,638;    2,292;    1,409
422,527; 8588,423;    0,838;   -0,773
423,116; 8420,921;   -0,253;   -0,045
423,706; 8736,766;   -1,889;    0,318
424,296; 8736,120;    1,384;    0,682
424,885; 9144,575;   -0,071;   -3,045
425,475; 9459,551;    1,474;   -2,864
426,065; 9370,301;   -0,980;   -0,318
426,654; 8985,730;   -0,435;   -0,318
427,244; 9082,692;    0,020;    1,409
427,833; 8537,206;    1,383;   -0,500
428,423; 9042,376;   -0,526;    1,136
429,012; 9813,042;   -0,344;   -1,136
429,601; 9302,955;   -1,344;    0,136
430,191; 9551,870;    1,292;    4,318
430,780; 9167,899;   -0,344;   -0,409
431,369; 9078,868;    0,746;   -0,045
431,959; 9737,832;   -1,254;    0,500
432,548; 9497,695;   -1,163;   -0,045
433,137; 9623,385;   -1,254;   -1,318
433,726;10169,799;    0,292;    0,500
434,315; 9500,535;   -0,526;    2,409
434,905; 9606,291;   -1,254;    1,409
435,494; 9485,052;    0,746;    0,955
436,083;10008,426;   -0,981;   -0,955
436,672; 9892,025;    0,110;    0,500
437,261; 9435,637;    0,292;   -1,955
437,850; 9549,197;    1,383;    0,682
438,439; 9538,058;    3,291;    1,955
439,027; 9394,912;    3,655;    1,773
439,616; 9742,397;    2,927;    1,227
440,205; 9595,098;    0,200;   -2,136
440,794; 9684,965;    2,109;   -0,045
441,383; 9954,408;   -1,346;   -0,591
441,971; 9782,936;   -2,436;    0,591
442,560; 9644,893;    0,563;   -1,773
443,149; 9397,367;    0,379;   -1,318
443,737; 9564,356;   -0,074;   -2,318
444,326; 9857,725;    0,018;    0,318
444,915; 9895,371;   -1,982;    0,864
445,503;10296,594;   -2,891;   -0,318
446,092; 9527,994;    0,382;    2,136
446,680;10081,606;    0,382;    0,318
447,269;10269,978;   -0,346;   -0,318
447,857;10039,795;    0,018;   -1,773
448,445;10133,221;    0,563;    1,318
449,034;10354,136;   -1,528;   -1,136
449,622;10504,867;   -1,073;    3,500
450,210; 9705,605;    2,017;    2,227
450,799;10272,364;    0,290;   -0,591
451,387;10235,249;    1,381;   -0,591
451,975; 9834,473;    2,654;    0,864
452,563; 9952,906;    3,472;    2,318
453,151; 9999,036;   -0,528;   -1,227
453,739; 9930,914;   -1,347;    0,136
454,328; 9752,006;    2,381;   -2,136
454,916; 9484,564;    2,562;   -0,136
455,504; 9679,983;    1,017;    1,227
456,092; 9843,593;    0,017;   -1,591
456,679; 9845,121;    1,472;    0,682
457,267; 9750,301;    4,017;    1,045
457,855; 9932,959;    1,017;    1,409
458,443; 9703,157;   -0,165;    1,682
459,031; 9801,817;    0,108;    2,409
459,619;10270,000;   -1,801;    2,864
460,206;10408,163;    0,835;    2,045
460,794;10506,803;   -2,983;   -0,227
461,382;10751,787;   -0,529;   -0,864
461,970;10318,905;    1,198;    1,864
462,557;10348,201;   -0,711;   -0,682
463,145;10543,665;   -3,165;   -1,682
463,732;10683,809;    2,016;   -1,045
464,320;10619,675;   -0,075;   -3,045
464,907;10296,330;    2,743;   -0,773
465,495;10178,058;    0,743;   -1,227
466,082;10322,966;   -1,984;   -0,045
466,670;10250,529;   -2,529;    1,227
467,257;10688,847;   -1,711;    2,045
467,844;10818,010;   -0,075;    0,045
468,432;10835,059;    0,834;    3,500
469,019;10348,789;    0,925;   -1,773
469,606;10824,777;    0,470;    3,682
470,193;10632,633;   -1,439;    0,227
470,780;10172,290;   -2,075;    0,864
471,368;10529,311;   -1,257;   -0,773
471,955;10314,544;    1,379;   -0,682
472,542; 9960,237;    0,652;   -1,136
473,129;10202,448;   -0,166;    0,136
473,716; 9923,294;    1,470;    0,591
474,303;10134,939;    0,652;   -0,864
474,890;10430,636;   -1,439;   -0,500
475,477;10452,116;   -1,621;    0,409
476,064;10359,791;    1,106;   -1,591
476,650;10297,493;    0,288;    0,318
477,237;10115,403;   -0,258;    0,955
477,824;10309,643;   -1,076;    0,864
478,411;10337,171;   -1,894;   -0,318
478,997;10539,273;    0,560;   -0,773
479,584;10571,557;    1,196;   -0,409
480,171;11278,595;   -0,440;   -0,773
480,757;10939,565;    2,651;    0,773
481,344;11247,208;    0,469;    0,409
481,931;10758,357;    1,105;    1,045
482,517;11765,568;   -1,258;    0,318
483,104;12375,889;    1,106;    2,864
483,690;12680,539;   -1,804;    0,045
484,276;13041,124;   -0,895;    0,227
484,863;12757,975;    2,469;    1,136
485,449;13389,568;   -0,077;    0,318
486,035;13382,708;   -1,986;   -0,136
486,622;13848,069;   -0,895;    0,045
487,208;13792,191;    1,378;    1,500
487,794;13612,944;    0,741;    0,318
488,380;13702,161;    0,105;   -1,409
488,967;13772,609;   -1,168;   -0,409
489,553;13852,569;   -1,895;   -1,409
490,139;14054,637;    1,559;    0,773
490,725;13430,205;    0,741;   -0,227
491,311;12976,060;    3,287;    3,045
491,897;12342,164;   -0,986;    1,500
492,483;12126,504;    0,105;    1,227
493,069;11868,877;    3,923;    0,864
493,655;11863,721;    1,650;    0,682
494,241;11789,667;    1,377;   -0,955
494,826;12242,837;    0,287;   -1,045
495,412;11685,414;    2,559;   -0,682
495,998;11847,824;   -0,805;   -0,318
496,584;11994,707;    0,377;    1,045
497,169;11983,088;    1,014;   -0,682
497,755;11921,217;    0,650;    1,227
498,341;12528,447;    0,559;    0,318
498,926;12102,305;    1,832;    1,955
499,512;12258,690;    1,286;    2,955
500,097;12402,447;    0,195;   -0,318
500,683;12372,302;   -0,350;    2,136
501,268;12734,980;   -0,169;   -0,955
501,854;12457,274;   -0,169;    1,227
502,439;12396,308;   -0,624;   -1,773
503,024;12608,460;    0,195;    0,500
503,610;12691,296;   -0,078;   -0,682
504,195;12705,832;    0,558;    1,955
504,780;12840,816;    2,922;    1,227
505,366;12673,880;    3,013;    2,864
505,951;12353,752;    0,740;    1,045
506,536;12402,757;   -3,260;   -3,682
507,121;12407,371;    0,285;   -0,318
507,706;12919,112;    2,376;    1,045
508,291;13302,938;    2,649;    1,136
508,876;12755,125;   -0,988;    2,591
509,461;12233,849;   -0,169;   -0,773
510,046;12646,954;    0,194;    0,318
510,631;12883,878;   -0,351;   -0,773
511,216;12569,545;    2,467;   -0,500
511,801;12922,193;   -0,442;    2,591
512,386;13244,973;    0,740;    0,500
512,971;13189,007;   -2,988;    0,955
513,555;12798,709;   -0,897;   -1,500
514,140;13541,590;   -0,442;   -3,136
514,725;13548,065;   -0,715;   -1,136
515,309;13647,402;   -0,533;    0,318
515,894;13148,911;   -0,624;   -2,227
516,479;13586,046;   -0,624;   -0,955
517,063;13422,552;    0,376;    1,227
517,648;13569,661;    1,012;   -1,136
518,232;13207,639;   -0,261;   -1,409
518,817;13555,979;   -0,079;    1,682
519,401;13761,193;    2,194;    0,591
519,985;13289,794;    1,103;    1,136
520,570;13156,997;    0,830;   -1,955
521,154;13461,210;    2,102;    0,591
521,738;13646,244;   -2,352;    2,409
522,323;14224,365;   -0,170;    1,682
522,907;13947,472;    0,466;   -0,136
523,491;13690,667;    0,557;    0,955
524,075;13647,553;    2,284;    0,591
524,659;13743,054;    1,466;    0,591
525,243;13209,013;    1,739;    0,409
525,827;13461,253;    0,648;   -0,045
526,411;14305,963;   -1,989;   -0,136
526,995;14549,522;   -0,352;    1,409
527,579;14131,778;   -0,443;   -1,045
528,163;14419,245;    0,375;   -1,500
528,747;14303,314;    2,466;   -0,773
529,331;14635,687;   -0,080;   -1,409
529,915;14837,559;    1,738;    0,955
530,499;14783,890;   -0,807;    1,227
531,082;14519,315;   -0,534;    1,591
531,666;13961,848;    1,374;    0,773
532,250;14616,745;    1,284;    2,682
532,833;14974,703;    0,920;    2,773
533,417;14808,652;   -1,807;    0,864
534,001;14838,496;    1,647;   -0,318
534,584;15536,531;    0,374;    0,500
535,168;15342,704;    0,465;    1,409
535,751;15403,066;    0,647;    0,045
536,334;14846,742;   -0,898;   -0,409
536,918;15431,852;    0,011;    1,591
537,501;15568,641;   -0,899;    1,318
538,085;15569,673;   -0,444;    1,045
538,668;15742,923;    0,829;    2,409
539,251;16042,536;    1,829;    3,773
539,834;16049,246;    0,101;    0,773
540,418;15995,584;   -1,990;    4,318
541,001;16129,335;   -0,990;    1,773
541,584;16115,513;    2,101;    2,227
542,167;15825,998;    1,374;    2,955
542,750;15991,706;    1,919;   -0,773
543,333;15575,822;    0,555;    2,136
543,916;16369,482;    0,192;    2,500
544,499;16989,586;   -1,354;    0,227
545,082;16975,477;    1,374;    3,591
545,665;17109,837;    1,919;    1,500
546,248;17504,094;    1,010;   -0,318
546,830;17109,404;   -0,445;    1,955
547,413;17531,566;    1,010;   -0,773
547,996;18064,592;    0,555;    0,500
548,579;17845,545;    0,919;    0,955
549,161;17651,073;    1,828;    2,682
549,744;17424,208;   -0,809;    0,409
550,326;17996,489;   -0,809;   -1,136
550,909;17732,247;    2,737;    0,591
551,492;18146,281;   -0,263;    0,227
552,074;17919,860;   -0,173;   -1,318
552,657;18453,742;    2,373;    0,045
553,239;18242,128;   -0,173;   -0,773
553,821;18159,311;   -1,082;    1,045
554,404;17628,797;    1,282;    1,136
554,986;18013,214;    0,464;    1,045
555,568;18621,782;    1,191;   -0,955
556,151;17835,486;    1,191;   -0,227
556,733;17991,374;   -0,264;   -0,864
557,315;18473,880;    0,100;    0,500
557,897;18329,831;    0,554;   -0,500
558,479;18466,053;   -1,991;    1,318
559,061;18566,278;   -0,719;   -0,864
559,643;18899,366;   -0,264;    0,045
560,225;19303,491;    1,645;    2,864
560,807;19266,093;    0,918;    0,318
561,389;18748,633;    0,554;    2,318
561,971;19551,985;    0,463;    2,136
562,553;19366,042;   -1,628;    1,591
563,135;19531,787;   -0,537;    1,136
563,717;19145,751;    3,372;    1,136
564,298;19797,282;    3,645;   -0,045
564,880;19556,352;    0,645;   -1,409
565,462;19726,079;    0,645;    1,318
566,043;20884,054;   -0,446;    2,318
566,625;20376,413;    1,918;    1,227
567,207;20214,221;    1,099;    1,682
567,788;21379,243;   -1,264;    1,500
568,370;22200,323;    1,917;   -0,500
568,951;22080,879;    0,190;    0,227
569,533;22923,477;   -0,628;   -0,500
570,114;23402,308;   -0,446;    0,682
570,695;23899,755;   -0,174;   -1,318
571,277;24403,809;   -0,265;   -1,682
571,858;25233,250;    2,008;   -1,136
572,439;26130,069;    1,554;   -1,045
573,021;26256,429;    2,099;   -2,773
573,602;26758,735;   -1,265;    0,318
574,183;27673,670;   -2,083;    2,227
574,764;27778,988;   -1,629;    0,409
575,345;28364,674;    0,917;   -0,136
575,926;29016,744;   -0,356;    0,136
576,507;28951,276;    1,099;   -0,227
577,088;30084,880;    3,099;    1,682
577,669;30100,388;    0,735;    1,955
578,250;30860,215;    0,644;   -1,045
578,831;31480,426;   -1,356;   -2,227
579,412;31780,365;   -0,810;    0,955
579,993;32720,528;    1,008;    0,227
580,573;33073,565;   -0,629;   -0,955
581,154;32010,333;    0,735;   -0,591
581,735;32810,533;    0,644;    0,773
582,315;32368,806;   -0,629;    2,136
582,896;32691,897;   -0,174;    1,227
583,477;32080,732;    0,189;    1,227
584,057;32275,587;    0,553;    0,955
584,638;32549,619;    2,553;    2,318
585,218;32559,124;   -0,538;    2,682
585,799;32715,847;    0,281;   -0,227
586,379;32733,607;    0,372;    1,591
586,959;31412,824;    0,735;    0,318
587,540;30766,045;   -0,629;    2,227
588,120;30345,838;    1,007;   -0,045
588,700;29335,858;    2,553;    2,136
589,281;29685,137;    0,462;   -0,955
589,861;29595,469;    0,099;   -1,682
590,441;29427,146;    2,371;   -2,682
591,021;28426,433;   -0,265;   -2,591
591,601;28609,335;   -0,537;    0,500
592,181;28597,804;   -0,719;   -0,773
592,761;27892,526;    0,007;    1,409
593,341;27807,152;   -0,901;    0,045
593,921;27772,939;   -0,265;    1,591
594,501;27704,765;   -0,538;    1,318
595,081;27497,144;    0,917;   -0,318
595,661;27884,979;   -1,447;    0,955
596,240;28415,640;   -0,537;    0,136
596,820;28043,950;    0,372;    1,955
597,400;28248,816;    2,008;    0,773
597,980;28444,181;    2,008;    1,045
598,559;28473,348;    2,735;   -0,227
599,139;28188,284;   -0,174;   -1,227
599,718;28072,557;   -0,174;   -0,409
600,298;28325,107;    0,735;    0,682
600,877;28579,013;    2,917;    1,409
601,457;28829,051;    2,281;    1,136
602,036;28764,512;    0,190;    2,045
602,616;28974,722;    0,644;    1,682
603,195;29306,591;   -0,355;    3,500
603,774;28819,132;   -0,901;    2,045
604,354;28739,109;    0,826;   -0,500
604,933;28227,594;    0,463;    1,864
605,512;28320,363;    3,554;    0,591
606,091;28402,347;   -0,537;    3,773
606,671;29251,750;    0,281;    0,773
607,250;28355,850;    1,644;    3,136
607,829;28560,566;    2,372;    3,227
608,408;28386,851;    1,190;    2,591
608,987;27408,440;    1,281;    3,409
609,566;27746,802;   -1,265;   -2,500
610,145;27840,153;   -1,082;    0,682
610,723;28194,658;    4,372;    6,864
611,302;27450,582;   -0,446;    1,682
611,881;27000,526;    5,008;   11,227
612,460;27802,599;    1,645;    3,955
613,039;28234,450;   -0,082;    2,045
613,617;26992,979;    1,736;    4,773
614,196;27211,722;    1,099;    1,227
614,775;27575,864;    1,009;    2,409
615,353;27466,238;    0,736;    0,864
615,932;27221,401;    0,100;    2,409
616,510;27817,133;    0,554;    0,591
617,089;27345,019;    7,100;   17,591
617,667;27032,224;    2,372;    6,136
618,246;26887,566;   -1,537;    1,318
618,824;27050,097;   -3,355;   -0,955
619,402;26639,738;   -2,900;   -1,773
619,981;27147,771;   -0,173;   -1,045
620,559;26987,790;    0,009;    1,682
621,137;26439,058;   -0,718;    1,864
621,715;26541,562;   -1,173;   -0,682
622,293;26418,839;   -0,537;   -0,773
622,871;26850,153;   -0,718;    0,500
623,450;26439,868;    0,373;   -0,864
624,028;26310,999;    0,191;   -0,955
624,606;25964,254;   -1,718;    1,682
625,183;26353,978;   -1,536;   -1,136
625,761;26015,883;    1,009;    1,136
626,339;26310,154;    1,373;    2,591
626,917;26737,607;   -0,172;   -0,045
627,495;26764,743;   -0,354;    1,318
628,073;26204,435;   -0,263;    2,864
628,650;25855,692;    0,100;    2,136
629,228;26290,246;    0,373;    4,409
629,806;25693,065;    2,282;    1,136
630,383;25935,503;    1,464;   -0,318
630,961;25735,279;    2,555;   -0,955
631,539;25456,826;    2,464;    0,227
632,116;24800,733;   11,373;   15,409
632,694;25402,421;    2,555;    6,500
633,271;25715,491;    0,828;    2,682
633,848;25592,099;    1,828;    2,045
634,426;25646,960;   -1,081;    1,773
635,003;24794,404;    1,101;   -0,409
635,580;25105,931;    1,192;    3,682
636,158;25685,752;    3,737;    1,227
636,735;25622,978;    0,555;   -0,500
637,312;25821,999;   -0,809;   -0,682
637,889;25881,179;   -4,354;   -0,682
638,466;25361,268;   -3,990;   -0,409
639,043;25331,170;    2,101;   -1,136
639,620;25671,680;   -2,262;   -0,955
640,197;25996,627;    1,100;    1,682
640,774;26096,775;   -0,172;    1,136
641,351;26550,377;    0,737;    1,136
641,928;25956,433;   -0,627;    1,409
642,505;25629,671;    0,828;   -0,500
643,082;25720,455;   -1,718;    1,227
643,658;24760,693;   -0,718;    1,500
644,235;25531,840;    1,191;    2,500
644,812;25820,806;    1,918;    0,773
645,388;25528,499;   -0,991;    1,409
645,965;25654,828;   -0,809;    1,682
646,542;25701,793;   -1,445;   -0,227
647,118;25655,850;    1,009;   -0,955
647,695;25954,179;   -0,263;    1,136
648,271;25865,508;   -0,536;    0,500
648,848;26254,928;    0,736;    2,227
649,424;26076,893;    0,827;    1,318
650,000;25809,768;   -0,354;   -1,045
650,577;25600,006;   -0,627;   -0,955
651,153;26069,881;   -1,809;    0,955
651,729;27081,573;    1,191;    0,864
652,305;27378,357;    0,645;    2,773
652,881;32042,414;   -0,082;    1,136
653,458;39029,379;    1,100;    0,227
654,034;42733,526;    0,282;    1,591
654,610;44216,128;    0,554;    0,773
655,186;45495,094;    0,645;    3,045
655,762;45137,150;   -0,991;    0,409
656,338;45169,025;    0,100;    0,136
656,913;46123,354;   -0,082;    0,409
657,489;45329,228;    0,827;   -0,318
658,065;45268,648;   -0,173;   -1,591
658,641;45915,250;   -0,900;   -0,864
659,217;45175,943;   -0,991;    0,409
659,792;44625,727;    0,645;   -0,409
660,368;44835,692;   -2,173;   -0,682
660,944;44467,748;   -2,082;    1,227
661,519;39708,987;   -0,628;    0,409
662,095;33723,043;   -1,719;    0,591
662,670;29183,827;    1,281;   -0,136
663,246;28030,247;    1,009;   -0,409
663,821;27389,212;    0,281;    1,682
664,396;26853,632;    0,009;    1,864
664,972;27150,961;    0,009;   -0,500
665,547;27407,381;    1,372;    0,136
666,122;27482,347;   -1,082;    0,318
666,698;27782,221;   -0,173;    0,318
667,273;27132,187;   -0,173;    0,136
667,848;27958,516;    2,372;    1,500
668,423;27747,300;    2,190;    2,318
668,998;28318,265;    2,827;   -0,682
669,573;28827,594;   -3,264;   -1,500
670,148;28702,378;   -1,446;   -0,682
670,723;28480,162;   -1,810;    0,318
671,298;28865,854;    2,372;    1,045
671,873;28968,638;   -0,082;   -0,136
672,448;28937,876;    0,645;    0,136
673,023;29252,478;   -1,992;   -0,227
673,597;29626,716;    0,827;    2,318
674,172;29434,136;   -0,355;    0,318
674,747;28845,465;    0,372;   -1,045
675,321;28695,431;   -0,628;    3,318
675,896;28262,578;    0,645;    1,045
676,471;29297,907;    2,645;    1,591
677,045;29017,873;   -1,264;    0,682
677,620;29102,747;    0,190;    1,136
678,194;29433,622;   -2,628;    1,136
678,769;28979,315;   -1,083;   -0,318
679,343;29240,553;   -0,628;    1,773
679,917;29108,064;   -1,446;    1,955
680,492;29178,302;    0,826;    3,227
681,066;29288,358;    3,372;    0,409
681,640;29387,051;    1,463;   -0,318
682,214;30153,471;    0,735;    0,500
682,788;29665,800;   -1,356;   -0,773
683,363;29631,948;   -1,810;    1,682
683,937;29343,913;   -1,719;   -0,318
684,511;30052,151;    0,463;   -0,591
685,085;29793,753;   -1,356;    0,318
685,659;29508,264;   -2,538;    0,864
686,232;29884,320;   -0,356;   -0,318
686,806;29517,740;   -0,901;    0,409
687,380;30158,979;   -0,174;    0,591
687,954;30395,944;   -1,174;    1,136
688,528;30071,819;   -0,719;    1,955
689,101;30856,330;   -3,992;    1,045
689,675;30453,295;   -0,356;   -0,136
690,249;29857,988;   -0,719;    0,409
690,822;30137,862;    0,280;    0,318
691,396;30258,828;   -0,265;    1,227
691,969;29753,703;    1,280;    0,136
692,543;30178,850;   -0,447;   -1,955
693,116;29817,997;   -0,265;   -1,409
693,690;29676,417;    0,099;    0,500
694,263;30252,746;   -1,083;    2,955
694,836;30304,439;    1,371;    3,591
695,410;28950,586;   -0,265;    1,773
695,983;29395,461;    0,189;    0,591
696,556;29336,881;   -0,447;   -1,045
697,129;29723,937;   -0,356;    1,409
697,703;29414,994;   -1,629;    1,955
698,276;29385,414;    1,462;   -0,773
698,849;29220,197;    1,280;    1,409
699,422;29559,617;   -1,083;    0,591
699,995;29255,310;    0,007;    0,136
700,568;29825,003;   -0,629;    3,045
701,140;29827,605;   -2,811;    1,682
701,713;29496,207;   -0,174;    2,409
702,286;29224,263;   -0,538;    0,864
702,859;29166,228;   -0,902;   -0,591
703,432;28317,194;    0,825;    0,682
704,004;28807,887;    0,462;    0,318
704,577;28647,398;   -0,629;    0,136
705,150;29213,545;    0,189;    2,500
705,722;28965,601;   -0,356;   -3,227
706,295;28767,294;   -0,175;   -0,591
706,867;28648,532;   -0,175;    1,955
707,440;28817,043;   -1,720;   -0,409
708,012;29153,736;    0,462;    0,591
708,584;29105,701;    2,462;    0,227
709,157;29332,485;    1,825;   -0,591
709,729;29005,269;    2,280;    2,045
710,301;29858,416;    0,734;    0,045
710,874;29875,927;   -1,447;   -0,227
711,446;28759,802;    0,371;    0,864
712,018;28575,676;    0,098;    0,500
712,590;28337,823;   -1,993;    1,682
713,162;28868,425;    0,825;    1,318
713,734;29110,936;    1,825;   -2,045
714,306;28977,993;   -1,902;   -0,409
714,878;27704,594;    0,825;    0,864
715,450;28500,924;    0,643;    0,864
716,022;28757,525;    1,552;    1,318
716,593;28906,855;    0,189;    0,591
717,165;28826,911;   -3,175;   -1,227
717,737;28552,604;    0,280;    0,409
718,309;28222,024;    0,280;   -0,045
718,880;28161,080;   -0,539;   -1,409
719,452;28351,046;   -0,175;   -1,591
720,024;27948,829;    0,734;   -0,591
720,595;28507,249;   -2,902;    0,955
721,167;28070,942;    0,370;   -2,045
721,738;27623,180;   -0,812;   -1,045
722,309;27592,237;   -0,993;   -1,227
722,881;27363,475;   -1,357;    0,773
723,452;28014,349;   -2,630;    2,864
724,023;28159,951;   -0,721;    2,682
724,595;27946,189;    0,007;    0,682
725,166;27687,519;    0,007;   -0,409
725,737;27308,666;    1,734;    0,227
726,308;27399,540;   -0,266;    0,318
726,879;27900,960;   -1,630;    1,227
727,450;27721,744;    0,552;   -0,045
728,021;27685,619;    3,097;    0,682
728,592;27463,857;    0,734;    0,500
729,163;27799,277;    0,643;   -0,136
729,734;27840,879;    0,188;   -0,227
730,305;28183,935;    1,734;    0,136
730,876;28573,173;    0,188;    2,955
731,447;28297,139;    2,188;    2,682
732,017;28420,468;    1,097;    1,864
732,588;27842,343;    0,734;    1,227
733,159;28065,763;    0,643;   -1,045
733,729;27853,455;    0,006;    0,409
734,300;27156,421;    0,915;    0,864
734,870;27593,932;    3,461;    0,591
735,441;28176,806;    0,370;   -0,591
736,011;27907,499;    0,643;   -1,591
736,582;27783,646;   -0,812;    0,045
737,152;27288,157;   -1,721;   -2,045
737,722;27754,123;   -0,267;   -0,682
738,293;27412,725;   -1,358;    1,318
738,863;27334,508;    2,461;    2,318
739,433;27165,747;    5,279;    0,318
740,003;27850,621;   -0,994;   -0,682
740,573;27248,859;    2,097;   -1,591
741,143;27144,279;   -1,085;    0,318
741,713;27893,154;    1,188;   -0,500
742,283;27586,847;    0,915;    1,591
742,853;27435,085;    1,915;    1,591
743,423;26864,414;    1,733;    0,045
743,993;27030,470;   -0,358;    1,500
744,563;26394,163;    0,097;   -0,864
745,133;26324,583;   -0,812;   -0,864
745,702;27024,276;   -0,267;    1,773
746,272;26261,969;   -0,176;    0,591
746,842;26012,843;   -1,358;   -0,591
747,411;26391,354;   -0,267;   -0,318
747,981;26594,501;    0,097;    0,500
748,551;26672,921;    2,278;   -1,045
749,120;26479,887;    0,642;   -0,227
749,690;26851,852;   -0,631;    2,409
750,259;27196,363;    1,369;    2,955
750,828;27068,420;    1,551;   -1,955
751,398;27360,840;    1,278;   -0,045
751,967;26848,714;    2,187;    0,409
752,536;27048,953;   -0,813;   -0,227
753,105;27490,282;    0,096;    0,227
753,675;27249,702;    0,096;    1,773
754,244;27250,485;   -0,904;    3,591
754,813;27325,905;    0,551;    1,227
755,382;26866,689;    0,460;    0,955
755,951;27494,655;    1,551;    3,682
756,520;26952,256;   -0,085;    1,864
757,089;27479,949;    0,278;    0,500
757,658;27678,278;    1,733;    1,227
758,227;27682,971;    1,096;    0,318
758,795;27981,846;    1,187;    1,136
759,364;28184,902;   -0,086;   -0,591
759,933;27207,322;   -1,176;   -0,045
760,501;26695,560;    0,733;   -1,318
761,070;27175,707;   -2,813;   -1,409
761,639;27897,491;   -1,904;    1,318
762,207;27261,638;    1,551;   -0,955
762,776;27154,513;    0,369;    0,864
763,344;27140,751;   -0,995;    0,591
763,913;26275,535;   -0,722;    1,409
764,481;26998,591;    1,005;   -0,136
765,049;26769,102;   -1,358;    1,409
765,618;26677,886;   -0,086;    0,318
766,186;26744,397;    0,278;    0,136
766,754;26901,544;    0,005;    1,864
767,322;25932,055;   -1,995;    0,409
767,890;25926,475;   -0,722;   -1,773
768,459;26348,986;   -2,177;   -0,318
769,027;26540,497;    1,641;    3,409
769,595;25483,281;    3,278;    2,591
770,163;25901,519;    3,823;    2,955
770,730;25681,666;    0,732;   -0,136
771,298;25503,904;    0,187;   -1,409
771,866;25573,143;   -1,541;    4,955
772,434;25932,290;   -0,631;   -1,864
773,002;26109,801;    0,005;    0,682
773,569;25707,403;    0,914;    1,682
774,137;25582,368;   -0,268;   -0,045
774,705;26391,424;    0,278;   -0,136
775,272;25876,299;    0,641;    0,682
775,840;25592,810;   -0,177;    2,682
776,407;25136,957;    0,277;    1,955
776,975;24697,286;   -0,632;    0,318
777,542;25728,616;   -1,086;   -0,045
778,110;25563,945;   -1,268;   -0,045
778,677;25264,728;   -2,359;   -0,864
779,244;25011,330;    2,186;    1,045
779,812;25150,659;    1,823;    0,864
780,379;24956,988;    0,005;    1,136
780,946;25236,590;    1,005;   -0,773
781,513;25557,101;   -1,450;    0,318
782,080;24888,158;   -0,086;    2,864
782,647;25658,123;   -0,268;    3,045
783,214;25233,452;   -0,177;    3,864
783,781;24833,872;   -0,723;   -0,682
784,348;24743,565;   -0,632;    1,500
784,915;25183,258;   -3,177;    0,318
785,482;24957,405;    1,368;    2,591
786,049;25346,098;    0,186;   -0,591
786,615;25468,063;    0,277;   -0,955
787,182;25256,847;    0,186;   -0,682
787,749;24939,812;   -2,814;    1,409
788,315;24276,505;   -1,632;   -0,409
788,882;24583,107;    1,550;   -1,227
789,448;25256,709;    1,732;   -0,955
790,015;25292,947;    1,095;    3,227
790,581;24852,458;    1,459;    0,227
791,148;24740,696;    0,641;    1,045
791,714;24945,480;   -0,541;    3,136
792,280;24583,445;    0,186;    1,591
792,847;24161,502;    0,550;    2,500
793,413;24708,194;   -0,269;   -0,318
793,979;24272,614;    3,459;   -1,318
794,545;24385,125;    4,459;    2,682
795,111;23784,000;    2,186;    1,318
795,678;23997,056;    0,731;   -1,682
796,244;23585,204;    3,368;    0,136
796,810;24141,715;    1,731;    0,773
797,375;23854,862;    0,549;   -2,136
797,941;23868,373;   -0,541;    0,591
798,507;24009,793;   -0,451;   -0,955
799,073;23559,758;   -0,360;    0,591
799,639;23602,997;   -2,632;    3,136
800,205;23679,871;    0,095;    2,682
800,770;23249,746;    0,640;    1,773
801,336;23324,711;    1,368;   -0,955
801,901;22977,858;    4,549;    3,136
802,467;23580,188;   -0,542;    2,045
803,033;22907,971;   -0,087;    0,864
803,598;23126,209;    1,913;   -1,045
804,163;23158,629;    1,095;   -0,318
804,729;23073,777;   -0,178;    1,136
805,294;23503,106;    0,822;    2,227
805,859;23269,435;    0,731;   -0,409
806,425;22735,219;    1,186;    2,682
806,990;22396,002;    2,186;    4,318
807,555;22908,604;   -1,451;    2,591
808,120;22757,206;    0,822;   -0,409
808,685;22854,808;    0,185;   -2,500
809,250;22365,319;    0,004;   -0,500
809,815;22700,193;    1,913;    0,682
810,380;23229,704;   -0,269;    1,591
810,945;23788,852;   -1,087;    2,045
811,510;22915,908;    2,094;    1,591
812,075;22618,146;   -0,633;   -1,409
812,640;22619,475;    2,003;    1,409
813,204;22756,259;    0,822;   -0,227
813,769;23191,406;    2,094;   -0,045
814,334;22608,554;    0,458;    0,864
814,898;22667,883;    0,367;    0,591
815,463;22545,485;    1,276;   -0,773
816,027;22533,632;   -0,724;   -2,318
816,592;22560,779;    0,640;   -2,045
817,156;22083,745;    2,094;    1,136
817,721;21965,256;    4,276;    2,318
818,285;21863,676;    2,912;    1,500
818,849;22494,459;   -1,451;    1,682
819,414;22419,152;   -0,269;    2,955
819,978;22003,299;   -1,269;    1,773
820,542;22590,447;    2,003;    0,500
821,106;22300,412;   -0,815;    0,682
821,670;22408,923;   -0,815;    2,591
822,234;22128,525;   -0,270;    1,409
822,798;21510,036;    0,003;    0,500
823,362;21468,910;   -0,633;    4,227
823,926;20769,239;    0,094;    1,136
824,490;21019,023;   -0,997;   -0,682
825,054;21478,261;   -0,088;   -1,136
825,618;21076,863;   -1,542;   -1,500
826,181;21057,101;    0,458;   -1,318
826,745;20969,885;    1,367;   -1,045
827,309;21315,669;    1,185;    1,318
827,872;20713,361;    1,367;    0,955
828,436;21683,145;    1,185;   -0,773
828,999;21770,747;   -0,997;    1,227
829,563;20508,258;   -0,179;    1,136
830,126;20320,951;   -0,179;   -0,591
830,690;20352,916;   -1,997;    2,864
831,253;19850,427;   -0,543;    2,227
831,816;19990,665;   -1,906;    0,500
832,380;19932,085;    0,185;    0,864
832,943;20161,687;   -1,361;   -0,500
833,506;19630,289;    2,639;   -1,227
834,069;20421,527;    3,912;   -0,955
834,632;20461,402;    1,730;    1,318
835,195;20394,822;    1,003;    0,955
835,758;19577,969;   -0,997;    1,955
836,321;19437,662;    0,730;   -1,045
836,884;19511,900;   -0,725;   -0,955
837,447;19574,502;   -2,816;    1,773
838,010;19841,649;    0,366;    3,227
838,573;20131,342;   -1,179;    0,773
839,135;20068,216;   -1,361;   -0,955
839,698;19522,182;    1,275;    0,409
840,261;19041,238;    1,003;   -0,227
840,823;18850,840;   -0,543;    0,864
841,386;19179,351;   -0,452;   -2,409
841,948;19085,135;   -1,361;    1,773
842,511;18786,555;    0,912;    1,682
843,073;18929,338;    1,912;    0,227
843,636;18704,304;   -0,361;   -0,227
844,198;18681,451;    0,911;    0,591
844,760;18807,053;    1,093;    1,955
845,322;18452,200;    0,548;    1,136
845,885;18866,439;    0,730;    0,591
846,447;19292,040;   -1,998;    0,227
847,009;18912,460;    1,911;   -0,682
847,571;19251,699;    0,820;   -2,045
848,133;19337,028;   -1,089;   -1,864
848,695;19157,448;   -0,543;    1,409
849,257;18720,413;   -1,089;   -1,682
849,819;18854,561;   -0,998;   -0,409
850,381;18915,890;   -0,725;   -0,864
850,942;19263,764;    1,093;   -0,591
851,504;19273,912;    1,184;    0,227
852,066;19277,786;    1,275;   -1,591
852,628;18826,752;   -0,180;    1,955
853,189;18402,990;    1,638;    2,682
853,751;18519,864;   -0,907;    1,409
854,312;18285,194;   -0,453;   -1,682
854,874;18790,704;   -2,089;   -0,773
855,435;19346,488;   -0,907;   -1,682
855,997;19484,817;   -1,816;   -0,136
856,558;18779,237;    0,366;    1,773
857,119;18824,566;    0,820;    2,864
857,681;18533,441;    0,002;    0,318
858,242;18584,043;    1,911;   -2,136
858,803;19003,554;    0,456;   -0,773
859,364;19577,519;    0,184;   -4,773
859,925;18901,667;   -2,453;   -0,955
860,486;18815,905;   -0,453;   -0,955
861,047;18565,416;   -0,544;   -1,227
861,608;18339,836;   -1,089;   -0,773
862,169;18450,165;    0,638;   -0,045
862,730;18257,403;    0,456;    1,409
863,291;18478,005;   -0,635;   -0,500
863,852;18848,334;   -0,635;    1,955
864,412;18334,754;   -0,271;   -0,864
864,973;16903,447;   -0,089;    0,500
865,534;16735,867;   -1,726;    0,227
866,094;18261,196;    1,820;    0,227
866,655;17957,980;    1,274;    3,318
867,215;18152,127;    0,274;    0,136
867,776;17984,729;    0,547;   -0,136
868,336;18155,876;   -1,453;    0,136
868,897;17613,296;    2,638;    1,682
869,457;17362,171;    1,365;    0,318
870,017;17587,045;    0,547;   -1,227
870,578;18112,647;   -0,817;    0,773
871,138;17806,431;   -2,089;   -0,955
871,698;17310,214;   -0,817;   -1,318
872,258;17193,816;   -0,453;   -2,864
872,818;17568,236;    2,729;    0,045
873,378;17547,474;    0,638;    1,045
873,938;17094,349;    0,547;    0,500
874,498;17400,042;    0,274;   -1,955
875,058;17294,825;    2,183;    1,773
875,618;17094,882;    1,910;   -2,682
876,177;17108,484;    1,274;    0,136
876,737;16708,904;   -0,090;    1,955
877,297;16738,596;    0,183;    1,955
877,856;16739,016;   -0,362;    0,318
878,416;16697,891;    1,183;   -0,136
878,976;16910,584;   -1,817;    0,409
879,535;17063,731;    0,092;    3,136
880,095;16786,060;   -0,544;    0,045
880,654;16953,571;   -1,090;    1,318
881,213;17058,718;    2,456;    1,500
881,773;16686,138;    2,637;    2,682
882,332;17043,468;    3,365;    5,136
882,891;16897,706;    3,092;    2,136
883,451;17333,580;   -1,272;    1,682
884,010;16765,091;   -2,908;   -0,409
884,569;16873,057;   -0,999;   -0,045
885,128;17005,295;    2,819;   -1,864
885,687;17067,260;    4,455;    0,682
886,246;16738,499;    1,455;    2,136
886,805;16539,737;    2,455;    2,045
887,364;16875,248;   -0,999;   -0,500
887,922;17215,213;   -1,181;    0,045
888,481;16732,361;   -1,545;    0,591
889,040;17025,417;    1,183;    2,136
889,599;17713,928;    2,455;    1,409
890,157;17759,166;    1,455;    2,409
890,716;17415,495;   -0,090;    0,227
891,274;17236,097;    0,092;   -1,136
891,833;17664,244;    1,546;    0,864
892,391;17546,664;   -0,454;    0,500
892,950;17594,448;    1,819;   -0,773
893,508;17966,414;    0,455;   -0,409
894,067;17331,924;    0,637;    0,136
894,625;17225,345;   -0,636;   -1,500
895,183;17468,401;   -0,363;   -0,682
895,741;17376,094;    1,728;   -1,773
896,299;17182,877;   -0,545;   -2,409
896,858;17332,388;    0,819;   -1,591
897,416;17487,899;    2,728;   -1,318
897,974;17221,228;    1,819;    0,318
898,532;17374,648;    6,091;    2,682
899,089;17299,523;    2,091;   -0,682
899,647;17308,216;   -1,454;    1,318
900,205;17051,545;    1,182;    1,045
900,763;17213,510;   -0,454;    0,227
901,321;17215,839;    2,364;   -1,409
901,878;16694,078;   -1,000;   -0,773
902,436;16605,498;   -1,363;    1,318
902,994;16944,281;    4,728;    3,682
903,551;16373,247;    0,728;    0,409
904,109;16791,303;    0,182;   -1,409
904,666;16314,996;    2,455;    1,045
905,224;16165,780;    0,182;   -0,409
905,781;15927,927;    0,727;   -0,318
906,338;16016,347;   -1,363;    1,045
906,895;15932,131;    0,637;    2,045
907,453;15869,278;    1,727;    1,136
908,010;15875,061;   -0,909;    0,409
908,567;15534,936;    1,273;    0,591
909,124;15037,992;    0,364;   -1,500
909,681;15117,231;   -2,909;    0,682
910,238;15273,105;    0,636;   -1,318
910,795;15575,980;   -0,273;   -1,136
911,352;15198,253;   -2,909;   -2,682
911,909;14620,162;   -1,364;   -0,864
912,466;15127,980;   -3,182;    1,500
913,022;14687,798;   -1,636;    0,500
913,579;15079,525;   -0,909;    2,045
914,136;14700,162;    1,636;    0,955
914,692;15045,707;    0,091;   -1,227
915,249;14638,434;    1,455;    0,409
915,806;14892,343;    0,182;    1,955
916,362;14666,343;    1,909;    1,864
916,918;14210,071;    2,000;    1,045
917,475;14166,253;   -1,182;    0,955
918,031;14257,889;    3,364;   -0,045
918,587;13702,889;   -0,909;   -0,318
919,144;13919,071;   -2,273;    0,227
919,700;14223,253;    1,727;    0,773
920,256;13793,525;    0,727;    0,045
920,812;13446,343;   -0,727;   -1,045
921,368;13435,253;   -1,727;   -1,045
921,924;13045,343;    0,182;   -0,136
922,480;12622,889;   -0,545;    1,227
923,036;13235,253;    1,273;    1,955
923,592;13198,798;    0,455;    0,318
924,148;13119,525;    0,455;   -0,955
924,704;12410,162;   -1,364;   -0,409
925,259;12658,798;   -0,273;    0,591
925,815;12444,889;    1,455;    0,500
926,371;11986,616;    2,909;    1,409
926,926;11875,616;    2,091;    0,591
927,482;11516,616;   -1,364;    0,773
928,037;11352,616;    0,909;    2,045
928,593;11645,162;    1,636;    1,045
929,148;11470,343;   -1,818;   -1,500
929,704;10958,071;   -1,455;   -0,500
930,259;11157,707;    0,091;   -0,136
930,814;10245,980;   -0,818;    1,955
931,369; 9939,525;    1,091;   -0,773
931,925; 9805,889;   -0,091;    0,136
932,480; 9693,889;   -2,818;   -2,591
933,035; 9589,798;    0,545;   -0,318
933,590; 9357,707;    0,364;   -1,773
934,145; 9028,434;   -1,364;   -0,318
934,700; 9353,525;    0,455;   -0,591
935,255; 9148,798;   -0,091;    0,045
935,809; 8414,434;    3,182;    0,864
936,364; 7536,343;   -0,455;   -0,136
936,919; 7489,980;    0,455;   -1,773
937,474; 7397,889;    1,455;    0,136
938,028; 7161,071;   -1,636;    1,136
938,583; 6646,343;    1,818;    4,682
939,138; 6913,253;    2,091;    2,136
939,692; 6354,434;    1,636;   -1,136
940,247; 6070,253;   -0,727;   -1,045
940,801; 5622,162;   -0,636;    0,227
941,355; 5498,253;   -0,364;    2,591
941,910; 5134,343;   -0,273;   -2,136
942,464; 5229,616;   -0,818;   -0,318
943,018; 5046,434;    1,000;   -0,227
943,572; 4994,798;    2,545;   -0,682
944,126; 4397,980;    0,091;   -0,409
944,681; 4297,616;    3,091;    0,227
945,235; 4287,889;    1,000;   -0,591
945,789; 4217,071;    0,364;   -1,864
946,342; 4315,162;    0,455;   -0,591
946,896; 4104,980;   -2,273;    0,955
947,450; 3858,253;    1,545;   -0,227
948,004; 4060,253;    1,727;   -0,045
948,558; 4068,980;    0,273;   -0,864
949,111; 4005,889;   -0,273;   -0,318
949,665; 4040,798;    1,636;   -0,682
950,219; 3908,162;   -0,091;   -1,045
950,772; 3985,253;   -1,909;    1,864
951,326; 3880,798;    0,545;   -0,955
951,879; 3971,343;    0,727;   -2,318
952,433; 4005,889;    0,000;    2,227
952,986; 3855,707;    2,909;    0,682
953,539; 3804,253;   -0,273;    0,591
954,093; 3734,616;    0,545;   -1,318
954,646; 3866,798;    0,909;    1,318
955,199; 3679,707;    0,000;   -0,500
955,752; 3557,434;   -0,455;    1,773
956,305; 3527,525;   -0,091;    2,955
956,858; 3688,162;    0,818;   -0,318
957,411; 3860,434;   -0,545;    2,136
957,964; 3687,798;    1,364;    2,136
958,517; 3678,980;   -1,545;    3,136
959,070; 3498,525;   -0,455;    1,955
959,623; 3568,980;    1,091;    1,500
960,176; 3338,616;    1,727;    2,045
960,728; 3334,162;   -2,727;    0,773
961,281; 3393,434;    0,545;    0,500
961,834; 3437,889;   -0,909;    0,864
962,386; 3338,253;    1,727;    1,045
962,939; 3283,616;    0,364;   -0,318
963,491; 3438,253;    0,455;    1,136
964,043; 3298,798;    1,182;    2,409
964,596; 3405,525;   -1,000;    2,227
965,148; 3234,616;   -1,000;    1,773
965,700; 3174,253;    1,091;   -0,227
966,253; 3325,980;   -0,636;    0,318
966,805; 3162,798;   -2,273;    0,773
967,357; 3214,980;    1,091;   -1,500
967,909; 3163,707;    0,455;   -1,227
968,461; 3277,707;    0,545;    3,136
969,013; 3206,707;   -0,182;   -0,864
969,565; 3292,162;   -0,455;   -1,136
970,117; 3335,707;   -0,364;    1,045
970,669; 3174,525;    0,182;   -0,136
971,220; 3056,343;   -0,455;   -1,500
971,772; 2984,071;   -0,636;   -0,318
972,324; 3111,980;    0,091;   -0,500
972,876; 3033,616;    0,818;   -0,045
973,427; 3160,798;    1,909;   -1,045
973,979; 3142,525;   -0,727;   -2,500
974,530; 3204,162;    1,818;    1,318
975,082; 3188,525;   -0,545;    1,682
975,633; 3086,525;    1,091;    1,682
976,184; 3227,707;    0,909;    0,773
976,736; 3026,434;    0,091;    0,227
977,287; 2830,071;   -0,909;   -0,500
977,838; 2998,253;    0,909;   -0,318
978,389; 3053,253;   -1,000;   -0,500
978,940; 2927,707;    0,545;   -0,409
979,491; 2960,162;    0,091;   -0,500
980,042; 2927,162;    0,182;    3,045
980,593; 2969,343;   -2,545;    0,227
981,144; 3014,980;    2,545;   -0,500
981,695; 2994,071;    1,455;    1,500
982,246; 2937,071;   -0,273;    1,045
982,797; 3097,980;   -1,727;    0,682
983,347; 3197,253;    0,364;    0,591
983,898; 3363,707;    3,091;    0,409
984,449; 3196,071;    2,182;    0,773
984,999; 3113,071;    1,455;   -1,136
985,550; 2881,707;    0,182;   -0,318
986,100; 2918,798;   -0,455;   -0,318
986,651; 2943,707;   -0,818;    0,045
987,201; 2928,525;   -1,000;   -0,591
987,751; 3007,525;    0,818;    2,864
988,302; 2992,343;    2,636;    1,500
988,852; 3002,707;    0,455;   -1,136
989,402; 3051,889;    0,091;    0,682
989,952; 2960,980;   -2,182;    0,864
990,502; 3052,343;   -0,091;    0,682
991,052; 3022,980;   -0,727;    0,045
991,602; 2907,434;   -2,909;    1,318
992,152; 2902,071;    0,455;    0,682
992,702; 2888,798;    1,364;   -0,045
993,252; 2804,616;   -3,000;   -0,500
993,802; 2900,253;   -0,273;    1,318
994,352; 3135,889;   -1,545;    1,136
994,901; 3215,343;   -0,182;    3,227
995,451; 3131,434;   -0,182;    0,318
996,000; 3222,071;    1,636;    0,318
996,550; 2941,616;    2,273;    0,227
997,100; 2927,071;    1,273;   -0,045
997,649; 3199,162;    2,182;    0,955
998,198; 2837,343;    1,727;   -1,500
998,748; 3044,071;    1,091;   -2,318
999,297; 2951,980;   -0,818;   -0,409
999,846; 3015,253;    1,000;   -0,773
1000,395; 3043,707;   -0,818;    0,500
1000,945; 2996,071;    1,818;   -0,773
1001,494; 3093,253;    2,364;    0,682
1002,043; 3076,343;    4,636;    0,864
1002,592; 2912,071;   -1,091;    1,955
1003,141; 3076,525;   -0,455;   -0,682
1003,690; 2941,980;    1,727;    0,500
1004,238; 3028,616;    1,455;   -0,045
1004,787; 2638,343;    1,364;    1,227
1005,336; 2877,616;    0,364;    0,682
1005,885; 3027,525;    1,364;   -2,773
1006,433; 3163,071;    0,545;    0,955
1006,982; 3235,071;    0,455;    1,682
1007,531; 3127,071;   -1,818;   -0,227
1008,079; 3067,434;   -2,273;    0,500
1008,627; 3231,253;   -1,455;    0,409
1009,176; 2965,980;    0,000;   -1,955
1009,724; 3021,616;    1,091;    0,864
1010,273; 3073,525;    1,273;    0,500
1010,821; 3176,434;    0,091;    1,409
1011,369; 2909,525;   -1,364;    1,318
1011,917; 2886,798;   -1,364;   -0,591
1012,465; 3153,071;    1,273;   -1,591
1013,013; 3277,707;    2,091;   -1,682
1013,561; 3160,525;    0,455;   -0,773
1014,109; 3207,253;   -1,909;    1,682
1014,657; 3088,434;    0,364;    0,591
1015,205; 3224,253;    1,636;   -0,955
1015,753; 3242,889;   -0,545;   -1,409
1016,301; 3283,253;   -2,636;    3,045
1016,848; 3282,253;   -1,273;    0,409
1017,396; 3332,889;    2,545;    0,045
1017,944; 3451,253;    1,182;    1,864
1018,491; 3191,525;    0,273;    1,409
1019,039; 3350,071;    0,455;    0,591
1019,586; 3270,616;   -1,364;    1,682
1020,134; 3372,616;    0,455;    1,500
1020,681; 3387,980;    0,182;   -1,136
1021,228; 3404,798;    2,909;   -2,227
1021,776; 3222,071;    1,182;   -1,136
1022,323; 3450,253;    0,455;    0,773
1022,870; 3384,889;   -1,000;   -0,045
1023,417; 3265,071;    2,636;    1,864
1023,964; 3413,798;    2,636;    1,227
1024,511; 3268,253;    1,000;    0,773
1025,058; 3076,707;    3,182;   -0,045
1025,605; 3122,162;   -2,273;    3,136
1026,152; 3337,162;    1,727;   -0,591
1026,699; 3056,525;    1,818;    1,318
1027,245; 3229,071;   -0,091;    0,318
1027,792; 3443,071;   -1,000;    1,409
1028,339; 3317,707;    2,364;   -0,045
1028,885; 3166,071;    1,000;   -0,227
1029,432; 3129,434;   -0,091;    0,227
1029,978; 3188,525;   -1,000;   -1,591
1030,525; 3079,616;    1,000;    0,409
1031,071; 3324,798;   -1,364;    1,136
1031,618; 3439,253;    0,364;    1,682
1032,164; 3214,071;   -0,091;    3,045
1032,710; 3267,616;    1,636;   -1,500
1033,256; 3202,343;   -0,636;   -0,136
1033,803; 3146,798;   -0,545;    1,500
1034,349; 2878,707;   -1,364;    0,136
1034,895; 3037,525;    0,000;   -0,318
1035,441; 3004,253;   -0,818;    0,318
1035,987; 3017,525;   -2,364;   -0,682
1036,533; 3013,798;   -1,455;   -0,955
1037,078; 3216,889;    1,455;    1,682
1037,624; 3024,071;    2,455;   -0,955
1038,170; 3061,525;    0,455;   -0,318
1038,716; 2967,980;    1,636;   -0,409
1039,261; 2881,525;   -2,273;   -0,773
1039,807; 2810,071;   -0,091;    3,409
1040,352; 2909,071;   -1,909;   -0,318
1040,898; 2944,889;   -1,545;   -0,682
1041,443; 2856,980;   -1,455;   -2,591
1041,989; 2844,071;    1,091;    1,591
1042,534; 2743,889;   -0,364;    2,591
1043,079; 2860,980;    2,909;    0,955
1043,625; 2659,525;    1,818;    0,500
1044,170; 2689,980;   -1,364;    1,045
1044,715; 2940,616;    2,455;    0,955
1045,260; 2753,616;    2,182;   -0,955
1045,805; 2815,162;    1,182;   -0,591
1046,350; 2755,980;    1,364;   -0,409
1046,895; 2711,707;    2,909;    1,591
1047,440; 2646,616;    5,364;    0,409
1047,985; 2571,525;    2,818;   -0,955
1048,530; 2489,616;    1,545;    1,227
1049,074; 2544,071;    0,000;    0,318
1049,619; 2514,253;   -1,364;    1,955
1050,164; 2326,525;    0,455;    0,227
1050,708; 2364,343;   -0,455;    0,045
1051,253; 2733,253;    1,273;   -2,227
1051,797; 2441,889;    0,818;   -1,318
1052,342; 2451,525;   -1,182;    1,045
1052,886; 2438,434;    0,364;   -1,409
1053,430; 2324,162;   -1,364;    0,136
1053,975; 2328,798;   -0,818;   -0,318
1054,519; 2323,162;   -0,727;    3,227
1055,063; 2341,889;    0,909;    1,318
1055,607; 2212,343;   -0,182;    0,227
1056,151; 2243,343;    2,909;    1,682
1056,695; 2158,434;    2,273;   -1,136
1057,239; 2223,889;   -1,727;   -0,682
1057,783; 2241,980;    0,818;   -1,500
1058,327; 2187,162;    0,000;    1,409
1058,871; 2403,525;   -0,545;    1,318
1059,415; 2114,980;   -0,818;   -0,045
1059,958; 2373,071;    1,455;    2,591
1060,502; 2098,616;   -1,000;   -0,773
1061,046; 2010,162;    0,364;   -0,955
1061,589; 1972,434;   -3,000;   -1,136
1062,133; 1878,616;   -1,273;    1,864
1062,676; 1819,616;    1,182;    0,864
1063,220; 1804,798;    1,091;    0,500
1063,763; 1822,071;    0,909;    1,136
1064,306; 1921,525;   -0,909;    1,864
1064,849; 1792,162;   -0,909;    0,591
1065,393; 1799,525;    2,000;   -1,500
1065,936; 1919,980;    0,182;   -0,409
1066,479; 1805,616;   -1,455;    1,318
1067,022; 1824,162;   -0,273;   -0,227
1067,565; 1712,343;   -0,091;   -1,318
1068,108; 1743,434;    0,727;   -0,591
1068,651; 1721,798;   -0,636;    1,409
1069,194; 1656,071;   -0,455;   -1,682
1069,736; 1653,434;   -1,273;    0,955
1070,279; 1625,253;   -1,364;   -0,500
1070,822; 1666,889;   -2,000;   -0,318
1071,364; 1765,798;   -0,364;    1,318
1071,907; 1587,798;   -0,727;    3,227
1072,450; 1494,162;    0,000;   -0,045
1072,992; 1470,889;   -0,273;    3,136
1073,535; 1623,798;    2,091;    2,136
1074,077; 1429,707;   -0,727;    2,045
1074,619; 1383,253;   -1,364;    0,591
1075,161; 1417,343;   -1,091;    1,500
1075,704; 1600,707;    1,545;    1,227
1076,246; 1402,434;   -0,182;    0,682
1076,788; 1320,071;   -0,364;    1,773
1077,330; 1394,525;    1,273;    2,136
1077,872; 1372,889;    0,909;    0,955
1078,414; 1586,071;    2,727;    0,773
1078,956; 1312,343;    1,273;   -0,227
1079,498; 1570,071;    1,636;    0,318
1080,040; 1284,343;    1,909;   -1,318
1080,581; 1224,343;    1,636;   -0,318
1081,123; 1139,616;    0,091;   -0,773
1081,665; 1199,071;   -1,182;   -0,955
1082,206; 1508,525;    1,364;   -0,500
1082,748; 1353,343;    0,727;    2,045
1083,289; 1231,343;   -2,000;    1,318
1083,831; 1148,616;   -0,545;    0,227
1084,372; 1190,162;    0,000;    0,591
1084,913; 1185,162;    1,091;    0,864
1085,455; 1159,616;   -1,909;   -2,045
1085,996; 1126,071;   -2,273;    0,136
1086,537; 1154,616;   -0,091;    0,864
1087,078; 1169,707;   -0,909;   -2,136
1087,619; 1208,525;   -1,273;    0,227
1088,160; 1121,434;    0,000;    1,318
1088,701; 1117,071;   -1,091;    0,682
1089,242; 1054,889;    1,364;   -2,227
1089,783; 1151,071;   -0,273;    1,409
1090,324; 1115,889;    0,455;    0,682
1090,865;  999,434;    2,727;   -0,409
1091,405;  970,616;    0,727;    2,227
1091,946;  992,616;    0,182;   -0,955
1092,487;  920,889;    0,818;   -1,409
1093,027; 1090,616;   -1,364;   -1,500
1093,568;  934,616;   -0,364;    1,227
1094,108; 1050,889;    0,273;    1,773
1094,649;  984,980;   -1,182;    0,136
1095,189;  914,980;   -0,636;   -0,682
1095,729;  858,253;   -0,091;    0,955
1096,269;  865,162;    0,727;   -0,955
1096,810; 1195,071;   -1,364;    0,500
1097,350; 1004,343;    1,364;   -0,773
1097,890;  903,434;    0,364;    1,227
1098,430; 1177,343;    2,364;    2,864
1098,970; 1050,889;    2,182;    1,682
1099,510;  895,616;    0,545;   -2,318
1100,050;  827,343;    1,000;   -1,591
1100,589;  786,434;   -0,727;   -0,318
1101,129;  920,616;    0,818;   -0,955
1101,669; 1076,798;    1,727;    2,136
1102,209;  889,707;   -0,091;    2,227
1102,748;  839,616;    0,000;    0,955
1103,288;  826,343;    1,273;   -1,227
1103,827;  863,525;    3,091;   -2,227
1104,367;  741,707;   -0,091;   -2,409
1104,906;  704,889;    1,364;   -1,136
1105,445;  776,434;    0,636;   -1,136
1105,985;  719,253;   -0,727;    1,500
1106,524;  763,253;   -1,727;   -0,682
1107,063;  745,980;   -2,727;    1,409
1107,602;  707,798;   -1,909;   -1,500
1108,141;  634,798;   -1,909;    1,500
1108,680;  743,525;   -3,455;   -0,591
1109,219;  672,616;   -0,909;   -0,500
1109,758;  676,253;    0,455;    0,682
1110,297;  655,980;    1,000;   -0,682
1110,836;  605,889;   -0,727;    0,955
1111,375;  768,253;   -2,545;    0,409
1111,913;  776,343;   -1,000;    0,773
1112,452;  719,889;   -0,273;    0,136
1112,991;  584,071;    1,091;    1,955
1113,529;  549,889;   -0,818;   -0,045
1114,068;  613,798;   -0,273;    2,955
1114,606;  512,616;   -0,364;   -0,955
1115,144;  683,707;   -1,273;    1,045
1115,683;  623,616;   -0,727;    0,318
1116,221;  669,798;   -0,455;   -0,864
1116,759;  578,980;    0,636;   -0,864
1117,297;  786,525;    0,000;    1,864
1117,836;  587,798;   -2,182;   -1,227
1118,374;  599,071;    0,182;   -0,682
1118,912;  535,434;    0,909;    2,682
1119,450;  527,889;    1,000;    0,864
1119,988;  575,071;    1,545;    2,136
1120,525; 1028,071;    5,091;    3,318
1121,063;  733,343;    1,182;    1,864
1121,601;  532,798;   -0,909;   -1,227
1122,139;  487,616;   -0,727;   -2,045
1122,676;  682,707;   -0,727;    2,773
1123,214;  614,253;   -1,182;    4,409
1123,751;  432,525;    1,727;    2,227
1124,289;  559,798;   -0,091;   -0,409
1124,826;  431,980;    1,727;    0,227
1125,364;  359,162;    1,727;   -0,955
1125,901;  544,434;    1,182;    1,227
1126,438;  664,616;    0,818;    0,955
1126,975;  384,525;   -0,727;   -0,773
1127,513;  450,253;    0,273;    2,136
1128,050;  355,071;    1,636;   -0,682
1128,587;  456,707;    2,000;   -0,227
1129,124;  502,253;    0,091;    1,318
1129,661;  366,434;    0,273;    0,227
1130,198;  531,798;    1,636;    0,773
1130,734;  477,071;    0,182;    1,409
1131,271;  331,525;   -0,909;    0,864
1131,808;  511,343;    2,909;    3,045
1132,345;  380,434;    1,545;    0,318
1132,881;  252,616;   -1,545;   -1,864
1133,418;  395,798;    0,727;   -1,136
1133,954;  328,162;    2,455;   -2,682
1134,491;  404,071;    1,364;   -0,773
1135,027;  307,343;    2,364;    0,864
1135,564;  389,071;    0,273;    2,955
1136,100;  387,071;    0,364;    2,136
1136,636;  263,071;   -1,273;   -1,045
1137,172;  369,889;    0,000;   -1,045
1137,708;  281,162;   -1,364;   -1,045
1138,245;  287,343;    1,273;   -1,227
1138,781;  233,343;    1,091;   -3,318
1139,317;  305,616;    1,273;   -1,409
1139,852;  290,253;    3,091;    0,136
1140,388;  409,889;   -1,182;   -0,409
1140,924;  291,434;   -1,091;   -2,227
1141,460;  229,162;   -1,636;    0,136
1141,996;  162,525;   -1,364;    2,682
1142,531;  217,616;    1,364;    3,318
1143,067;  438,343;    1,182;    1,045
1143,602;  491,525;   -0,091;   -0,318
1144,138;  333,253;   -2,636;    1,045
1144,673;  197,071;   -1,455;    1,409
1145,209;  270,798;   -1,909;   -0,318
1145,744;  186,343;   -0,727;    0,864
1146,279;  314,253;    1,818;   -0,136
1146,815;  231,980;    1,545;   -2,682
1147,350;  280,434;   -1,364;    0,045
1147,885;  193,343;   -0,818;   -1,318
1148,420;  191,616;   -2,273;    0,773
1148,955;  174,071;   -1,727;    1,864
1149,490;  194,162;   -0,909;   -1,591
1150,025;  167,434;    0,455;   -1,773
1150,560;  289,707;    1,091;   -0,955
1151,094;  264,889;    1,455;   -0,591
1151,629;  270,616;    1,636;    0,864
1152,164;  189,798;    1,364;    1,318
1152,698;  150,162;   -0,182;   -0,136
1153,233;  108,162;    0,091;   -0,682
1153,767;  160,071;   -3,000;   -2,318
1154,302;  203,889;   -1,455;    1,773
1154,836;  202,253;   -0,455;   -2,136
1155,371;  252,980;   -1,364;    3,682
1155,905;  209,798;   -0,636;    1,682
1156,439;  175,889;   -0,636;   -0,500
1156,973;  208,525;    0,364;    0,318
1157,507;  142,798;   -0,364;    0,682
1158,042;  168,889;   -0,727;    1,045
1158,576;  218,071;    0,182;    1,773
1159,110;  207,798;   -0,818;    2,409
1159,643;  176,980;    0,636;   -0,045
1160,177;  108,889;   -1,545;    1,500

