
Integration time [ms]:   0,040
Averaging Nr. [scans]: 11
Smoothing Nr. [pixels]: 0
Data measured with spectrometer [name]: 7318044SP
Wave   ;Sample   ;Dark     ;Reference
[nm]   ;[counts] ;[counts] ;[counts] 

186,757;   13,976;   31,551;    1,318
187,357;   41,791;   22,551;    0,955
187,958;   20,414;   15,460;   -1,591
188,558;   51,239;    8,915;   -1,227
189,159;   22,260;    6,733;   -4,500
189,759;   -1,504;    7,278;   -3,591
190,360;   -3,736;    2,824;   -2,136
190,960;   22,508;    2,915;   -4,136
191,560;   33,174;    3,189;   -6,591
192,161;  244,346;    4,372;   -3,500
192,761;  104,633;    4,010;   -3,227
193,361;   45,667;    1,556;   -3,773
193,962;   83,030;    2,010;   -2,682
194,562;   15,982;    1,189;   -3,955
195,162;   25,483;   -2,448;   -2,227
195,762;  148,063;   -3,176;   -0,045
196,362;  103,028;    1,370;   -2,500
196,963;    4,412;    2,006;   -0,864
197,563;   55,335;    1,551;   -0,955
198,163;    6,985;    0,096;   -0,682
198,763;   14,028;    1,733;   -0,500
199,363;   70,556;    3,096;   -0,500
199,963;   34,705;    0,369;    0,409
200,563;   10,161;    2,823;   -1,409
201,163;   -0,369;    3,277;   -0,227
201,763;   34,880;    3,732;    0,318
202,363;    7,072;    1,459;    1,500
202,963;   41,302;    1,459;    1,045
203,563;   95,918;    0,277;    0,500
204,162;   27,210;    2,096;   -1,864
204,762;   14,865;    0,550;    0,591
205,362;   -3,337;    3,004;    1,955
205,962;   23,535;    3,096;    1,955
206,562;   21,198;    1,823;    2,318
207,161;    9,612;   -0,087;    0,318
207,761;   80,775;    1,277;    2,409
208,361;    6,765;   -0,268;    1,409
208,960;   32,602;    0,459;    1,500
209,560;   35,697;    1,277;    1,591
210,160;   39,541;    0,550;    1,864
210,759;   22,072;    4,186;    1,227
211,359;   12,494;    1,459;    1,045
211,958;  115,009;    1,277;    2,045
212,558;  127,800;    1,732;    1,864
213,157;   58,951;    1,822;    1,500
213,757;  198,431;    3,822;   -0,227
214,356;   82,389;    1,277;   -0,409
214,956;  181,858;    3,095;    0,409
215,555;   55,545;    2,095;    2,136
216,154;   18,577;   -2,723;   -0,591
216,754;   25,295;    0,277;    0,773
217,353;   31,620;   -0,268;   -1,045
217,952;  -22,570;   -0,178;    0,318
218,552;   58,434;    1,368;   -0,773
219,151;   18,249;    0,277;    0,955
219,750;   15,674;    0,004;   -0,227
220,349;   -1,665;   -0,451;    1,045
220,948;   66,218;   -1,360;    1,136
221,548;   14,770;    0,913;    1,227
222,147;   23,779;   -0,087;   -0,409
222,746;  109,932;   -0,451;   -0,955
223,345;   47,955;    0,731;    0,500
223,944;   49,198;   -0,451;    0,773
224,543;   45,956;    1,004;   -1,409
225,142;   33,107;    0,094;    0,136
225,741;   42,199;   -0,814;    1,045
226,340;   27,890;   -0,451;   -0,955
226,939;   92,769;   -0,996;   -0,136
227,538;   26,853;   -0,360;   -0,773
228,137;   95,791;   -0,814;    0,864
228,735;   62,877;   -0,541;    1,227
229,334;   -6,859;   -0,905;   -0,227
229,933;   93,396;    0,459;    0,591
230,532;   89,249;    1,186;   -0,409
231,131;  140,880;    1,732;    0,318
231,729;   58,372;   -2,450;   -2,318
232,328;   26,963;   -0,723;   -1,500
232,927;   32,911;    1,004;   -0,500
233,525;   26,502;    3,640;    0,045
234,124;   45,671;    2,368;   -1,591
234,723;    7,709;    0,913;   -1,045
235,321;    4,115;    2,277;    0,136
235,920;   11,831;    1,186;   -1,227
236,518;   90,783;    3,459;    0,318
237,117;   12,925;    0,004;   -0,227
237,715;   28,113;    0,640;   -0,500
238,314;   43,535;   -0,087;   -2,318
238,912;  106,204;   -0,723;   -1,409
239,510;   61,185;    0,459;   -1,227
240,109;  116,269;    0,004;    3,773
240,707;   85,442;   -0,996;    1,227
241,305;   18,961;    0,550;    0,136
241,904;   52,325;   -0,178;   -2,045
242,502;  122,430;   -0,632;   -0,227
243,100;   70,104;   -0,087;   -0,955
243,698;   22,657;    0,732;    1,682
244,297;   44,600;   -0,632;    0,682
244,895;   39,651;   -0,269;   -2,318
245,493;  133,757;    2,186;   -0,591
246,091;  155,797;    1,368;   -1,318
246,689;  102,156;    1,004;    0,591
247,287;   94,574;    0,822;   -1,136
247,885;   65,577;   -1,451;    1,227
248,483;   52,629;    1,822;   -0,500
249,081;  120,815;    0,185;    1,591
249,679;  144,737;   -0,178;    1,682
250,277;   65,635;   -1,723;    0,864
250,875;  158,200;   -1,087;   -1,045
251,473;   88,325;   -1,178;    0,500
252,071;  184,720;    1,459;    1,045
252,669;  121,107;   -1,814;    0,318
253,267;   95,720;   -0,087;    0,773
253,864;  135,029;   -0,360;    0,682
254,462;  255,926;    1,640;    1,591
255,060;  110,176;   -0,269;    1,318
255,658;  108,016;    0,822;   -0,136
256,255;  166,206;    0,186;   -2,045
256,853;  217,849;   -0,269;    1,409
257,451;  194,111;    0,822;    1,864
258,048;  549,451;    1,822;    1,864
258,646;  322,922;    1,731;   -1,045
259,243;  419,758;   -0,087;    2,227
259,841;  319,444;   -0,814;    0,318
260,438;  193,822;   -0,087;    0,864
261,036;  315,091;   -1,905;    1,409
261,633;  213,117;   -0,087;    2,227
262,231;  184,034;    2,731;   -0,045
262,828;  189,513;   -0,905;    1,136
263,425;  259,169;    0,913;   -0,591
264,023;  273,903;    0,186;    0,045
264,620;  440,549;   -0,360;   -0,318
265,217;  569,021;   -2,087;    3,136
265,815;  314,624;   -1,905;    2,136
266,412;  451,485;    0,731;    0,136
267,009;  488,016;   -1,451;    0,773
267,606;  594,194;    0,822;   -0,955
268,203;  379,960;   -0,269;   -0,591
268,801;  427,225;    1,731;    0,591
269,398;  344,804;   -0,360;    2,500
269,995;  524,876;    0,277;    1,591
270,592;  458,445;   -0,632;   -0,500
271,189;  364,382;    0,186;    0,409
271,786;  338,842;   -0,632;    1,227
272,383;  608,646;   -1,087;    0,227
272,980;  455,902;    0,277;    0,318
273,577;  392,207;    0,004;    1,227
274,174;  359,167;    0,822;    2,591
274,771;  512,744;   -0,814;   -0,773
275,367;  911,748;    2,277;    1,409
275,964;  715,141;    0,731;   -0,500
276,561;  491,848;    1,549;   -1,045
277,158;  399,556;    0,095;   -1,773
277,755;  652,088;    2,185;    0,409
278,351;  519,917;   -0,451;   -1,500
278,948;  595,415;   -0,815;    0,045
279,545;  521,118;   -1,360;    2,318
280,141;  738,547;   -1,723;   -2,045
280,738;  678,007;   -0,451;   -0,136
281,334;  455,622;   -1,633;    0,591
281,931;  482,653;   -0,087;   -1,318
282,528;  595,026;    0,822;   -0,500
283,124;  690,017;   -1,087;   -0,500
283,721;  692,271;   -0,451;    1,409
284,317;  524,358;    0,185;    2,500
284,913;  734,976;   -1,360;    0,591
285,510; 1014,794;    0,640;   -0,318
286,106;  812,793;   -2,269;   -0,955
286,703;  579,551;   -0,360;    1,955
287,299;  531,444;   -1,451;   -0,591
287,895;  531,399;    0,822;   -1,045
288,491;  537,168;    0,186;    2,136
289,088;  699,451;   -2,360;    2,409
289,684;  785,744;   -1,723;    1,500
290,280;  971,806;    0,368;    0,682
290,876;  965,876;    1,822;    5,500
291,472;  874,678;    1,276;    2,227
292,068;  924,893;    1,367;    0,227
292,665;  795,898;    2,095;    0,773
293,261;  706,300;    0,276;    2,136
293,857;  991,251;    2,913;    2,136
294,453;  939,664;    3,550;    0,955
295,049; 1218,107;   -0,268;    1,955
295,644; 1069,479;    0,095;    0,136
296,240;  967,095;   -0,905;   -0,136
296,836; 1194,356;   -0,995;    0,318
297,432; 1409,668;    1,096;   -0,500
298,028; 1547,458;    0,732;    0,773
298,624; 1444,279;    1,459;    1,864
299,220; 1487,751;    2,368;    0,591
299,815; 1481,416;    1,005;   -0,409
300,411; 1623,744;    0,914;    1,773
301,007; 1816,354;    1,368;    0,227
301,602; 1675,152;   -0,541;   -2,318
302,198; 1849,762;    0,732;   -0,773
302,794; 1828,341;    1,187;   -0,500
303,389; 1887,810;   -1,177;    1,045
303,985; 2009,065;    0,550;    1,409
304,580; 2079,973;    1,459;    1,591
305,176; 2002,075;   -3,086;    0,136
305,771; 1918,786;   -1,268;   -1,227
306,367; 2304,605;    4,095;    0,136
306,962; 2172,788;    0,641;    1,500
307,558; 2048,997;   -0,450;    0,136
308,153; 2129,080;    1,095;   -1,136
308,748; 2045,111;   -0,814;    1,682
309,344; 2359,182;   -0,632;   -1,318
309,939; 2420,717;   -1,905;   -1,318
310,534; 2170,768;   -0,086;   -1,682
311,130; 2034,452;    0,459;   -2,500
311,725; 1865,126;    1,004;   -0,500
312,320; 1978,493;    2,459;    0,045
312,915; 2090,227;    1,459;   -1,045
313,510; 2261,435;    1,550;   -0,500
314,105; 2104,281;    1,096;    1,409
314,700; 1738,864;   -3,086;   -1,045
315,295; 1733,700;   -0,904;    0,045
315,890; 1539,051;    1,277;    0,864
316,485; 1636,863;   -0,359;   -0,318
317,080; 1583,161;   -3,086;    1,591
317,675; 1905,679;    2,005;   -0,682
318,270; 1976,421;    5,550;    3,318
318,865; 1877,780;    3,278;    3,045
319,460; 1613,211;   -0,904;    0,591
320,055; 1489,979;   -0,541;   -1,227
320,650; 1394,742;   -1,995;   -0,591
321,244; 1389,821;   -0,177;   -1,409
321,839; 1576,333;   -1,541;   -0,227
322,434; 1583,493;   -1,086;   -1,591
323,029; 1404,567;    1,732;    1,591
323,623; 1333,293;    1,550;    0,773
324,218; 1452,080;    2,368;    1,409
324,812; 1388,255;    1,096;    1,591
325,407; 1404,120;   -0,814;    2,045
326,002; 1486,006;    0,277;   -0,409
326,596; 1473,214;    0,914;    1,318
327,191; 1385,983;    0,823;   -1,045
327,785; 1303,486;   -0,813;   -0,227
328,379; 1468,742;    1,368;    0,136
328,974; 1465,592;    0,914;   -3,955
329,568; 1584,837;    0,186;   -2,409
330,163; 1666,154;    2,096;    1,045
330,757; 1656,299;    2,459;    1,591
331,351; 1572,007;    0,459;    0,682
331,945; 1671,064;    0,914;    1,409
332,540; 1820,194;   -1,723;   -0,591
333,134; 1854,458;   -1,086;    0,773
333,728; 1918,707;    0,005;    0,318
334,322; 2039,401;   -1,177;   -0,864
334,916; 1888,569;    0,277;    0,955
335,510; 2198,666;   -0,450;   -0,136
336,105; 2380,347;   -1,086;    1,591
336,699; 2273,117;   -1,086;    0,591
337,293; 2371,619;   -1,723;    0,318
337,887; 2449,615;   -2,723;    1,955
338,481; 2713,675;    0,459;    0,591
339,074; 3021,655;   -0,359;    2,682
339,668; 3044,964;   -1,632;    1,227
340,262; 3684,313;    1,732;    3,227
340,856; 3296,129;    1,822;   -0,682
341,450; 2984,685;    1,004;    1,864
342,044; 3495,709;    1,459;    0,136
342,637; 3577,451;    0,913;   -2,136
343,231; 3672,629;   -2,360;    0,682
343,825; 3657,748;   -1,086;   -0,591
344,419; 3827,546;   -1,995;    0,500
345,012; 4176,536;    2,459;    4,045
345,606; 4190,385;    4,641;    1,591
346,199; 4077,993;   -1,813;   -0,227
346,793; 4038,302;    1,914;    2,045
347,386; 4195,491;   -0,813;   -1,136
347,980; 4207,732;   -0,268;   -0,045
348,573; 4255,080;    2,278;    0,409
349,167; 4316,601;    5,278;    4,773
349,760; 4618,824;    2,914;    2,682
350,354; 4599,636;   -0,813;    1,136
350,947; 4533,493;    1,096;    1,682
351,540; 4378,516;   -0,358;   -1,409
352,134; 4336,946;    1,096;    1,136
352,727; 4469,800;   -0,086;    1,136
353,320; 4405,002;    0,005;    0,591
353,913; 4275,516;   -1,995;    1,864
354,507; 4524,812;    0,823;   -1,227
355,100; 4563,784;    0,460;    0,864
355,693; 4264,248;    2,005;    2,409
356,286; 4200,669;    0,823;    2,773
356,879; 4411,378;   -0,722;    1,227
357,472; 4156,879;   -0,904;    1,500
358,065; 4347,136;   -0,722;    2,500
358,658; 4269,374;   -0,540;    2,318
359,251; 4014,838;   -1,631;   -0,591
359,844; 3804,213;   -1,904;   -1,136
360,437; 3980,489;   -2,995;    0,045
361,030; 4090,351;    1,369;   -0,682
361,623; 3799,621;    2,824;    0,318
362,215; 3860,245;   -0,086;    2,045
362,808; 3717,455;   -2,358;   -1,682
363,401; 3799,006;   -2,449;    0,136
363,994; 3760,569;   -0,631;   -1,500
364,586; 3624,647;    0,824;   -1,500
365,179; 3691,777;   -0,449;   -1,136
365,772; 3315,426;   -1,995;    2,045
366,364; 3465,947;    1,915;   -3,227
366,957; 3666,459;    2,279;   -0,045
367,549; 3570,708;    2,188;   -0,864
368,142; 3387,046;    1,825;   -1,500
368,734; 3469,481;    0,734;   -2,136
369,327; 3425,665;    1,643;   -0,500
369,919; 3358,480;   -1,538;    0,409
370,512; 3306,015;   -1,083;   -0,500
371,104; 3211,219;   -0,901;    1,591
371,696; 3335,320;    1,191;   -0,955
372,289; 3292,177;    0,373;    1,136
372,881; 3329,436;   -2,080;    1,318
373,473; 3187,457;   -2,170;    1,136
374,066; 3119,737;   -0,169;    0,500
374,658; 3055,947;    0,378;    1,136
375,250; 3199,390;    0,653;   -1,409
375,842; 3126,334;    0,473;   -0,045
376,434; 3007,671;   -0,435;   -0,409
377,026; 3316,340;    0,204;   -2,500
377,618; 3226,274;   -0,158;   -0,682
378,210; 3105,434;   -0,338;   -1,955
378,802; 2958,116;    0,754;   -0,591
379,394; 3168,537;    1,846;    0,682
379,986; 3341,775;    1,393;   -0,955
380,578; 3339,249;   -0,153;    0,773
381,170; 3114,188;   -0,972;    0,045
381,762; 3019,426;    0,755;    1,409
382,354; 3058,910;   -0,065;   -1,318
382,945; 3085,805;   -2,976;    0,318
383,537; 3164,851;   -2,705;   -1,955
384,129; 3207,152;   -2,160;   -1,136
384,721; 3291,295;   -0,252;    0,955
385,312; 3196,599;   -0,161;   -0,955
385,904; 3355,155;   -2,706;    1,591
386,496; 2927,815;   -0,979;    1,045
387,087; 3063,348;    1,022;    2,500
387,679; 3026,668;   -1,160;    0,045
388,270; 3166,742;    2,840;    2,045
388,862; 3195,758;    1,295;   -0,318
389,453; 3009,075;   -0,887;    1,045
390,045; 3227,861;   -0,705;   -2,682
390,636; 3191,976;    0,204;   -0,591
391,227; 3070,589;   -0,523;   -0,045
391,819; 3179,759;    0,204;    0,773
392,410; 3274,112;    1,022;    0,045
393,001; 3227,748;   -0,979;   -1,591
393,593; 3345,577;    1,930;   -0,045
394,184; 3279,757;    1,385;   -0,409
394,775; 3095,884;    1,839;    2,136
395,366; 3286,867;    1,385;    0,773
395,957; 3271,062;    0,113;    0,136
396,548; 3404,729;   -0,342;    2,682
397,139; 3657,270;   -2,433;    0,591
397,730; 3425,644;   -1,888;    0,955
398,321; 3436,210;   -1,252;    0,955
398,912; 3409,643;   -0,615;    0,136
399,503; 3538,484;   -3,524;   -1,409
400,094; 3229,044;    0,294;    1,682
400,685; 3147,769;   -0,433;    0,045
401,276; 3100,913;    0,930;   -0,955
401,867; 3260,002;   -0,888;    0,773
402,458; 3290,599;   -2,251;   -2,318
403,048; 3328,671;    1,112;    0,591
403,639; 3029,708;    0,840;    0,864
404,230; 3342,076;    2,476;    0,318
404,821; 3301,484;   -0,615;    0,045
405,411; 3298,872;    1,203;   -2,591
406,002; 2992,803;   -1,252;   -1,136
406,592; 3065,465;    2,294;    0,045
407,183; 3103,196;    0,566;   -1,500
407,774; 2941,649;    3,475;   -0,136
408,364; 3054,393;    0,930;    0,409
408,954; 2927,867;    0,384;    1,227
409,545; 2910,762;    1,021;    1,045
410,135; 2580,802;    1,293;    0,500
410,726; 2602,340;    1,838;    0,318
411,316; 2847,595;    0,111;    0,773
411,906; 2559,638;   -0,253;   -0,409
412,497; 2319,043;   -1,070;   -0,045
413,087; 2495,570;   -1,980;   -0,227
413,677; 2598,553;   -0,707;    3,864
414,267; 2443,321;    0,656;    1,409
414,857; 2328,440;   -2,980;    4,227
415,448; 2408,535;    0,839;    0,500
416,038; 2250,135;    0,020;   -0,591
416,628; 2182,448;   -0,889;    0,409
417,218; 2099,755;    0,565;    3,318
417,808; 2211,601;    0,202;   -0,409
418,398; 2103,637;    0,020;    2,682
418,988; 1943,629;    2,020;    0,591
419,578; 1978,095;   -0,707;    1,409
420,168; 2059,375;   -1,343;   -0,955
420,757; 1989,294;   -1,343;   -1,500
421,347; 1679,459;    0,111;   -0,227
421,937; 1652,113;    2,292;    1,409
422,527; 1723,628;    0,838;   -0,773
423,116; 1766,392;   -0,253;   -0,045
423,706; 1525,148;   -1,889;    0,318
424,296; 1339,138;    1,384;    0,682
424,885; 1583,320;   -0,071;   -3,045
425,475; 1521,299;    1,474;   -2,864
426,065; 1320,595;   -0,980;   -0,318
426,654; 1225,031;   -0,435;   -0,318
427,244; 1540,077;    0,020;    1,409
427,833; 1386,954;    1,383;   -0,500
428,423; 1186,948;   -0,526;    1,136
429,012; 1262,528;   -0,344;   -1,136
429,601; 1294,717;   -1,344;    0,136
430,191; 1094,264;    1,292;    4,318
430,780;  867,835;   -0,344;   -0,409
431,369; 1171,903;    0,746;   -0,045
431,959; 1058,685;   -1,254;    0,500
432,548;  871,549;   -1,163;   -0,045
433,137;  746,787;   -1,254;   -1,318
433,726;  882,927;    0,292;    0,500
434,315;  811,210;   -0,526;    2,409
434,905;  934,428;   -1,254;    1,409
435,494;  957,821;    0,746;    0,955
436,083;  708,737;   -0,981;   -0,955
436,672;  756,974;    0,110;    0,500
437,261;  657,227;    0,292;   -1,955
437,850; 1010,330;    1,383;    0,682
438,439; 1040,925;    3,291;    1,955
439,027; 1127,508;    3,655;    1,773
439,616; 1030,088;    2,927;    1,227
440,205;  675,786;    0,200;   -2,136
440,794;  547,838;    2,109;   -0,045
441,383;  414,287;   -1,346;   -0,591
441,971;  312,904;   -2,436;    0,591
442,560;  322,775;    0,563;   -1,773
443,149;  184,122;    0,379;   -1,318
443,737;  245,798;   -0,074;   -2,318
444,326;  249,153;    0,018;    0,318
444,915;  296,525;   -1,982;    0,864
445,503;  287,383;   -2,891;   -0,318
446,092;  593,148;    0,382;    2,136
446,680;  503,218;    0,382;    0,318
447,269;  377,137;   -0,346;   -0,318
447,857;  322,594;    0,018;   -1,773
448,445;  246,294;    0,563;    1,318
449,034;  153,117;   -1,528;   -1,136
449,622;  146,394;   -1,073;    3,500
450,210;  488,958;    2,017;    2,227
450,799;  389,445;    0,290;   -0,591
451,387;  307,060;    1,381;   -0,591
451,975;  271,463;    2,654;    0,864
452,563;  349,438;    3,472;    2,318
453,151;  128,210;   -0,528;   -1,227
453,739;  183,733;   -1,347;    0,136
454,328;  297,095;    2,381;   -2,136
454,916;  216,838;    2,562;   -0,136
455,504;  224,527;    1,017;    1,227
456,092;   97,225;    0,017;   -1,591
456,679;   34,935;    1,472;    0,682
457,267;  481,573;    4,017;    1,045
457,855;  134,052;    1,017;    1,409
458,443;  -13,927;   -0,165;    1,682
459,031;  152,367;    0,108;    2,409
459,619;  102,002;   -1,801;    2,864
460,206;   -0,743;    0,835;    2,045
460,794;  -10,464;   -2,983;   -0,227
461,382;   45,708;   -0,529;   -0,864
461,970;   52,735;    1,198;    1,864
462,557;  -29,152;   -0,711;   -0,682
463,145;   87,765;   -3,165;   -1,682
463,732;  341,733;    2,016;   -1,045
464,320;  106,513;   -0,075;   -3,045
464,907;  250,984;    2,743;   -0,773
465,495;  154,994;    0,743;   -1,227
466,082;   73,440;   -1,984;   -0,045
466,670;   95,913;   -2,529;    1,227
467,257;  -15,950;   -1,711;    2,045
467,844;   94,124;   -0,075;    0,045
468,432;   69,447;    0,834;    3,500
469,019;   21,637;    0,925;   -1,773
469,606;  100,985;    0,470;    3,682
470,193;  137,667;   -1,439;    0,227
470,780;   93,954;   -2,075;    0,864
471,368;   19,706;   -1,257;   -0,773
471,955;  125,392;    1,379;   -0,682
472,542;   84,181;    0,652;   -1,136
473,129;  -25,340;   -0,166;    0,136
473,716;  -11,859;    1,470;    0,591
474,303;   16,878;    0,652;   -0,864
474,890;   17,765;   -1,439;   -0,500
475,477;  121,521;   -1,621;    0,409
476,064;   20,566;    1,106;   -1,591
476,650;  142,899;    0,288;    0,318
477,237;   49,444;   -0,258;    0,955
477,824;   29,777;   -1,076;    0,864
478,411;  -53,151;   -1,894;   -0,318
478,997;  -61,316;    0,560;   -0,773
479,584; -112,027;    1,196;   -0,409
480,171;   60,281;   -0,440;   -0,773
480,757;  125,984;    2,651;    0,773
481,344;   15,531;    0,469;    0,409
481,931;  -71,396;    1,105;    1,045
482,517;   55,900;   -1,258;    0,318
483,104;  141,669;    1,106;    2,864
483,690;    0,228;   -1,804;    0,045
484,276;  -17,183;   -0,895;    0,227
484,863;  202,757;    2,469;    1,136
485,449;   39,628;   -0,077;    0,318
486,035;   -7,321;   -1,986;   -0,136
486,622;   88,126;   -0,895;    0,045
487,208;   11,796;    1,378;    1,500
487,794;  -69,447;    0,741;    0,318
488,380;  -62,137;    0,105;   -1,409
488,967;  -55,955;   -1,168;   -0,409
489,553;  -45,089;   -1,895;   -1,409
490,139;   30,071;    1,559;    0,773
490,725;  -37,633;    0,741;   -0,227
491,311;    9,402;    3,287;    3,045
491,897;   -8,402;   -0,986;    1,500
492,483;  -10,242;    0,105;    1,227
493,069;  428,403;    3,923;    0,864
493,655;  141,251;    1,650;    0,682
494,241;   19,105;    1,377;   -0,955
494,826;   28,725;    0,287;   -1,045
495,412;   94,575;    2,559;   -0,682
495,998;   -7,915;   -0,805;   -0,318
496,584;   60,602;    0,377;    1,045
497,169;   77,440;    1,014;   -0,682
497,755;   14,485;    0,650;    1,227
498,341;  153,344;    0,559;    0,318
498,926;  272,932;    1,832;    1,955
499,512;    9,150;    1,286;    2,955
500,097;   20,537;    0,195;   -0,318
500,683;   44,118;   -0,350;    2,136
501,268;   -7,841;   -0,169;   -0,955
501,854;   14,274;   -0,169;    1,227
502,439;    9,859;   -0,624;   -1,773
503,024;   37,552;    0,195;    0,500
503,610;   69,116;   -0,078;   -0,682
504,195;    9,199;    0,558;    1,955
504,780;  122,269;    2,922;    1,227
505,366;  228,513;    3,013;    2,864
505,951;  170,035;    0,740;    1,045
506,536;  100,129;   -3,260;   -3,682
507,121;  193,196;    0,285;   -0,318
507,706;  156,483;    2,376;    1,045
508,291;  115,221;    2,649;    1,136
508,876;  161,055;   -0,988;    2,591
509,461;  296,502;   -0,169;   -0,773
510,046;  413,607;    0,194;    0,318
510,631;  472,800;   -0,351;   -0,773
511,216;  433,561;    2,467;   -0,500
511,801;  639,293;   -0,442;    2,591
512,386;  787,896;    0,740;    0,500
512,971;  945,209;   -2,988;    0,955
513,555; 1160,997;   -0,897;   -1,500
514,140; 1333,335;   -0,442;   -3,136
514,725; 1611,906;   -0,715;   -1,136
515,309; 1740,515;   -0,533;    0,318
515,894; 1858,569;   -0,624;   -2,227
516,479; 2242,161;   -0,624;   -0,955
517,063; 2438,574;    0,376;    1,227
517,648; 2835,411;    1,012;   -1,136
518,232; 2950,944;   -0,261;   -1,409
518,817; 3573,467;   -0,079;    1,682
519,401; 4179,498;    2,194;    0,591
519,985; 4192,279;    1,103;    1,136
520,570; 4522,394;    0,830;   -1,955
521,154; 5164,155;    2,102;    0,591
521,738; 5705,376;   -2,352;    2,409
522,323; 6572,763;   -0,170;    1,682
522,907; 6773,240;    0,466;   -0,136
523,491; 6981,708;    0,557;    0,955
524,075; 7391,049;    2,284;    0,591
524,659; 7883,547;    1,466;    0,591
525,243; 7857,143;    1,739;    0,409
525,827; 8413,022;    0,648;   -0,045
526,411; 9429,820;   -1,989;   -0,136
526,995; 9958,471;   -0,352;    1,409
527,579; 9934,644;   -0,443;   -1,045
528,163;10492,750;    0,375;   -1,500
528,747;10745,545;    2,466;   -0,773
529,331;11267,008;   -0,080;   -1,409
529,915;11672,882;    1,738;    0,955
530,499;11927,760;   -0,807;    1,227
531,082;11860,634;   -0,534;    1,591
531,666;11554,358;    1,374;    0,773
532,250;12341,886;    1,284;    2,682
532,833;12839,666;    0,920;    2,773
533,417;12859,071;   -1,807;    0,864
534,001;12979,010;    1,647;   -0,318
534,584;13788,230;    0,374;    0,500
535,168;13769,221;    0,465;    1,409
535,751;13938,758;    0,647;    0,045
536,334;13534,254;   -0,898;   -0,409
536,918;14194,181;    0,011;    1,591
537,501;14398,338;   -0,899;    1,318
538,085;14449,370;   -0,444;    1,045
538,668;14708,711;    0,829;    2,409
539,251;15107,234;    1,829;    3,773
539,834;15189,034;    0,101;    0,773
540,418;15169,014;   -1,990;    4,318
541,001;15326,036;   -0,990;    1,773
541,584;15376,496;    2,101;    2,227
542,167;15126,429;    1,374;    2,955
542,750;15295,411;    1,919;   -0,773
543,333;14939,897;    0,555;    2,136
543,916;15711,644;    0,192;    2,500
544,499;16369,659;   -1,354;    0,227
545,082;16465,369;    1,374;    3,591
545,665;16589,181;    1,919;    1,500
546,248;16956,261;    1,010;   -0,318
546,830;16652,205;   -0,445;    1,955
547,413;17092,554;    1,010;   -0,773
547,996;17637,764;    0,555;    0,500
548,579;17431,266;    0,919;    0,955
549,161;17229,521;    1,828;    2,682
549,744;17056,477;   -0,809;    0,409
550,326;17544,578;   -0,809;   -1,136
550,909;17382,884;    2,737;    0,591
551,492;17811,004;   -0,263;    0,227
552,074;17566,771;   -0,173;   -1,318
552,657;18153,108;    2,373;    0,045
553,239;17925,222;   -0,173;   -0,773
553,821;17823,401;   -1,082;    1,045
554,404;17369,253;    1,282;    1,136
554,986;17739,854;    0,464;    1,045
555,568;18383,059;    1,191;   -0,955
556,151;17581,764;    1,191;   -0,227
556,733;17762,013;   -0,264;   -0,864
557,315;18318,071;    0,100;    0,500
557,897;18127,202;    0,554;   -0,500
558,479;18185,789;   -1,991;    1,318
559,061;18335,111;   -0,719;   -0,864
559,643;18699,741;   -0,264;    0,045
560,225;19085,405;    1,645;    2,864
560,807;19132,286;    0,918;    0,318
561,389;18574,373;    0,554;    2,318
561,971;19377,641;    0,463;    2,136
562,553;19177,511;   -1,628;    1,591
563,135;19300,074;   -0,537;    1,136
563,717;18912,765;    3,372;    1,136
564,298;19638,934;    3,645;   -0,045
564,880;19356,739;    0,645;   -1,409
565,462;19580,376;    0,645;    1,318
566,043;20685,072;   -0,446;    2,318
566,625;20217,431;    1,918;    1,227
567,207;20098,151;    1,099;    1,682
567,788;21221,902;   -1,264;    1,500
568,370;22065,714;    1,917;   -0,500
568,951;21914,721;    0,190;    0,227
569,533;22781,324;   -0,628;   -0,500
570,114;23206,873;   -0,446;    0,682
570,695;23755,600;   -0,174;   -1,318
571,277;24251,201;   -0,265;   -1,682
571,858;25004,732;    2,008;   -1,136
572,439;25894,276;    1,554;   -1,045
573,021;26059,373;    2,099;   -2,773
573,602;26559,767;   -1,265;    0,318
574,183;27528,978;   -2,083;    2,227
574,764;27679,114;   -1,629;    0,409
575,345;28235,801;    0,917;   -0,136
575,926;28800,776;   -0,356;    0,136
576,507;28797,490;    1,099;   -0,227
577,088;29944,276;    3,099;    1,682
577,669;29940,060;    0,735;    1,955
578,250;30716,705;    0,644;   -1,045
578,831;31375,013;   -1,356;   -2,227
579,412;31639,401;   -0,810;    0,955
579,993;32558,656;    1,008;    0,227
580,573;32917,238;   -0,629;   -0,955
581,154;31842,187;    0,735;   -0,591
581,735;32724,569;    0,644;    0,773
582,315;32235,569;   -0,629;    2,136
582,896;32488,568;   -0,174;    1,227
583,477;31966,680;    0,189;    1,227
584,057;32171,170;    0,553;    0,955
584,638;32490,111;    2,553;    2,318
585,218;32465,160;   -0,538;    2,682
585,799;32582,337;    0,281;   -0,227
586,379;32628,458;    0,372;    1,591
586,959;31338,587;    0,735;    0,318
587,540;30659,813;   -0,629;    2,227
588,120;30224,884;    1,007;   -0,045
588,700;29228,900;    2,553;    2,136
589,281;29532,720;    0,462;   -0,955
589,861;29458,598;    0,099;   -1,682
590,441;29289,547;    2,371;   -2,682
591,021;28245,106;   -0,265;   -2,591
591,601;28532,003;   -0,537;    0,500
592,181;28506,561;   -0,719;   -0,773
592,761;27862,933;    0,007;    1,409
593,341;27765,187;   -0,901;    0,045
593,921;27677,971;   -0,265;    1,591
594,501;27597,073;   -0,538;    1,318
595,081;27408,994;    0,917;   -0,318
595,661;27818,559;   -1,447;    0,955
596,240;28361,307;   -0,537;    0,136
596,820;27998,432;    0,372;    1,955
597,400;28147,577;    2,008;    0,773
597,980;28340,756;    2,008;    1,045
598,559;28379,290;    2,735;   -0,227
599,139;28079,682;   -0,174;   -1,227
599,718;28027,682;   -0,174;   -0,409
600,298;28301,595;    0,735;    0,682
600,877;28471,134;    2,917;    1,409
601,457;28741,259;    2,281;    1,136
602,036;28695,543;    0,190;    2,045
602,616;28892,661;    0,644;    1,682
603,195;29224,527;   -0,355;    3,500
603,774;28773,250;   -0,901;    2,045
604,354;28673,319;    0,826;   -0,500
604,933;28126,898;    0,463;    1,864
605,512;28296,937;    3,554;    0,591
606,091;28364,826;   -0,537;    3,773
606,671;29197,050;    0,281;    0,773
607,250;28275,605;    1,644;    3,136
607,829;28544,043;    2,372;    3,227
608,408;28376,149;    1,190;    2,591
608,987;27397,550;    1,281;    3,409
609,566;27679,291;   -1,265;   -2,500
610,145;27779,173;   -1,082;    0,682
610,723;28147,041;    4,372;    6,864
611,302;27440,053;   -0,446;    1,682
611,881;26932,363;    5,008;   11,227
612,460;27814,618;    1,645;    3,955
613,039;28246,738;   -0,082;    2,045
613,617;26954,821;    1,736;    4,773
614,196;27197,013;    1,099;    1,227
614,775;27497,152;    1,009;    2,409
615,353;27428,160;    0,736;    0,864
615,932;27140,687;    0,100;    2,409
616,510;27705,965;    0,554;    0,591
617,089;27299,942;    7,100;   17,591
617,667;27043,783;    2,372;    6,136
618,246;26891,668;   -1,537;    1,318
618,824;27046,564;   -3,355;   -0,955
619,402;26599,659;   -2,900;   -1,773
619,981;27111,780;   -0,173;   -1,045
620,559;26955,161;    0,009;    1,682
621,137;26486,339;   -0,718;    1,864
621,715;26547,844;   -1,173;   -0,682
622,293;26435,212;   -0,537;   -0,773
622,871;26919,707;   -0,718;    0,500
623,450;26484,782;    0,373;   -0,864
624,028;26313,916;    0,191;   -0,955
624,606;25963,623;   -1,718;    1,682
625,183;26376,799;   -1,536;   -1,136
625,761;26008,976;    1,009;    1,136
626,339;26239,979;    1,373;    2,591
626,917;26700,787;   -0,172;   -0,045
627,495;26717,197;   -0,354;    1,318
628,073;26109,886;   -0,263;    2,864
628,650;25863,239;    0,100;    2,136
629,228;26315,341;    0,373;    4,409
629,806;25734,339;    2,282;    1,136
630,383;25962,864;    1,464;   -0,318
630,961;25737,553;    2,555;   -0,955
631,539;25491,823;    2,464;    0,227
632,116;24866,280;   11,373;   15,409
632,694;25458,510;    2,555;    6,500
633,271;25749,847;    0,828;    2,682
633,848;25643,822;    1,828;    2,045
634,426;25655,405;   -1,081;    1,773
635,003;24770,660;    1,101;   -0,409
635,580;25143,823;    1,192;    3,682
636,158;25709,649;    3,737;    1,227
636,735;25665,697;    0,555;   -0,500
637,312;25806,722;   -0,809;   -0,682
637,889;25894,623;   -4,354;   -0,682
638,466;25357,523;   -3,990;   -0,409
639,043;25386,874;    2,101;   -1,136
639,620;25682,928;   -2,262;   -0,955
640,197;26011,894;    1,100;    1,682
640,774;26121,224;   -0,172;    1,136
641,351;26518,644;    0,737;    1,136
641,928;25935,065;   -0,627;    1,409
642,505;25616,667;    0,828;   -0,500
643,082;25715,360;   -1,718;    1,227
643,658;24785,599;   -0,718;    1,500
644,235;25517,929;    1,191;    2,500
644,812;25855,349;    1,918;    0,773
645,388;25560,770;   -0,991;    1,409
645,965;25673,190;   -0,809;    1,682
646,542;25722,247;   -1,445;   -0,227
647,118;25690,577;    1,009;   -0,955
647,695;25976,452;   -0,263;    1,136
648,271;25862,872;   -0,536;    0,500
648,848;26224,747;    0,736;    2,227
649,424;26076,713;    0,827;    1,318
650,000;25851,225;   -0,354;   -1,045
650,577;25645,372;   -0,627;   -0,955
651,153;26108,611;   -1,809;    0,955
651,729;27146,123;    1,191;    0,864
652,305;27451,634;    0,645;    2,773
652,881;32096,418;   -0,082;    1,136
653,458;39015,475;    1,100;    0,227
654,034;42773,532;    0,282;    1,591
654,610;44208,043;    0,554;    0,773
655,186;45519,736;    0,645;    3,045
655,762;45233,157;   -0,991;    0,409
656,338;45191,487;    0,100;    0,136
656,913;46151,816;   -0,082;    0,409
657,489;45348,964;    0,827;   -0,318
658,065;45280,384;   -0,173;   -1,591
658,641;45985,987;   -0,900;   -0,864
659,217;45215,862;   -0,991;    0,409
659,792;44641,191;    0,645;   -0,409
660,368;44857,066;   -2,173;   -0,682
660,944;44424,760;   -2,082;    1,227
661,519;39745,271;   -0,628;    0,409
662,095;33735,237;   -1,719;    0,591
662,670;29233,385;    1,281;   -0,136
663,246;28085,169;    1,009;   -0,409
663,821;27413,408;    0,281;    1,682
664,396;26898,919;    0,009;    1,864
664,972;27184,067;    0,009;   -0,500
665,547;27481,669;    1,372;    0,136
666,122;27456,726;   -1,082;    0,318
666,698;27774,419;   -0,173;    0,318
667,273;27182,931;   -0,173;    0,136
667,848;27980,715;    2,372;    1,500
668,423;27740,590;    2,190;    2,318
668,998;28302,192;    2,827;   -0,682
669,573;28841,431;   -3,264;   -1,500
670,148;28733,579;   -1,446;   -0,682
670,723;28505,181;   -1,810;    0,318
671,298;28888,238;    2,372;    1,045
671,873;29038,022;   -0,082;   -0,136
672,448;28979,988;    0,645;    0,136
673,023;29369,318;   -1,992;   -0,227
673,597;29672,920;    0,827;    2,318
674,172;29433,068;   -0,355;    0,318
674,747;28930,488;    0,372;   -1,045
675,321;28746,272;   -0,628;    3,318
675,896;28272,420;    0,645;    1,045
676,471;29286,750;    2,645;    1,591
677,045;29072,988;   -1,264;    0,682
677,620;29164,954;    0,190;    1,136
678,194;29447,102;   -2,628;    1,136
678,769;29009,068;   -1,083;   -0,318
679,343;29267,034;   -0,628;    1,773
679,917;29139,000;   -1,446;    1,955
680,492;29248,148;    0,826;    3,227
681,066;29368,568;    3,372;    0,409
681,640;29383,080;    1,463;   -0,318
682,214;30247,409;    0,735;    0,500
682,788;29805,375;   -1,356;   -0,773
683,363;29736,341;   -1,810;    1,682
683,937;29425,307;   -1,719;   -0,318
684,511;30178,728;    0,463;   -0,591
685,085;29889,421;   -1,356;    0,318
685,659;29644,750;   -2,538;    0,864
686,232;29883,171;   -0,356;   -0,318
686,806;29611,864;   -0,901;    0,409
687,380;30273,830;   -0,174;    0,591
687,954;30476,796;   -1,174;    1,136
688,528;30084,217;   -0,719;    1,955
689,101;30863,546;   -3,992;    1,045
689,675;30489,149;   -0,356;   -0,136
690,249;29881,115;   -0,719;    0,409
690,822;30186,808;    0,280;    0,318
691,396;30303,956;   -0,265;    1,227
691,969;29756,649;    1,280;    0,136
692,543;30207,433;   -0,447;   -1,955
693,116;29824,581;   -0,265;   -1,409
693,690;29681,274;    0,099;    0,500
694,263;30276,603;   -1,083;    2,955
694,836;30346,115;    1,371;    3,591
695,410;28989,172;   -0,265;    1,773
695,983;29478,592;    0,189;    0,591
696,556;29412,104;   -0,447;   -1,045
697,129;29770,615;   -0,356;    1,409
697,703;29406,854;   -1,629;    1,955
698,276;29412,729;    1,462;   -0,773
698,849;29241,786;    1,280;    1,409
699,422;29597,843;   -1,083;    0,591
699,995;29305,354;    0,007;    0,136
700,568;29829,593;   -0,629;    3,045
701,140;29858,013;   -2,811;    1,682
701,713;29537,888;   -0,174;    2,409
702,286;29286,581;   -0,538;    0,864
702,859;29205,275;   -0,902;   -0,591
703,432;28378,059;    0,825;    0,682
704,004;28847,388;    0,462;    0,318
704,577;28701,354;   -0,629;    0,136
705,150;29298,139;    0,189;    2,500
705,722;29080,014;   -0,356;   -3,227
706,295;28852,980;   -0,175;   -0,591
706,867;28727,673;   -0,175;    1,955
707,440;28924,184;   -1,720;   -0,409
708,012;29193,605;    0,462;    0,591
708,584;29095,662;    2,462;    0,227
709,157;29360,173;    1,825;   -0,591
709,729;28992,866;    2,280;    2,045
710,301;29860,378;    0,734;    0,045
710,874;29904,253;   -1,447;   -0,227
711,446;28727,128;    0,371;    0,864
712,018;28628,821;    0,098;    0,500
712,590;28391,605;   -1,993;    1,682
713,162;28883,935;    0,825;    1,318
713,734;29115,355;    1,825;   -2,045
714,306;29094,321;   -1,902;   -0,409
714,878;27779,014;    0,825;    0,864
715,450;28563,253;    0,643;    0,864
716,022;28810,764;    1,552;    1,318
716,593;28954,094;    0,189;    0,591
717,165;28886,605;   -3,175;   -1,227
717,737;28582,662;    0,280;    0,409
718,309;28263,901;    0,280;   -0,045
718,880;28223,412;   -0,539;   -1,409
719,452;28410,560;   -0,175;   -1,591
720,024;28039,344;    0,734;   -0,591
720,595;28586,310;   -2,902;    0,955
721,167;28152,549;    0,370;   -2,045
721,738;27688,515;   -0,812;   -1,045
722,309;27639,481;   -0,993;   -1,227
722,881;27445,538;   -1,357;    0,773
723,452;28079,686;   -2,630;    2,864
724,023;28172,379;   -0,721;    2,682
724,595;27978,436;    0,007;    0,682
725,166;27746,856;    0,007;   -0,409
725,737;27418,549;    1,734;    0,227
726,308;27477,788;   -0,266;    0,318
726,879;27936,118;   -1,630;    1,227
727,450;27786,993;    0,552;   -0,045
728,021;27729,686;    3,097;    0,682
728,592;27572,197;    0,734;    0,500
729,163;27874,345;    0,643;   -0,136
729,734;27905,766;    0,188;   -0,227
730,305;28265,823;    1,734;    0,136
730,876;28602,879;    0,188;    2,955
731,447;28342,300;    2,188;    2,682
732,017;28424,084;    1,097;    1,864
732,588;27859,777;    0,734;    1,227
733,159;28083,470;    0,643;   -1,045
733,729;27885,527;    0,006;    0,409
734,300;27228,584;    0,915;    0,864
734,870;27559,641;    3,461;    0,591
735,441;28163,153;    0,370;   -0,591
736,011;27985,300;    0,643;   -1,591
736,582;27926,721;   -0,812;    0,045
737,152;27404,778;   -1,721;   -2,045
737,722;27785,198;   -0,267;   -0,682
738,293;27531,891;   -1,358;    1,318
738,863;27389,130;    2,461;    2,318
739,433;27221,823;    5,279;    0,318
740,003;27810,971;   -0,994;   -0,682
740,573;27230,392;    2,097;   -1,591
741,143;27171,903;   -1,085;    0,318
741,713;27948,596;    1,188;   -0,500
742,283;27635,199;    0,915;    1,591
742,853;27465,255;    1,915;    1,591
743,423;26900,130;    1,733;    0,045
743,993;27019,824;   -0,358;    1,500
744,563;26399,244;    0,097;   -0,864
745,133;26361,665;   -0,812;   -0,864
745,702;27000,358;   -0,267;    1,773
746,272;26258,778;   -0,176;    0,591
746,842;26044,290;   -1,358;   -0,591
747,411;26478,074;   -0,267;   -0,318
747,981;26651,131;    0,097;    0,500
748,551;26704,733;    2,278;   -1,045
749,120;26566,336;    0,642;   -0,227
749,690;26936,665;   -0,631;    2,409
750,259;27219,722;    1,369;    2,955
750,828;27138,052;    1,551;   -1,955
751,398;27386,381;    1,278;   -0,045
751,967;26891,256;    2,187;    0,409
752,536;27080,040;   -0,813;   -0,227
753,105;27541,552;    0,096;    0,227
753,675;27369,336;    0,096;    1,773
754,244;27246,211;   -0,904;    3,591
754,813;27331,450;    0,551;    1,227
755,382;26942,870;    0,460;    0,955
755,951;27484,836;    1,551;    3,682
756,520;26982,984;   -0,085;    1,864
757,089;27591,950;    0,278;    0,500
757,658;27732,643;    1,733;    1,227
758,227;27748,336;    1,096;    0,318
758,795;28050,393;    1,187;    1,136
759,364;28295,086;   -0,086;   -0,591
759,933;27258,416;   -1,176;   -0,045
760,501;26830,655;    0,733;   -1,318
761,070;27313,348;   -2,813;   -1,409
761,639;27951,314;   -1,904;    1,318
762,207;27343,825;    1,551;   -0,955
762,776;27238,337;    0,369;    0,864
763,344;27160,121;   -0,995;    0,591
763,913;26263,450;   -0,722;    1,409
764,481;27048,416;    1,005;   -0,136
765,049;26832,019;   -1,358;    1,409
765,618;26735,076;   -0,086;    0,318
766,186;26772,042;    0,278;    0,136
766,754;26939,371;    0,005;    1,864
767,322;25971,973;   -1,995;    0,409
767,890;25984,667;   -0,722;   -1,773
768,459;26409,360;   -2,177;   -0,318
769,027;26570,871;    1,641;    3,409
769,595;25531,474;    3,278;    2,591
770,163;25971,167;    3,823;    2,955
770,730;25741,133;    0,732;   -0,136
771,298;25535,372;    0,187;   -1,409
771,866;25618,701;   -1,541;    4,955
772,434;25995,576;   -0,631;   -1,864
773,002;26157,542;    0,005;    0,682
773,569;25799,872;    0,914;    1,682
774,137;25620,656;   -0,268;   -0,045
774,705;26410,895;    0,278;   -0,136
775,272;25900,861;    0,641;    0,682
775,840;25609,372;   -0,177;    2,682
776,407;25183,520;    0,277;    1,955
776,975;24749,667;   -0,632;    0,318
777,542;25731,724;   -1,086;   -0,045
778,110;25570,418;   -1,268;   -0,045
778,677;25270,202;   -2,359;   -0,864
779,244;25037,259;    2,186;    1,045
779,812;25164,588;    1,823;    0,864
780,379;24998,009;    0,005;    1,136
780,946;25252,702;    1,005;   -0,773
781,513;25560,759;   -1,450;    0,318
782,080;24938,088;   -0,086;    2,864
782,647;25698,327;   -0,268;    3,045
783,214;25287,657;   -0,177;    3,864
783,781;24934,623;   -0,723;   -0,682
784,348;24761,952;   -0,632;    1,500
784,915;25243,464;   -3,177;    0,318
785,482;24995,157;    1,368;    2,591
786,049;25382,032;    0,186;   -0,591
786,615;25562,089;    0,277;   -0,955
787,182;25266,691;    0,186;   -0,682
787,749;24961,384;   -2,814;    1,409
788,315;24307,441;   -1,632;   -0,409
788,882;24642,134;    1,550;   -1,227
789,448;25297,009;    1,732;   -0,955
790,015;25307,794;    1,095;    3,227
790,581;24852,214;    1,459;    0,227
791,148;24796,544;    0,641;    1,045
791,714;25049,873;   -0,541;    3,136
792,280;24675,294;    0,186;    1,591
792,847;24197,442;    0,550;    2,500
793,413;24781,498;   -0,269;   -0,318
793,979;24287,283;    3,459;   -1,318
794,545;24437,067;    4,459;    2,682
795,111;23827,033;    2,186;    1,318
795,678;23966,090;    0,731;   -1,682
796,244;23595,056;    3,368;    0,136
796,810;24201,385;    1,731;    0,773
797,375;23887,987;    0,549;   -2,136
797,941;23907,681;   -0,541;    0,591
798,507;24062,919;   -0,451;   -0,955
799,073;23610,431;   -0,360;    0,591
799,639;23682,669;   -2,632;    3,136
800,205;23713,999;    0,095;    2,682
800,770;23232,965;    0,640;    1,773
801,336;23384,658;    1,368;   -0,955
801,901;23068,170;    4,549;    3,136
802,467;23603,863;   -0,542;    2,045
803,033;22898,465;   -0,087;    0,864
803,598;23140,795;    1,913;   -1,045
804,163;23175,579;    1,095;   -0,318
804,729;23134,545;   -0,178;    1,136
805,294;23546,147;    0,822;    2,227
805,859;23309,931;    0,731;   -0,409
806,425;22770,261;    1,186;    2,682
806,990;22454,318;    2,186;    4,318
807,555;22980,284;   -1,451;    2,591
808,120;22886,068;    0,822;   -0,409
808,685;22885,761;    0,185;   -2,500
809,250;22375,727;    0,004;   -0,500
809,815;22731,148;    1,913;    0,682
810,380;23243,114;   -0,269;    1,591
810,945;23835,443;   -1,087;    2,045
811,510;22937,955;    2,094;    1,591
812,075;22668,739;   -0,633;   -1,409
812,640;22729,068;    2,003;    1,409
813,204;22805,580;    0,822;   -0,227
813,769;23282,364;    2,094;   -0,045
814,334;22665,057;    0,458;    0,864
814,898;22704,569;    0,367;    0,591
815,463;22569,262;    1,276;   -0,773
816,027;22554,773;   -0,724;   -2,318
816,592;22635,830;    0,640;   -2,045
817,156;22180,523;    2,094;    1,136
817,721;22018,217;    4,276;    2,318
818,285;21927,819;    2,912;    1,500
818,849;22580,239;   -1,451;    1,682
819,414;22465,296;   -0,269;    2,955
819,978;22078,262;   -1,269;    1,773
820,542;22673,410;    2,003;    0,500
821,106;22385,830;   -0,815;    0,682
821,670;22461,433;   -0,815;    2,591
822,234;22207,217;   -0,270;    1,409
822,798;21613,365;    0,003;    0,500
823,362;21558,149;   -0,633;    4,227
823,926;20841,751;    0,094;    1,136
824,490;21109,535;   -0,997;   -0,682
825,054;21531,229;   -0,088;   -1,136
825,618;21156,467;   -1,542;   -1,500
826,181;21122,160;    0,458;   -1,318
826,745;21012,035;    1,367;   -1,045
827,309;21346,638;    1,185;    1,318
827,872;20732,786;    1,367;    0,955
828,436;21706,570;    1,185;   -0,773
828,999;21731,263;   -0,997;    1,227
829,563;20566,956;   -0,179;    1,136
830,126;20371,740;   -0,179;   -0,591
830,690;20400,161;   -1,997;    2,864
831,253;19930,854;   -0,543;    2,227
831,816;20076,456;   -1,906;    0,500
832,380;19981,331;    0,185;    0,864
832,943;20184,116;   -1,361;   -0,500
833,506;19667,263;    2,639;   -1,227
834,069;20441,866;    3,912;   -0,955
834,632;20536,923;    1,730;    1,318
835,195;20440,707;    1,003;    0,955
835,758;19614,854;   -0,997;    1,955
836,321;19456,275;    0,730;   -1,045
836,884;19582,605;   -0,725;   -0,955
837,447;19622,025;   -2,816;    1,773
838,010;19896,446;    0,366;    3,227
838,573;20171,866;   -1,179;    0,773
839,135;20092,923;   -1,361;   -0,955
839,698;19556,616;    1,275;    0,409
840,261;19113,582;    1,003;   -0,227
840,823;18922,912;   -0,543;    0,864
841,386;19191,969;   -0,452;   -2,409
841,948;19050,298;   -1,361;    1,773
842,511;18811,446;    0,912;    1,682
843,073;18991,412;    1,912;    0,227
843,636;18774,287;   -0,361;   -0,227
844,198;18735,889;    0,911;    0,591
844,760;18864,855;    1,093;    1,955
845,322;18504,821;    0,548;    1,136
845,885;18948,060;    0,730;    0,591
846,447;19359,662;   -1,998;    0,227
847,009;18909,719;    1,911;   -0,682
847,571;19279,958;    0,820;   -2,045
848,133;19398,560;   -1,089;   -1,864
848,695;19210,162;   -0,543;    1,409
849,257;18745,128;   -1,089;   -1,682
849,819;18904,913;   -0,998;   -0,409
850,381;18972,969;   -0,725;   -0,864
850,942;19336,663;    1,093;   -0,591
851,504;19308,810;    1,184;    0,227
852,066;19309,231;    1,275;   -1,591
852,628;18827,470;   -0,180;    1,955
853,189;18397,981;    1,638;    2,682
853,751;18530,129;   -0,907;    1,409
854,312;18320,004;   -0,453;   -1,682
854,874;18804,061;   -2,089;   -0,773
855,435;19300,936;   -0,907;   -1,682
855,997;19486,811;   -1,816;   -0,136
856,558;18825,595;    0,366;    1,773
857,119;18905,743;    0,820;    2,864
857,681;18578,800;    0,002;    0,318
858,242;18627,675;    1,911;   -2,136
858,803;19040,368;    0,456;   -0,773
859,364;19619,697;    0,184;   -4,773
859,925;18929,573;   -2,453;   -0,955
860,486;18830,084;   -0,453;   -0,955
861,047;18533,595;   -0,544;   -1,227
861,608;18366,470;   -1,089;   -0,773
862,169;18518,255;    0,638;   -0,045
862,730;18273,220;    0,456;    1,409
863,291;18501,732;   -0,635;   -0,500
863,852;18868,061;   -0,635;    1,955
864,412;18323,573;   -0,271;   -0,864
864,973;16928,357;   -0,089;    0,500
865,534;16798,596;   -1,726;    0,227
866,094;18303,925;    1,820;    0,227
866,655;17940,709;    1,274;    3,318
867,215;18199,130;    0,274;    0,136
867,776;18053,823;    0,547;   -0,136
868,336;18170,244;   -1,453;    0,136
868,897;17677,573;    2,638;    1,682
869,457;17400,994;    1,365;    0,318
870,017;17612,687;    0,547;   -1,227
870,578;18131,653;   -0,817;    0,773
871,138;17811,074;   -2,089;   -0,955
871,698;17334,858;   -0,817;   -1,318
872,258;17226,460;   -0,453;   -2,864
872,818;17617,517;    2,729;    0,045
873,378;17594,483;    0,638;    1,045
873,938;17141,176;    0,547;    0,500
874,498;17477,869;    0,274;   -1,955
875,058;17370,926;    2,183;    1,773
875,618;17219,892;    1,910;   -2,682
876,177;17167,222;    1,274;    0,136
876,737;16801,188;   -0,090;    1,955
877,297;16811,335;    0,183;    1,955
877,856;16805,574;   -0,362;    0,318
878,416;16710,813;    1,183;   -0,136
878,976;16945,688;   -1,817;    0,409
879,535;17137,927;    0,092;    3,136
880,095;16846,529;   -0,544;    0,045
880,654;16993,495;   -1,090;    1,318
881,213;17081,733;    2,456;    1,500
881,773;16725,245;    2,637;    2,682
882,332;17081,847;    3,365;    5,136
882,891;16913,450;    3,092;    2,136
883,451;17390,325;   -1,272;    1,682
884,010;16816,563;   -2,908;   -0,409
884,569;16887,438;   -0,999;   -0,045
885,128;17036,222;    2,819;   -1,864
885,687;17147,643;    4,455;    0,682
886,246;16836,518;    1,455;    2,136
886,805;16564,393;    2,455;    2,045
887,364;16872,541;   -0,999;   -0,500
887,922;17260,870;   -1,181;    0,045
888,481;16809,109;   -1,545;    0,591
889,040;17063,348;    1,183;    2,136
889,599;17730,223;    2,455;    1,409
890,157;17809,916;    1,455;    2,409
890,716;17478,428;   -0,090;    0,227
891,274;17276,030;    0,092;   -1,136
891,833;17720,269;    1,546;    0,864
892,391;17599,507;   -0,454;    0,500
892,950;17699,110;    1,819;   -0,773
893,508;18077,621;    0,455;   -0,409
894,067;17410,314;    0,637;    0,136
894,625;17255,916;   -0,636;   -1,500
895,183;17520,701;   -0,363;   -0,682
895,741;17376,848;    1,728;   -1,773
896,299;17242,269;   -0,545;   -2,409
896,858;17395,599;    0,819;   -1,591
897,416;17541,383;    2,728;   -1,318
897,974;17279,076;    1,819;    0,318
898,532;17413,042;    6,091;    2,682
899,089;17327,644;    2,091;   -0,682
899,647;17410,428;   -1,454;    1,318
900,205;17093,303;    1,182;    1,045
900,763;17302,997;   -0,454;    0,227
901,321;17300,144;    2,364;   -1,409
901,878;16699,565;   -1,000;   -0,773
902,436;16585,804;   -1,363;    1,318
902,994;16967,133;    4,728;    3,682
903,551;16433,917;    0,728;    0,409
904,109;16872,065;    0,182;   -1,409
904,666;16402,031;    2,455;    1,045
905,224;16212,815;    0,182;   -0,409
905,781;15980,145;    0,727;   -0,318
906,338;16024,383;   -1,363;    1,045
906,895;15996,440;    0,637;    2,045
907,453;15900,406;    1,727;    1,136
908,010;15981,099;   -0,909;    0,409
908,567;15613,520;    1,273;    0,591
909,124;15092,122;    0,364;   -1,500
909,681;15186,361;   -2,909;    0,682
910,238;15343,600;    0,636;   -1,318
910,795;15660,384;   -0,273;   -1,136
911,352;15262,566;   -2,909;   -2,682
911,909;14673,838;   -1,364;   -0,864
912,466;15160,747;   -3,182;    1,500
913,022;14723,929;   -1,636;    0,500
913,579;15090,566;   -0,909;    2,045
914,136;14749,838;    1,636;    0,955
914,692;15077,475;    0,091;   -1,227
915,249;14700,929;    1,455;    0,409
915,806;14920,293;    0,182;    1,955
916,362;14654,475;    1,909;    1,864
916,918;14232,747;    2,000;    1,045
917,475;14211,566;   -1,182;    0,955
918,031;14236,475;    3,364;   -0,045
918,587;13718,747;   -0,909;   -0,318
919,144;13944,111;   -2,273;    0,227
919,700;14265,293;    1,727;    0,773
920,256;13828,384;    0,727;    0,045
920,812;13472,202;   -0,727;   -1,045
921,368;13475,293;   -1,727;   -1,045
921,924;13099,202;    0,182;   -0,136
922,480;12683,566;   -0,545;    1,227
923,036;13291,566;    1,273;    1,955
923,592;13195,020;    0,455;    0,318
924,148;13105,384;    0,455;   -0,955
924,704;12420,202;   -1,364;   -0,409
925,259;12717,838;   -0,273;    0,591
925,815;12475,929;    1,455;    0,500
926,371;11987,111;    2,909;    1,409
926,926;11864,202;    2,091;    0,591
927,482;11514,657;   -1,364;    0,773
928,037;11396,384;    0,909;    2,045
928,593;11686,838;    1,636;    1,045
929,148;11494,202;   -1,818;   -1,500
929,704;11005,475;   -1,455;   -0,500
930,259;11215,020;    0,091;   -0,136
930,814;10273,293;   -0,818;    1,955
931,369; 9968,838;    1,091;   -0,773
931,925; 9856,111;   -0,091;    0,136
932,480; 9748,747;   -2,818;   -2,591
933,035; 9624,838;    0,545;   -0,318
933,590; 9398,929;    0,364;   -1,773
934,145; 9049,293;   -1,364;   -0,318
934,700; 9385,929;    0,455;   -0,591
935,255; 9177,111;   -0,091;    0,045
935,809; 8473,566;    3,182;    0,864
936,364; 7582,020;   -0,455;   -0,136
936,919; 7557,838;    0,455;   -1,773
937,474; 7439,384;    1,455;    0,136
938,028; 7200,293;   -1,636;    1,136
938,583; 6664,202;    1,818;    4,682
939,138; 6925,838;    2,091;    2,136
939,692; 6368,111;    1,636;   -1,136
940,247; 6075,384;   -0,727;   -1,045
940,801; 5634,657;   -0,636;    0,227
941,355; 5492,384;   -0,364;    2,591
941,910; 5144,566;   -0,273;   -2,136
942,464; 5262,838;   -0,818;   -0,318
943,018; 5066,838;    1,000;   -0,227
943,572; 5009,838;    2,545;   -0,682
944,126; 4405,202;    0,091;   -0,409
944,681; 4301,111;    3,091;    0,227
945,235; 4282,566;    1,000;   -0,591
945,789; 4222,020;    0,364;   -1,864
946,342; 4311,111;    0,455;   -0,591
946,896; 4134,293;   -2,273;    0,955
947,450; 3876,747;    1,545;   -0,227
948,004; 4076,475;    1,727;   -0,045
948,558; 4085,111;    0,273;   -0,864
949,111; 3993,566;   -0,273;   -0,318
949,665; 4031,838;    1,636;   -0,682
950,219; 3892,838;   -0,091;   -1,045
950,772; 3991,202;   -1,909;    1,864
951,326; 3881,747;    0,545;   -0,955
951,879; 3984,384;    0,727;   -2,318
952,433; 4006,566;    0,000;    2,227
952,986; 3849,111;    2,909;    0,682
953,539; 3815,929;   -0,273;    0,591
954,093; 3742,111;    0,545;   -1,318
954,646; 3863,657;    0,909;    1,318
955,199; 3690,657;    0,000;   -0,500
955,752; 3579,202;   -0,455;    1,773
956,305; 3520,657;   -0,091;    2,955
956,858; 3684,202;    0,818;   -0,318
957,411; 3851,747;   -0,545;    2,136
957,964; 3687,293;    1,364;    2,136
958,517; 3674,384;   -1,545;    3,136
959,070; 3513,020;   -0,455;    1,955
959,623; 3603,020;    1,091;    1,500
960,176; 3376,566;    1,727;    2,045
960,728; 3337,475;   -2,727;    0,773
961,281; 3393,747;    0,545;    0,500
961,834; 3431,111;   -0,909;    0,864
962,386; 3348,020;    1,727;    1,045
962,939; 3265,747;    0,364;   -0,318
963,491; 3433,475;    0,455;    1,136
964,043; 3311,384;    1,182;    2,409
964,596; 3431,929;   -1,000;    2,227
965,148; 3259,566;   -1,000;    1,773
965,700; 3168,929;    1,091;   -0,227
966,253; 3317,566;   -0,636;    0,318
966,805; 3163,838;   -2,273;    0,773
967,357; 3194,202;    1,091;   -1,500
967,909; 3165,202;    0,455;   -1,227
968,461; 3287,838;    0,545;    3,136
969,013; 3223,657;   -0,182;   -0,864
969,565; 3295,657;   -0,455;   -1,136
970,117; 3342,020;   -0,364;    1,045
970,669; 3183,475;    0,182;   -0,136
971,220; 3043,838;   -0,455;   -1,500
971,772; 2967,020;   -0,636;   -0,318
972,324; 3095,202;    0,091;   -0,500
972,876; 3048,657;    0,818;   -0,045
973,427; 3183,566;    1,909;   -1,045
973,979; 3162,475;   -0,727;   -2,500
974,530; 3177,202;    1,818;    1,318
975,082; 3176,020;   -0,545;    1,682
975,633; 3063,747;    1,091;    1,682
976,184; 3226,384;    0,909;    0,773
976,736; 3021,929;    0,091;    0,227
977,287; 2816,111;   -0,909;   -0,500
977,838; 2986,566;    0,909;   -0,318
978,389; 3042,202;   -1,000;   -0,500
978,940; 2919,020;    0,545;   -0,409
979,491; 2963,929;    0,091;   -0,500
980,042; 2918,566;    0,182;    3,045
980,593; 2974,657;   -2,545;    0,227
981,144; 3010,202;    2,545;   -0,500
981,695; 2972,293;    1,455;    1,500
982,246; 2948,384;   -0,273;    1,045
982,797; 3103,566;   -1,727;    0,682
983,347; 3216,838;    0,364;    0,591
983,898; 3374,566;    3,091;    0,409
984,449; 3194,020;    2,182;    0,773
984,999; 3104,475;    1,455;   -1,136
985,550; 2886,111;    0,182;   -0,318
986,100; 2919,657;   -0,455;   -0,318
986,651; 2956,838;   -0,818;    0,045
987,201; 2931,384;   -1,000;   -0,591
987,751; 3003,384;    0,818;    2,864
988,302; 2999,475;    2,636;    1,500
988,852; 3024,929;    0,455;   -1,136
989,402; 3059,384;    0,091;    0,682
989,952; 2976,747;   -2,182;    0,864
990,502; 3083,111;   -0,091;    0,682
991,052; 3042,747;   -0,727;    0,045
991,602; 2910,657;   -2,909;    1,318
992,152; 2887,111;    0,455;    0,682
992,702; 2864,929;    1,364;   -0,045
993,252; 2812,384;   -3,000;   -0,500
993,802; 2912,111;   -0,273;    1,318
994,352; 3143,202;   -1,545;    1,136
994,901; 3220,566;   -0,182;    3,227
995,451; 3139,475;   -0,182;    0,318
996,000; 3234,838;    1,636;    0,318
996,550; 2948,566;    2,273;    0,227
997,100; 2944,838;    1,273;   -0,045
997,649; 3217,202;    2,182;    0,955
998,198; 2850,111;    1,727;   -1,500
998,748; 3059,747;    1,091;   -2,318
999,297; 2972,747;   -0,818;   -0,409
999,846; 3014,384;    1,000;   -0,773
1000,395; 3055,657;   -0,818;    0,500
1000,945; 3005,384;    1,818;   -0,773
1001,494; 3116,747;    2,364;    0,682
1002,043; 3094,929;    4,636;    0,864
1002,592; 2926,566;   -1,091;    1,955
1003,141; 3084,384;   -0,455;   -0,682
1003,690; 2944,747;    1,727;    0,500
1004,238; 3032,111;    1,455;   -0,045
1004,787; 2671,020;    1,364;    1,227
1005,336; 2905,566;    0,364;    0,682
1005,885; 3032,566;    1,364;   -2,773
1006,433; 3171,657;    0,545;    0,955
1006,982; 3229,202;    0,455;    1,682
1007,531; 3140,657;   -1,818;   -0,227
1008,079; 3097,293;   -2,273;    0,500
1008,627; 3226,657;   -1,455;    0,409
1009,176; 2974,111;    0,000;   -1,955
1009,724; 3022,747;    1,091;    0,864
1010,273; 3084,475;    1,273;    0,500
1010,821; 3173,929;    0,091;    1,409
1011,369; 2905,111;   -1,364;    1,318
1011,917; 2889,384;   -1,364;   -0,591
1012,465; 3196,929;    1,273;   -1,591
1013,013; 3295,293;    2,091;   -1,682
1013,561; 3175,929;    0,455;   -0,773
1014,109; 3220,747;   -1,909;    1,682
1014,657; 3094,929;    0,364;    0,591
1015,205; 3221,475;    1,636;   -0,955
1015,753; 3253,475;   -0,545;   -1,409
1016,301; 3281,202;   -2,636;    3,045
1016,848; 3292,566;   -1,273;    0,409
1017,396; 3348,657;    2,545;    0,045
1017,944; 3452,020;    1,182;    1,864
1018,491; 3225,293;    0,273;    1,409
1019,039; 3354,747;    0,455;    0,591
1019,586; 3280,111;   -1,364;    1,682
1020,134; 3364,747;    0,455;    1,500
1020,681; 3394,111;    0,182;   -1,136
1021,228; 3408,202;    2,909;   -2,227
1021,776; 3249,475;    1,182;   -1,136
1022,323; 3445,747;    0,455;    0,773
1022,870; 3393,838;   -1,000;   -0,045
1023,417; 3287,384;    2,636;    1,864
1023,964; 3437,020;    2,636;    1,227
1024,511; 3271,838;    1,000;    0,773
1025,058; 3062,747;    3,182;   -0,045
1025,605; 3106,929;   -2,273;    3,136
1026,152; 3331,111;    1,727;   -0,591
1026,699; 3072,202;    1,818;    1,318
1027,245; 3237,747;   -0,091;    0,318
1027,792; 3440,566;   -1,000;    1,409
1028,339; 3323,111;    2,364;   -0,045
1028,885; 3171,202;    1,000;   -0,227
1029,432; 3109,111;   -0,091;    0,227
1029,978; 3174,202;   -1,000;   -1,591
1030,525; 3089,020;    1,000;    0,409
1031,071; 3330,384;   -1,364;    1,136
1031,618; 3421,657;    0,364;    1,682
1032,164; 3218,657;   -0,091;    3,045
1032,710; 3269,929;    1,636;   -1,500
1033,256; 3191,020;   -0,636;   -0,136
1033,803; 3175,020;   -0,545;    1,500
1034,349; 2878,475;   -1,364;    0,136
1034,895; 3037,020;    0,000;   -0,318
1035,441; 3012,202;   -0,818;    0,318
1035,987; 3014,838;   -2,364;   -0,682
1036,533; 3012,747;   -1,455;   -0,955
1037,078; 3226,475;    1,455;    1,682
1037,624; 3024,747;    2,455;   -0,955
1038,170; 3051,747;    0,455;   -0,318
1038,716; 2961,747;    1,636;   -0,409
1039,261; 2891,929;   -2,273;   -0,773
1039,807; 2825,293;   -0,091;    3,409
1040,352; 2883,566;   -1,909;   -0,318
1040,898; 2943,111;   -1,545;   -0,682
1041,443; 2831,202;   -1,455;   -2,591
1041,989; 2847,929;    1,091;    1,591
1042,534; 2739,202;   -0,364;    2,591
1043,079; 2859,838;    2,909;    0,955
1043,625; 2651,566;    1,818;    0,500
1044,170; 2693,475;   -1,364;    1,045
1044,715; 2951,384;    2,455;    0,955
1045,260; 2772,838;    2,182;   -0,955
1045,805; 2818,293;    1,182;   -0,591
1046,350; 2744,929;    1,364;   -0,409
1046,895; 2706,838;    2,909;    1,591
1047,440; 2664,475;    5,364;    0,409
1047,985; 2561,747;    2,818;   -0,955
1048,530; 2486,384;    1,545;    1,227
1049,074; 2544,475;    0,000;    0,318
1049,619; 2519,566;   -1,364;    1,955
1050,164; 2332,202;    0,455;    0,227
1050,708; 2369,838;   -0,455;    0,045
1051,253; 2735,657;    1,273;   -2,227
1051,797; 2456,566;    0,818;   -1,318
1052,342; 2471,475;   -1,182;    1,045
1052,886; 2446,566;    0,364;   -1,409
1053,430; 2304,384;   -1,364;    0,136
1053,975; 2340,838;   -0,818;   -0,318
1054,519; 2327,929;   -0,727;    3,227
1055,063; 2342,384;    0,909;    1,318
1055,607; 2222,566;   -0,182;    0,227
1056,151; 2233,838;    2,909;    1,682
1056,695; 2169,020;    2,273;   -1,136
1057,239; 2239,475;   -1,727;   -0,682
1057,783; 2238,566;    0,818;   -1,500
1058,327; 2167,929;    0,000;    1,409
1058,871; 2403,020;   -0,545;    1,318
1059,415; 2103,293;   -0,818;   -0,045
1059,958; 2373,838;    1,455;    2,591
1060,502; 2103,929;   -1,000;   -0,773
1061,046; 2014,657;    0,364;   -0,955
1061,589; 1981,384;   -3,000;   -1,136
1062,133; 1856,838;   -1,273;    1,864
1062,676; 1805,475;    1,182;    0,864
1063,220; 1798,657;    1,091;    0,500
1063,763; 1815,020;    0,909;    1,136
1064,306; 1900,838;   -0,909;    1,864
1064,849; 1792,202;   -0,909;    0,591
1065,393; 1808,838;    2,000;   -1,500
1065,936; 1929,475;    0,182;   -0,409
1066,479; 1805,202;   -1,455;    1,318
1067,022; 1824,657;   -0,273;   -0,227
1067,565; 1697,475;   -0,091;   -1,318
1068,108; 1736,566;    0,727;   -0,591
1068,651; 1713,475;   -0,636;    1,409
1069,194; 1647,384;   -0,455;   -1,682
1069,736; 1654,838;   -1,273;    0,955
1070,279; 1627,202;   -1,364;   -0,500
1070,822; 1677,020;   -2,000;   -0,318
1071,364; 1762,929;   -0,364;    1,318
1071,907; 1589,747;   -0,727;    3,227
1072,450; 1487,020;    0,000;   -0,045
1072,992; 1481,111;   -0,273;    3,136
1073,535; 1631,202;    2,091;    2,136
1074,077; 1420,384;   -0,727;    2,045
1074,619; 1402,020;   -1,364;    0,591
1075,161; 1423,657;   -1,091;    1,500
1075,704; 1599,657;    1,545;    1,227
1076,246; 1396,384;   -0,182;    0,682
1076,788; 1318,202;   -0,364;    1,773
1077,330; 1399,475;    1,273;    2,136
1077,872; 1363,475;    0,909;    0,955
1078,414; 1583,475;    2,727;    0,773
1078,956; 1315,838;    1,273;   -0,227
1079,498; 1581,838;    1,636;    0,318
1080,040; 1286,657;    1,909;   -1,318
1080,581; 1224,475;    1,636;   -0,318
1081,123; 1141,475;    0,091;   -0,773
1081,665; 1198,384;   -1,182;   -0,955
1082,206; 1506,384;    1,364;   -0,500
1082,748; 1355,838;    0,727;    2,045
1083,289; 1222,747;   -2,000;    1,318
1083,831; 1132,566;   -0,545;    0,227
1084,372; 1171,202;    0,000;    0,591
1084,913; 1185,020;    1,091;    0,864
1085,455; 1148,020;   -1,909;   -2,045
1085,996; 1115,566;   -2,273;    0,136
1086,537; 1137,475;   -0,091;    0,864
1087,078; 1156,566;   -0,909;   -2,136
1087,619; 1212,566;   -1,273;    0,227
1088,160; 1118,838;    0,000;    1,318
1088,701; 1113,838;   -1,091;    0,682
1089,242; 1054,293;    1,364;   -2,227
1089,783; 1159,475;   -0,273;    1,409
1090,324; 1128,293;    0,455;    0,682
1090,865; 1001,838;    2,727;   -0,409
1091,405;  970,111;    0,727;    2,227
1091,946;  991,566;    0,182;   -0,955
1092,487;  914,020;    0,818;   -1,409
1093,027; 1083,929;   -1,364;   -1,500
1093,568;  942,475;   -0,364;    1,227
1094,108; 1037,202;    0,273;    1,773
1094,649;  972,747;   -1,182;    0,136
1095,189;  921,020;   -0,636;   -0,682
1095,729;  866,202;   -0,091;    0,955
1096,269;  853,657;    0,727;   -0,955
1096,810; 1174,566;   -1,364;    0,500
1097,350; 1004,475;    1,364;   -0,773
1097,890;  919,111;    0,364;    1,227
1098,430; 1180,020;    2,364;    2,864
1098,970; 1036,929;    2,182;    1,682
1099,510;  899,020;    0,545;   -2,318
1100,050;  828,020;    1,000;   -1,591
1100,589;  796,657;   -0,727;   -0,318
1101,129;  914,838;    0,818;   -0,955
1101,669; 1059,293;    1,727;    2,136
1102,209;  891,657;   -0,091;    2,227
1102,748;  842,111;    0,000;    0,955
1103,288;  831,020;    1,273;   -1,227
1103,827;  859,566;    3,091;   -2,227
1104,367;  744,566;   -0,091;   -2,409
1104,906;  713,566;    1,364;   -1,136
1105,445;  768,747;    0,636;   -1,136
1105,985;  714,566;   -0,727;    1,500
1106,524;  769,747;   -1,727;   -0,682
1107,063;  730,111;   -2,727;    1,409
1107,602;  710,475;   -1,909;   -1,500
1108,141;  646,020;   -1,909;    1,500
1108,680;  748,566;   -3,455;   -0,591
1109,219;  674,202;   -0,909;   -0,500
1109,758;  686,111;    0,455;    0,682
1110,297;  653,566;    1,000;   -0,682
1110,836;  598,202;   -0,727;    0,955
1111,375;  764,111;   -2,545;    0,409
1111,913;  787,475;   -1,000;    0,773
1112,452;  710,838;   -0,273;    0,136
1112,991;  592,111;    1,091;    1,955
1113,529;  541,202;   -0,818;   -0,045
1114,068;  621,566;   -0,273;    2,955
1114,606;  521,475;   -0,364;   -0,955
1115,144;  692,475;   -1,273;    1,045
1115,683;  633,747;   -0,727;    0,318
1116,221;  671,838;   -0,455;   -0,864
1116,759;  574,293;    0,636;   -0,864
1117,297;  774,202;    0,000;    1,864
1117,836;  588,293;   -2,182;   -1,227
1118,374;  588,293;    0,182;   -0,682
1118,912;  537,293;    0,909;    2,682
1119,450;  519,475;    1,000;    0,864
1119,988;  572,475;    1,545;    2,136
1120,525; 1040,838;    5,091;    3,318
1121,063;  732,384;    1,182;    1,864
1121,601;  538,929;   -0,909;   -1,227
1122,139;  491,111;   -0,727;   -2,045
1122,676;  688,020;   -0,727;    2,773
1123,214;  622,202;   -1,182;    4,409
1123,751;  426,293;    1,727;    2,227
1124,289;  565,566;   -0,091;   -0,409
1124,826;  438,020;    1,727;    0,227
1125,364;  351,747;    1,727;   -0,955
1125,901;  543,384;    1,182;    1,227
1126,438;  660,020;    0,818;    0,955
1126,975;  383,566;   -0,727;   -0,773
1127,513;  451,020;    0,273;    2,136
1128,050;  360,384;    1,636;   -0,682
1128,587;  459,384;    2,000;   -0,227
1129,124;  501,838;    0,091;    1,318
1129,661;  369,657;    0,273;    0,227
1130,198;  543,566;    1,636;    0,773
1130,734;  474,657;    0,182;    1,409
1131,271;  330,657;   -0,909;    0,864
1131,808;  509,475;    2,909;    3,045
1132,345;  377,929;    1,545;    0,318
1132,881;  247,475;   -1,545;   -1,864
1133,418;  385,475;    0,727;   -1,136
1133,954;  323,293;    2,455;   -2,682
1134,491;  397,838;    1,364;   -0,773
1135,027;  300,384;    2,364;    0,864
1135,564;  399,838;    0,273;    2,955
1136,100;  367,111;    0,364;    2,136
1136,636;  256,747;   -1,273;   -1,045
1137,172;  369,475;    0,000;   -1,045
1137,708;  280,384;   -1,364;   -1,045
1138,245;  278,020;    1,273;   -1,227
1138,781;  228,838;    1,091;   -3,318
1139,317;  309,111;    1,273;   -1,409
1139,852;  297,838;    3,091;    0,136
1140,388;  410,566;   -1,182;   -0,409
1140,924;  289,020;   -1,091;   -2,227
1141,460;  224,838;   -1,636;    0,136
1141,996;  156,929;   -1,364;    2,682
1142,531;  212,747;    1,364;    3,318
1143,067;  433,020;    1,182;    1,045
1143,602;  486,111;   -0,091;   -0,318
1144,138;  326,566;   -2,636;    1,045
1144,673;  196,111;   -1,455;    1,409
1145,209;  275,293;   -1,909;   -0,318
1145,744;  186,111;   -0,727;    0,864
1146,279;  318,475;    1,818;   -0,136
1146,815;  232,838;    1,545;   -2,682
1147,350;  278,202;   -1,364;    0,045
1147,885;  186,384;   -0,818;   -1,318
1148,420;  181,929;   -2,273;    0,773
1148,955;  168,657;   -1,727;    1,864
1149,490;  197,202;   -0,909;   -1,591
1150,025;  186,475;    0,455;   -1,773
1150,560;  300,475;    1,091;   -0,955
1151,094;  257,566;    1,455;   -0,591
1151,629;  264,111;    1,636;    0,864
1152,164;  186,202;    1,364;    1,318
1152,698;  152,384;   -0,182;   -0,136
1153,233;  105,747;    0,091;   -0,682
1153,767;  150,475;   -3,000;   -2,318
1154,302;  204,020;   -1,455;    1,773
1154,836;  201,384;   -0,455;   -2,136
1155,371;  262,566;   -1,364;    3,682
1155,905;  203,566;   -0,636;    1,682
1156,439;  177,566;   -0,636;   -0,500
1156,973;  213,111;    0,364;    0,318
1157,507;  143,838;   -0,364;    0,682
1158,042;  170,657;   -0,727;    1,045
1158,576;  215,838;    0,182;    1,773
1159,110;  209,020;   -0,818;    2,409
1159,643;  178,293;    0,636;   -0,045
1160,177;  103,838;   -1,545;    1,500

