
Integration time [ms]:   0,040
Averaging Nr. [scans]: 11
Smoothing Nr. [pixels]: 0
Data measured with spectrometer [name]: 7318044SP
Wave   ;Sample   ;Dark     ;Reference
[nm]   ;[counts] ;[counts] ;[counts] 

186,757;   21,630;   31,551;    1,318
187,357;   55,268;   22,551;    0,955
187,958;   33,072;   15,460;   -1,591
188,558;   74,712;    8,915;   -1,227
189,159;   55,463;    6,733;   -4,500
189,759;   23,609;    7,278;   -3,591
190,360;   12,202;    2,824;   -2,136
190,960;   64,181;    2,915;   -4,136
191,560;   69,864;    3,189;   -6,591
192,161;  325,979;    4,372;   -3,500
192,761;  160,116;    4,010;   -3,227
193,361;  100,426;    1,556;   -3,773
193,962;  153,043;    2,010;   -2,682
194,562;   81,225;    1,189;   -3,955
195,162;  119,069;   -2,448;   -2,227
195,762;  288,820;   -3,176;   -0,045
196,362;  237,329;    1,370;   -2,500
196,963;   93,437;    2,006;   -0,864
197,563;  164,444;    1,551;   -0,955
198,163;  103,542;    0,096;   -0,682
198,763;  133,225;    1,733;   -0,500
199,363;  246,025;    3,096;   -0,500
199,963;  200,623;    0,369;    0,409
200,563;  169,804;    2,823;   -1,409
201,163;  152,544;    3,277;   -0,227
201,763;  236,340;    3,732;    0,318
202,363;  180,530;    1,459;    1,500
202,963;  290,939;    1,459;    1,045
203,563;  412,285;    0,277;    0,500
204,162;  246,939;    2,096;   -1,864
204,762;  235,496;    0,550;    0,591
205,362;  204,024;    3,004;    1,955
205,962;  308,631;    3,096;    1,955
206,562;  306,379;    1,823;    2,318
207,161;  271,968;   -0,087;    0,318
207,761;  434,320;    1,277;    2,409
208,361;  305,039;   -0,268;    1,409
208,960;  415,147;    0,459;    1,500
209,560;  484,055;    1,277;    1,591
210,160;  457,992;    0,550;    1,864
210,759;  421,070;    4,186;    1,227
211,359;  428,122;    1,459;    1,045
211,958;  698,187;    1,277;    2,045
212,558;  792,069;    1,732;    1,864
213,157;  620,582;    1,822;    1,500
213,757; 1074,604;    3,822;   -0,227
214,356;  767,745;    1,277;   -0,409
214,956; 1108,401;    3,095;    0,409
215,555;  715,081;    2,095;    2,136
216,154;  668,658;   -2,723;   -0,591
216,754;  673,194;    0,277;    0,773
217,353;  809,886;   -0,268;   -1,045
217,952;  664,143;   -0,178;    0,318
218,552;  906,239;    1,368;   -0,773
219,151;  800,961;    0,277;    0,955
219,750;  796,564;    0,004;   -0,227
220,349;  925,411;   -0,451;    1,045
220,948;  996,292;   -1,360;    1,136
221,548; 1016,939;    0,913;    1,227
222,147; 1142,948;   -0,087;   -0,409
222,746; 1426,733;   -0,451;   -0,955
223,345; 1295,938;    0,731;    0,500
223,944; 1304,820;   -0,451;    0,773
224,543; 1479,398;    1,004;   -1,409
225,142; 1592,996;    0,094;    0,136
225,741; 1504,456;   -0,814;    1,045
226,340; 1533,056;   -0,451;   -0,955
226,939; 1980,485;   -0,996;   -0,136
227,538; 1931,020;   -0,360;   -0,773
228,137; 2082,417;   -0,814;    0,864
228,735; 2240,958;   -0,541;    1,227
229,334; 1977,676;   -0,905;   -0,227
229,933; 2364,476;    0,459;    0,591
230,532; 2464,786;    1,186;   -0,409
231,131; 2524,054;    1,732;    0,318
231,729; 2656,999;   -2,450;   -2,318
232,328; 2792,499;   -0,723;   -1,500
232,927; 2847,814;    1,004;   -0,500
233,525; 2984,762;    3,640;    0,045
234,124; 3187,663;    2,368;   -1,591
234,723; 3206,244;    0,913;   -1,045
235,321; 3342,739;    2,277;    0,136
235,920; 3609,822;    1,186;   -1,227
236,518; 3871,316;    3,459;    0,318
237,117; 4042,002;    0,004;   -0,227
237,715; 4200,831;    0,640;   -0,500
238,314; 4245,981;   -0,087;   -2,318
238,912; 4371,649;   -0,723;   -1,409
239,510; 4398,722;    0,459;   -1,227
240,109; 4594,628;    0,004;    3,773
240,707; 4626,164;   -0,996;    1,227
241,305; 4994,318;    0,550;    0,136
241,904; 5211,954;   -0,178;   -2,045
242,502; 5206,786;   -0,632;   -0,227
243,100; 5164,549;   -0,087;   -0,955
243,698; 5409,377;    0,732;    1,682
244,297; 5599,044;   -0,632;    0,682
244,895; 5442,185;   -0,269;   -2,318
245,493; 5781,289;    2,186;   -0,591
246,091; 5807,148;    1,368;   -1,318
246,689; 5811,325;    1,004;    0,591
247,287; 5984,289;    0,822;   -1,136
247,885; 6268,106;   -1,451;    1,227
248,483; 6354,889;    1,822;   -0,500
249,081; 6507,251;    0,185;    1,591
249,679; 6674,355;   -0,178;    1,682
250,277; 6946,802;   -1,723;    0,864
250,875; 6912,553;   -1,087;   -1,045
251,473; 6946,948;   -1,178;    0,500
252,071; 7178,616;    1,459;    1,045
252,669; 7317,093;   -1,814;    0,318
253,267; 7587,519;   -0,087;    0,773
253,864; 7556,925;   -0,360;    0,682
254,462; 7430,365;    1,640;    1,591
255,060; 7403,161;   -0,269;    1,318
255,658; 7711,366;    0,822;   -0,136
256,255; 8149,557;    0,186;   -2,045
256,853; 7986,743;   -0,269;    1,409
257,451; 8011,734;    0,822;    1,864
258,048; 8287,257;    1,822;    1,864
258,646; 8024,179;    1,731;   -1,045
259,243; 8232,288;   -0,087;    2,227
259,841; 8293,975;   -0,814;    0,318
260,438; 8183,170;   -0,087;    0,864
261,036; 8890,990;   -1,905;    1,409
261,633; 8773,011;   -0,087;    2,227
262,231; 8526,293;    2,731;   -0,045
262,828; 8628,322;   -0,905;    1,136
263,425; 8699,521;    0,913;   -0,591
264,023; 8976,070;    0,186;    0,045
264,620; 8542,352;   -0,360;   -0,318
265,217; 8882,007;   -2,087;    3,136
265,815; 8975,605;   -1,905;    2,136
266,412; 8748,470;    0,731;    0,136
267,009; 8833,366;   -1,451;    0,773
267,606; 8724,452;    0,822;   -0,955
268,203; 8679,676;   -0,269;   -0,591
268,801; 9003,120;    1,731;    0,591
269,398; 9260,879;   -0,360;    2,500
269,995; 9209,231;    0,277;    1,591
270,592; 9012,526;   -0,632;   -0,500
271,189; 9232,456;    0,186;    0,409
271,786; 9345,466;   -0,632;    1,227
272,383; 9160,726;   -1,087;    0,227
272,980; 9367,161;    0,277;    0,318
273,577; 9852,563;    0,004;    1,227
274,174; 9414,431;    0,822;    2,591
274,771; 9393,366;   -0,814;   -0,773
275,367; 9551,013;    2,277;    1,409
275,964; 9504,585;    0,731;   -0,500
276,561; 9604,743;    1,549;   -1,045
277,158; 9820,355;    0,095;   -1,773
277,755; 9941,160;    2,185;    0,409
278,351; 9334,538;   -0,451;   -1,500
278,948; 9642,396;   -0,815;    0,045
279,545; 9649,192;   -1,360;    2,318
280,141;10306,080;   -1,723;   -2,045
280,738;10180,357;   -0,451;   -0,136
281,334;10431,697;   -1,633;    0,591
281,931; 9831,359;   -0,087;   -1,318
282,528; 9918,732;    0,822;   -0,500
283,124;10610,275;   -1,087;   -0,500
283,721;10510,614;   -0,451;    1,409
284,317;10367,063;    0,185;    2,500
284,913;10927,409;   -1,360;    0,591
285,510;11116,864;    0,640;   -0,318
286,106;11132,955;   -2,269;   -0,955
286,703;10758,896;   -0,360;    1,955
287,299;10950,611;   -1,451;   -0,591
287,895;11168,656;    0,822;   -1,045
288,491;11732,697;    0,186;    2,136
289,088;11455,706;   -2,360;    2,409
289,684;11568,820;   -1,723;    1,500
290,280;11561,521;    0,368;    0,682
290,876;11654,316;    1,822;    5,500
291,472;11542,205;    1,276;    2,227
292,068;11630,691;    1,367;    0,227
292,665;11365,429;    2,095;    0,773
293,261;10996,283;    0,276;    2,136
293,857;11383,421;    2,913;    2,136
294,453;11293,472;    3,550;    0,955
295,049;11195,015;   -0,268;    1,955
295,644;11205,564;    0,095;    0,136
296,240;11135,819;   -0,905;   -0,136
296,836;11193,084;   -0,995;    0,318
297,432;11442,126;    1,096;   -0,500
298,028;11498,280;    0,732;    0,773
298,624;11917,916;    1,459;    1,864
299,220;12151,753;    2,368;    0,591
299,815;11783,416;    1,005;   -0,409
300,411;11626,652;    0,914;    1,773
301,007;11634,721;    1,368;    0,227
301,602;11695,243;   -0,541;   -2,318
302,198;11869,676;    0,732;   -0,773
302,794;12180,889;    1,187;   -0,500
303,389;12266,903;   -1,177;    1,045
303,985;12361,430;    0,550;    1,409
304,580;12318,521;    1,459;    1,591
305,176;12316,983;   -3,086;    0,136
305,771;12209,783;   -1,268;   -1,227
306,367;12066,055;    4,095;    0,136
306,962;12427,516;    0,641;    1,500
307,558;12127,634;   -0,450;    0,136
308,153;12047,806;    1,095;   -1,136
308,748;12302,020;   -0,814;    1,682
309,344;12303,633;   -0,632;   -1,318
309,939;12386,079;   -1,905;   -1,318
310,534;12623,492;   -0,086;   -1,682
311,130;12557,452;    0,459;   -2,500
311,725;12307,942;    1,004;   -0,500
312,320;12597,766;    2,459;    0,045
312,915;12455,315;    1,459;   -1,045
313,510;12541,160;    1,550;   -0,500
314,105;13078,830;    1,096;    1,409
314,700;12412,684;   -3,086;   -1,045
315,295;12041,975;   -0,904;    0,045
315,890;11609,870;    1,277;    0,864
316,485;11979,042;   -0,359;   -0,318
317,080;12119,161;   -3,086;    1,591
317,675;12670,225;    2,005;   -0,682
318,270;12094,063;    5,550;    3,318
318,865;12071,694;    3,278;    3,045
319,460;11915,120;   -0,904;    0,591
320,055;12171,077;   -0,541;   -1,227
320,650;11814,477;   -1,995;   -0,591
321,244;11864,645;   -0,177;   -1,409
321,839;12790,971;   -1,541;   -0,227
322,434;12691,493;   -1,086;   -1,591
323,029;12304,753;    1,732;    1,591
323,623;12163,384;    1,550;    0,773
324,218;11922,358;    2,368;    1,409
324,812;11772,621;    1,096;    1,591
325,407;11562,302;   -0,814;    2,045
326,002;11515,461;    0,277;   -0,409
326,596;11817,216;    0,914;    1,318
327,191;12019,711;    0,823;   -1,045
327,785;11592,398;   -0,813;   -0,227
328,379;11830,834;    1,368;    0,136
328,974;11624,866;    0,914;   -3,955
329,568;11840,930;    0,186;   -2,409
330,163;11624,158;    2,096;    1,045
330,757;12047,751;    2,459;    1,591
331,351;11373,279;    0,459;    0,682
331,945;11660,703;    0,914;    1,409
332,540;11278,920;   -1,723;   -0,591
333,134;11389,183;   -1,086;    0,773
333,728;11656,161;    0,005;    0,318
334,322;11990,039;   -1,177;   -0,864
334,916;11265,928;    0,277;    0,955
335,510;11593,211;   -0,450;   -0,136
336,105;11839,621;   -1,086;    1,591
336,699;11567,933;   -1,086;    0,591
337,293;11508,160;   -1,723;    0,318
337,887;11672,343;   -2,723;    1,955
338,481;11783,220;    0,459;    0,591
339,074;11895,469;   -0,359;    2,682
339,668;11714,233;   -1,632;    1,227
340,262;11970,583;    1,732;    3,227
340,856;11500,305;    1,822;   -0,682
341,450;10848,495;    1,004;    1,864
342,044;11711,614;    1,459;    0,136
342,637;11494,355;    0,913;   -2,136
343,231;11365,525;   -2,360;    0,682
343,825;11360,929;   -1,086;   -0,591
344,419;11329,184;   -1,995;    0,500
345,012;11138,630;    2,459;    4,045
345,606;11117,844;    4,641;    1,591
346,199;10911,454;   -1,813;   -0,227
346,793;10466,218;    1,914;    2,045
347,386;10659,039;   -0,813;   -1,136
347,980;10660,287;   -0,268;   -0,045
348,573;10434,365;    2,278;    0,409
349,167;10096,525;    5,278;    4,773
349,760;10439,111;    2,914;    2,682
350,354;10463,659;   -0,813;    1,136
350,947;10217,330;    1,096;    1,682
351,540; 9855,353;   -0,358;   -1,409
352,134; 9818,325;    1,096;    1,136
352,727; 9886,446;   -0,086;    1,136
353,320; 9691,652;    0,005;    0,591
353,913; 9501,438;   -1,995;    1,864
354,507; 9707,551;    0,823;   -1,227
355,100; 9721,524;    0,460;    0,864
355,693; 8969,540;    2,005;    2,409
356,286; 8994,138;    0,823;    2,773
356,879; 9328,665;   -0,722;    1,227
357,472; 8945,256;   -0,904;    1,500
358,065; 9147,516;   -0,722;    2,500
358,658; 9066,388;   -0,540;    2,318
359,251; 8718,852;   -1,631;   -0,591
359,844; 8213,139;   -1,904;   -1,136
360,437; 8403,047;   -2,995;    0,045
361,030; 8644,911;    1,369;   -0,682
361,623; 8236,912;    2,824;    0,318
362,215; 8258,262;   -0,086;    2,045
362,808; 8065,925;   -2,358;   -1,682
363,401; 8298,754;   -2,449;    0,136
363,994; 8047,772;   -0,631;   -1,500
364,586; 7989,765;    0,824;   -1,500
365,179; 8195,897;   -0,449;   -1,136
365,772; 7661,626;   -1,995;    2,045
366,364; 7974,247;    1,915;   -3,227
366,957; 8150,131;    2,279;   -0,045
367,549; 8141,563;    2,188;   -0,864
368,142; 7797,542;    1,825;   -1,500
368,734; 8014,985;    0,734;   -2,136
369,327; 7967,900;    1,643;   -0,500
369,919; 7885,265;   -1,538;    0,409
370,512; 7678,172;   -1,083;   -0,500
371,104; 7459,027;   -0,901;    1,591
371,696; 7639,509;    1,191;   -0,955
372,289; 7715,467;    0,373;    1,136
372,881; 7871,837;   -2,080;    1,318
373,473; 7768,782;   -2,170;    1,136
374,066; 7565,546;   -0,169;    0,500
374,658; 7422,885;    0,378;    1,136
375,250; 7787,637;    0,653;   -1,409
375,842; 7609,531;    0,473;   -0,045
376,434; 7479,719;   -0,435;   -0,409
377,026; 8072,614;    0,204;   -2,500
377,618; 7962,136;   -0,158;   -0,682
378,210; 7811,971;   -0,338;   -1,955
378,802; 7659,952;    0,754;   -0,591
379,394; 7614,031;    1,846;    0,682
379,986; 8202,468;    1,393;   -0,955
380,578; 8302,765;   -0,153;    0,773
381,170; 7650,687;   -0,972;    0,045
381,762; 7617,358;    0,755;    1,409
382,354; 7854,267;   -0,065;   -1,318
382,945; 7945,221;   -2,976;    0,318
383,537; 8064,415;   -2,705;   -1,955
384,129; 8081,961;   -2,160;   -1,136
384,721; 8286,185;   -0,252;    0,955
385,312; 8211,301;   -0,161;   -0,955
385,904; 8282,771;   -2,706;    1,591
386,496; 7656,164;   -0,979;    1,045
387,087; 7825,344;    1,022;    2,500
387,679; 7864,759;   -1,160;    0,045
388,270; 7981,020;    2,840;    2,045
388,862; 8064,487;    1,295;   -0,318
389,453; 7964,078;   -0,887;    1,045
390,045; 8249,683;   -0,705;   -2,682
390,636; 8202,348;    0,204;   -0,591
391,227; 8050,774;   -0,523;   -0,045
391,819; 8155,941;    0,204;    0,773
392,410; 8208,199;    1,022;    0,045
393,001; 8149,731;   -0,979;   -1,591
393,593; 8421,467;    1,930;   -0,045
394,184; 8309,649;    1,385;   -0,409
394,775; 8233,231;    1,839;    2,136
395,366; 8419,674;    1,385;    0,773
395,957; 8432,058;    0,113;    0,136
396,548; 8748,356;   -0,342;    2,682
397,139; 9052,631;   -2,433;    0,591
397,730; 8776,179;   -1,888;    0,955
398,321; 8832,014;   -1,252;    0,955
398,912; 8878,627;   -0,615;    0,136
399,503; 8938,559;   -3,524;   -1,409
400,094; 8380,481;    0,294;    1,682
400,685; 8222,937;   -0,433;    0,045
401,276; 8313,264;    0,930;   -0,955
401,867; 8672,077;   -0,888;    0,773
402,458; 8747,405;   -2,251;   -2,318
403,048; 8702,109;    1,112;    0,591
403,639; 8342,151;    0,840;    0,864
404,230; 8558,331;    2,476;    0,318
404,821; 8485,286;   -0,615;    0,045
405,411; 8608,581;    1,203;   -2,591
406,002; 8198,967;   -1,252;   -1,136
406,592; 8023,807;    2,294;    0,045
407,183; 8365,260;    0,566;   -1,500
407,774; 8289,533;    3,475;   -0,136
408,364; 8602,916;    0,930;    0,409
408,954; 8212,115;    0,384;    1,227
409,545; 8281,283;    1,021;    1,045
410,135; 7787,318;    1,293;    0,500
410,726; 7929,757;    1,838;    0,318
411,316; 8321,381;    0,111;    0,773
411,906; 7970,512;   -0,253;   -0,409
412,497; 7488,105;   -1,070;   -0,045
413,087; 8093,268;   -1,980;   -0,227
413,677; 8500,516;   -0,707;    3,864
414,267; 8340,830;    0,656;    1,409
414,857; 8334,220;   -2,980;    4,227
415,448; 8603,141;    0,839;    0,500
416,038; 8297,286;    0,020;   -0,591
416,628; 8288,775;   -0,889;    0,409
417,218; 7719,624;    0,565;    3,318
417,808; 7952,015;    0,202;   -0,409
418,398; 8440,233;    0,020;    2,682
418,988; 8481,406;    2,020;    0,591
419,578; 8728,329;   -0,707;    1,409
420,168; 9079,248;   -1,343;   -0,955
420,757; 8655,445;   -1,343;   -1,500
421,347; 8302,413;    0,111;   -0,227
421,937; 8481,886;    2,292;    1,409
422,527; 8437,399;    0,838;   -0,773
423,116; 8284,897;   -0,253;   -0,045
423,706; 8612,014;   -1,889;    0,318
424,296; 8557,278;    1,384;    0,682
424,885; 8967,005;   -0,071;   -3,045
425,475; 9267,436;    1,474;   -2,864
426,065; 9175,914;   -0,980;   -0,318
426,654; 8792,980;   -0,435;   -0,318
427,244; 8926,304;    0,020;    1,409
427,833; 8393,455;    1,383;   -0,500
428,423; 8853,717;   -0,526;    1,136
429,012; 9597,565;   -0,344;   -1,136
429,601; 9095,296;   -1,344;    0,136
430,191; 9349,484;    1,292;    4,318
430,780; 8978,148;   -0,344;   -0,409
431,369; 8870,664;    0,746;   -0,045
431,959; 9516,082;   -1,254;    0,500
432,548; 9293,855;   -1,163;   -0,045
433,137; 9408,909;   -1,254;   -1,318
433,726; 9932,050;    0,292;    0,500
434,315; 9283,332;   -0,526;    2,409
434,905; 9397,361;   -1,254;    1,409
435,494; 9269,485;    0,746;    0,955
436,083; 9719,132;   -0,981;   -0,955
436,672; 9602,368;    0,110;    0,500
437,261; 9176,616;    0,292;   -1,955
437,850; 9293,267;    1,383;    0,682
438,439; 9262,947;    3,291;    1,955
439,027; 9124,983;    3,655;    1,773
439,616; 9443,105;    2,927;    1,227
440,205; 9309,896;    0,200;   -2,136
440,794; 9387,672;    2,109;   -0,045
441,383; 9627,026;   -1,346;   -0,591
441,971; 9475,190;   -2,436;    0,591
442,560; 9315,966;    0,563;   -1,773
443,149; 9071,537;    0,379;   -1,318
443,737; 9226,703;   -0,074;   -2,318
444,326; 9470,706;    0,018;    0,318
444,915; 9529,443;   -1,982;    0,864
445,503; 9905,666;   -2,891;   -0,318
446,092; 9171,884;    0,382;    2,136
446,680; 9689,042;    0,382;    0,318
447,269; 9853,415;   -0,346;   -0,318
447,857; 9622,414;    0,018;   -1,773
448,445; 9729,568;    0,563;    1,318
449,034; 9957,391;   -1,528;   -1,136
449,622;10101,486;   -1,073;    3,500
450,210; 9298,225;    2,017;    2,227
450,799; 9840,165;    0,290;   -0,591
451,387; 9763,506;    1,381;   -0,591
451,975; 9411,911;    2,654;    0,864
452,563; 9497,798;    3,472;    2,318
453,151; 9522,474;   -0,528;   -1,227
453,739; 9469,263;   -1,347;    0,136
454,328; 9313,536;    2,381;   -2,136
454,916; 9039,913;    2,562;   -0,136
455,504; 9199,877;    1,017;    1,227
456,092; 9349,123;    0,017;   -1,591
456,679; 9357,287;    1,472;    0,682
457,267; 9305,286;    4,017;    1,045
457,855; 9457,308;    1,017;    1,409
458,443; 9204,052;   -0,165;    1,682
459,031; 9315,530;    0,108;    2,409
459,619; 9786,076;   -1,801;    2,864
460,206; 9880,694;    0,835;    2,045
460,794; 9947,516;   -2,983;   -0,227
461,382;10183,773;   -0,529;   -0,864
461,970; 9773,983;    1,198;    1,864
462,557; 9807,733;   -0,711;   -0,682
463,145; 9994,742;   -3,165;   -1,682
463,732;10168,068;    2,016;   -1,045
464,320;10076,844;   -0,075;   -3,045
464,907; 9748,044;    2,743;   -0,773
465,495; 9585,592;    0,743;   -1,227
466,082; 9775,862;   -1,984;   -0,045
466,670; 9692,789;   -2,529;    1,227
467,257;10087,016;   -1,711;    2,045
467,844;10216,270;   -0,075;    0,045
468,432;10235,502;    0,834;    3,500
469,019; 9728,141;    0,925;   -1,773
469,606;10182,583;    0,470;    3,682
470,193;10001,077;   -1,439;    0,227
470,780; 9587,824;   -2,075;    0,864
471,368; 9927,391;   -1,257;   -0,773
471,955; 9716,350;    1,379;   -0,682
472,542; 9312,772;    0,652;   -1,136
473,129; 9544,982;   -0,166;    0,136
473,716; 9281,010;    1,470;    0,591
474,303; 9513,473;    0,652;   -0,864
474,890; 9792,807;   -1,439;   -0,500
475,477; 9791,015;   -1,621;    0,409
476,064; 9674,509;    1,106;   -1,591
476,650; 9571,393;    0,288;    0,318
477,237; 9424,665;   -0,258;    0,955
477,824; 9556,360;   -1,076;    0,864
478,411; 9561,797;   -1,894;   -0,318
478,997; 9790,537;    0,560;   -0,773
479,584; 9846,912;    1,196;   -0,409
480,171;10499,222;   -0,440;   -0,773
480,757;10160,375;    2,651;    0,773
481,344;10419,108;    0,469;    0,409
481,931; 9908,804;    1,105;    1,045
482,517;10856,470;   -1,258;    0,318
483,104;11390,335;    1,106;    2,864
483,690;11700,258;   -1,804;    0,045
484,276;12032,934;   -0,895;    0,227
484,863;11746,785;    2,469;    1,136
485,449;12302,469;   -0,077;    0,318
486,035;12320,519;   -1,986;   -0,136
486,622;12697,061;   -0,895;    0,045
487,208;12605,820;    1,378;    1,500
487,794;12484,846;    0,741;    0,318
488,380;12592,518;    0,105;   -1,409
488,967;12639,512;   -1,168;   -0,409
489,553;12687,381;   -1,895;   -1,409
490,139;12896,994;    1,559;    0,773
490,725;12358,380;    0,741;   -0,227
491,311;11959,508;    3,287;    3,045
491,897;11330,794;   -0,986;    1,500
492,483;11171,225;    0,105;    1,227
493,069;10976,326;    3,923;    0,864
493,655;10996,625;    1,650;    0,682
494,241;10950,570;    1,377;   -0,955
494,826;11340,467;    0,287;   -1,045
495,412;10812,226;    2,559;   -0,682
495,998;11002,273;   -0,805;   -0,318
496,584;11158,792;    0,377;    1,045
497,169;11183,901;    1,014;   -0,682
497,755;11176,303;    0,650;    1,227
498,341;11753,896;    0,559;    0,318
498,926;11350,300;    1,832;    1,955
499,512;11533,050;    1,286;    2,955
500,097;11699,080;    0,195;   -0,318
500,683;11715,844;   -0,350;    2,136
501,268;12069,248;   -0,169;   -0,955
501,854;11845,543;   -0,169;    1,227
502,439;11812,851;   -0,624;   -1,773
503,024;12027,911;    0,195;    0,500
503,610;12156,111;   -0,078;   -0,682
504,195;12209,738;    0,558;    1,955
504,780;12341,448;    2,922;    1,227
505,366;12188,330;    3,013;    2,864
505,951;11946,568;    0,740;    1,045
506,536;12014,482;   -3,260;   -3,682
507,121;12011,823;    0,285;   -0,318
507,706;12562,291;    2,376;    1,045
508,291;12993,118;    2,649;    1,136
508,876;12477,397;   -0,988;    2,591
509,461;11960,666;   -0,169;   -0,773
510,046;12432,680;    0,194;    0,318
510,631;12659,785;   -0,351;   -0,773
511,216;12359,907;    2,467;   -0,500
511,801;12762,100;   -0,442;    2,591
512,386;13098,607;    0,740;    0,500
512,971;13049,551;   -2,988;    0,955
513,555;12592,707;   -0,897;   -1,500
514,140;13411,407;   -0,442;   -3,136
514,725;13400,973;   -0,715;   -1,136
515,309;13545,492;   -0,533;    0,318
515,894;13014,728;   -0,624;   -2,227
516,479;13502,591;   -0,624;   -0,955
517,063;13368,460;    0,376;    1,227
517,648;13485,569;    1,012;   -1,136
518,232;13124,912;   -0,261;   -1,409
518,817;13468,889;   -0,079;    1,682
519,401;13706,830;    2,194;    0,591
519,985;13186,976;    1,103;    1,136
520,570;13108,998;    0,830;   -1,955
521,154;13413,938;    2,102;    0,591
521,738;13580,700;   -2,352;    2,409
522,323;14176,184;   -0,170;    1,682
522,907;13925,927;    0,466;   -0,136
523,491;13634,759;    0,557;    0,955
524,075;13629,191;    2,284;    0,591
524,659;13705,692;    1,466;    0,591
525,243;13172,014;    1,739;    0,409
525,827;13424,709;    0,648;   -0,045
526,411;14319,601;   -1,989;   -0,136
526,995;14512,250;   -0,352;    1,409
527,579;14113,598;   -0,443;   -1,045
528,163;14401,793;    0,375;   -1,500
528,747;14311,952;    2,466;   -0,773
529,331;14630,416;   -0,080;   -1,409
529,915;14854,561;    1,738;    0,955
530,499;14842,257;   -0,807;    1,227
531,082;14510,135;   -0,534;    1,591
531,666;13937,487;    1,374;    0,773
532,250;14597,657;    1,284;    2,682
532,833;14953,251;    0,920;    2,773
533,417;14837,928;   -1,807;    0,864
534,001;14826,773;    1,647;   -0,318
534,584;15509,353;    0,374;    0,500
535,168;15344,981;    0,465;    1,409
535,751;15403,978;    0,647;    0,045
536,334;14855,473;   -0,898;   -0,409
536,918;15438,219;    0,011;    1,591
537,501;15561,645;   -0,899;    1,318
538,085;15544,949;   -0,444;    1,045
538,668;15760,563;    0,829;    2,409
539,251;16074,904;    1,829;    3,773
539,834;16069,795;    0,101;    0,773
540,418;15998,498;   -1,990;    4,318
541,001;16101,885;   -0,990;    1,773
541,584;16108,064;    2,101;    2,227
542,167;15829,002;    1,374;    2,955
542,750;15940,802;    1,919;   -0,773
543,333;15552,827;    0,555;    2,136
543,916;16305,760;    0,192;    2,500
544,499;16942,046;   -1,354;    0,227
545,082;16959,391;    1,374;    3,591
545,665;17089,024;    1,919;    1,500
546,248;17457,464;    1,010;   -0,318
546,830;17138,773;   -0,445;    1,955
547,413;17538,390;    1,010;   -0,773
547,996;18057,417;    0,555;    0,500
548,579;17836,916;    0,919;    0,955
549,161;17600,898;    1,828;    2,682
549,744;17443,215;   -0,809;    0,409
550,326;17943,860;   -0,809;   -1,136
550,909;17738,255;    2,737;    0,591
551,492;18155,015;   -0,263;    0,227
552,074;17927,777;   -0,173;   -1,318
552,657;18423,023;    2,373;    0,045
553,239;18188,954;   -0,173;   -0,773
553,821;18138,501;   -1,082;    1,045
554,404;17635,077;    1,282;    1,136
554,986;17972,495;    0,464;    1,045
555,568;18588,881;    1,191;   -0,955
556,151;17783,585;    1,191;   -0,227
556,733;17988,109;   -0,264;   -0,864
557,315;18481,343;    0,100;    0,500
557,897;18300,657;    0,554;   -0,500
558,479;18438,607;   -1,991;    1,318
559,061;18561,469;   -0,719;   -0,864
559,643;18894,738;   -0,264;    0,045
560,225;19267,772;    1,645;    2,864
560,807;19286,102;    0,918;    0,318
561,389;18845,279;    0,554;    2,318
561,971;19558,450;    0,463;    2,136
562,553;19362,506;   -1,628;    1,591
563,135;19475,524;   -0,537;    1,136
563,717;19068,215;    3,372;    1,136
564,298;19799,201;    3,645;   -0,045
564,880;19522,362;    0,645;   -1,409
565,462;19683,089;    0,645;    1,318
566,043;20871,155;   -0,446;    2,318
566,625;20428,241;    1,918;    1,227
567,207;20269,140;    1,099;    1,682
567,788;21423,163;   -1,264;    1,500
568,370;22241,971;    1,917;   -0,500
568,951;22059,253;    0,190;    0,227
569,533;22955,124;   -0,628;   -0,500
570,114;23389,591;   -0,446;    0,682
570,695;23934,584;   -0,174;   -1,318
571,277;24393,911;   -0,265;   -1,682
571,858;25145,534;    2,008;   -1,136
572,439;26080,080;    1,554;   -1,045
573,021;26262,168;    2,099;   -2,773
573,602;26751,201;   -1,265;    0,318
574,183;27666,318;   -2,083;    2,227
574,764;27811,000;   -1,629;    0,409
575,345;28381,141;    0,917;   -0,136
575,926;29024,028;   -0,356;    0,136
576,507;28957,014;    1,099;   -0,227
577,088;30082,346;    3,099;    1,682
577,669;30081,491;    0,735;    1,955
578,250;30823,046;    0,644;   -1,045
578,831;31557,257;   -1,356;   -2,227
579,412;31758,377;   -0,810;    0,955
579,993;32707,904;    1,008;    0,227
580,573;33058,759;   -0,629;   -0,955
581,154;32055,891;    0,735;   -0,591
581,735;32914,000;    0,644;    0,773
582,315;32431,818;   -0,629;    2,136
582,896;32700,728;   -0,174;    1,227
583,477;32106,744;    0,189;    1,227
584,057;32275,600;    0,553;    0,955
584,638;32630,813;    2,553;    2,318
585,218;32611,682;   -0,538;    2,682
585,799;32812,132;    0,281;   -0,227
586,379;32730,164;    0,372;    1,591
586,959;31496,109;    0,735;    0,318
587,540;30846,785;   -0,629;    2,227
588,120;30400,852;    1,007;   -0,045
588,700;29340,962;    2,553;    2,136
589,281;29620,513;    0,462;   -0,955
589,861;29636,390;    0,099;   -1,682
590,441;29410,886;    2,371;   -2,682
591,021;28400,172;   -0,265;   -2,591
591,601;28595,256;   -0,537;    0,500
592,181;28579,451;   -0,719;   -0,773
592,761;27887,902;    0,007;    1,409
593,341;27797,073;   -0,901;    0,045
593,921;27804,042;   -0,265;    1,591
594,501;27706,323;   -0,538;    1,318
595,081;27533,701;    0,917;   -0,318
595,661;27870,900;   -1,447;    0,955
596,240;28425,287;   -0,537;    0,136
596,820;28083,234;    0,372;    1,955
597,400;28285,010;    2,008;    0,773
597,980;28408,102;    2,008;    1,045
598,559;28440,814;    2,735;   -0,227
599,139;28161,387;   -0,174;   -1,227
599,718;28051,750;   -0,174;   -0,409
600,298;28343,664;    0,735;    0,682
600,877;28577,751;    2,917;    1,409
601,457;28856,789;    2,281;    1,136
602,036;28761,433;    0,190;    2,045
602,616;28975,461;    0,644;    1,682
603,195;29329,239;   -0,355;    3,500
603,774;28893,598;   -0,901;    2,045
604,354;28713,484;    0,826;   -0,500
604,933;28186,060;    0,463;    1,864
605,512;28382,102;    3,554;    0,591
606,091;28395,357;   -0,537;    3,773
606,671;29222,852;    0,281;    0,773
607,250;28311,498;    1,644;    3,136
607,829;28574,849;    2,372;    3,227
608,408;28469,317;    1,190;    2,591
608,987;27436,450;    1,281;    3,409
609,566;27749,814;   -1,265;   -2,500
610,145;27824,254;   -1,082;    0,682
610,723;28208,395;    4,372;    6,864
611,302;27521,682;   -0,446;    1,682
611,881;26995,809;    5,008;   11,227
612,460;27840,973;    1,645;    3,955
613,039;28286,642;   -0,082;    2,045
613,617;27005,535;    1,736;    4,773
614,196;27211,641;    1,099;    1,227
614,775;27531,601;    1,009;    2,409
615,353;27493,429;    0,736;    0,864
615,932;27200,865;    0,100;    2,409
616,510;27785,233;    0,554;    0,591
617,089;27285,938;    7,100;   17,591
617,667;27014,415;    2,372;    6,136
618,246;26898,575;   -1,537;    1,318
618,824;27082,652;   -3,355;   -0,955
619,402;26635,202;   -2,900;   -1,773
619,981;27131,689;   -0,173;   -1,045
620,559;26964,707;    0,009;    1,682
621,137;26532,703;   -0,718;    1,864
621,715;26565,298;   -1,173;   -0,682
622,293;26446,939;   -0,537;   -0,773
622,871;26842,162;   -0,718;    0,500
623,450;26488,786;    0,373;   -0,864
624,028;26362,098;    0,191;   -0,955
624,606;25988,990;   -1,718;    1,682
625,183;26394,531;   -1,536;   -1,136
625,761;25988,254;    1,009;    1,136
626,339;26267,890;    1,373;    2,591
626,917;26685,433;   -0,172;   -0,045
627,495;26699,205;   -0,354;    1,318
628,073;26155,806;   -0,263;    2,864
628,650;25855,700;    0,100;    2,136
629,228;26321,890;    0,373;    4,409
629,806;25729,073;    2,282;    1,136
630,383;25955,965;    1,464;   -0,318
630,961;25713,832;    2,555;   -0,955
631,539;25485,015;    2,464;    0,227
632,116;24805,832;   11,373;   15,409
632,694;25413,246;    2,555;    6,500
633,271;25737,134;    0,828;    2,682
633,848;25595,379;    1,828;    2,045
634,426;25642,694;   -1,081;    1,773
635,003;24812,864;    1,101;   -0,409
635,580;25147,301;    1,192;    3,682
636,158;25652,849;    3,737;    1,227
636,735;25636,984;    0,555;   -0,500
637,312;25787,279;   -0,809;   -0,682
637,889;25849,458;   -4,354;   -0,682
638,466;25354,546;   -3,990;   -0,409
639,043;25309,902;    2,101;   -1,136
639,620;25674,866;   -2,262;   -0,955
640,197;26007,271;    1,100;    1,682
640,774;26128,418;   -0,172;    1,136
641,351;26545,293;    0,737;    1,136
641,928;25986,349;   -0,627;    1,409
642,505;25590,315;    0,828;   -0,500
643,082;25748,553;   -1,718;    1,227
643,658;24736,246;   -0,718;    1,500
644,235;25515,029;    1,191;    2,500
644,812;25817,177;    1,918;    0,773
645,388;25534,051;   -0,991;    1,409
645,965;25644,653;   -0,809;    1,682
646,542;25733,255;   -1,445;   -0,227
647,118;25699,221;    1,009;   -0,955
647,695;26050,732;   -0,263;    1,136
648,271;25930,606;   -0,536;    0,500
648,848;26238,481;    0,736;    2,227
649,424;26066,628;    0,827;    1,318
650,000;25844,230;   -0,354;   -1,045
650,577;25593,560;   -0,627;   -0,955
651,153;26078,161;   -1,809;    0,955
651,729;27121,127;    1,191;    0,864
652,305;27427,638;    0,645;    2,773
652,881;32044,513;   -0,082;    1,136
653,458;39065,751;    1,100;    0,227
654,034;42809,625;    0,282;    1,591
654,610;44197,409;    0,554;    0,773
655,186;45526,920;    0,645;    3,045
655,762;45221,795;   -0,991;    0,409
656,338;45200,851;    0,100;    0,136
656,913;46142,362;   -0,082;    0,409
657,489;45375,601;    0,827;   -0,318
658,065;45303,839;   -0,173;   -1,591
658,641;45946,623;   -0,900;   -0,864
659,217;45251,224;   -0,991;    0,409
659,792;44614,372;    0,645;   -0,409
660,368;44884,610;   -2,173;   -0,682
660,944;44484,121;   -2,082;    1,227
661,519;39757,268;   -0,628;    0,409
662,095;33709,688;   -1,719;    0,591
662,670;29198,290;    1,281;   -0,136
663,246;28101,074;    1,009;   -0,409
663,821;27391,767;    0,281;    1,682
664,396;26846,460;    0,009;    1,864
664,972;27172,607;    0,009;   -0,500
665,547;27447,754;    1,372;    0,136
666,122;27503,902;   -1,082;    0,318
666,698;27772,504;   -0,173;    0,318
667,273;27111,560;   -0,173;    0,136
667,848;27960,071;    2,372;    1,500
668,423;27744,128;    2,190;    2,318
668,998;28267,002;    2,827;   -0,682
669,573;28833,150;   -3,264;   -1,500
670,148;28678,115;   -1,446;   -0,682
670,723;28461,444;   -1,810;    0,318
671,298;28899,955;    2,372;    1,045
671,873;29014,466;   -0,082;   -0,136
672,448;28964,068;    0,645;    0,136
673,023;29308,579;   -1,992;   -0,227
673,597;29598,272;    0,827;    2,318
674,172;29370,783;   -0,355;    0,318
674,747;28835,112;    0,372;   -1,045
675,321;28679,623;   -0,628;    3,318
675,896;28280,861;    0,645;    1,045
676,471;29301,009;    2,645;    1,591
677,045;29061,338;   -1,264;    0,682
677,620;29151,576;    0,190;    1,136
678,194;29454,633;   -2,628;    1,136
678,769;28985,144;   -1,083;   -0,318
679,343;29242,018;   -0,628;    1,773
679,917;29086,257;   -1,446;    1,955
680,492;29179,859;    0,826;    3,227
681,066;29323,551;    3,372;    0,409
681,640;29356,153;    1,463;   -0,318
682,214;30184,301;    0,735;    0,500
682,788;29717,812;   -1,356;   -0,773
683,363;29675,595;   -1,810;    1,682
683,937;29374,470;   -1,719;   -0,318
684,511;30123,799;    0,463;   -0,591
685,085;29815,946;   -1,356;    0,318
685,659;29548,457;   -2,538;    0,864
686,232;29825,968;   -0,356;   -0,318
686,806;29553,116;   -0,901;    0,409
687,380;30180,990;   -0,174;    0,591
687,954;30474,956;   -1,174;    1,136
688,528;30130,558;   -0,719;    1,955
689,101;30912,796;   -3,992;    1,045
689,675;30471,307;   -0,356;   -0,136
690,249;29842,727;   -0,719;    0,409
690,822;30154,875;    0,280;    0,318
691,396;30287,931;   -0,265;    1,227
691,969;29703,624;    1,280;    0,136
692,543;30160,771;   -0,447;   -1,955
693,116;29782,919;   -0,265;   -1,409
693,690;29676,157;    0,099;    0,500
694,263;30236,577;   -1,083;    2,955
694,836;30311,724;    1,371;    3,591
695,410;28995,235;   -0,265;    1,773
695,983;29439,110;    0,189;    0,591
696,556;29390,348;   -0,447;   -1,045
697,129;29773,223;   -0,356;    1,409
697,703;29438,279;   -1,629;    1,955
698,276;29389,336;    1,462;   -0,773
698,849;29210,210;    1,280;    1,409
699,422;29589,449;   -1,083;    0,591
699,995;29275,323;    0,007;    0,136
700,568;29766,925;   -0,629;    3,045
701,140;29732,072;   -2,811;    1,682
701,713;29493,220;   -0,174;    2,409
702,286;29235,004;   -0,538;    0,864
702,859;29151,151;   -0,902;   -0,591
703,432;28298,026;    0,825;    0,682
704,004;28735,991;    0,462;    0,318
704,577;28691,957;   -0,629;    0,136
705,150;29317,286;    0,189;    2,500
705,722;28989,251;   -0,356;   -3,227
706,295;28819,581;   -0,175;   -0,591
706,867;28660,273;   -0,175;    1,955
707,440;28844,784;   -1,720;   -0,409
708,012;29086,568;    0,462;    0,591
708,584;29059,897;    2,462;    0,227
709,157;29293,499;    1,825;   -0,591
709,729;28982,828;    2,280;    2,045
710,301;29836,703;    0,734;    0,045
710,874;29807,850;   -1,447;   -0,227
711,446;28687,089;    0,371;    0,864
712,018;28593,963;    0,098;    0,500
712,590;28302,747;   -1,993;    1,682
713,162;28853,531;    0,825;    1,318
713,734;29134,587;    1,825;   -2,045
714,306;29026,825;   -1,902;   -0,409
714,878;27752,064;    0,825;    0,864
715,450;28523,484;    0,643;    0,864
716,022;28762,358;    1,552;    1,318
716,593;28888,051;    0,189;    0,591
717,165;28785,562;   -3,175;   -1,227
717,737;28545,255;    0,280;    0,409
718,309;28206,311;    0,280;   -0,045
718,880;28193,095;   -0,539;   -1,409
719,452;28350,697;   -0,175;   -1,591
720,024;27931,299;    0,734;   -0,591
720,595;28564,537;   -2,902;    0,955
721,167;28128,685;    0,370;   -2,045
721,738;27613,650;   -0,812;   -1,045
722,309;27603,343;   -0,993;   -1,227
722,881;27360,127;   -1,357;    0,773
723,452;27996,729;   -2,630;    2,864
724,023;28186,512;   -0,721;    2,682
724,595;27946,841;    0,007;    0,682
725,166;27654,807;    0,007;   -0,409
725,737;27329,318;    1,734;    0,227
726,308;27465,738;   -0,266;    0,318
726,879;27915,613;   -1,630;    1,227
727,450;27763,396;    0,552;   -0,045
728,021;27707,362;    3,097;    0,682
728,592;27500,964;    0,734;    0,500
729,163;27853,020;    0,643;   -0,136
729,734;27810,622;    0,188;   -0,227
730,305;28218,497;    1,734;    0,136
730,876;28592,099;    0,188;    2,955
731,447;28282,792;    2,188;    2,682
732,017;28396,121;    1,097;    1,864
732,588;27848,177;    0,734;    1,227
733,159;28068,143;    0,643;   -1,045
733,729;27869,926;    0,006;    0,409
734,300;27146,165;    0,915;    0,864
734,870;27593,767;    3,461;    0,591
735,441;28136,278;    0,370;   -0,591
736,011;27914,516;    0,643;   -1,591
736,582;27842,300;   -0,812;    0,045
737,152;27313,265;   -1,721;   -2,045
737,722;27736,413;   -0,267;   -0,682
738,293;27453,105;   -1,358;    1,318
738,863;27375,980;    2,461;    2,318
739,433;27171,945;    5,279;    0,318
740,003;27797,456;   -0,994;   -0,682
740,573;27198,422;    2,097;   -1,591
741,143;27137,115;   -1,085;    0,318
741,713;27951,989;    1,188;   -0,500
742,283;27664,500;    0,915;    1,591
742,853;27439,648;    1,915;    1,591
743,423;26868,159;    1,733;    0,045
743,993;27047,215;   -0,358;    1,500
744,563;26368,544;    0,097;   -0,864
745,133;26327,419;   -0,812;   -0,864
745,702;27025,930;   -0,267;    1,773
746,272;26265,987;   -0,176;    0,591
746,842;25982,770;   -1,358;   -0,591
747,411;26435,099;   -0,267;   -0,318
747,981;26558,156;    0,097;    0,500
748,551;26647,485;    2,278;   -1,045
749,120;26523,996;    0,642;   -0,227
749,690;26875,780;   -0,631;    2,409
750,259;27172,291;    1,369;    2,955
750,828;27098,438;    1,551;   -1,955
751,398;27374,858;    1,278;   -0,045
751,967;26891,006;    2,187;    0,409
752,536;27086,698;   -0,813;   -0,227
753,105;27468,937;    0,096;    0,227
753,675;27264,720;    0,096;    1,773
754,244;27224,686;   -0,904;    3,591
754,813;27296,651;    0,551;    1,227
755,382;26869,617;    0,460;    0,955
755,951;27485,310;    1,551;    3,682
756,520;27005,639;   -0,085;    1,864
757,089;27488,241;    0,278;    0,500
757,658;27699,843;    1,733;    1,227
758,227;27689,536;    1,096;    0,318
758,795;27928,137;    1,187;    1,136
759,364;28181,285;   -0,086;   -0,591
759,933;27191,069;   -1,176;   -0,045
760,501;26702,307;    0,733;   -1,318
761,070;27206,909;   -2,813;   -1,409
761,639;27900,056;   -1,904;    1,318
762,207;27300,385;    1,551;   -0,955
762,776;27196,442;    0,369;    0,864
763,344;27127,498;   -0,995;    0,591
763,913;26252,009;   -0,722;    1,409
764,481;27004,702;    1,005;   -0,136
765,049;26768,486;   -1,358;    1,409
765,618;26670,724;   -0,086;    0,318
766,186;26742,780;    0,278;    0,136
766,754;26960,746;    0,005;    1,864
767,322;25937,075;   -1,995;    0,409
767,890;25978,950;   -0,722;   -1,773
768,459;26313,097;   -2,177;   -0,318
769,027;26470,608;    1,641;    3,409
769,595;25464,301;    3,278;    2,591
770,163;25907,539;    3,823;    2,955
770,730;25635,596;    0,732;   -0,136
771,298;25481,016;    0,187;   -1,409
771,866;25616,436;   -1,541;    4,955
772,434;25936,947;   -0,631;   -1,864
773,002;26077,731;    0,005;    0,682
773,569;25776,332;    0,914;    1,682
774,137;25599,025;   -0,268;   -0,045
774,705;26387,264;    0,278;   -0,136
775,272;25887,047;    0,641;    0,682
775,840;25627,740;   -0,177;    2,682
776,407;25170,251;    0,277;    1,955
776,975;24765,308;   -0,632;    0,318
777,542;25729,091;   -1,086;   -0,045
778,110;25589,966;   -1,268;   -0,045
778,677;25270,386;   -2,359;   -0,864
779,244;25034,988;    2,186;    1,045
779,812;25161,953;    1,823;    0,864
780,379;25035,646;    0,005;    1,136
780,946;25262,884;    1,005;   -0,773
781,513;25590,214;   -1,450;    0,318
782,080;24921,906;   -0,086;    2,864
782,647;25656,963;   -0,268;    3,045
783,214;25245,747;   -0,177;    3,864
783,781;24860,258;   -0,723;   -0,682
784,348;24745,860;   -0,632;    1,500
784,915;25181,189;   -3,177;    0,318
785,482;24950,245;    1,368;    2,591
786,049;25383,029;    0,186;   -0,591
786,615;25484,085;    0,277;   -0,955
787,182;25258,869;    0,186;   -0,682
787,749;24965,835;   -2,814;    1,409
788,315;24257,346;   -1,632;   -0,409
788,882;24537,766;    1,550;   -1,227
789,448;25268,277;    1,732;   -0,955
790,015;25244,424;    1,095;    3,227
790,581;24808,026;    1,459;    0,227
791,148;24698,173;    0,641;    1,045
791,714;24913,775;   -0,541;    3,136
792,280;24582,468;    0,186;    1,591
792,847;24164,434;    0,550;    2,500
793,413;24760,308;   -0,269;   -0,318
793,979;24261,819;    3,459;   -1,318
794,545;24359,057;    4,459;    2,682
795,111;23735,750;    2,186;    1,318
795,678;23931,079;    0,731;   -1,682
796,244;23625,590;    3,368;    0,136
796,810;24152,283;    1,731;    0,773
797,375;23818,612;    0,549;   -2,136
797,941;23924,396;   -0,541;    0,591
798,507;24057,907;   -0,451;   -0,955
799,073;23593,418;   -0,360;    0,591
799,639;23654,202;   -2,632;    3,136
800,205;23640,167;    0,095;    2,682
800,770;23211,860;    0,640;    1,773
801,336;23316,826;    1,368;   -0,955
801,901;23001,246;    4,549;    3,136
802,467;23585,393;   -0,542;    2,045
803,033;22911,177;   -0,087;    0,864
803,598;23176,961;    1,913;   -1,045
804,163;23170,017;    1,095;   -0,318
804,729;23062,346;   -0,178;    1,136
805,294;23493,130;    0,822;    2,227
805,859;23300,823;    0,731;   -0,409
806,425;22749,425;    1,186;    2,682
806,990;22336,118;    2,186;    4,318
807,555;22896,447;   -1,451;    2,591
808,120;22788,776;    0,822;   -0,409
808,685;22833,832;    0,185;   -2,500
809,250;22358,161;    0,004;   -0,500
809,815;22680,945;    1,913;    0,682
810,380;23237,729;   -0,269;    1,591
810,945;23760,876;   -1,087;    2,045
811,510;22899,842;    2,094;    1,591
812,075;22618,080;   -0,633;   -1,409
812,640;22647,137;    2,003;    1,409
813,204;22693,466;    0,822;   -0,227
813,769;23243,704;    2,094;   -0,045
814,334;22632,488;    0,458;    0,864
814,898;22680,271;    0,367;    0,591
815,463;22505,692;    1,276;   -0,773
816,027;22487,475;   -0,724;   -2,318
816,592;22554,259;    0,640;   -2,045
817,156;22057,043;    2,094;    1,136
817,721;21930,463;    4,276;    2,318
818,285;21894,246;    2,912;    1,500
818,849;22538,576;   -1,451;    1,682
819,414;22462,632;   -0,269;    2,955
819,978;22020,689;   -1,269;    1,773
820,542;22610,654;    2,003;    0,500
821,106;22291,347;   -0,815;    0,682
821,670;22422,858;   -0,815;    2,591
822,234;22123,005;   -0,270;    1,409
822,798;21470,607;    0,003;    0,500
823,362;21463,391;   -0,633;    4,227
823,926;20779,266;    0,094;    1,136
824,490;21022,322;   -0,997;   -0,682
825,054;21495,378;   -0,088;   -1,136
825,618;21140,253;   -1,542;   -1,500
826,181;21052,037;    0,458;   -1,318
826,745;21001,639;    1,367;   -1,045
827,309;21358,422;    1,185;    1,318
827,872;20716,115;    1,367;    0,955
828,436;21688,081;    1,185;   -0,773
828,999;21746,774;   -0,997;    1,227
829,563;20496,375;   -0,179;    1,136
830,126;20302,614;   -0,179;   -0,591
830,690;20347,761;   -1,997;    2,864
831,253;19872,636;   -0,543;    2,227
831,816;20011,965;   -1,906;    0,500
832,380;19924,021;    0,185;    0,864
832,943;20167,532;   -1,361;   -0,500
833,506;19697,771;    2,639;   -1,227
834,069;20438,645;    3,912;   -0,955
834,632;20477,702;    1,730;    1,318
835,195;20397,031;    1,003;    0,955
835,758;19566,633;   -0,997;    1,955
836,321;19438,871;    0,730;   -1,045
836,884;19504,837;   -0,725;   -0,955
837,447;19511,802;   -2,816;    1,773
838,010;19817,768;    0,366;    3,227
838,573;20121,915;   -1,179;    0,773
839,135;20064,153;   -1,361;   -0,955
839,698;19536,573;    1,275;    0,409
840,261;19054,903;    1,003;   -0,227
840,823;18918,504;   -0,543;    0,864
841,386;19184,197;   -0,452;   -2,409
841,948;19082,708;   -1,361;    1,773
842,511;18834,674;    0,912;    1,682
843,073;18958,276;    1,912;    0,227
843,636;18748,696;   -0,361;   -0,227
844,198;18688,570;    0,911;    0,591
844,760;18838,445;    1,093;    1,955
845,322;18448,138;    0,548;    1,136
845,885;18882,740;    0,730;    0,591
846,447;19336,705;   -1,998;    0,227
847,009;18928,944;    1,911;   -0,682
847,571;19249,364;    0,820;   -2,045
848,133;19337,784;   -1,089;   -1,864
848,695;19218,749;   -0,543;    1,409
849,257;18715,169;   -1,089;   -1,682
849,819;18872,589;   -0,998;   -0,409
850,381;18893,555;   -0,725;   -0,864
850,942;19304,521;    1,093;   -0,591
851,504;19257,668;    1,184;    0,227
852,066;19323,088;    1,275;   -1,591
852,628;18843,144;   -0,180;    1,955
853,189;18421,019;    1,638;    2,682
853,751;18488,530;   -0,907;    1,409
854,312;18284,587;   -0,453;   -1,682
854,874;18789,916;   -2,089;   -0,773
855,435;19333,972;   -0,907;   -1,682
855,997;19492,210;   -1,816;   -0,136
856,558;18733,994;    0,366;    1,773
857,119;18864,869;    0,820;    2,864
857,681;18542,471;    0,002;    0,318
858,242;18567,345;    1,911;   -2,136
858,803;19033,856;    0,456;   -0,773
859,364;19635,185;    0,184;   -4,773
859,925;18890,333;   -2,453;   -0,955
860,486;18782,844;   -0,453;   -0,955
861,047;18544,264;   -0,544;   -1,227
861,608;18351,684;   -1,089;   -0,773
862,169;18464,468;    0,638;   -0,045
862,730;18238,342;    0,456;    1,409
863,291;18513,762;   -0,635;   -0,500
863,852;18865,001;   -0,635;    1,955
864,412;18322,694;   -0,271;   -0,864
864,973;16886,932;   -0,089;    0,500
865,534;16752,079;   -1,726;    0,227
866,094;18263,863;    1,820;    0,227
866,655;17938,010;    1,274;    3,318
867,215;18186,976;    0,274;    0,136
867,776;18030,759;    0,547;   -0,136
868,336;18171,361;   -1,453;    0,136
868,897;17636,327;    2,638;    1,682
869,457;17291,838;    1,365;    0,318
870,017;17567,440;    0,547;   -1,227
870,578;18116,133;   -0,817;    0,773
871,138;17772,371;   -2,089;   -0,955
871,698;17374,064;   -0,817;   -1,318
872,258;17216,120;   -0,453;   -2,864
872,818;17596,358;    2,729;    0,045
873,378;17553,142;    0,638;    1,045
873,938;17099,290;    0,547;    0,500
874,498;17475,073;    0,274;   -1,955
875,058;17356,584;    2,183;    1,773
875,618;17191,004;    1,910;   -2,682
876,177;17084,243;    1,274;    0,136
876,737;16709,117;   -0,090;    1,955
877,297;16697,992;    0,183;    1,955
877,856;16705,412;   -0,362;    0,318
878,416;16645,377;    1,183;   -0,136
878,976;16907,616;   -1,817;    0,409
879,535;17069,490;    0,092;    3,136
880,095;16843,547;   -0,544;    0,045
880,654;16975,694;   -1,090;    1,318
881,213;17010,932;    2,456;    1,500
881,773;16690,171;    2,637;    2,682
882,332;17067,682;    3,365;    5,136
882,891;16872,738;    3,092;    2,136
883,451;17357,340;   -1,272;    1,682
884,010;16786,851;   -2,908;   -0,409
884,569;16851,180;   -0,999;   -0,045
885,128;16985,873;    2,819;   -1,864
885,687;17046,384;    4,455;    0,682
886,246;16768,440;    1,455;    2,136
886,805;16533,588;    2,455;    2,045
887,364;16837,099;   -0,999;   -0,500
887,922;17184,428;   -1,181;    0,045
888,481;16688,575;   -1,545;    0,591
889,040;17011,541;    1,183;    2,136
889,599;17703,597;    2,455;    1,409
890,157;17747,836;    1,455;    2,409
890,716;17406,892;   -0,090;    0,227
891,274;17205,767;    0,092;   -1,136
891,833;17671,550;    1,546;    0,864
892,391;17587,425;   -0,454;    0,500
892,950;17641,936;    1,819;   -0,773
893,508;18001,811;    0,455;   -0,409
894,067;17329,685;    0,637;    0,136
894,625;17217,287;   -0,636;   -1,500
895,183;17471,071;   -0,363;   -0,682
895,741;17343,218;    1,728;   -1,773
896,299;17207,366;   -0,545;   -2,409
896,858;17384,604;    0,819;   -1,591
897,416;17544,479;    2,728;   -1,318
897,974;17272,899;    1,819;    0,318
898,532;17413,410;    6,091;    2,682
899,089;17277,102;    2,091;   -0,682
899,647;17340,613;   -1,454;    1,318
900,205;17066,397;    1,182;    1,045
900,763;17228,726;   -0,454;    0,227
901,321;17232,146;    2,364;   -1,409
901,878;16712,021;   -1,000;   -0,773
902,436;16600,168;   -1,363;    1,318
902,994;16977,043;    4,728;    3,682
903,551;16379,827;    0,728;    0,409
904,109;16778,883;    0,182;   -1,409
904,666;16352,667;    2,455;    1,045
905,224;16171,178;    0,182;   -0,409
905,781;15919,234;    0,727;   -0,318
906,338;16038,473;   -1,363;    1,045
906,895;15950,802;    0,637;    2,045
907,453;15847,949;    1,727;    1,136
908,010;15890,551;   -0,909;    0,409
908,567;15549,971;    1,273;    0,591
909,124;15086,937;    0,364;   -1,500
909,681;15183,357;   -2,909;    0,682
910,238;15306,959;    0,636;   -1,318
910,795;15542,561;   -0,273;   -1,136
911,352;15160,561;   -2,909;   -2,682
911,909;14614,015;   -1,364;   -0,864
912,466;15119,833;   -3,182;    1,500
913,022;14690,288;   -1,636;    0,500
913,579;15071,561;   -0,909;    2,045
914,136;14728,924;    1,636;    0,955
914,692;15065,924;    0,091;   -1,227
915,249;14647,833;    1,455;    0,409
915,806;14895,924;    0,182;    1,955
916,362;14657,379;    1,909;    1,864
916,918;14208,288;    2,000;    1,045
917,475;14194,833;   -1,182;    0,955
918,031;14239,288;    3,364;   -0,045
918,587;13711,833;   -0,909;   -0,318
919,144;13929,833;   -2,273;    0,227
919,700;14242,833;    1,727;    0,773
920,256;13827,652;    0,727;    0,045
920,812;13419,197;   -0,727;   -1,045
921,368;13456,470;   -1,727;   -1,045
921,924;13058,288;    0,182;   -0,136
922,480;12644,561;   -0,545;    1,227
923,036;13231,561;    1,273;    1,955
923,592;13161,652;    0,455;    0,318
924,148;13115,833;    0,455;   -0,955
924,704;12435,288;   -1,364;   -0,409
925,259;12701,742;   -0,273;    0,591
925,815;12491,561;    1,455;    0,500
926,371;11997,652;    2,909;    1,409
926,926;11882,288;    2,091;    0,591
927,482;11515,470;   -1,364;    0,773
928,037;11398,197;    0,909;    2,045
928,593;11656,379;    1,636;    1,045
929,148;11480,288;   -1,818;   -1,500
929,704;10972,742;   -1,455;   -0,500
930,259;11171,833;    0,091;   -0,136
930,814;10253,015;   -0,818;    1,955
931,369; 9957,833;    1,091;   -0,773
931,925; 9828,742;   -0,091;    0,136
932,480; 9728,652;   -2,818;   -2,591
933,035; 9597,470;    0,545;   -0,318
933,590; 9377,561;    0,364;   -1,773
934,145; 8992,561;   -1,364;   -0,318
934,700; 9370,379;    0,455;   -0,591
935,255; 9149,197;   -0,091;    0,045
935,809; 8423,652;    3,182;    0,864
936,364; 7549,742;   -0,455;   -0,136
936,919; 7507,833;    0,455;   -1,773
937,474; 7399,197;    1,455;    0,136
938,028; 7182,288;   -1,636;    1,136
938,583; 6630,106;    1,818;    4,682
939,138; 6925,015;    2,091;    2,136
939,692; 6347,288;    1,636;   -1,136
940,247; 6053,470;   -0,727;   -1,045
940,801; 5586,742;   -0,636;    0,227
941,355; 5495,652;   -0,364;    2,591
941,910; 5157,561;   -0,273;   -2,136
942,464; 5268,379;   -0,818;   -0,318
943,018; 5033,652;    1,000;   -0,227
943,572; 4992,833;    2,545;   -0,682
944,126; 4400,379;    0,091;   -0,409
944,681; 4303,379;    3,091;    0,227
945,235; 4281,470;    1,000;   -0,591
945,789; 4217,652;    0,364;   -1,864
946,342; 4332,561;    0,455;   -0,591
946,896; 4131,561;   -2,273;    0,955
947,450; 3858,379;    1,545;   -0,227
948,004; 4048,288;    1,727;   -0,045
948,558; 4077,106;    0,273;   -0,864
949,111; 4021,561;   -0,273;   -0,318
949,665; 4031,742;    1,636;   -0,682
950,219; 3898,833;   -0,091;   -1,045
950,772; 3982,561;   -1,909;    1,864
951,326; 3872,742;    0,545;   -0,955
951,879; 3995,924;    0,727;   -2,318
952,433; 4013,470;    0,000;    2,227
952,986; 3846,652;    2,909;    0,682
953,539; 3795,924;   -0,273;    0,591
954,093; 3719,197;    0,545;   -1,318
954,646; 3869,742;    0,909;    1,318
955,199; 3675,561;    0,000;   -0,500
955,752; 3574,561;   -0,455;    1,773
956,305; 3515,561;   -0,091;    2,955
956,858; 3682,742;    0,818;   -0,318
957,411; 3833,197;   -0,545;    2,136
957,964; 3678,106;    1,364;    2,136
958,517; 3662,106;   -1,545;    3,136
959,070; 3508,015;   -0,455;    1,955
959,623; 3577,833;    1,091;    1,500
960,176; 3349,470;    1,727;    2,045
960,728; 3329,833;   -2,727;    0,773
961,281; 3395,924;    0,545;    0,500
961,834; 3436,924;   -0,909;    0,864
962,386; 3353,106;    1,727;    1,045
962,939; 3278,742;    0,364;   -0,318
963,491; 3419,106;    0,455;    1,136
964,043; 3291,833;    1,182;    2,409
964,596; 3410,015;   -1,000;    2,227
965,148; 3246,924;   -1,000;    1,773
965,700; 3179,015;    1,091;   -0,227
966,253; 3331,015;   -0,636;    0,318
966,805; 3174,833;   -2,273;    0,773
967,357; 3220,924;    1,091;   -1,500
967,909; 3189,652;    0,455;   -1,227
968,461; 3299,652;    0,545;    3,136
969,013; 3214,924;   -0,182;   -0,864
969,565; 3293,197;   -0,455;   -1,136
970,117; 3352,924;   -0,364;    1,045
970,669; 3192,924;    0,182;   -0,136
971,220; 3060,833;   -0,455;   -1,500
971,772; 2950,379;   -0,636;   -0,318
972,324; 3090,742;    0,091;   -0,500
972,876; 3039,197;    0,818;   -0,045
973,427; 3176,106;    1,909;   -1,045
973,979; 3146,924;   -0,727;   -2,500
974,530; 3191,833;    1,818;    1,318
975,082; 3194,470;   -0,545;    1,682
975,633; 3087,561;    1,091;    1,682
976,184; 3226,742;    0,909;    0,773
976,736; 3003,379;    0,091;    0,227
977,287; 2813,924;   -0,909;   -0,500
977,838; 2985,561;    0,909;   -0,318
978,389; 3053,742;   -1,000;   -0,500
978,940; 2924,561;    0,545;   -0,409
979,491; 2952,833;    0,091;   -0,500
980,042; 2926,106;    0,182;    3,045
980,593; 2956,742;   -2,545;    0,227
981,144; 3018,379;    2,545;   -0,500
981,695; 2970,924;    1,455;    1,500
982,246; 2945,833;   -0,273;    1,045
982,797; 3104,924;   -1,727;    0,682
983,347; 3207,379;    0,364;    0,591
983,898; 3357,742;    3,091;    0,409
984,449; 3185,924;    2,182;    0,773
984,999; 3096,833;    1,455;   -1,136
985,550; 2856,652;    0,182;   -0,318
986,100; 2917,742;   -0,455;   -0,318
986,651; 2936,197;   -0,818;    0,045
987,201; 2904,379;   -1,000;   -0,591
987,751; 3003,652;    0,818;    2,864
988,302; 2991,379;    2,636;    1,500
988,852; 3008,015;    0,455;   -1,136
989,402; 3049,288;    0,091;    0,682
989,952; 2971,561;   -2,182;    0,864
990,502; 3081,561;   -0,091;    0,682
991,052; 3037,015;   -0,727;    0,045
991,602; 2895,924;   -2,909;    1,318
992,152; 2885,470;    0,455;    0,682
992,702; 2874,561;    1,364;   -0,045
993,252; 2800,561;   -3,000;   -0,500
993,802; 2884,742;   -0,273;    1,318
994,352; 3109,288;   -1,545;    1,136
994,901; 3209,106;   -0,182;    3,227
995,451; 3126,470;   -0,182;    0,318
996,000; 3218,106;    1,636;    0,318
996,550; 2936,197;    2,273;    0,227
997,100; 2924,833;    1,273;   -0,045
997,649; 3218,106;    2,182;    0,955
998,198; 2847,015;    1,727;   -1,500
998,748; 3047,561;    1,091;   -2,318
999,297; 2944,924;   -0,818;   -0,409
999,846; 3008,106;    1,000;   -0,773
1000,395; 3053,652;   -0,818;    0,500
1000,945; 2992,015;    1,818;   -0,773
1001,494; 3099,470;    2,364;    0,682
1002,043; 3080,288;    4,636;    0,864
1002,592; 2932,106;   -1,091;    1,955
1003,141; 3079,561;   -0,455;   -0,682
1003,690; 2927,379;    1,727;    0,500
1004,238; 3026,106;    1,455;   -0,045
1004,787; 2675,015;    1,364;    1,227
1005,336; 2906,470;    0,364;    0,682
1005,885; 3035,924;    1,364;   -2,773
1006,433; 3185,652;    0,545;    0,955
1006,982; 3242,742;    0,455;    1,682
1007,531; 3112,470;   -1,818;   -0,227
1008,079; 3076,833;   -2,273;    0,500
1008,627; 3231,652;   -1,455;    0,409
1009,176; 2974,652;    0,000;   -1,955
1009,724; 3003,652;    1,091;    0,864
1010,273; 3053,015;    1,273;    0,500
1010,821; 3174,833;    0,091;    1,409
1011,369; 2918,833;   -1,364;    1,318
1011,917; 2889,561;   -1,364;   -0,591
1012,465; 3187,288;    1,273;   -1,591
1013,013; 3274,742;    2,091;   -1,682
1013,561; 3158,288;    0,455;   -0,773
1014,109; 3194,106;   -1,909;    1,682
1014,657; 3102,561;    0,364;    0,591
1015,205; 3213,197;    1,636;   -0,955
1015,753; 3239,561;   -0,545;   -1,409
1016,301; 3276,106;   -2,636;    3,045
1016,848; 3294,197;   -1,273;    0,409
1017,396; 3329,470;    2,545;    0,045
1017,944; 3467,015;    1,182;    1,864
1018,491; 3223,652;    0,273;    1,409
1019,039; 3365,924;    0,455;    0,591
1019,586; 3266,197;   -1,364;    1,682
1020,134; 3373,924;    0,455;    1,500
1020,681; 3396,379;    0,182;   -1,136
1021,228; 3412,924;    2,909;   -2,227
1021,776; 3247,561;    1,182;   -1,136
1022,323; 3442,288;    0,455;    0,773
1022,870; 3378,288;   -1,000;   -0,045
1023,417; 3255,379;    2,636;    1,864
1023,964; 3413,652;    2,636;    1,227
1024,511; 3265,742;    1,000;    0,773
1025,058; 3052,106;    3,182;   -0,045
1025,605; 3121,561;   -2,273;    3,136
1026,152; 3351,561;    1,727;   -0,591
1026,699; 3067,288;    1,818;    1,318
1027,245; 3237,561;   -0,091;    0,318
1027,792; 3439,833;   -1,000;    1,409
1028,339; 3343,288;    2,364;   -0,045
1028,885; 3178,197;    1,000;   -0,227
1029,432; 3117,288;   -0,091;    0,227
1029,978; 3165,106;   -1,000;   -1,591
1030,525; 3081,652;    1,000;    0,409
1031,071; 3328,106;   -1,364;    1,136
1031,618; 3421,924;    0,364;    1,682
1032,164; 3213,470;   -0,091;    3,045
1032,710; 3262,742;    1,636;   -1,500
1033,256; 3188,015;   -0,636;   -0,136
1033,803; 3169,833;   -0,545;    1,500
1034,349; 2878,470;   -1,364;    0,136
1034,895; 3050,833;    0,000;   -0,318
1035,441; 3023,652;   -0,818;    0,318
1035,987; 3023,379;   -2,364;   -0,682
1036,533; 3002,015;   -1,455;   -0,955
1037,078; 3212,924;    1,455;    1,682
1037,624; 3033,924;    2,455;   -0,955
1038,170; 3078,288;    0,455;   -0,318
1038,716; 2970,288;    1,636;   -0,409
1039,261; 2884,106;   -2,273;   -0,773
1039,807; 2815,288;   -0,091;    3,409
1040,352; 2877,106;   -1,909;   -0,318
1040,898; 2928,015;   -1,545;   -0,682
1041,443; 2839,015;   -1,455;   -2,591
1041,989; 2856,288;    1,091;    1,591
1042,534; 2741,197;   -0,364;    2,591
1043,079; 2861,833;    2,909;    0,955
1043,625; 2656,106;    1,818;    0,500
1044,170; 2701,561;   -1,364;    1,045
1044,715; 2946,106;    2,455;    0,955
1045,260; 2768,197;    2,182;   -0,955
1045,805; 2807,288;    1,182;   -0,591
1046,350; 2748,197;    1,364;   -0,409
1046,895; 2712,106;    2,909;    1,591
1047,440; 2655,197;    5,364;    0,409
1047,985; 2560,379;    2,818;   -0,955
1048,530; 2478,924;    1,545;    1,227
1049,074; 2539,924;    0,000;    0,318
1049,619; 2520,833;   -1,364;    1,955
1050,164; 2324,015;    0,455;    0,227
1050,708; 2363,924;   -0,455;    0,045
1051,253; 2725,924;    1,273;   -2,227
1051,797; 2439,561;    0,818;   -1,318
1052,342; 2448,924;   -1,182;    1,045
1052,886; 2452,652;    0,364;   -1,409
1053,430; 2327,379;   -1,364;    0,136
1053,975; 2350,652;   -0,818;   -0,318
1054,519; 2319,106;   -0,727;    3,227
1055,063; 2331,924;    0,909;    1,318
1055,607; 2199,106;   -0,182;    0,227
1056,151; 2230,833;    2,909;    1,682
1056,695; 2149,015;    2,273;   -1,136
1057,239; 2230,106;   -1,727;   -0,682
1057,783; 2231,742;    0,818;   -1,500
1058,327; 2184,197;    0,000;    1,409
1058,871; 2416,742;   -0,545;    1,318
1059,415; 2120,924;   -0,818;   -0,045
1059,958; 2379,470;    1,455;    2,591
1060,502; 2100,561;   -1,000;   -0,773
1061,046; 1998,197;    0,364;   -0,955
1061,589; 1992,561;   -3,000;   -1,136
1062,133; 1870,561;   -1,273;    1,864
1062,676; 1803,833;    1,182;    0,864
1063,220; 1801,470;    1,091;    0,500
1063,763; 1831,742;    0,909;    1,136
1064,306; 1918,924;   -0,909;    1,864
1064,849; 1793,470;   -0,909;    0,591
1065,393; 1785,652;    2,000;   -1,500
1065,936; 1899,197;    0,182;   -0,409
1066,479; 1795,470;   -1,455;    1,318
1067,022; 1833,288;   -0,273;   -0,227
1067,565; 1715,379;   -0,091;   -1,318
1068,108; 1749,015;    0,727;   -0,591
1068,651; 1729,197;   -0,636;    1,409
1069,194; 1652,197;   -0,455;   -1,682
1069,736; 1660,106;   -1,273;    0,955
1070,279; 1641,742;   -1,364;   -0,500
1070,822; 1676,833;   -2,000;   -0,318
1071,364; 1758,470;   -0,364;    1,318
1071,907; 1597,924;   -0,727;    3,227
1072,450; 1487,742;    0,000;   -0,045
1072,992; 1479,924;   -0,273;    3,136
1073,535; 1620,470;    2,091;    2,136
1074,077; 1410,015;   -0,727;    2,045
1074,619; 1377,379;   -1,364;    0,591
1075,161; 1418,652;   -1,091;    1,500
1075,704; 1607,197;    1,545;    1,227
1076,246; 1399,742;   -0,182;    0,682
1076,788; 1327,379;   -0,364;    1,773
1077,330; 1396,470;    1,273;    2,136
1077,872; 1361,106;    0,909;    0,955
1078,414; 1589,197;    2,727;    0,773
1078,956; 1316,379;    1,273;   -0,227
1079,498; 1583,015;    1,636;    0,318
1080,040; 1286,833;    1,909;   -1,318
1080,581; 1234,015;    1,636;   -0,318
1081,123; 1145,561;    0,091;   -0,773
1081,665; 1201,652;   -1,182;   -0,955
1082,206; 1495,652;    1,364;   -0,500
1082,748; 1350,833;    0,727;    2,045
1083,289; 1229,561;   -2,000;    1,318
1083,831; 1153,742;   -0,545;    0,227
1084,372; 1180,015;    0,000;    0,591
1084,913; 1179,652;    1,091;    0,864
1085,455; 1144,015;   -1,909;   -2,045
1085,996; 1113,561;   -2,273;    0,136
1086,537; 1145,106;   -0,091;    0,864
1087,078; 1170,833;   -0,909;   -2,136
1087,619; 1211,742;   -1,273;    0,227
1088,160; 1130,379;    0,000;    1,318
1088,701; 1118,288;   -1,091;    0,682
1089,242; 1059,833;    1,364;   -2,227
1089,783; 1168,106;   -0,273;    1,409
1090,324; 1129,470;    0,455;    0,682
1090,865;  991,561;    2,727;   -0,409
1091,405;  953,742;    0,727;    2,227
1091,946;  990,288;    0,182;   -0,955
1092,487;  921,106;    0,818;   -1,409
1093,027; 1096,470;   -1,364;   -1,500
1093,568;  942,015;   -0,364;    1,227
1094,108; 1047,742;    0,273;    1,773
1094,649;  975,470;   -1,182;    0,136
1095,189;  907,833;   -0,636;   -0,682
1095,729;  867,197;   -0,091;    0,955
1096,269;  872,742;    0,727;   -0,955
1096,810; 1187,470;   -1,364;    0,500
1097,350; 1010,106;    1,364;   -0,773
1097,890;  903,288;    0,364;    1,227
1098,430; 1151,379;    2,364;    2,864
1098,970; 1037,197;    2,182;    1,682
1099,510;  897,379;    0,545;   -2,318
1100,050;  826,742;    1,000;   -1,591
1100,589;  792,106;   -0,727;   -0,318
1101,129;  920,015;    0,818;   -0,955
1101,669; 1074,106;    1,727;    2,136
1102,209;  898,015;   -0,091;    2,227
1102,748;  843,197;    0,000;    0,955
1103,288;  829,742;    1,273;   -1,227
1103,827;  869,288;    3,091;   -2,227
1104,367;  734,470;   -0,091;   -2,409
1104,906;  705,106;    1,364;   -1,136
1105,445;  765,288;    0,636;   -1,136
1105,985;  719,379;   -0,727;    1,500
1106,524;  771,288;   -1,727;   -0,682
1107,063;  751,470;   -2,727;    1,409
1107,602;  721,833;   -1,909;   -1,500
1108,141;  641,561;   -1,909;    1,500
1108,680;  740,833;   -3,455;   -0,591
1109,219;  676,652;   -0,909;   -0,500
1109,758;  679,197;    0,455;    0,682
1110,297;  650,924;    1,000;   -0,682
1110,836;  594,379;   -0,727;    0,955
1111,375;  765,015;   -2,545;    0,409
1111,913;  773,379;   -1,000;    0,773
1112,452;  710,742;   -0,273;    0,136
1112,991;  589,015;    1,091;    1,955
1113,529;  550,742;   -0,818;   -0,045
1114,068;  622,015;   -0,273;    2,955
1114,606;  526,379;   -0,364;   -0,955
1115,144;  676,742;   -1,273;    1,045
1115,683;  618,015;   -0,727;    0,318
1116,221;  665,924;   -0,455;   -0,864
1116,759;  582,106;    0,636;   -0,864
1117,297;  786,197;    0,000;    1,864
1117,836;  596,470;   -2,182;   -1,227
1118,374;  598,015;    0,182;   -0,682
1118,912;  533,106;    0,909;    2,682
1119,450;  520,924;    1,000;    0,864
1119,988;  572,197;    1,545;    2,136
1120,525; 1029,470;    5,091;    3,318
1121,063;  727,470;    1,182;    1,864
1121,601;  532,106;   -0,909;   -1,227
1122,139;  488,742;   -0,727;   -2,045
1122,676;  695,924;   -0,727;    2,773
1123,214;  623,015;   -1,182;    4,409
1123,751;  429,561;    1,727;    2,227
1124,289;  561,833;   -0,091;   -0,409
1124,826;  428,561;    1,727;    0,227
1125,364;  352,197;    1,727;   -0,955
1125,901;  548,106;    1,182;    1,227
1126,438;  650,742;    0,818;    0,955
1126,975;  376,561;   -0,727;   -0,773
1127,513;  459,561;    0,273;    2,136
1128,050;  358,015;    1,636;   -0,682
1128,587;  457,288;    2,000;   -0,227
1129,124;  499,197;    0,091;    1,318
1129,661;  364,652;    0,273;    0,227
1130,198;  526,561;    1,636;    0,773
1130,734;  477,924;    0,182;    1,409
1131,271;  335,561;   -0,909;    0,864
1131,808;  513,106;    2,909;    3,045
1132,345;  373,561;    1,545;    0,318
1132,881;  238,652;   -1,545;   -1,864
1133,418;  385,288;    0,727;   -1,136
1133,954;  319,652;    2,455;   -2,682
1134,491;  405,379;    1,364;   -0,773
1135,027;  298,197;    2,364;    0,864
1135,564;  382,379;    0,273;    2,955
1136,100;  368,470;    0,364;    2,136
1136,636;  265,924;   -1,273;   -1,045
1137,172;  364,379;    0,000;   -1,045
1137,708;  275,833;   -1,364;   -1,045
1138,245;  280,561;    1,273;   -1,227
1138,781;  239,470;    1,091;   -3,318
1139,317;  310,015;    1,273;   -1,409
1139,852;  291,742;    3,091;    0,136
1140,388;  414,561;   -1,182;   -0,409
1140,924;  293,106;   -1,091;   -2,227
1141,460;  227,106;   -1,636;    0,136
1141,996;  165,379;   -1,364;    2,682
1142,531;  218,379;    1,364;    3,318
1143,067;  437,652;    1,182;    1,045
1143,602;  497,924;   -0,091;   -0,318
1144,138;  335,742;   -2,636;    1,045
1144,673;  193,197;   -1,455;    1,409
1145,209;  263,015;   -1,909;   -0,318
1145,744;  187,379;   -0,727;    0,864
1146,279;  316,106;    1,818;   -0,136
1146,815;  234,742;    1,545;   -2,682
1147,350;  274,288;   -1,364;    0,045
1147,885;  187,197;   -0,818;   -1,318
1148,420;  179,106;   -2,273;    0,773
1148,955;  169,742;   -1,727;    1,864
1149,490;  202,379;   -0,909;   -1,591
1150,025;  181,742;    0,455;   -1,773
1150,560;  308,561;    1,091;   -0,955
1151,094;  275,652;    1,455;   -0,591
1151,629;  268,470;    1,636;    0,864
1152,164;  189,652;    1,364;    1,318
1152,698;  143,288;   -0,182;   -0,136
1153,233;   99,470;    0,091;   -0,682
1153,767;  161,652;   -3,000;   -2,318
1154,302;  201,470;   -1,455;    1,773
1154,836;  206,379;   -0,455;   -2,136
1155,371;  254,924;   -1,364;    3,682
1155,905;  217,015;   -0,636;    1,682
1156,439;  174,561;   -0,636;   -0,500
1156,973;  209,470;    0,364;    0,318
1157,507;  144,742;   -0,364;    0,682
1158,042;  175,288;   -0,727;    1,045
1158,576;  222,106;    0,182;    1,773
1159,110;  207,652;   -0,818;    2,409
1159,643;  175,197;    0,636;   -0,045
1160,177;  108,470;   -1,545;    1,500

