
Integration time [ms]:   0,040
Averaging Nr. [scans]: 11
Smoothing Nr. [pixels]: 0
Data measured with spectrometer [name]: 7318044SP
Wave   ;Sample   ;Dark     ;Reference
[nm]   ;[counts] ;[counts] ;[counts] 

186,757;   33,316;   31,551;    1,318
187,357;   64,639;   22,551;    0,955
187,958;   36,631;   15,460;   -1,591
188,558;   81,668;    8,915;   -1,227
189,159;   47,839;    6,733;   -4,500
189,759;   18,528;    7,278;   -3,591
190,360;   21,054;    2,824;   -2,136
190,960;   68,417;    2,915;   -4,136
191,560;   78,674;    3,189;   -6,591
192,161;  334,834;    4,372;   -3,500
192,761;  163,580;    4,010;   -3,227
193,361;  113,497;    1,556;   -3,773
193,962;  185,833;    2,010;   -2,682
194,562;   92,234;    1,189;   -3,955
195,162;  129,640;   -2,448;   -2,227
195,762;  298,029;   -3,176;   -0,045
196,362;  238,829;    1,370;   -2,500
196,963;  102,692;    2,006;   -0,864
197,563;  177,310;    1,551;   -0,955
198,163;  124,645;    0,096;   -0,682
198,763;  150,120;    1,733;   -0,500
199,363;  258,651;    3,096;   -0,500
199,963;  216,300;    0,369;    0,409
200,563;  185,865;    2,823;   -1,409
201,163;  157,176;    3,277;   -0,227
201,763;  258,964;    3,732;    0,318
202,363;  191,805;    1,459;    1,500
202,963;  320,330;    1,459;    1,045
203,563;  429,932;    0,277;    0,500
204,162;  262,047;    2,096;   -1,864
204,762;  251,580;    0,550;    0,591
205,362;  224,536;    3,004;    1,955
205,962;  331,989;    3,096;    1,955
206,562;  324,787;    1,823;    2,318
207,161;  284,251;   -0,087;    0,318
207,761;  446,455;    1,277;    2,409
208,361;  323,787;   -0,268;    1,409
208,960;  431,639;    0,459;    1,500
209,560;  508,962;    1,277;    1,591
210,160;  485,241;    0,550;    1,864
210,759;  446,940;    4,186;    1,227
211,359;  455,235;    1,459;    1,045
211,958;  735,168;    1,277;    2,045
212,558;  816,405;    1,732;    1,864
213,157;  640,392;    1,822;    1,500
213,757; 1107,089;    3,822;   -0,227
214,356;  805,934;    1,277;   -0,409
214,956; 1148,544;    3,095;    0,409
215,555;  760,665;    2,095;    2,136
216,154;  691,152;   -2,723;   -0,591
216,754;  706,867;    0,277;    0,773
217,353;  841,980;   -0,268;   -1,045
217,952;  708,760;   -0,178;    0,318
218,552;  953,948;    1,368;   -0,773
219,151;  847,780;    0,277;    0,955
219,750;  847,505;    0,004;   -0,227
220,349;  977,855;   -0,451;    1,045
220,948; 1037,485;   -1,360;    1,136
221,548; 1080,002;    0,913;    1,227
222,147; 1203,914;   -0,087;   -0,409
222,746; 1482,740;   -0,451;   -0,955
223,345; 1358,497;    0,731;    0,500
223,944; 1373,168;   -0,451;    0,773
224,543; 1553,908;    1,004;   -1,409
225,142; 1669,132;    0,094;    0,136
225,741; 1588,451;   -0,814;    1,045
226,340; 1627,968;   -0,451;   -0,955
226,939; 2086,538;   -0,996;   -0,136
227,538; 2076,192;   -0,360;   -0,773
228,137; 2223,275;   -0,814;    0,864
228,735; 2397,724;   -0,541;    1,227
229,334; 2140,984;   -0,905;   -0,227
229,933; 2522,697;    0,459;    0,591
230,532; 2628,261;    1,186;   -0,409
231,131; 2696,972;    1,732;    0,318
231,729; 2861,304;   -2,450;   -2,318
232,328; 3022,617;   -0,723;   -1,500
232,927; 3112,085;    1,004;   -0,500
233,525; 3247,827;    3,640;    0,045
234,124; 3453,865;    2,368;   -1,591
234,723; 3495,277;    0,913;   -1,045
235,321; 3644,342;    2,277;    0,136
235,920; 3915,037;    1,186;   -1,227
236,518; 4191,101;    3,459;    0,318
237,117; 4388,340;    0,004;   -0,227
237,715; 4555,140;    0,640;   -0,500
238,314; 4602,552;   -0,087;   -2,318
238,912; 4674,039;   -0,723;   -1,409
239,510; 4753,378;    0,459;   -1,227
240,109; 4947,251;    0,004;    3,773
240,707; 4995,976;   -0,996;    1,227
241,305; 5369,687;    0,550;    0,136
241,904; 5576,506;   -0,178;   -2,045
242,502; 5544,069;   -0,632;   -0,227
243,100; 5501,401;   -0,087;   -0,955
243,698; 5743,928;    0,732;    1,682
244,297; 5955,354;   -0,632;    0,682
244,895; 5777,330;   -0,269;   -2,318
245,493; 6118,267;    2,186;   -0,591
246,091; 6180,665;    1,368;   -1,318
246,689; 6140,386;    1,004;    0,591
247,287; 6342,439;    0,822;   -1,136
247,885; 6628,469;   -1,451;    1,227
248,483; 6718,582;    1,822;   -0,500
249,081; 6842,643;    0,185;    1,591
249,679; 7010,469;   -0,178;    1,682
250,277; 7238,881;   -1,723;    0,864
250,875; 7241,861;   -1,087;   -1,045
251,473; 7274,287;   -1,178;    0,500
252,071; 7484,491;    1,459;    1,045
252,669; 7661,168;   -1,814;    0,318
253,267; 7908,556;   -0,087;    0,773
253,864; 7912,257;   -0,360;    0,682
254,462; 7738,996;    1,640;    1,591
255,060; 7718,330;   -0,269;    1,318
255,658; 8058,532;    0,822;   -0,136
256,255; 8478,069;    0,186;   -2,045
256,853; 8341,742;   -0,269;    1,409
257,451; 8366,437;    0,822;    1,864
258,048; 8601,861;    1,822;    1,864
258,646; 8351,172;    1,731;   -1,045
259,243; 8558,469;   -0,087;    2,227
259,841; 8641,869;   -0,814;    0,318
260,438; 8519,079;   -0,087;    0,864
261,036; 9256,120;   -1,905;    1,409
261,633; 9156,089;   -0,087;    2,227
262,231; 8885,819;    2,731;   -0,045
262,828; 8956,623;   -0,905;    1,136
263,425; 9042,940;    0,913;   -0,591
264,023; 9313,693;    0,186;    0,045
264,620; 8870,160;   -0,360;   -0,318
265,217; 9246,901;   -2,087;    3,136
265,815; 9308,994;   -1,905;    2,136
266,412; 9099,095;    0,731;    0,136
267,009; 9163,431;   -1,451;    0,773
267,606; 9010,899;    0,822;   -0,955
268,203; 8992,722;   -0,269;   -0,591
268,801; 9293,194;    1,731;    0,591
269,398; 9614,611;   -0,360;    2,500
269,995; 9578,986;    0,277;    1,591
270,592; 9360,744;   -0,632;   -0,500
271,189; 9564,552;    0,186;    0,409
271,786; 9673,160;   -0,632;    1,227
272,383; 9497,405;   -1,087;    0,227
272,980; 9703,047;    0,277;    0,318
273,577;10192,126;    0,004;    1,227
274,174; 9762,091;    0,822;    2,591
274,771; 9765,986;   -0,814;   -0,773
275,367; 9893,211;    2,277;    1,409
275,964; 9862,893;    0,731;   -0,500
276,561; 9975,641;    1,549;   -1,045
277,158;10204,833;    0,095;   -1,773
277,755;10319,279;    2,185;    0,409
278,351; 9682,621;   -0,451;   -1,500
278,948;10024,332;   -0,815;    0,045
279,545;10047,109;   -1,360;    2,318
280,141;10666,322;   -1,723;   -2,045
280,738;10544,883;   -0,451;   -0,136
281,334;10782,247;   -1,633;    0,591
281,931;10163,051;   -0,087;   -1,318
282,528;10277,144;    0,822;   -0,500
283,124;11030,905;   -1,087;   -0,500
283,721;10911,663;   -0,451;    1,409
284,317;10710,212;    0,185;    2,500
284,913;11285,370;   -1,360;    0,591
285,510;11475,825;    0,640;   -0,318
286,106;11498,895;   -2,269;   -0,955
286,703;11086,190;   -0,360;    1,955
287,299;11289,596;   -1,451;   -0,591
287,895;11487,374;    0,822;   -1,045
288,491;12059,792;    0,186;    2,136
289,088;11801,451;   -2,360;    2,409
289,684;11883,532;   -1,723;    1,500
290,280;11914,849;    0,368;    0,682
290,876;11988,667;    1,822;    5,500
291,472;11873,774;    1,276;    2,227
292,068;11967,089;    1,367;    0,227
292,665;11682,869;    2,095;    0,773
293,261;11276,655;    0,276;    2,136
293,857;11677,200;    2,913;    2,136
294,453;11644,601;    3,550;    0,955
295,049;11500,332;   -0,268;    1,955
295,644;11493,378;    0,095;    0,136
296,240;11401,879;   -0,905;   -0,136
296,836;11460,655;   -0,995;    0,318
297,432;11750,669;    1,096;   -0,500
298,028;11777,280;    0,732;    0,773
298,624;12210,764;    1,459;    1,864
299,220;12488,859;    2,368;    0,591
299,815;12131,633;    1,005;   -0,409
300,411;11880,059;    0,914;    1,773
301,007;11927,989;    1,368;    0,227
301,602;12005,726;   -0,541;   -2,318
302,198;12167,110;    0,732;   -0,773
302,794;12472,718;    1,187;   -0,500
303,389;12625,100;   -1,177;    1,045
303,985;12653,176;    0,550;    1,409
304,580;12660,985;    1,459;    1,591
305,176;12648,481;   -3,086;    0,136
305,771;12581,750;   -1,268;   -1,227
306,367;12372,124;    4,095;    0,136
306,962;12724,090;    0,641;    1,500
307,558;12454,389;   -0,450;    0,136
308,153;12399,215;    1,095;   -1,136
308,748;12667,146;   -0,814;    1,682
309,344;12616,429;   -0,632;   -1,318
309,939;12706,861;   -1,905;   -1,318
310,534;12966,009;   -0,086;   -1,682
311,130;12909,035;    0,459;   -2,500
311,725;12657,902;    1,004;   -0,500
312,320;12940,888;    2,459;    0,045
312,915;12795,469;    1,459;   -1,045
313,510;12902,031;    1,550;   -0,500
314,105;13413,558;    1,096;    1,409
314,700;12772,879;   -3,086;   -1,045
315,295;12375,985;   -0,904;    0,045
315,890;11985,987;    1,277;    0,864
316,485;12352,550;   -0,359;   -0,318
317,080;12496,556;   -3,086;    1,591
317,675;13055,985;    2,005;   -0,682
318,270;12445,867;    5,550;    3,318
318,865;12463,861;    3,278;    3,045
319,460;12286,603;   -0,904;    0,591
320,055;12526,593;   -0,541;   -1,227
320,650;12169,076;   -1,995;   -0,591
321,244;12226,987;   -0,177;   -1,409
321,839;13197,807;   -1,541;   -0,227
322,434;13024,069;   -1,086;   -1,591
323,029;12660,748;    1,732;    1,591
323,623;12485,419;    1,550;    0,773
324,218;12249,888;    2,368;    1,409
324,812;12149,269;    1,096;    1,591
325,407;11973,785;   -0,814;    2,045
326,002;11886,764;    0,277;   -0,409
326,596;12177,407;    0,914;    1,318
327,191;12404,098;    0,823;   -1,045
327,785;11937,225;   -0,813;   -0,227
328,379;12165,948;    1,368;    0,136
328,974;11960,344;    0,914;   -3,955
329,568;12178,308;    0,186;   -2,409
330,163;12007,247;    2,096;    1,045
330,757;12370,991;    2,459;    1,591
331,351;11706,683;    0,459;    0,682
331,945;12006,257;    0,914;    1,409
332,540;11601,962;   -1,723;   -0,591
333,134;11685,152;   -1,086;    0,773
333,728;11971,839;    0,005;    0,318
334,322;12280,514;   -1,177;   -0,864
334,916;11560,005;    0,277;    0,955
335,510;11924,340;   -0,450;   -0,136
336,105;12171,825;   -1,086;    1,591
336,699;11886,435;   -1,086;    0,591
337,293;11790,506;   -1,723;    0,318
337,887;11978,738;   -2,723;    1,955
338,481;12046,898;    0,459;    0,591
339,074;12209,635;   -0,359;    2,682
339,668;11996,572;   -1,632;    1,227
340,262;12279,645;    1,732;    3,227
340,856;11782,033;    1,822;   -0,682
341,450;11126,510;    1,004;    1,864
342,044;12013,597;    1,459;    0,136
342,637;11811,160;    0,913;   -2,136
343,231;11696,865;   -2,360;    0,682
343,825;11662,065;   -1,086;   -0,591
344,419;11630,839;   -1,995;    0,500
345,012;11386,362;    2,459;    4,045
345,606;11388,021;    4,641;    1,591
346,199;11223,793;   -1,813;   -0,227
346,793;10750,003;    1,914;    2,045
347,386;10922,140;   -0,813;   -1,136
347,980;10944,053;   -0,268;   -0,045
348,573;10716,379;    2,278;    0,409
349,167;10395,874;    5,278;    4,773
349,760;10742,645;    2,914;    2,682
350,354;10711,484;   -0,813;    1,136
350,947;10446,189;    1,096;    1,682
351,540;10118,936;   -0,358;   -1,409
352,134;10032,678;    1,096;    1,136
352,727;10121,205;   -0,086;    1,136
353,320; 9919,104;    0,005;    0,591
353,913; 9763,354;   -1,995;    1,864
354,507; 9949,476;    0,823;   -1,227
355,100; 9952,985;    0,460;    0,864
355,693; 9190,033;    2,005;    2,409
356,286; 9220,762;    0,823;    2,773
356,879; 9575,476;   -0,722;    1,227
357,472; 9180,162;   -0,904;    1,500
358,065; 9378,761;   -0,722;    2,500
358,658; 9341,106;   -0,540;    2,318
359,251; 8965,027;   -1,631;   -0,591
359,844; 8449,651;   -1,904;   -1,136
360,437; 8599,328;   -2,995;    0,045
361,030; 8840,995;    1,369;   -0,682
361,623; 8466,773;    2,824;    0,318
362,215; 8520,866;   -0,086;    2,045
362,808; 8346,993;   -2,358;   -1,682
363,401; 8531,965;   -2,449;    0,136
363,994; 8286,787;   -0,631;   -1,500
364,586; 8216,462;    0,824;   -1,500
365,179; 8409,749;   -0,449;   -1,136
365,772; 7872,946;   -1,995;    2,045
366,364; 8211,841;    1,915;   -3,227
366,957; 8380,654;    2,279;   -0,045
367,549; 8410,522;    2,188;   -0,864
368,142; 8053,462;    1,825;   -1,500
368,734; 8263,646;    0,734;   -2,136
369,327; 8207,894;    1,643;   -0,500
369,919; 8123,299;   -1,538;    0,409
370,512; 7919,131;   -1,083;   -0,500
371,104; 7674,214;   -0,901;    1,591
371,696; 7833,447;    1,191;   -0,955
372,289; 7939,033;    0,373;    1,136
372,881; 8077,043;   -2,080;    1,318
373,473; 7992,025;   -2,170;    1,136
374,066; 7816,607;   -0,169;    0,500
374,658; 7667,317;    0,378;    1,136
375,250; 8020,911;    0,653;   -1,409
375,842; 7863,058;    0,473;   -0,045
376,434; 7740,304;   -0,435;   -0,409
377,026; 8358,784;    0,204;   -2,500
377,618; 8213,453;   -0,158;   -0,682
378,210; 8029,753;   -0,338;   -1,955
378,802; 7870,485;    0,754;   -0,591
379,394; 7855,269;    1,846;    0,682
379,986; 8458,915;    1,393;   -0,955
380,578; 8570,441;   -0,153;    0,773
381,170; 7880,424;   -0,972;    0,045
381,762; 7855,388;    0,755;    1,409
382,354; 8072,217;   -0,065;   -1,318
382,945; 8179,734;   -2,976;    0,318
383,537; 8321,885;   -2,705;   -1,955
384,129; 8317,776;   -2,160;   -1,136
384,721; 8518,270;   -0,252;    0,955
385,312; 8451,721;   -0,161;   -0,955
385,904; 8547,234;   -2,706;    1,591
386,496; 7887,392;   -0,979;    1,045
387,087; 8081,386;    1,022;    2,500
387,679; 8132,392;   -1,160;    0,045
388,270; 8216,525;    2,840;    2,045
388,862; 8341,927;    1,295;   -0,318
389,453; 8264,230;   -0,887;    1,045
390,045; 8554,744;   -0,705;   -2,682
390,636; 8466,820;    0,204;   -0,591
391,227; 8323,117;   -0,523;   -0,045
391,819; 8417,675;    0,204;    0,773
392,410; 8498,242;    1,022;    0,045
393,001; 8409,978;   -0,979;   -1,591
393,593; 8722,283;    1,930;   -0,045
394,184; 8559,990;    1,385;   -0,409
394,775; 8505,755;    1,839;    2,136
395,366; 8706,960;    1,385;    0,773
395,957; 8695,196;    0,113;    0,136
396,548; 9036,353;   -0,342;    2,682
397,139; 9339,293;   -2,433;    0,591
397,730; 9067,915;   -1,888;    0,955
398,321; 9080,879;   -1,252;    0,955
398,912; 9150,959;   -0,615;    0,136
399,503; 9228,889;   -3,524;   -1,409
400,094; 8671,018;    0,294;    1,682
400,685; 8519,705;   -0,433;    0,045
401,276; 8601,475;    0,930;   -0,955
401,867; 8928,862;   -0,888;    0,773
402,458; 9022,612;   -2,251;   -2,318
403,048; 8982,087;    1,112;    0,591
403,639; 8581,717;    0,840;    0,864
404,230; 8860,767;    2,476;    0,318
404,821; 8784,980;   -0,615;    0,045
405,411; 8919,212;    1,203;   -2,591
406,002; 8485,495;   -1,252;   -1,136
406,592; 8348,919;    2,294;    0,045
407,183; 8658,697;    0,566;   -1,500
407,774; 8562,040;    3,475;   -0,136
408,364; 8919,771;    0,930;    0,409
408,954; 8497,806;    0,384;    1,227
409,545; 8565,242;    1,021;    1,045
410,135; 8100,048;    1,293;    0,500
410,726; 8247,292;    1,838;    0,318
411,316; 8628,315;    0,111;    0,773
411,906; 8265,571;   -0,253;   -0,409
412,497; 7764,743;   -1,070;   -0,045
413,087; 8406,456;   -1,980;   -0,227
413,677; 8784,052;   -0,707;    3,864
414,267; 8661,268;    0,656;    1,409
414,857; 8671,759;   -2,980;    4,227
415,448; 8947,155;    0,839;    0,500
416,038; 8621,581;    0,020;   -0,591
416,628; 8600,761;   -0,889;    0,409
417,218; 8061,632;    0,565;    3,318
417,808; 8321,123;    0,202;   -0,409
418,398; 8815,707;    0,020;    2,682
418,988; 8837,341;    2,020;    0,591
419,578; 9118,874;   -0,707;    1,409
420,168; 9457,129;   -1,343;   -0,955
420,757; 9030,915;   -1,343;   -1,500
421,347; 8666,838;    0,111;   -0,227
421,937; 8865,852;    2,292;    1,409
422,527; 8836,567;    0,838;   -0,773
423,116; 8648,187;   -0,253;   -0,045
423,706; 8988,325;   -1,889;    0,318
424,296; 8947,494;    1,384;    0,682
424,885; 9393,767;   -0,071;   -3,045
425,475; 9680,222;    1,474;   -2,864
426,065; 9604,605;   -0,980;   -0,318
426,654; 9201,918;   -0,435;   -0,318
427,244; 9330,460;    0,020;    1,409
427,833; 8794,508;    1,383;   -0,500
428,423; 9306,547;   -0,526;    1,136
429,012;10066,892;   -0,344;   -1,136
429,601; 9552,828;   -1,344;    0,136
430,191; 9767,611;    1,292;    4,318
430,780; 9421,436;   -0,344;   -0,409
431,369; 9336,379;    0,746;   -0,045
431,959; 9982,442;   -1,254;    0,500
432,548; 9765,310;   -1,163;   -0,045
433,137; 9920,565;   -1,254;   -1,318
433,726;10477,328;    0,292;    0,500
434,315; 9787,805;   -0,526;    2,409
434,905; 9864,989;   -1,254;    1,409
435,494; 9780,082;    0,746;    0,955
436,083;10270,599;   -0,981;   -0,955
436,672;10143,945;    0,110;    0,500
437,261; 9686,500;    0,292;   -1,955
437,850; 9792,044;    1,383;    0,682
438,439; 9791,054;    3,291;    1,955
439,027; 9648,011;    3,655;    1,773
439,616; 9987,165;    2,927;    1,227
440,205; 9894,744;    0,200;   -2,136
440,794; 9987,013;    2,109;   -0,045
441,383;10240,950;   -1,346;   -0,591
441,971;10087,835;   -2,436;    0,591
442,560; 9955,013;    0,563;   -1,773
443,149; 9718,845;    0,379;   -1,318
443,737; 9861,869;   -0,074;   -2,318
444,326;10120,940;    0,018;    0,318
444,915;10178,215;   -1,982;    0,864
445,503;10629,694;   -2,891;   -0,318
446,092; 9877,106;    0,382;    2,136
446,680;10400,833;    0,382;    0,318
447,269;10568,219;   -0,346;   -0,318
447,857;10340,795;    0,018;   -1,773
448,445;10454,142;    0,563;    1,318
449,034;10688,774;   -1,528;   -1,136
449,622;10814,871;   -1,073;    3,500
450,210; 9988,768;    2,017;    2,227
450,799;10570,447;    0,290;   -0,591
451,387;10524,346;    1,381;   -0,591
451,975;10145,370;    2,654;    0,864
452,563;10264,502;    3,472;    2,318
453,151;10291,132;   -0,528;   -1,227
453,739;10217,166;   -1,347;    0,136
454,328;10059,873;    2,381;   -2,136
454,916; 9760,457;    2,562;   -0,136
455,504; 9973,853;    1,017;    1,227
456,092;10171,625;    0,017;   -1,591
456,679;10161,883;    1,472;    0,682
457,267;10063,095;    4,017;    1,045
457,855;10253,681;    1,017;    1,409
458,443;10022,554;   -0,165;    1,682
459,031;10117,281;    0,108;    2,409
459,619;10626,352;   -1,801;    2,864
460,206;10786,984;    0,835;    2,045
460,794;10834,011;   -2,983;   -0,227
461,382;11070,225;   -0,529;   -0,864
461,970;10654,705;    1,198;    1,864
462,557;10667,362;   -0,711;   -0,682
463,145;10871,899;   -3,165;   -1,682
463,732;11052,366;    2,016;   -1,045
464,320;11009,998;   -0,075;   -3,045
464,907;10667,730;    2,743;   -0,773
465,495;10527,624;    0,743;   -1,227
466,082;10681,649;   -1,984;   -0,045
466,670;10563,673;   -2,529;    1,227
467,257;10993,370;   -1,711;    2,045
467,844;11159,184;   -0,075;    0,045
468,432;11177,422;    0,834;    3,500
469,019;10649,378;    0,925;   -1,773
469,606;11141,612;    0,470;    3,682
470,193;10988,071;   -1,439;    0,227
470,780;10511,590;   -2,075;    0,864
471,368;10873,640;   -1,257;   -0,773
471,955;10679,131;    1,379;   -0,682
472,542;10283,049;    0,652;   -1,136
473,129;10535,045;   -0,166;    0,136
473,716;10283,697;    1,470;    0,591
474,303;10492,891;    0,652;   -0,864
474,890;10830,208;   -1,439;   -0,500
475,477;10834,891;   -1,621;    0,409
476,064;10702,521;    1,106;   -1,591
476,650;10693,000;    0,288;    0,318
477,237;10511,545;   -0,258;    0,955
477,824;10670,250;   -1,076;    0,864
478,411;10683,681;   -1,894;   -0,318
478,997;10902,002;    0,560;   -0,773
479,584;10986,060;    1,196;   -0,409
480,171;11678,170;   -0,440;   -0,773
480,757;11318,456;    2,651;    0,773
481,344;11654,604;    0,469;    0,409
481,931;11172,608;    1,105;    1,045
482,517;12265,129;   -1,258;    0,318
483,104;12826,846;    1,106;    2,864
483,690;13162,319;   -1,804;    0,045
484,276;13559,848;   -0,895;    0,227
484,863;13268,497;    2,469;    1,136
485,449;13895,594;   -0,077;    0,318
486,035;13903,196;   -1,986;   -0,136
486,622;14317,978;   -0,895;    0,045
487,208;14283,212;    1,378;    1,500
487,794;14134,814;    0,741;    0,318
488,380;14235,408;    0,105;   -1,409
488,967;14312,008;   -1,168;   -0,409
489,553;14371,579;   -1,895;   -1,409
490,139;14537,014;    1,559;    0,773
490,725;13945,317;    0,741;   -0,227
491,311;13483,527;    3,287;    3,045
491,897;12802,090;   -0,986;    1,500
492,483;12525,444;    0,105;    1,227
493,069;12307,446;    3,923;    0,864
493,655;12315,412;    1,650;    0,682
494,241;12214,713;    1,377;   -0,955
494,826;12621,482;    0,287;   -1,045
495,412;12087,060;    2,559;   -0,682
495,998;12256,915;   -0,805;   -0,318
496,584;12390,505;    0,377;    1,045
497,169;12387,539;    1,014;   -0,682
497,755;12331,816;    0,650;    1,227
498,341;12886,169;    0,559;    0,318
498,926;12467,688;    1,832;    1,955
499,512;12626,472;    1,286;    2,955
500,097;12798,902;    0,195;   -0,318
500,683;12751,102;   -0,350;    2,136
501,268;13095,420;   -0,169;   -0,955
501,854;12780,551;   -0,169;    1,227
502,439;12732,902;   -0,624;   -1,773
503,024;12977,840;    0,195;    0,500
503,610;13072,672;   -0,078;   -0,682
504,195;13019,316;    0,558;    1,955
504,780;13107,989;    2,922;    1,227
505,366;12959,953;    3,013;    2,864
505,951;12694,385;    0,740;    1,045
506,536;12708,472;   -3,260;   -3,682
507,121;12693,795;    0,285;   -0,318
507,706;13206,813;    2,376;    1,045
508,291;13625,664;    2,649;    1,136
508,876;13081,029;   -0,988;    2,591
509,461;12540,720;   -0,169;   -0,773
510,046;12970,910;    0,194;    0,318
510,631;13224,353;   -0,351;   -0,773
511,216;12874,587;    2,467;   -0,500
511,801;13240,185;   -0,442;    2,591
512,386;13573,551;    0,740;    0,500
512,971;13504,266;   -2,988;    0,955
513,555;13012,482;   -0,897;   -1,500
514,140;13815,193;   -0,442;   -3,136
514,725;13841,809;   -0,715;   -1,136
515,309;13971,682;   -0,533;    0,318
515,894;13352,189;   -0,624;   -2,227
516,479;13841,249;   -0,624;   -0,955
517,063;13709,650;    0,376;    1,227
517,648;13848,492;    1,012;   -1,136
518,232;13502,457;   -0,261;   -1,409
518,817;13845,710;   -0,079;    1,682
519,401;14036,550;    2,194;    0,591
519,985;13561,593;    1,103;    1,136
520,570;13431,371;    0,830;   -1,955
521,154;13726,605;    2,102;    0,591
521,738;13890,684;   -2,352;    2,409
522,323;14445,750;   -0,170;    1,682
522,907;14186,451;    0,466;   -0,136
523,491;13902,560;    0,557;    0,955
524,075;13919,358;    2,284;    0,591
524,659;13995,379;    1,466;    0,591
525,243;13462,162;    1,739;    0,409
525,827;13698,605;    0,648;   -0,045
526,411;14548,288;   -1,989;   -0,136
526,995;14775,589;   -0,352;    1,409
527,579;14364,358;   -0,443;   -1,045
528,163;14676,306;    0,375;   -1,500
528,747;14587,275;    2,466;   -0,773
529,331;14922,187;   -0,080;   -1,409
529,915;15125,077;    1,738;    0,955
530,499;15049,863;   -0,807;    1,227
531,082;14764,892;   -0,534;    1,591
531,666;14230,041;    1,374;    0,773
532,250;14894,073;    1,284;    2,682
532,833;15267,797;    0,920;    2,773
533,417;15125,568;   -1,807;    0,864
534,001;15105,352;    1,647;   -0,318
534,584;15778,875;    0,374;    0,500
535,168;15622,409;    0,465;    1,409
535,751;15718,898;    0,647;    0,045
536,334;15137,043;   -0,898;   -0,409
536,918;15748,875;    0,011;    1,591
537,501;15863,596;   -0,899;    1,318
538,085;15860,184;   -0,444;    1,045
538,668;16045,619;    0,829;    2,409
539,251;16347,144;    1,829;    3,773
539,834;16335,029;    0,101;    0,773
540,418;16260,049;   -1,990;    4,318
541,001;16414,514;   -0,990;    1,773
541,584;16379,675;    2,101;    2,227
542,167;16090,833;    1,374;    2,955
542,750;16277,283;    1,919;   -0,773
543,333;15909,087;    0,555;    2,136
543,916;16636,623;    0,192;    2,500
544,499;17264,469;   -1,354;    0,227
545,082;17243,455;    1,374;    3,591
545,665;17384,984;    1,919;    1,500
546,248;17736,724;    1,010;   -0,318
546,830;17397,388;   -0,445;    1,955
547,413;17833,132;    1,010;   -0,773
547,996;18388,542;    0,555;    0,500
548,579;18131,794;    0,919;    0,955
549,161;17953,962;    1,828;    2,682
549,744;17728,305;   -0,809;    0,409
550,326;18216,408;   -0,809;   -1,136
550,909;18019,188;    2,737;    0,591
551,492;18454,736;   -0,263;    0,227
552,074;18234,360;   -0,173;   -1,318
552,657;18797,243;    2,373;    0,045
553,239;18507,455;   -0,173;   -0,773
553,821;18387,061;   -1,082;    1,045
554,404;17948,750;    1,282;    1,136
554,986;18361,550;    0,464;    1,045
555,568;18964,671;    1,191;   -0,955
556,151;18150,287;    1,191;   -0,227
556,733;18347,247;   -0,264;   -0,864
557,315;18831,986;    0,100;    0,500
557,897;18629,202;    0,554;   -0,500
558,479;18773,610;   -1,991;    1,318
559,061;18872,428;   -0,719;   -0,864
559,643;19158,038;   -0,264;    0,045
560,225;19540,111;    1,645;    2,864
560,807;19625,675;    0,918;    0,318
561,389;19135,951;    0,554;    2,318
561,971;19901,909;    0,463;    2,136
562,553;19688,467;   -1,628;    1,591
563,135;19796,572;   -0,537;    1,136
563,717;19426,624;    3,372;    1,136
564,298;20141,081;    3,645;   -0,045
564,880;19906,945;    0,645;   -1,409
565,462;20110,218;    0,645;    1,318
566,043;21292,232;   -0,446;    2,318
566,625;20798,590;    1,918;    1,227
567,207;20635,335;    1,099;    1,682
567,788;21801,002;   -1,264;    1,500
568,370;22613,303;    1,917;   -0,500
568,951;22467,830;    0,190;    0,227
569,533;23381,751;   -0,628;   -0,500
570,114;23865,228;   -0,446;    0,682
570,695;24357,464;   -0,174;   -1,318
571,277;24881,173;   -0,265;   -1,682
571,858;25654,509;    2,008;   -1,136
572,439;26571,034;    1,554;   -1,045
573,021;26766,115;    2,099;   -2,773
573,602;27305,672;   -1,265;    0,318
574,183;28254,446;   -2,083;    2,227
574,764;28411,032;   -1,629;    0,409
575,345;28966,735;    0,917;   -0,136
575,926;29576,584;   -0,356;    0,136
576,507;29596,121;    1,099;   -0,227
577,088;30730,634;    3,099;    1,682
577,669;30709,080;    0,735;    1,955
578,250;31538,719;    0,644;   -1,045
578,831;32117,165;   -1,356;   -2,227
579,412;32478,788;   -0,810;    0,955
579,993;33401,410;    1,008;    0,227
580,573;33703,721;   -0,629;   -0,955
581,154;32712,846;    0,735;   -0,591
581,735;33568,678;    0,644;    0,773
582,315;33051,406;   -0,629;    2,136
582,896;33379,396;   -0,174;    1,227
583,477;32856,086;    0,189;    1,227
584,057;32959,196;    0,553;    0,955
584,638;33283,410;    2,553;    2,318
585,218;33255,274;   -0,538;    2,682
585,799;33456,713;    0,281;   -0,227
586,379;33440,725;    0,372;    1,591
586,959;32168,965;    0,735;    0,318
587,540;31441,141;   -0,629;    2,227
588,120;30979,343;    1,007;   -0,045
588,700;29935,418;    2,553;    2,136
589,281;30226,020;    0,462;   -0,955
589,861;30191,179;    0,099;   -1,682
590,441;30037,486;    2,371;   -2,682
591,021;28988,676;   -0,265;   -2,591
591,601;29139,351;   -0,537;    0,500
592,181;29173,359;   -0,719;   -0,773
592,761;28422,278;    0,007;    1,409
593,341;28389,654;   -0,901;    0,045
593,921;28350,329;   -0,265;    1,591
594,501;28262,725;   -0,538;    1,318
595,081;28100,167;    0,917;   -0,318
595,661;28438,474;   -1,447;    0,955
596,240;28995,656;   -0,537;    0,136
596,820;28633,301;    0,372;    1,955
597,400;28814,852;    2,008;    0,773
597,980;29047,640;    2,008;    1,045
598,559;29057,379;    2,735;   -0,227
599,139;28737,961;   -0,174;   -1,227
599,718;28611,234;   -0,174;   -0,409
600,298;28874,321;    0,735;    0,682
600,877;29086,386;    2,917;    1,409
601,457;29385,576;    2,281;    1,136
602,036;29270,072;    0,190;    2,045
602,616;29551,180;    0,644;    1,682
603,195;29901,479;   -0,355;    3,500
603,774;29407,028;   -0,901;    2,045
604,354;29305,553;    0,826;   -0,500
604,933;28763,242;    0,463;    1,864
605,512;28891,721;    3,554;    0,591
606,091;28982,586;   -0,537;    3,773
606,671;29781,186;    0,281;    0,773
607,250;28835,198;    1,644;    3,136
607,829;29031,240;    2,372;    3,227
608,408;28952,359;    1,190;    2,591
608,987;27950,626;    1,281;    3,409
609,566;28293,753;   -1,265;   -2,500
610,145;28423,254;   -1,082;    0,682
610,723;28784,675;    4,372;    6,864
611,302;27965,844;   -0,446;    1,682
611,881;27523,256;    5,008;   11,227
612,460;28393,424;    1,645;    3,955
613,039;28801,063;   -0,082;    2,045
613,617;27466,206;    1,736;    4,773
614,196;27693,093;    1,099;    1,227
614,775;28059,836;    1,009;    2,409
615,353;27917,737;    0,736;    0,864
615,932;27653,541;    0,100;    2,409
616,510;28252,739;    0,554;    0,591
617,089;27762,800;    7,100;   17,591
617,667;27552,638;    2,372;    6,136
618,246;27406,234;   -1,537;    1,318
618,824;27532,863;   -3,355;   -0,955
619,402;27115,960;   -2,900;   -1,773
619,981;27635,699;   -0,173;   -1,045
620,559;27458,158;    0,009;    1,682
621,137;26960,253;   -0,718;    1,864
621,715;26957,855;   -1,173;   -0,682
622,293;26855,305;   -0,537;   -0,773
622,871;27325,077;   -0,718;    0,500
623,450;26934,301;    0,373;   -0,864
624,028;26802,275;    0,191;   -0,955
624,606;26464,604;   -1,718;    1,682
625,183;26870,669;   -1,536;   -1,136
625,761;26475,117;    1,009;    1,136
626,339;26739,602;    1,373;    2,591
626,917;27129,626;   -0,172;   -0,045
627,495;27179,404;   -0,354;    1,318
628,073;26613,618;   -0,263;    2,864
628,650;26299,641;    0,100;    2,136
629,228;26765,400;    0,373;    4,409
629,806;26177,562;    2,282;    1,136
630,383;26432,154;    1,464;   -0,318
630,961;26199,685;    2,555;   -0,955
631,539;25899,291;    2,464;    0,227
632,116;25270,139;   11,373;   15,409
632,694;25845,620;    2,555;    6,500
633,271;26169,550;    0,828;    2,682
633,848;26067,453;    1,828;    2,045
634,426;26135,366;   -1,081;    1,773
635,003;25191,843;    1,101;   -0,409
635,580;25565,364;    1,192;    3,682
636,158;26116,501;    3,737;    1,227
636,735;26071,946;    0,555;   -0,500
637,312;26215,542;   -0,809;   -0,682
637,889;26315,758;   -4,354;   -0,682
638,466;25756,600;   -3,990;   -0,409
639,043;25763,093;    2,101;   -1,136
639,620;26174,419;   -2,262;   -0,955
640,197;26439,337;    1,100;    1,682
640,774;26570,852;   -0,172;    1,136
641,351;27006,639;    0,737;    1,136
641,928;26448,790;   -0,627;    1,409
642,505;26061,578;    0,828;   -0,500
643,082;26129,911;   -1,718;    1,227
643,658;25130,699;   -0,718;    1,500
644,235;25929,214;    1,191;    2,500
644,812;26262,183;    1,918;    0,773
645,388;25942,516;   -0,991;    1,409
645,965;26068,940;   -0,809;    1,682
646,542;26147,546;   -1,445;   -0,227
647,118;26137,061;    1,009;   -0,955
647,695;26435,394;   -0,263;    1,136
648,271;26335,454;   -0,536;    0,500
648,848;26657,969;    0,736;    2,227
649,424;26462,757;    0,827;    1,318
650,000;26218,545;   -0,354;   -1,045
650,577;26029,969;   -0,627;   -0,955
651,153;26546,393;   -1,809;    0,955
651,729;27584,544;    1,191;    0,864
652,305;27900,877;    0,645;    2,773
652,881;32753,574;   -0,082;    1,136
653,458;39927,816;    1,100;    0,227
654,034;43809,058;    0,282;    1,591
654,610;45279,846;    0,554;    0,773
655,186;46597,815;    0,645;    3,045
655,762;46205,966;   -0,991;    0,409
656,338;46109,481;    0,100;    0,136
656,913;47136,360;   -0,082;    0,409
657,489;46382,875;    0,827;   -0,318
658,065;46362,026;   -0,173;   -1,591
658,641;46993,450;   -0,900;   -0,864
659,217;46331,237;   -0,991;    0,409
659,792;45673,843;    0,645;   -0,409
660,368;45844,904;   -2,173;   -0,682
660,944;45482,146;   -2,082;    1,227
661,519;40529,297;   -0,628;    0,409
662,095;34339,176;   -1,719;    0,591
662,670;29704,145;    1,281;   -0,136
663,246;28517,751;    1,009;   -0,409
663,821;27819,357;    0,281;    1,682
664,396;27329,963;    0,009;    1,864
664,972;27582,750;    0,009;   -0,500
665,547;27890,356;    1,372;    0,136
666,122;27933,234;   -1,082;    0,318
666,698;28229,658;   -0,173;    0,318
667,273;27597,082;   -0,173;    0,136
667,848;28432,143;    2,372;    1,500
668,423;28222,203;    2,190;    2,318
668,998;28782,900;    2,827;   -0,682
669,573;29333,960;   -3,264;   -1,500
670,148;29123,566;   -1,446;   -0,682
670,723;28949,899;   -1,810;    0,318
671,298;29363,869;    2,372;    1,045
671,873;29483,111;   -0,082;   -0,136
672,448;29458,535;    0,645;    0,136
673,023;29764,413;   -1,992;   -0,227
673,597;30070,837;    0,827;    2,318
674,172;29843,261;   -0,355;    0,318
674,747;29274,776;    0,372;   -1,045
675,321;29146,927;   -0,628;    3,318
675,896;28703,715;    0,645;    1,045
676,471;29762,594;    2,645;    1,591
677,045;29520,018;   -1,264;    0,682
677,620;29590,805;    0,190;    1,136
678,194;29866,229;   -2,628;    1,136
678,769;29439,108;   -1,083;   -0,318
679,343;29708,259;   -0,628;    1,773
679,917;29600,138;   -1,446;    1,955
680,492;29700,743;    0,826;    3,227
681,066;29797,258;    3,372;    0,409
681,640;29817,319;    1,463;   -0,318
682,214;30654,924;    0,735;    0,500
682,788;30174,894;   -1,356;   -0,773
683,363;30130,318;   -1,810;    1,682
683,937;29883,015;   -1,719;   -0,318
684,511;30664,529;    0,463;   -0,591
685,085;30342,681;   -1,356;    0,318
685,659;30058,650;   -2,538;    0,864
686,232;30303,165;   -0,356;   -0,318
686,806;30071,589;   -0,901;    0,409
687,380;30707,104;   -0,174;    0,591
687,954;30918,437;   -1,174;    1,136
688,528;30598,952;   -0,719;    1,955
689,101;31395,558;   -3,992;    1,045
689,675;30953,436;   -0,356;   -0,136
690,249;30379,133;   -0,719;    0,409
690,822;30696,557;    0,280;    0,318
691,396;30767,799;   -0,265;    1,227
691,969;30178,223;    1,280;    0,136
692,543;30580,556;   -0,447;   -1,955
693,116;30288,071;   -0,265;   -1,409
693,690;30170,768;    0,099;    0,500
694,263;30754,283;   -1,083;    2,955
694,836;30787,707;    1,371;    3,591
695,410;29442,040;   -0,265;    1,773
695,983;29873,555;    0,189;    0,591
696,556;29820,979;   -0,447;   -1,045
697,129;30248,675;   -0,356;    1,409
697,703;29865,554;   -1,629;    1,955
698,276;29849,796;    1,462;   -0,773
698,849;29677,402;    1,280;    1,409
699,422;30007,371;   -1,083;    0,591
699,995;29720,977;    0,007;    0,136
700,568;30210,765;   -0,629;    3,045
701,140;30278,098;   -2,811;    1,682
701,713;29980,522;   -0,174;    2,409
702,286;29729,764;   -0,538;    0,864
702,859;29608,552;   -0,902;   -0,591
703,432;28764,521;    0,825;    0,682
704,004;29234,400;    0,462;    0,318
704,577;29081,096;   -0,629;    0,136
705,150;29733,793;    0,189;    2,500
705,722;29496,217;   -0,356;   -3,227
706,295;29270,641;   -0,175;   -0,591
706,867;29132,338;   -0,175;    1,955
707,440;29312,580;   -1,720;   -0,409
708,012;29641,640;    0,462;    0,591
708,584;29567,428;    2,462;    0,227
709,157;29832,670;    1,825;   -0,591
709,729;29484,458;    2,280;    2,045
710,301;30352,336;    0,734;    0,045
710,874;30367,124;   -1,447;   -0,227
711,446;29190,730;    0,371;    0,864
712,018;29086,245;    0,098;    0,500
712,590;28835,305;   -1,993;    1,682
713,162;29357,184;    0,825;    1,318
713,734;29621,699;    1,825;   -2,045
714,306;29479,213;   -1,902;   -0,409
714,878;28160,183;    0,825;    0,864
715,450;28972,425;    0,643;    0,864
716,022;29282,576;    1,552;    1,318
716,593;29439,273;    0,189;    0,591
717,165;29330,879;   -3,175;   -1,227
717,737;29003,939;    0,280;    0,409
718,309;28695,727;    0,280;   -0,045
718,880;28665,878;   -0,539;   -1,409
719,452;28916,575;   -0,175;   -1,591
720,024;28421,635;    0,734;   -0,591
720,595;29007,786;   -2,902;    0,955
721,167;28582,301;    0,370;   -2,045
721,738;28081,725;   -0,812;   -1,045
722,309;28092,149;   -0,993;   -1,227
722,881;27877,301;   -1,357;    0,773
723,452;28485,088;   -2,630;    2,864
724,023;28653,239;   -0,721;    2,682
724,595;28453,027;    0,007;    0,682
725,166;28189,087;    0,007;   -0,409
725,737;27843,057;    1,734;    0,227
726,308;27906,935;   -0,266;    0,318
726,879;28337,269;   -1,630;    1,227
727,450;28193,874;    0,552;   -0,045
728,021;28159,389;    3,097;    0,682
728,592;27933,722;    0,734;    0,500
729,163;28286,237;    0,643;   -0,136
729,734;28306,116;    0,188;   -0,227
730,305;28671,994;    1,734;    0,136
730,876;29037,509;    0,188;    2,955
731,447;28760,024;    2,188;    2,682
732,017;28860,812;    1,097;    1,864
732,588;28350,327;    0,734;    1,227
733,159;28573,296;    0,643;   -1,045
733,729;28344,720;    0,006;    0,409
734,300;27644,235;    0,915;    0,864
734,870;28081,568;    3,461;    0,591
735,441;28627,538;    0,370;   -0,591
736,011;28374,507;    0,643;   -1,591
736,582;28295,931;   -0,812;    0,045
737,152;27779,991;   -1,721;   -2,045
737,722;28237,597;   -0,267;   -0,682
738,293;27914,748;   -1,358;    1,318
738,863;27807,627;    2,461;    2,318
739,433;27608,869;    5,279;    0,318
740,003;28282,475;   -0,994;   -0,682
740,573;27696,263;    2,097;   -1,591
741,143;27665,141;   -1,085;    0,318
741,713;28402,111;    1,188;   -0,500
742,283;28098,171;    0,915;    1,591
742,853;27856,504;    1,915;    1,591
743,423;27298,292;    1,733;    0,045
743,993;27480,352;   -0,358;    1,500
744,563;26812,503;    0,097;   -0,864
745,133;26761,109;   -0,812;   -0,864
745,702;27458,169;   -0,267;    1,773
746,272;26664,866;   -0,176;    0,591
746,842;26433,017;   -1,358;   -0,591
747,411;26845,350;   -0,267;   -0,318
747,981;27034,502;    0,097;    0,500
748,551;27063,380;    2,278;   -1,045
749,120;26949,804;    0,642;   -0,227
749,690;27329,319;   -0,631;    2,409
750,259;27645,379;    1,369;    2,955
750,828;27576,713;    1,551;   -1,955
751,398;27849,318;    1,278;   -0,045
751,967;27323,015;    2,187;    0,409
752,536;27544,348;   -0,813;   -0,227
753,105;27974,045;    0,096;    0,227
753,675;27797,014;    0,096;    1,773
754,244;27700,257;   -0,904;    3,591
754,813;27684,135;    0,551;    1,227
755,382;27296,195;    0,460;    0,955
755,951;27871,892;    1,551;    3,682
756,520;27396,952;   -0,085;    1,864
757,089;27971,104;    0,278;    0,500
757,658;28116,346;    1,733;    1,227
758,227;28147,952;    1,096;    0,318
758,795;28473,194;    1,187;    1,136
759,364;28701,982;   -0,086;   -0,591
759,933;27677,678;   -1,176;   -0,045
760,501;27175,830;    0,733;   -1,318
761,070;27676,708;   -2,813;   -1,409
761,639;28351,223;   -1,904;    1,318
762,207;27718,829;    1,551;   -0,955
762,776;27621,253;    0,369;    0,864
763,344;27605,859;   -0,995;    0,591
763,913;26724,919;   -0,722;    1,409
764,481;27448,707;    1,005;   -0,136
765,049;27239,040;   -1,358;    1,409
765,618;27091,282;   -0,086;    0,318
766,186;27206,342;    0,278;    0,136
766,754;27396,766;    0,005;    1,864
767,322;26357,372;   -1,995;    0,409
767,890;26406,887;   -0,722;   -1,773
768,459;26806,947;   -2,177;   -0,318
769,027;26991,189;    1,641;    3,409
769,595;25965,886;    3,278;    2,591
770,163;26405,946;    3,823;    2,955
770,730;26048,370;    0,732;   -0,136
771,298;25897,249;    0,187;   -1,409
771,866;26001,582;   -1,541;    4,955
772,434;26345,461;   -0,631;   -1,864
773,002;26502,794;    0,005;    0,682
773,569;26146,672;    0,914;    1,682
774,137;25959,823;   -0,268;   -0,045
774,705;26750,702;    0,278;   -0,136
775,272;26270,399;    0,641;    0,682
775,840;25990,095;   -0,177;    2,682
776,407;25562,701;    0,277;    1,955
776,975;25138,489;   -0,632;    0,318
777,542;26157,004;   -1,086;   -0,045
778,110;25944,428;   -1,268;   -0,045
778,677;25661,670;   -2,359;   -0,864
779,244;25434,912;    2,186;    1,045
779,812;25575,063;    1,823;    0,864
780,379;25395,124;    0,005;    1,136
780,946;25669,093;    1,005;   -0,773
781,513;25997,881;   -1,450;    0,318
782,080;25374,123;   -0,086;    2,864
782,647;26084,002;   -0,268;    3,045
783,214;25651,698;   -0,177;    3,864
783,781;25242,850;   -0,723;   -0,682
784,348;25126,364;   -0,632;    1,500
784,915;25619,516;   -3,177;    0,318
785,482;25389,394;    1,368;    2,591
786,049;25748,182;    0,186;   -0,591
786,615;25912,697;    0,277;   -0,955
787,182;25680,484;    0,186;   -0,682
787,749;25358,181;   -2,814;    1,409
788,315;24661,787;   -1,632;   -0,409
788,882;24948,393;    1,550;   -1,227
789,448;25661,362;    1,732;   -0,955
790,015;25728,059;    1,095;    3,227
790,581;25254,665;    1,459;    0,227
791,148;25169,634;    0,641;    1,045
791,714;25402,604;   -0,541;    3,136
792,280;25020,300;    0,186;    1,591
792,847;24614,724;    0,550;    2,500
793,413;25218,330;   -0,269;   -0,318
793,979;24707,845;    3,459;   -1,318
794,545;24821,451;    4,459;    2,682
795,111;24230,875;    2,186;    1,318
795,678;24376,117;    0,731;   -1,682
796,244;24025,905;    3,368;    0,136
796,810;24655,783;    1,731;    0,773
797,375;24319,207;    0,549;   -2,136
797,941;24324,086;   -0,541;    0,591
798,507;24438,055;   -0,451;   -0,955
799,073;23970,843;   -0,360;    0,591
799,639;24065,994;   -2,632;    3,136
800,205;24092,327;    0,095;    2,682
800,770;23592,660;    0,640;    1,773
801,336;23721,084;    1,368;   -0,955
801,901;23387,872;    4,549;    3,136
802,467;23969,569;   -0,542;    2,045
803,033;23294,720;   -0,087;    0,864
803,598;23518,780;    1,913;   -1,045
804,163;23531,386;    1,095;   -0,318
804,729;23449,719;   -0,178;    1,136
805,294;23903,689;    0,822;    2,227
805,859;23691,931;    0,731;   -0,409
806,425;23156,627;    1,186;    2,682
806,990;22798,779;    2,186;    4,318
807,555;23296,748;   -1,451;    2,591
808,120;23180,445;    0,822;   -0,409
808,685;23241,960;    0,185;   -2,500
809,250;22718,929;    0,004;   -0,500
809,815;22981,899;    1,913;    0,682
810,380;23604,504;   -0,269;    1,591
810,945;24191,656;   -1,087;    2,045
811,510;23296,262;    2,094;    1,591
812,075;23043,413;   -0,633;   -1,409
812,640;23067,564;    2,003;    1,409
813,204;23109,352;    0,822;   -0,227
813,769;23593,594;    2,094;   -0,045
814,334;22960,654;    0,458;    0,864
814,898;23036,896;    0,367;    0,591
815,463;22903,866;    1,276;   -0,773
816,027;22909,926;   -0,724;   -2,318
816,592;22932,987;    0,640;   -2,045
817,156;22429,501;    2,094;    1,136
817,721;22312,016;    4,276;    2,318
818,285;22244,440;    2,912;    1,500
818,849;22907,682;   -1,451;    1,682
819,414;22808,106;   -0,269;    2,955
819,978;22398,530;   -1,269;    1,773
820,542;22984,045;    2,003;    0,500
821,106;22660,469;   -0,815;    0,682
821,670;22775,439;   -0,815;    2,591
822,234;22497,317;   -0,270;    1,409
822,798;21849,287;    0,003;    0,500
823,362;21799,893;   -0,633;    4,227
823,926;21088,953;    0,094;    1,136
824,490;21374,013;   -0,997;   -0,682
825,054;21805,619;   -0,088;   -1,136
825,618;21424,316;   -1,542;   -1,500
826,181;21373,922;    0,458;   -1,318
826,745;21267,164;    1,367;   -1,045
827,309;21630,133;    1,185;    1,318
827,872;21038,285;    1,367;    0,955
828,436;21982,254;    1,185;   -0,773
828,999;22044,587;   -0,997;    1,227
829,563;20822,738;   -0,179;    1,136
830,126;20665,344;   -0,179;   -0,591
830,690;20674,768;   -1,997;    2,864
831,253;20213,828;   -0,543;    2,227
831,816;20359,434;   -1,906;    0,500
832,380;20290,767;    0,185;    0,864
832,943;20512,828;   -1,361;   -0,500
833,506;19941,797;    2,639;   -1,227
834,069;20747,494;    3,912;   -0,955
834,632;20802,463;    1,730;    1,318
835,195;20730,796;    1,003;    0,955
835,758;19861,584;   -0,997;    1,955
836,321;19740,099;    0,730;   -1,045
836,884;19806,523;   -0,725;   -0,955
837,447;19828,129;   -2,816;    1,773
838,010;20082,644;    0,366;    3,227
838,573;20381,795;   -1,179;    0,773
839,135;20365,855;   -1,361;   -0,955
839,698;19830,643;    1,275;    0,409
840,261;19357,431;    1,003;   -0,227
840,823;19181,491;   -0,543;    0,864
841,386;19413,188;   -0,452;   -2,409
841,948;19348,975;   -1,361;    1,773
842,511;19102,672;    0,912;    1,682
843,073;19218,005;    1,912;    0,227
843,636;19031,793;   -0,361;   -0,227
844,198;19016,035;    0,911;    0,591
844,760;19094,368;    1,093;    1,955
845,322;18727,610;    0,548;    1,136
845,885;19185,670;    0,730;    0,591
846,447;19635,549;   -1,998;    0,227
847,009;19233,609;    1,911;   -0,682
847,571;19569,124;    0,820;   -2,045
848,133;19659,912;   -1,089;   -1,864
848,695;19460,972;   -0,543;    1,409
849,257;19010,214;   -1,089;   -1,682
849,819;19187,638;   -0,998;   -0,409
850,381;19242,244;   -0,725;   -0,864
850,942;19613,577;    1,093;   -0,591
851,504;19586,092;    1,184;    0,227
852,066;19581,425;    1,275;   -1,591
852,628;19094,758;   -0,180;    1,955
853,189;18655,001;    1,638;    2,682
853,751;18783,243;   -0,907;    1,409
854,312;18602,485;   -0,453;   -1,682
854,874;19132,454;   -2,089;   -0,773
855,435;19659,787;   -0,907;   -1,682
855,997;19818,939;   -1,816;   -0,136
856,558;19056,908;    0,366;    1,773
857,119;19176,514;    0,820;    2,864
857,681;18842,120;    0,002;    0,318
858,242;18877,726;    1,911;   -2,136
858,803;19317,877;    0,456;   -0,773
859,364;19930,119;    0,184;   -4,773
859,925;19206,634;   -2,453;   -0,955
860,486;19093,603;   -0,453;   -0,955
861,047;18829,755;   -0,544;   -1,227
861,608;18630,360;   -1,089;   -0,773
862,169;18762,330;    0,638;   -0,045
862,730;18531,936;    0,456;    1,409
863,291;18771,541;   -0,635;   -0,500
863,852;19170,238;   -0,635;    1,955
864,412;18611,571;   -0,271;   -0,864
864,973;17175,268;   -0,089;    0,500
865,534;17063,237;   -1,726;    0,227
866,094;18576,752;    1,820;    0,227
866,655;18223,631;    1,274;    3,318
867,215;18499,873;    0,274;    0,136
867,776;18301,206;    0,547;   -0,136
868,336;18441,903;   -1,453;    0,136
868,897;17935,781;    2,638;    1,682
869,457;17627,296;    1,365;    0,318
870,017;17860,720;    0,547;   -1,227
870,578;18390,144;   -0,817;    0,773
871,138;18089,023;   -2,089;   -0,955
871,698;17596,174;   -0,817;   -1,318
872,258;17449,507;   -0,453;   -2,864
872,818;17853,386;    2,729;    0,045
873,378;17814,992;    0,638;    1,045
873,938;17357,234;    0,547;    0,500
874,498;17768,021;    0,274;   -1,955
875,058;17645,991;    2,183;    1,773
875,618;17429,142;    1,910;   -2,682
876,177;17355,839;    1,274;    0,136
876,737;16978,990;   -0,090;    1,955
877,297;16981,869;    0,183;    1,955
877,856;16990,565;   -0,362;    0,318
878,416;16963,989;    1,183;   -0,136
878,976;17184,141;   -1,817;    0,409
879,535;17346,383;    0,092;    3,136
880,095;17095,898;   -0,544;    0,045
880,654;17204,413;   -1,090;    1,318
881,213;17298,109;    2,456;    1,500
881,773;16925,806;    2,637;    2,682
882,332;17292,866;    3,365;    5,136
882,891;17149,654;    3,092;    2,136
883,451;17669,442;   -1,272;    1,682
884,010;17070,411;   -2,908;   -0,409
884,569;17142,926;   -0,999;   -0,045
885,128;17291,804;    2,819;   -1,864
885,687;17361,501;    4,455;    0,682
886,246;17040,289;    1,455;    2,136
886,805;16859,986;    2,455;    2,045
887,364;17129,137;   -0,999;   -0,500
887,922;17503,743;   -1,181;    0,045
888,481;16986,985;   -1,545;    0,591
889,040;17281,772;    1,183;    2,136
889,599;17984,651;    2,455;    1,409
890,157;18035,984;    1,455;    2,409
890,716;17727,772;   -0,090;    0,227
891,274;17544,377;    0,092;   -1,136
891,833;17949,529;    1,546;    0,864
892,391;17849,589;   -0,454;    0,500
892,950;17920,740;    1,819;   -0,773
893,508;18275,892;    0,455;   -0,409
894,067;17586,952;    0,637;    0,136
894,625;17513,194;   -0,636;   -1,500
895,183;17763,891;   -0,363;   -0,682
895,741;17655,315;    1,728;   -1,773
896,299;17452,557;   -0,545;   -2,409
896,858;17658,254;    0,819;   -1,591
897,416;17787,314;    2,728;   -1,318
897,974;17538,011;    1,819;    0,318
898,532;17688,526;    6,091;    2,682
899,089;17557,677;    2,091;   -0,682
899,647;17607,737;   -1,454;    1,318
900,205;17339,525;    1,182;    1,045
900,763;17505,131;   -0,454;    0,227
901,321;17515,373;    2,364;   -1,409
901,878;16951,615;   -1,000;   -0,773
902,436;16844,766;   -1,363;    1,318
902,994;17239,736;    4,728;    3,682
903,551;16662,614;    0,728;    0,409
904,109;17070,038;    0,182;   -1,409
904,666;16650,644;    2,455;    1,045
905,224;16446,705;    0,182;   -0,409
905,781;16173,492;    0,727;   -0,318
906,338;16256,734;   -1,363;    1,045
906,895;16216,886;    0,637;    2,045
907,453;16128,582;    1,727;    1,136
908,010;16190,824;   -0,909;    0,409
908,567;15810,521;    1,273;    0,591
909,124;15312,854;    0,364;   -1,500
909,681;15385,096;   -2,909;    0,682
910,238;15491,248;    0,636;   -1,318
910,795;15822,490;   -0,273;   -1,136
911,352;15430,581;   -2,909;   -2,682
911,909;14874,217;   -1,364;   -0,864
912,466;15374,854;   -3,182;    1,500
913,022;14906,672;   -1,636;    0,500
913,579;15273,490;   -0,909;    2,045
914,136;14975,944;    1,636;    0,955
914,692;15283,126;    0,091;   -1,227
915,249;14863,672;    1,455;    0,409
915,806;15096,854;    0,182;    1,955
916,362;14869,035;    1,909;    1,864
916,918;14451,672;    2,000;    1,045
917,475;14385,126;   -1,182;    0,955
918,031;14464,308;    3,364;   -0,045
918,587;13882,035;   -0,909;   -0,318
919,144;14135,126;   -2,273;    0,227
919,700;14440,035;    1,727;    0,773
920,256;14021,126;    0,727;    0,045
920,812;13643,490;   -0,727;   -1,045
921,368;13667,944;   -1,727;   -1,045
921,924;13288,944;    0,182;   -0,136
922,480;12882,126;   -0,545;    1,227
923,036;13500,490;    1,273;    1,955
923,592;13366,035;    0,455;    0,318
924,148;13295,308;    0,455;   -0,955
924,704;12619,308;   -1,364;   -0,409
925,259;12885,035;   -0,273;    0,591
925,815;12627,126;    1,455;    0,500
926,371;12148,217;    2,909;    1,409
926,926;12024,308;    2,091;    0,591
927,482;11655,672;   -1,364;    0,773
928,037;11605,126;    0,909;    2,045
928,593;11869,308;    1,636;    1,045
929,148;11646,035;   -1,818;   -1,500
929,704;11175,581;   -1,455;   -0,500
930,259;11385,581;    0,091;   -0,136
930,814;10429,126;   -0,818;    1,955
931,369;10106,217;    1,091;   -0,773
931,925;10018,672;   -0,091;    0,136
932,480; 9915,035;   -2,818;   -2,591
933,035; 9757,944;    0,545;   -0,318
933,590; 9579,217;    0,364;   -1,773
934,145; 9204,944;   -1,364;   -0,318
934,700; 9524,944;    0,455;   -0,591
935,255; 9288,035;   -0,091;    0,045
935,809; 8587,581;    3,182;    0,864
936,364; 7725,217;   -0,455;   -0,136
936,919; 7647,944;    0,455;   -1,773
937,474; 7532,035;    1,455;    0,136
938,028; 7281,854;   -1,636;    1,136
938,583; 6748,399;    1,818;    4,682
939,138; 7016,217;    2,091;    2,136
939,692; 6455,490;    1,636;   -1,136
940,247; 6135,672;   -0,727;   -1,045
940,801; 5703,399;   -0,636;    0,227
941,355; 5569,217;   -0,364;    2,591
941,910; 5233,126;   -0,273;   -2,136
942,464; 5355,217;   -0,818;   -0,318
943,018; 5134,399;    1,000;   -0,227
943,572; 5072,763;    2,545;   -0,682
944,126; 4467,126;    0,091;   -0,409
944,681; 4365,763;    3,091;    0,227
945,235; 4357,854;    1,000;   -0,591
945,789; 4294,126;    0,364;   -1,864
946,342; 4358,126;    0,455;   -0,591
946,896; 4186,308;   -2,273;    0,955
947,450; 3943,944;    1,545;   -0,227
948,004; 4119,126;    1,727;   -0,045
948,558; 4137,490;    0,273;   -0,864
949,111; 4043,581;   -0,273;   -0,318
949,665; 4087,126;    1,636;   -0,682
950,219; 3979,854;   -0,091;   -1,045
950,772; 4051,308;   -1,909;    1,864
951,326; 3952,126;    0,545;   -0,955
951,879; 4051,490;    0,727;   -2,318
952,433; 4071,490;    0,000;    2,227
952,986; 3944,035;    2,909;    0,682
953,539; 3873,763;   -0,273;    0,591
954,093; 3770,763;    0,545;   -1,318
954,646; 3907,854;    0,909;    1,318
955,199; 3740,763;    0,000;   -0,500
955,752; 3619,035;   -0,455;    1,773
956,305; 3607,035;   -0,091;    2,955
956,858; 3772,490;    0,818;   -0,318
957,411; 3932,944;   -0,545;    2,136
957,964; 3761,217;    1,364;    2,136
958,517; 3741,035;   -1,545;    3,136
959,070; 3575,399;   -0,455;    1,955
959,623; 3640,490;    1,091;    1,500
960,176; 3404,944;    1,727;    2,045
960,728; 3383,308;   -2,727;    0,773
961,281; 3429,672;    0,545;    0,500
961,834; 3497,399;   -0,909;    0,864
962,386; 3409,035;    1,727;    1,045
962,939; 3326,581;    0,364;   -0,318
963,491; 3472,035;    0,455;    1,136
964,043; 3349,854;    1,182;    2,409
964,596; 3490,217;   -1,000;    2,227
965,148; 3313,035;   -1,000;    1,773
965,700; 3228,308;    1,091;   -0,227
966,253; 3388,399;   -0,636;    0,318
966,805; 3204,399;   -2,273;    0,773
967,357; 3263,672;    1,091;   -1,500
967,909; 3203,217;    0,455;   -1,227
968,461; 3331,672;    0,545;    3,136
969,013; 3265,126;   -0,182;   -0,864
969,565; 3350,763;   -0,455;   -1,136
970,117; 3389,763;   -0,364;    1,045
970,669; 3232,854;    0,182;   -0,136
971,220; 3106,035;   -0,455;   -1,500
971,772; 3022,126;   -0,636;   -0,318
972,324; 3143,854;    0,091;   -0,500
972,876; 3096,399;    0,818;   -0,045
973,427; 3233,944;    1,909;   -1,045
973,979; 3179,763;   -0,727;   -2,500
974,530; 3237,581;    1,818;    1,318
975,082; 3232,308;   -0,545;    1,682
975,633; 3130,672;    1,091;    1,682
976,184; 3278,672;    0,909;    0,773
976,736; 3049,763;    0,091;    0,227
977,287; 2865,217;   -0,909;   -0,500
977,838; 3040,763;    0,909;   -0,318
978,389; 3108,126;   -1,000;   -0,500
978,940; 2980,581;    0,545;   -0,409
979,491; 3016,672;    0,091;   -0,500
980,042; 2971,308;    0,182;    3,045
980,593; 3024,763;   -2,545;    0,227
981,144; 3057,672;    2,545;   -0,500
981,695; 3013,854;    1,455;    1,500
982,246; 2977,581;   -0,273;    1,045
982,797; 3154,854;   -1,727;    0,682
983,347; 3252,854;    0,364;    0,591
983,898; 3441,399;    3,091;    0,409
984,449; 3240,581;    2,182;    0,773
984,999; 3161,035;    1,455;   -1,136
985,550; 2926,217;    0,182;   -0,318
986,100; 2972,854;   -0,455;   -0,318
986,651; 3001,399;   -0,818;    0,045
987,201; 2974,308;   -1,000;   -0,591
987,751; 3040,581;    0,818;    2,864
988,302; 3032,672;    2,636;    1,500
988,852; 3062,217;    0,455;   -1,136
989,402; 3116,672;    0,091;    0,682
989,952; 3007,217;   -2,182;    0,864
990,502; 3116,581;   -0,091;    0,682
991,052; 3086,672;   -0,727;    0,045
991,602; 2948,126;   -2,909;    1,318
992,152; 2933,490;    0,455;    0,682
992,702; 2939,035;    1,364;   -0,045
993,252; 2851,126;   -3,000;   -0,500
993,802; 2944,399;   -0,273;    1,318
994,352; 3186,490;   -1,545;    1,136
994,901; 3259,854;   -0,182;    3,227
995,451; 3170,854;   -0,182;    0,318
996,000; 3277,672;    1,636;    0,318
996,550; 2986,763;    2,273;    0,227
997,100; 2966,581;    1,273;   -0,045
997,649; 3250,854;    2,182;    0,955
998,198; 2878,672;    1,727;   -1,500
998,748; 3086,581;    1,091;   -2,318
999,297; 2988,854;   -0,818;   -0,409
999,846; 3052,763;    1,000;   -0,773
1000,395; 3099,308;   -0,818;    0,500
1000,945; 3047,399;    1,818;   -0,773
1001,494; 3136,308;    2,364;    0,682
1002,043; 3126,854;    4,636;    0,864
1002,592; 2974,581;   -1,091;    1,955
1003,141; 3112,035;   -0,455;   -0,682
1003,690; 2998,944;    1,727;    0,500
1004,238; 3090,763;    1,455;   -0,045
1004,787; 2721,854;    1,364;    1,227
1005,336; 2957,763;    0,364;    0,682
1005,885; 3093,944;    1,364;   -2,773
1006,433; 3234,035;    0,545;    0,955
1006,982; 3275,399;    0,455;    1,682
1007,531; 3173,308;   -1,818;   -0,227
1008,079; 3123,035;   -2,273;    0,500
1008,627; 3270,217;   -1,455;    0,409
1009,176; 3000,490;    0,000;   -1,955
1009,724; 3055,399;    1,091;    0,864
1010,273; 3108,308;    1,273;    0,500
1010,821; 3218,581;    0,091;    1,409
1011,369; 2967,490;   -1,364;    1,318
1011,917; 2931,944;   -1,364;   -0,591
1012,465; 3228,399;    1,273;   -1,591
1013,013; 3340,308;    2,091;   -1,682
1013,561; 3210,763;    0,455;   -0,773
1014,109; 3265,854;   -1,909;    1,682
1014,657; 3145,126;    0,364;    0,591
1015,205; 3254,854;    1,636;   -0,955
1015,753; 3299,308;   -0,545;   -1,409
1016,301; 3326,308;   -2,636;    3,045
1016,848; 3335,490;   -1,273;    0,409
1017,396; 3376,217;    2,545;    0,045
1017,944; 3495,399;    1,182;    1,864
1018,491; 3259,854;    0,273;    1,409
1019,039; 3391,490;    0,455;    0,591
1019,586; 3325,035;   -1,364;    1,682
1020,134; 3421,126;    0,455;    1,500
1020,681; 3445,035;    0,182;   -1,136
1021,228; 3451,763;    2,909;   -2,227
1021,776; 3283,308;    1,182;   -1,136
1022,323; 3495,763;    0,455;    0,773
1022,870; 3448,399;   -1,000;   -0,045
1023,417; 3330,672;    2,636;    1,864
1023,964; 3477,217;    2,636;    1,227
1024,511; 3325,672;    1,000;    0,773
1025,058; 3119,035;    3,182;   -0,045
1025,605; 3152,944;   -2,273;    3,136
1026,152; 3386,854;    1,727;   -0,591
1026,699; 3130,490;    1,818;    1,318
1027,245; 3277,854;   -0,091;    0,318
1027,792; 3491,763;   -1,000;    1,409
1028,339; 3381,854;    2,364;   -0,045
1028,885; 3220,399;    1,000;   -0,227
1029,432; 3172,035;   -0,091;    0,227
1029,978; 3240,126;   -1,000;   -1,591
1030,525; 3156,763;    1,000;    0,409
1031,071; 3382,854;   -1,364;    1,136
1031,618; 3460,854;    0,364;    1,682
1032,164; 3265,944;   -0,091;    3,045
1032,710; 3307,035;    1,636;   -1,500
1033,256; 3226,854;   -0,636;   -0,136
1033,803; 3205,035;   -0,545;    1,500
1034,349; 2912,490;   -1,364;    0,136
1034,895; 3084,399;    0,000;   -0,318
1035,441; 3073,944;   -0,818;    0,318
1035,987; 3059,763;   -2,364;   -0,682
1036,533; 3048,672;   -1,455;   -0,955
1037,078; 3258,035;    1,455;    1,682
1037,624; 3075,672;    2,455;   -0,955
1038,170; 3123,854;    0,455;   -0,318
1038,716; 3014,944;    1,636;   -0,409
1039,261; 2916,581;   -2,273;   -0,773
1039,807; 2865,217;   -0,091;    3,409
1040,352; 2947,854;   -1,909;   -0,318
1040,898; 2986,217;   -1,545;   -0,682
1041,443; 2887,490;   -1,455;   -2,591
1041,989; 2896,035;    1,091;    1,591
1042,534; 2776,581;   -0,364;    2,591
1043,079; 2890,490;    2,909;    0,955
1043,625; 2679,126;    1,818;    0,500
1044,170; 2726,763;   -1,364;    1,045
1044,715; 3000,944;    2,455;    0,955
1045,260; 2803,672;    2,182;   -0,955
1045,805; 2857,126;    1,182;   -0,591
1046,350; 2781,217;    1,364;   -0,409
1046,895; 2744,944;    2,909;    1,591
1047,440; 2695,581;    5,364;    0,409
1047,985; 2586,035;    2,818;   -0,955
1048,530; 2517,308;    1,545;    1,227
1049,074; 2590,490;    0,000;    0,318
1049,619; 2542,399;   -1,364;    1,955
1050,164; 2342,854;    0,455;    0,227
1050,708; 2395,217;   -0,455;    0,045
1051,253; 2767,581;    1,273;   -2,227
1051,797; 2472,490;    0,818;   -1,318
1052,342; 2495,035;   -1,182;    1,045
1052,886; 2473,126;    0,364;   -1,409
1053,430; 2347,490;   -1,364;    0,136
1053,975; 2362,308;   -0,818;   -0,318
1054,519; 2364,944;   -0,727;    3,227
1055,063; 2364,399;    0,909;    1,318
1055,607; 2243,035;   -0,182;    0,227
1056,151; 2260,672;    2,909;    1,682
1056,695; 2184,035;    2,273;   -1,136
1057,239; 2269,399;   -1,727;   -0,682
1057,783; 2266,854;    0,818;   -1,500
1058,327; 2208,854;    0,000;    1,409
1058,871; 2434,944;   -0,545;    1,318
1059,415; 2139,035;   -0,818;   -0,045
1059,958; 2411,490;    1,455;    2,591
1060,502; 2136,308;   -1,000;   -0,773
1061,046; 2028,672;    0,364;   -0,955
1061,589; 2007,217;   -3,000;   -1,136
1062,133; 1887,399;   -1,273;    1,864
1062,676; 1830,399;    1,182;    0,864
1063,220; 1829,126;    1,091;    0,500
1063,763; 1851,944;    0,909;    1,136
1064,306; 1939,944;   -0,909;    1,864
1064,849; 1827,399;   -0,909;    0,591
1065,393; 1825,581;    2,000;   -1,500
1065,936; 1947,672;    0,182;   -0,409
1066,479; 1820,944;   -1,455;    1,318
1067,022; 1847,126;   -0,273;   -0,227
1067,565; 1731,854;   -0,091;   -1,318
1068,108; 1758,581;    0,727;   -0,591
1068,651; 1743,581;   -0,636;    1,409
1069,194; 1671,672;   -0,455;   -1,682
1069,736; 1673,308;   -1,273;    0,955
1070,279; 1657,126;   -1,364;   -0,500
1070,822; 1702,944;   -2,000;   -0,318
1071,364; 1784,672;   -0,364;    1,318
1071,907; 1607,763;   -0,727;    3,227
1072,450; 1516,490;    0,000;   -0,045
1072,992; 1503,854;   -0,273;    3,136
1073,535; 1645,944;    2,091;    2,136
1074,077; 1422,944;   -0,727;    2,045
1074,619; 1403,308;   -1,364;    0,591
1075,161; 1444,217;   -1,091;    1,500
1075,704; 1611,308;    1,545;    1,227
1076,246; 1422,217;   -0,182;    0,682
1076,788; 1350,944;   -0,364;    1,773
1077,330; 1400,490;    1,273;    2,136
1077,872; 1377,581;    0,909;    0,955
1078,414; 1589,490;    2,727;    0,773
1078,956; 1336,399;    1,273;   -0,227
1079,498; 1602,126;    1,636;    0,318
1080,040; 1292,944;    1,909;   -1,318
1080,581; 1258,944;    1,636;   -0,318
1081,123; 1178,490;    0,091;   -0,773
1081,665; 1224,126;   -1,182;   -0,955
1082,206; 1526,763;    1,364;   -0,500
1082,748; 1365,672;    0,727;    2,045
1083,289; 1260,399;   -2,000;    1,318
1083,831; 1163,581;   -0,545;    0,227
1084,372; 1191,854;    0,000;    0,591
1084,913; 1189,399;    1,091;    0,864
1085,455; 1158,035;   -1,909;   -2,045
1085,996; 1143,672;   -2,273;    0,136
1086,537; 1158,854;   -0,091;    0,864
1087,078; 1193,308;   -0,909;   -2,136
1087,619; 1225,944;   -1,273;    0,227
1088,160; 1148,763;    0,000;    1,318
1088,701; 1136,672;   -1,091;    0,682
1089,242; 1070,854;    1,364;   -2,227
1089,783; 1173,944;   -0,273;    1,409
1090,324; 1131,854;    0,455;    0,682
1090,865; 1011,672;    2,727;   -0,409
1091,405;  973,854;    0,727;    2,227
1091,946;  996,854;    0,182;   -0,955
1092,487;  938,035;    0,818;   -1,409
1093,027; 1100,399;   -1,364;   -1,500
1093,568;  940,217;   -0,364;    1,227
1094,108; 1047,581;    0,273;    1,773
1094,649;  996,126;   -1,182;    0,136
1095,189;  926,490;   -0,636;   -0,682
1095,729;  896,490;   -0,091;    0,955
1096,269;  889,308;    0,727;   -0,955
1096,810; 1209,944;   -1,364;    0,500
1097,350; 1022,035;    1,364;   -0,773
1097,890;  932,035;    0,364;    1,227
1098,430; 1175,217;    2,364;    2,864
1098,970; 1039,308;    2,182;    1,682
1099,510;  899,308;    0,545;   -2,318
1100,050;  830,126;    1,000;   -1,591
1100,589;  800,399;   -0,727;   -0,318
1101,129;  931,944;    0,818;   -0,955
1101,669; 1087,581;    1,727;    2,136
1102,209;  906,217;   -0,091;    2,227
1102,748;  862,944;    0,000;    0,955
1103,288;  849,035;    1,273;   -1,227
1103,827;  876,944;    3,091;   -2,227
1104,367;  750,944;   -0,091;   -2,409
1104,906;  720,126;    1,364;   -1,136
1105,445;  778,490;    0,636;   -1,136
1105,985;  719,035;   -0,727;    1,500
1106,524;  785,944;   -1,727;   -0,682
1107,063;  759,854;   -2,727;    1,409
1107,602;  722,763;   -1,909;   -1,500
1108,141;  640,308;   -1,909;    1,500
1108,680;  759,035;   -3,455;   -0,591
1109,219;  691,763;   -0,909;   -0,500
1109,758;  683,581;    0,455;    0,682
1110,297;  660,763;    1,000;   -0,682
1110,836;  602,126;   -0,727;    0,955
1111,375;  778,126;   -2,545;    0,409
1111,913;  789,399;   -1,000;    0,773
1112,452;  716,308;   -0,273;    0,136
1112,991;  602,763;    1,091;    1,955
1113,529;  562,126;   -0,818;   -0,045
1114,068;  627,581;   -0,273;    2,955
1114,606;  522,308;   -0,364;   -0,955
1115,144;  689,944;   -1,273;    1,045
1115,683;  633,217;   -0,727;    0,318
1116,221;  688,944;   -0,455;   -0,864
1116,759;  588,672;    0,636;   -0,864
1117,297;  780,217;    0,000;    1,864
1117,836;  593,308;   -2,182;   -1,227
1118,374;  593,490;    0,182;   -0,682
1118,912;  533,944;    0,909;    2,682
1119,450;  522,672;    1,000;    0,864
1119,988;  573,672;    1,545;    2,136
1120,525; 1038,035;    5,091;    3,318
1121,063;  741,944;    1,182;    1,864
1121,601;  539,399;   -0,909;   -1,227
1122,139;  498,308;   -0,727;   -2,045
1122,676;  691,308;   -0,727;    2,773
1123,214;  628,490;   -1,182;    4,409
1123,751;  439,399;    1,727;    2,227
1124,289;  574,854;   -0,091;   -0,409
1124,826;  433,672;    1,727;    0,227
1125,364;  356,581;    1,727;   -0,955
1125,901;  554,944;    1,182;    1,227
1126,438;  671,126;    0,818;    0,955
1126,975;  384,308;   -0,727;   -0,773
1127,513;  455,763;    0,273;    2,136
1128,050;  361,581;    1,636;   -0,682
1128,587;  467,126;    2,000;   -0,227
1129,124;  507,944;    0,091;    1,318
1129,661;  368,944;    0,273;    0,227
1130,198;  541,854;    1,636;    0,773
1130,734;  483,672;    0,182;    1,409
1131,271;  335,126;   -0,909;    0,864
1131,808;  504,854;    2,909;    3,045
1132,345;  381,035;    1,545;    0,318
1132,881;  251,217;   -1,545;   -1,864
1133,418;  403,854;    0,727;   -1,136
1133,954;  342,763;    2,455;   -2,682
1134,491;  405,763;    1,364;   -0,773
1135,027;  297,217;    2,364;    0,864
1135,564;  399,490;    0,273;    2,955
1136,100;  381,035;    0,364;    2,136
1136,636;  268,763;   -1,273;   -1,045
1137,172;  366,944;    0,000;   -1,045
1137,708;  284,217;   -1,364;   -1,045
1138,245;  290,126;    1,273;   -1,227
1138,781;  235,854;    1,091;   -3,318
1139,317;  309,944;    1,273;   -1,409
1139,852;  300,126;    3,091;    0,136
1140,388;  420,854;   -1,182;   -0,409
1140,924;  302,763;   -1,091;   -2,227
1141,460;  232,944;   -1,636;    0,136
1141,996;  167,308;   -1,364;    2,682
1142,531;  211,126;    1,364;    3,318
1143,067;  438,217;    1,182;    1,045
1143,602;  500,763;   -0,091;   -0,318
1144,138;  334,399;   -2,636;    1,045
1144,673;  197,581;   -1,455;    1,409
1145,209;  268,944;   -1,909;   -0,318
1145,744;  190,672;   -0,727;    0,864
1146,279;  330,854;    1,818;   -0,136
1146,815;  240,217;    1,545;   -2,682
1147,350;  284,035;   -1,364;    0,045
1147,885;  191,399;   -0,818;   -1,318
1148,420;  196,854;   -2,273;    0,773
1148,955;  168,126;   -1,727;    1,864
1149,490;  194,854;   -0,909;   -1,591
1150,025;  181,217;    0,455;   -1,773
1150,560;  301,944;    1,091;   -0,955
1151,094;  263,944;    1,455;   -0,591
1151,629;  274,490;    1,636;    0,864
1152,164;  195,763;    1,364;    1,318
1152,698;  146,399;   -0,182;   -0,136
1153,233;  109,126;    0,091;   -0,682
1153,767;  149,217;   -3,000;   -2,318
1154,302;  205,581;   -1,455;    1,773
1154,836;  201,944;   -0,455;   -2,136
1155,371;  263,399;   -1,364;    3,682
1155,905;  215,217;   -0,636;    1,682
1156,439;  171,217;   -0,636;   -0,500
1156,973;  206,490;    0,364;    0,318
1157,507;  139,763;   -0,364;    0,682
1158,042;  179,308;   -0,727;    1,045
1158,576;  231,581;    0,182;    1,773
1159,110;  214,126;   -0,818;    2,409
1159,643;  190,399;    0,636;   -0,045
1160,177;  125,217;   -1,545;    1,500

