
Integration time [ms]:   0,040
Averaging Nr. [scans]: 11
Smoothing Nr. [pixels]: 0
Data measured with spectrometer [name]: 7318044SP
Wave   ;Sample   ;Dark     ;Reference
[nm]   ;[counts] ;[counts] ;[counts] 

186,757;    7,155;   31,551;    1,318
187,357;   26,330;   22,551;    0,955
187,958;   19,214;   15,460;   -1,591
188,558;   41,698;    8,915;   -1,227
189,159;   12,698;    6,733;   -4,500
189,759;  -11,425;    7,278;   -3,591
190,360;  -16,425;    2,824;   -2,136
190,960;   17,420;    2,915;   -4,136
191,560;   24,950;    3,189;   -6,591
192,161;  234,967;    4,372;   -3,500
192,761;  104,424;    4,010;   -3,227
193,361;   42,428;    1,556;   -3,773
193,962;   85,522;    2,010;   -2,682
194,562;   15,913;    1,189;   -3,955
195,162;   24,182;   -2,448;   -2,227
195,762;  134,205;   -3,176;   -0,045
196,362;   87,404;    1,370;   -2,500
196,963;    1,004;    2,006;   -0,864
197,563;   50,427;    1,551;   -0,955
198,163;   -7,039;    0,096;   -0,682
198,763;    7,423;    1,733;   -0,500
199,363;   58,396;    3,096;   -0,500
199,963;   25,077;    0,369;    0,409
200,563;   21,763;    2,823;   -1,409
201,163;    1,816;    3,277;   -0,227
201,763;   30,264;    3,732;    0,318
202,363;    2,155;    1,459;    1,500
202,963;   41,875;    1,459;    1,045
203,563;   79,527;    0,277;    0,500
204,162;   18,260;    2,096;   -1,864
204,762;   10,684;    0,550;    0,591
205,362;  -12,826;    3,004;    1,955
205,962;   15,724;    3,096;    1,955
206,562;    8,556;    1,823;    2,318
207,161;   -9,968;   -0,087;    0,318
207,761;   78,132;    1,277;    2,409
208,361;    7,444;   -0,268;    1,409
208,960;   30,338;    0,459;    1,500
209,560;   25,506;    1,277;    1,591
210,160;   41,486;    0,550;    1,864
210,759;   17,412;    4,186;    1,227
211,359;    5,618;    1,459;    1,045
211,958;  104,309;    1,277;    2,045
212,558;  106,937;    1,732;    1,864
213,157;   37,137;    1,822;    1,500
213,757;  172,536;    3,822;   -0,227
214,356;   60,271;    1,277;   -0,409
214,956;  149,563;    3,095;    0,409
215,555;   38,179;    2,095;    2,136
216,154;    5,664;   -2,723;   -0,591
216,754;    7,480;    0,277;    0,773
217,353;   24,056;   -0,268;   -1,045
217,952;  -14,368;   -0,178;    0,318
218,552;   40,270;    1,368;   -0,773
219,151;   12,227;    0,277;    0,955
219,750;    0,951;    0,004;   -0,227
220,349;   -3,935;   -0,451;    1,045
220,948;   52,721;   -1,360;    1,136
221,548;   -0,920;    0,913;    1,227
222,147;   16,285;   -0,087;   -0,409
222,746;   85,807;   -0,451;   -0,955
223,345;   30,360;    0,731;    0,500
223,944;   29,575;   -0,451;    0,773
224,543;   31,648;    1,004;   -1,409
225,142;   15,903;    0,094;    0,136
225,741;   21,918;   -0,814;    1,045
226,340;   10,228;   -0,451;   -0,955
226,939;   60,101;   -0,996;   -0,136
227,538;   10,671;   -0,360;   -0,773
228,137;   73,695;   -0,814;    0,864
228,735;   43,421;   -0,541;    1,227
229,334;  -16,127;   -0,905;   -0,227
229,933;   68,664;    0,459;    0,591
230,532;   72,193;    1,186;   -0,409
231,131;  112,122;    1,732;    0,318
231,729;   40,021;   -2,450;   -2,318
232,328;    8,895;   -0,723;   -1,500
232,927;   23,900;    1,004;   -0,500
233,525;   16,536;    3,640;    0,045
234,124;   32,162;    2,368;   -1,591
234,723;   -0,190;    0,913;   -1,045
235,321;   -1,835;    2,277;    0,136
235,920;    7,750;    1,186;   -1,227
236,518;   72,560;    3,459;    0,318
237,117;    8,323;    0,004;   -0,227
237,715;   20,116;    0,640;   -0,500
238,314;   21,288;   -0,087;   -2,318
238,912;   73,592;   -0,723;   -1,409
239,510;   35,222;    0,459;   -1,227
240,109;   84,011;    0,004;    3,773
240,707;   68,533;   -0,996;    1,227
241,305;    0,482;    0,550;    0,136
241,904;   41,210;   -0,178;   -2,045
242,502;   98,850;   -0,632;   -0,227
243,100;   47,386;   -0,087;   -0,955
243,698;    3,179;    0,732;    1,682
244,297;   25,874;   -0,632;    0,682
244,895;   17,799;   -0,269;   -2,318
245,493;   85,418;    2,186;   -0,591
246,091;   98,291;    1,368;   -1,318
246,689;   52,835;    1,004;    0,591
247,287;   48,439;    0,822;   -1,136
247,885;   28,013;   -1,451;    1,227
248,483;    4,680;    1,822;   -0,500
249,081;   44,009;    0,185;    1,591
249,679;   49,034;   -0,178;    1,682
250,277;    4,003;   -1,723;    0,864
250,875;   49,660;   -1,087;   -1,045
251,473;   17,810;   -1,178;    0,500
252,071;   54,498;    1,459;    1,045
252,669;    8,848;   -1,814;    0,318
253,267;    1,714;   -0,087;    0,773
253,864;   20,439;   -0,360;    0,682
254,462;   73,918;    1,640;    1,591
255,060;    9,365;   -0,269;    1,318
255,658;   -8,334;    0,822;   -0,136
256,255;   13,620;    0,186;   -2,045
256,853;   37,831;   -0,269;    1,409
257,451;   16,961;    0,822;    1,864
258,048;  180,772;    1,822;    1,864
258,646;   69,916;    1,731;   -1,045
259,243;  107,740;   -0,087;    2,227
259,841;   56,546;   -0,814;    0,318
260,438;    4,893;   -0,087;    0,864
261,036;   40,452;   -1,905;    1,409
261,633;    5,305;   -0,087;    2,227
262,231;   -3,217;    2,731;   -0,045
262,828;  -11,558;   -0,905;    1,136
263,425;    7,315;    0,913;   -0,591
264,023;   11,092;    0,186;    0,045
264,620;   59,095;   -0,360;   -0,318
265,217;   95,395;   -2,087;    3,136
265,815;   15,915;   -1,905;    2,136
266,412;   51,397;    0,731;    0,136
267,009;   43,414;   -1,451;    0,773
267,606;   73,007;    0,822;   -0,955
268,203;   14,488;   -0,269;   -0,591
268,801;   19,241;    1,731;    0,591
269,398;   -2,679;   -0,360;    2,500
269,995;   42,260;    0,277;    1,591
270,592;   24,540;   -0,632;   -0,500
271,189;   -3,921;    0,186;    0,409
271,786;  -10,289;   -0,632;    1,227
272,383;   57,273;   -1,087;    0,227
272,980;   20,386;    0,277;    0,318
273,577;   -2,568;    0,004;    1,227
274,174;   -8,168;    0,822;    2,591
274,771;   41,848;   -0,814;   -0,773
275,367;  200,431;    2,277;    1,409
275,964;   93,782;    0,731;   -0,500
276,561;   21,579;    1,549;   -1,045
277,158;  -12,148;    0,095;   -1,773
277,755;   75,372;    2,185;    0,409
278,351;   42,188;   -0,451;   -1,500
278,948;   59,340;   -0,815;    0,045
279,545;   33,809;   -1,360;    2,318
280,141;   74,592;   -1,723;   -2,045
280,738;   82,572;   -0,451;   -0,136
281,334;   20,139;   -1,633;    0,591
281,931;   11,972;   -0,087;   -1,318
282,528;   58,269;    0,822;   -0,500
283,124;   76,918;   -1,087;   -0,500
283,721;   69,694;   -0,451;    1,409
284,317;   21,399;    0,185;    2,500
284,913;   78,030;   -1,360;    0,591
285,510;  142,757;    0,640;   -0,318
286,106;   91,435;   -2,269;   -0,955
286,703;   43,214;   -0,360;    1,955
287,299;   21,182;   -1,451;   -0,591
287,895;   18,581;    0,822;   -1,045
288,491;    5,411;    0,186;    2,136
289,088;   35,121;   -2,360;    2,409
289,684;   42,393;   -1,723;    1,500
290,280;  103,042;    0,368;    0,682
290,876;   79,154;    1,822;    5,500
291,472;   61,883;    1,276;    2,227
292,068;   69,984;    1,367;    0,227
292,665;   25,364;    2,095;    0,773
293,261;   -6,191;    0,276;    2,136
293,857;   51,948;    2,913;    2,136
294,453;   28,117;    3,550;    0,955
295,049;  104,011;   -0,268;    1,955
295,644;   45,747;    0,095;    0,136
296,240;    0,965;   -0,905;   -0,136
296,836;   39,570;   -0,995;    0,318
297,432;   68,667;    1,096;   -0,500
298,028;   71,819;    0,732;    0,773
298,624;   34,574;    1,459;    1,864
299,220;   28,713;    2,368;    0,591
299,815;   25,064;    1,005;   -0,409
300,411;   54,647;    0,914;    1,773
301,007;   79,269;    1,368;    0,227
301,602;   17,815;   -0,541;   -2,318
302,198;   82,073;    0,732;   -0,773
302,794;   30,678;    1,187;   -0,500
303,389;    2,591;   -1,177;    1,045
303,985;    9,201;    0,550;    1,409
304,580;   68,585;    1,459;    1,591
305,176;   27,344;   -3,086;    0,136
305,771;  -24,795;   -1,268;   -1,227
306,367;  137,548;    4,095;    0,136
306,962;   54,269;    0,641;    1,500
307,558;   76,662;   -0,450;    0,136
308,153;   59,254;    1,095;   -1,136
308,748;    4,851;   -0,814;    1,682
309,344;  135,215;   -0,632;   -1,318
309,939;  130,051;   -1,905;   -1,318
310,534;   29,815;   -0,086;   -1,682
311,130;   16,732;    0,459;   -2,500
311,725;   11,471;    1,004;   -0,500
312,320;   21,878;    2,459;    0,045
312,915;   53,453;    1,459;   -1,045
313,510;  140,776;    1,550;   -0,500
314,105;   32,275;    1,096;    1,409
314,700;   -9,805;   -3,086;   -1,045
315,295;   16,404;   -0,904;    0,045
315,890;    7,539;    1,277;    0,864
316,485;   39,474;   -0,359;   -0,318
317,080;    7,000;   -3,086;    1,591
317,675;  127,243;    2,005;   -0,682
318,270;  228,353;    5,550;    3,318
318,865;  143,443;    3,278;    3,045
319,460;   82,784;   -0,904;    0,591
320,055;   11,763;   -0,541;   -1,227
320,650;   10,452;   -1,995;   -0,591
321,244;   18,315;   -0,177;   -1,409
321,839;   18,199;   -1,541;   -0,227
322,434;   34,241;   -1,086;   -1,591
323,029;   10,936;    1,732;    1,591
323,623;    7,851;    1,550;    0,773
324,218;   85,836;    2,368;    1,409
324,812;   48,134;    1,096;    1,591
325,407;   36,057;   -0,814;    2,045
326,002;  105,847;    0,277;   -0,409
326,596;   80,009;    0,914;    1,318
327,191;   13,022;    0,823;   -1,045
327,785;   17,464;   -0,813;   -0,227
328,379;    9,234;    1,368;    0,136
328,974;   24,447;    0,914;   -3,955
329,568;   39,711;    0,186;   -2,409
330,163;   75,334;    2,096;    1,045
330,757;   16,720;    2,459;    1,591
331,351;   -3,265;    0,459;    0,682
331,945;   -4,869;    0,914;    1,409
332,540;   39,009;   -1,723;   -0,591
333,134;   34,147;   -1,086;    0,773
333,728;   52,524;    0,005;    0,318
334,322;    5,262;   -1,177;   -0,864
334,916;   -3,596;    0,277;    0,955
335,510;   65,127;   -0,450;   -0,136
336,105;   53,567;   -1,086;    1,591
336,699;   13,923;   -1,086;    0,591
337,293;   41,098;   -1,723;    0,318
337,887;   25,909;   -2,723;    1,955
338,481;   71,948;    0,459;    0,591
339,074;  129,857;   -0,359;    2,682
339,668;  119,819;   -1,632;    1,227
340,262;  438,088;    1,732;    3,227
340,856;  212,296;    1,822;   -0,682
341,450;   65,278;    1,004;    1,864
342,044;  109,825;    1,459;    0,136
342,637;  179,375;    0,913;   -2,136
343,231;  140,022;   -2,360;    0,682
343,825;  131,012;   -1,086;   -0,591
344,419;  128,412;   -1,995;    0,500
345,012;  519,612;    2,459;    4,045
345,606;  392,300;    4,641;    1,591
346,199;  175,040;   -1,813;   -0,227
346,793;  282,820;    1,914;    2,045
347,386;  152,192;   -0,813;   -1,136
347,980;   91,380;   -0,268;   -0,045
348,573;  186,235;    2,278;    0,409
349,167;  465,179;    5,278;    4,773
349,760;  348,940;    2,914;    2,682
350,354;  335,723;   -0,813;    1,136
350,947;  393,056;    1,096;    1,682
351,540;  292,448;   -0,358;   -1,409
352,134;  180,244;    1,096;    1,136
352,727;  214,191;   -0,086;    1,136
353,320;  235,463;    0,005;    0,591
353,913;  187,593;   -1,995;    1,864
354,507;  394,873;    0,823;   -1,227
355,100;  270,410;    0,460;    0,864
355,693;  676,995;    2,005;    2,409
356,286;  445,788;    0,823;    2,773
356,879;  303,125;   -0,722;    1,227
357,472;  296,796;   -0,904;    1,500
358,065;  337,197;   -0,722;    2,500
358,658;  200,214;   -0,540;    2,318
359,251;  177,581;   -1,631;   -0,591
359,844;  353,830;   -1,904;   -1,136
360,437;  426,382;   -2,995;    0,045
361,030;  261,732;    1,369;   -0,682
361,623;  256,088;    2,824;    0,318
362,215;  492,042;   -0,086;    2,045
362,808;  336,323;   -2,358;   -1,682
363,401;  247,137;   -2,449;    0,136
363,994;  455,730;   -0,631;   -1,500
364,586;  262,175;    0,824;   -1,500
365,179;  206,180;   -0,449;   -1,136
365,772;   75,063;   -1,995;    2,045
366,364;  220,225;    1,915;   -3,227
366,957;  256,160;    2,279;   -0,045
367,549;  200,538;    2,188;   -0,864
368,142;  218,048;    1,825;   -1,500
368,734;  170,554;    0,734;   -2,136
369,327;  104,255;    1,643;   -0,500
369,919;  146,905;   -1,538;    0,409
370,512;  166,050;   -1,083;   -0,500
371,104;  408,171;   -0,901;    1,591
371,696;  427,422;    1,191;   -0,955
372,289;  280,939;    0,373;    1,136
372,881;  224,840;   -2,080;    1,318
373,473;  119,073;   -2,170;    1,136
374,066;  207,283;   -0,169;    0,500
374,658;  172,690;    0,378;    1,136
375,250;   96,840;    0,653;   -1,409
375,842;  140,585;    0,473;   -0,045
376,434;   96,554;   -0,435;   -0,409
377,026;   64,635;    0,204;   -2,500
377,618;  112,852;   -0,158;   -0,682
378,210;   42,384;   -0,338;   -1,955
378,802;   18,675;    0,754;   -0,591
379,394;  432,249;    1,846;    0,682
379,986;  169,626;    1,393;   -0,955
380,578;   63,465;   -0,153;    0,773
381,170;  326,995;   -0,972;    0,045
381,762;  241,268;    0,755;    1,409
382,354;  204,160;   -0,065;   -1,318
382,945;  114,542;   -2,976;    0,318
383,537;   61,648;   -2,705;   -1,955
384,129;   60,966;   -2,160;   -1,136
384,721;  194,834;   -0,252;    0,955
385,312;  122,647;   -0,161;   -0,955
385,904;  193,938;   -2,706;    1,591
386,496;  110,981;   -0,979;    1,045
387,087;  255,531;    1,022;    2,500
387,679;  191,854;   -1,160;    0,045
388,270;  161,822;    2,840;    2,045
388,862;  135,602;    1,295;   -0,318
389,453;  113,497;   -0,887;    1,045
390,045;  123,467;   -0,705;   -2,682
390,636;   -2,148;    0,204;   -0,591
391,227;   71,718;   -0,523;   -0,045
391,819;   51,197;    0,204;    0,773
392,410;  331,382;    1,022;    0,045
393,001;  134,785;   -0,979;   -1,591
393,593;  188,746;    1,930;   -0,045
394,184;  240,060;    1,385;   -0,409
394,775;  111,547;    1,839;    2,136
395,366;   22,375;    1,385;    0,773
395,957;  212,143;    0,113;    0,136
396,548;   96,361;   -0,342;    2,682
397,139;  207,668;   -2,433;    0,591
397,730;  130,341;   -1,888;    0,955
398,321;  147,830;   -1,252;    0,955
398,912;   81,508;   -0,615;    0,136
399,503;   85,627;   -3,524;   -1,409
400,094;  134,953;    0,294;    1,682
400,685;  122,764;   -0,433;    0,045
401,276;   65,844;    0,930;   -0,955
401,867;   41,052;   -0,888;    0,773
402,458;   -6,008;   -2,251;   -2,318
403,048;  148,516;    1,112;    0,591
403,639;   92,200;    0,840;    0,864
404,230;  205,459;    2,476;    0,318
404,821;  258,445;   -0,615;    0,045
405,411;  163,865;    1,203;   -2,591
406,002;   67,186;   -1,252;   -1,136
406,592;  300,676;    2,294;    0,045
407,183;  154,299;    0,566;   -1,500
407,774;  117,068;    3,475;   -0,136
408,364;   61,297;    0,930;    0,409
408,954;  181,191;    0,384;    1,227
409,545;  184,459;    1,021;    1,045
410,135;  145,499;    1,293;    0,500
410,726;   96,963;    1,838;    0,318
411,316;  269,791;    0,111;    0,773
411,906;  105,489;   -0,253;   -0,409
412,497;  111,650;   -1,070;   -0,045
413,087;   52,896;   -1,980;   -0,227
413,677;  -16,006;   -0,707;    3,864
414,267;  -21,042;    0,656;    1,409
414,857;  -57,670;   -2,980;    4,227
415,448;  -56,066;    0,839;    0,500
416,038;  -20,665;    0,020;   -0,591
416,628;   22,626;   -0,889;    0,409
417,218;   73,706;    0,565;    3,318
417,808;  206,351;    0,202;   -0,409
418,398;   87,020;    0,020;    2,682
418,988;  -17,641;    2,020;    0,591
419,578;   69,336;   -0,707;    1,409
420,168;    5,401;   -1,343;   -0,955
420,757;  135,692;   -1,343;   -1,500
421,347;   39,299;    0,111;   -0,227
421,937;    2,144;    2,292;    1,409
422,527;  125,708;    0,838;   -0,773
423,116;  255,594;   -0,253;   -0,045
423,706;    3,582;   -1,889;    0,318
424,296;  -41,694;    1,384;    0,682
424,885;   67,488;   -0,071;   -3,045
425,475;   48,237;    1,474;   -2,864
426,065;  -50,372;   -0,980;   -0,318
426,654;  -66,162;   -0,435;   -0,318
427,244;  171,727;    0,020;    1,409
427,833;  135,081;    1,383;   -0,500
428,423;   25,792;   -0,526;    1,136
429,012;   27,103;   -0,344;   -1,136
429,601;  146,153;   -1,344;    0,136
430,191;   45,875;    1,292;    4,318
430,780;  -43,691;   -0,344;   -0,409
431,369;  129,245;    0,746;   -0,045
431,959;   23,283;   -1,254;    0,500
432,548;  -28,955;   -1,163;   -0,045
433,137;  -80,847;   -1,254;   -1,318
433,726;  -11,678;    0,292;    0,500
434,315;    7,668;   -0,526;    2,409
434,905;  111,846;   -1,254;    1,409
435,494;   99,303;    0,746;    0,955
436,083;  -21,610;   -0,981;   -0,955
436,672;   58,497;    0,110;    0,500
437,261;   21,134;    0,292;   -1,955
437,850;  232,453;    1,383;    0,682
438,439;  268,292;    3,291;    1,955
439,027;  382,849;    3,655;    1,773
439,616;  310,726;    2,927;    1,227
440,205;   94,305;    0,200;   -2,136
440,794;   51,460;    2,109;   -0,045
441,383;  -11,535;   -1,346;   -0,591
441,971;  -36,268;   -2,436;    0,591
442,560;  -24,477;    0,563;   -1,773
443,149; -111,777;    0,379;   -1,318
443,737;  -61,612;   -0,074;   -2,318
444,326;  -45,745;    0,018;    0,318
444,915;    2,097;   -1,982;    0,864
445,503;   12,081;   -2,891;   -0,318
446,092;  257,911;    0,382;    2,136
446,680;  188,932;    0,382;    0,318
447,269;   93,823;   -0,346;   -0,318
447,857;   82,215;    0,018;   -1,773
448,445;   35,255;    0,563;    1,318
449,034;  -18,541;   -1,528;   -1,136
449,622;   -1,630;   -1,073;    3,500
450,210;  254,158;    2,017;    2,227
450,799;  176,440;    0,290;   -0,591
451,387;  135,755;    1,381;   -0,591
451,975;  117,376;    2,654;    0,864
452,563;  190,956;    3,472;    2,318
453,151;   32,724;   -0,528;   -1,227
453,739;   78,569;   -1,347;    0,136
454,328;  173,429;    2,381;   -2,136
454,916;  103,028;    2,562;   -0,136
455,504;  129,401;    1,017;    1,227
456,092;   19,686;    0,017;   -1,591
456,679;  -20,795;    1,472;    0,682
457,267;  374,233;    4,017;    1,045
457,855;   73,947;    1,017;    1,409
458,443;  -64,474;   -0,165;    1,682
459,031;   92,596;    0,108;    2,409
459,619;   48,910;   -1,801;    2,864
460,206;  -39,228;    0,835;    2,045
460,794;  -30,996;   -2,983;   -0,227
461,382;    9,532;   -0,529;   -0,864
461,970;    5,016;    1,198;    1,864
462,557;  -56,593;   -0,711;   -0,682
463,145;   56,361;   -3,165;   -1,682
463,732;  290,133;    2,016;   -1,045
464,320;   71,561;   -0,075;   -3,045
464,907;  197,336;    2,743;   -0,773
465,495;  118,464;    0,743;   -1,227
466,082;   43,497;   -1,984;   -0,045
466,670;   66,594;   -2,529;    1,227
467,257;  -34,029;   -1,711;    2,045
467,844;   64,833;   -0,075;    0,045
468,432;   38,597;    0,834;    3,500
469,019;    3,787;    0,925;   -1,773
469,606;   97,643;    0,470;    3,682
470,193;  122,117;   -1,439;    0,227
470,780;   63,500;   -2,075;    0,864
471,368;   -1,626;   -1,257;   -0,773
471,955;  101,180;    1,379;   -0,682
472,542;   67,156;    0,652;   -1,136
473,129;  -32,297;   -0,166;    0,136
473,716;  -35,247;    1,470;    0,591
474,303;    0,211;    0,652;   -0,864
474,890;    5,944;   -1,439;   -0,500
475,477;  100,750;   -1,621;    0,409
476,064;    8,609;    1,106;   -1,591
476,650;  126,481;    0,288;    0,318
477,237;   42,663;   -0,258;    0,955
477,824;   19,066;   -1,076;    0,864
478,411;  -60,576;   -1,894;   -0,318
478,997;  -72,271;    0,560;   -0,773
479,584; -112,351;    1,196;   -0,409
480,171;   51,269;   -0,440;   -0,773
480,757;  110,792;    2,651;    0,773
481,344;    1,423;    0,469;    0,409
481,931;  -69,312;    1,105;    1,045
482,517;   47,185;   -1,258;    0,318
483,104;  120,891;    1,106;    2,864
483,690;   -3,468;   -1,804;    0,045
484,276;  -18,497;   -0,895;    0,227
484,863;  185,121;    2,469;    1,136
485,449;   32,801;   -0,077;    0,318
486,035;  -12,708;   -1,986;   -0,136
486,622;   74,717;   -0,895;    0,045
487,208;    3,978;    1,378;    1,500
487,794;  -75,055;    0,741;    0,318
488,380;  -68,226;    0,105;   -1,409
488,967;  -58,625;   -1,168;   -0,409
489,553;  -41,981;   -1,895;   -1,409
490,139;   25,628;    1,559;    0,773
490,725;  -47,365;    0,741;   -0,227
491,311;   -9,312;    3,287;    3,045
491,897;  -22,853;   -0,986;    1,500
492,483;   -8,175;    0,105;    1,227
493,069;  405,758;    3,923;    0,864
493,655;  136,543;    1,650;    0,682
494,241;    8,596;    1,377;   -0,955
494,826;   19,018;    0,287;   -1,045
495,412;   80,503;    2,559;   -0,682
495,998;   -5,789;   -0,805;   -0,318
496,584;   41,587;    0,377;    1,045
497,169;   59,027;    1,014;   -0,682
497,755;   -0,317;    0,650;    1,227
498,341;  120,298;    0,559;    0,318
498,926;  242,471;    1,832;    1,955
499,512;    3,159;    1,286;    2,955
500,097;    5,929;    0,195;   -0,318
500,683;   19,458;   -0,350;    2,136
501,268;  -31,418;   -0,169;   -0,955
501,854;   -7,432;   -0,169;    1,227
502,439;  -16,574;   -0,624;   -1,773
503,024;   12,640;    0,195;    0,500
503,610;   27,484;   -0,078;   -0,682
504,195;  -21,378;    0,558;    1,955
504,780;   60,133;    2,922;    1,227
505,366;  149,125;    3,013;    2,864
505,951;   87,157;    0,740;    1,045
506,536;    2,362;   -3,260;   -3,682
507,121;   55,921;    0,285;   -0,318
507,706;   15,562;    2,376;    1,045
508,291;  -39,114;    2,649;    1,136
508,876;  -32,551;   -0,988;    2,591
509,461;   10,783;   -0,169;   -0,773
510,046;   58,444;    0,194;    0,318
510,631;   60,421;   -0,351;   -0,773
511,216;  -18,136;    2,467;   -0,500
511,801;   29,517;   -0,442;    2,591
512,386;   46,037;    0,740;    0,500
512,971;   62,622;   -2,988;    0,955
513,555;   96,656;   -0,897;   -1,500
514,140;   51,514;   -0,442;   -3,136
514,725;  157,438;   -0,715;   -1,136
515,309;   86,066;   -0,533;    0,318
515,894;    6,579;   -0,624;   -2,227
516,479;   46,320;   -0,624;   -0,955
517,063;   55,217;    0,376;    1,227
517,648;   18,313;    1,012;   -1,136
518,232;   19,413;   -0,261;   -1,409
518,817;  123,567;   -0,079;    1,682
519,401;  284,618;    2,194;    0,591
519,985;  290,607;    1,103;    1,136
520,570;  177,663;    0,830;   -1,955
521,154;  369,198;    2,102;    0,591
521,738;  666,237;   -2,352;    2,409
522,323;  546,462;   -0,170;    1,682
522,907;  618,020;    0,466;   -0,136
523,491;  615,297;    0,557;    0,955
524,075;  681,451;    2,284;    0,591
524,659; 1092,549;    1,466;    0,591
525,243; 1130,676;    1,739;    0,409
525,827; 1260,058;    0,648;   -0,045
526,411; 1606,912;   -1,989;   -0,136
526,995; 2054,259;   -0,352;    1,409
527,579; 2276,129;   -0,443;   -1,045
528,163; 2610,819;    0,375;   -1,500
528,747; 3103,448;    2,466;   -0,773
529,331; 3540,563;   -0,080;   -1,409
529,915; 3827,762;    1,738;    0,955
530,499; 4253,276;   -0,807;    1,227
531,082; 4565,581;   -0,534;    1,591
531,666; 4737,432;    1,374;    0,773
532,250; 5456,148;    1,284;    2,682
532,833; 6057,212;    0,920;    2,773
533,417; 6346,973;   -1,807;    0,864
534,001; 6668,576;    1,647;   -0,318
534,584; 7585,091;    0,374;    0,500
535,168; 7801,997;    0,465;    1,409
535,751; 8238,373;    0,647;    0,045
536,334; 8114,022;   -0,898;   -0,409
536,918; 8937,412;    0,011;    1,591
537,501; 9292,068;   -0,899;    1,318
538,085; 9604,715;   -0,444;    1,045
538,668; 9938,141;    0,829;    2,409
539,251;10523,659;    1,829;    3,773
539,834;10837,653;    0,101;    0,773
540,418;11003,905;   -1,990;    4,318
541,001;11310,590;   -0,990;    1,773
541,584;11498,989;    2,101;    2,227
542,167;11429,487;    1,374;    2,955
542,750;11689,348;    1,919;   -0,773
543,333;11469,000;    0,555;    2,136
543,916;12384,455;    0,192;    2,500
544,499;12987,165;   -1,354;    0,227
545,082;13189,502;    1,374;    3,591
545,665;13449,886;    1,919;    1,500
546,248;13858,637;    1,010;   -0,318
546,830;13666,054;   -0,445;    1,955
547,413;14176,328;    1,010;   -0,773
547,996;14737,497;    0,555;    0,500
548,579;14640,490;    0,919;    0,955
549,161;14538,100;    1,828;    2,682
549,744;14410,002;   -0,809;    0,409
550,326;14941,096;   -0,809;   -1,136
550,909;14863,449;    2,737;    0,591
551,492;15290,633;   -0,263;    0,227
552,074;15161,672;   -0,173;   -1,318
552,657;15752,552;    2,373;    0,045
553,239;15609,923;   -0,173;   -0,773
553,821;15561,167;   -1,082;    1,045
554,404;15139,429;    1,282;    1,136
554,986;15592,719;    0,464;    1,045
555,568;16148,635;    1,191;   -0,955
556,151;15433,789;    1,191;   -0,227
556,733;15679,439;   -0,264;   -0,864
557,315;16178,120;    0,100;    0,500
557,897;16005,175;    0,554;   -0,500
558,479;16182,117;   -1,991;    1,318
559,061;16318,432;   -0,719;   -0,864
559,643;16672,109;   -0,264;    0,045
560,225;17054,063;    1,645;    2,864
560,807;17159,927;    0,918;    0,318
561,389;16671,814;    0,554;    2,318
561,971;17443,867;    0,463;    2,136
562,553;17237,919;   -1,628;    1,591
563,135;17421,218;   -0,537;    1,136
563,717;17049,277;    3,372;    1,136
564,298;17704,958;    3,645;   -0,045
564,880;17509,897;    0,645;   -1,409
565,462;17658,897;    0,645;    1,318
566,043;18782,972;   -0,446;    2,318
566,625;18410,789;    1,918;    1,227
567,207;18233,451;    1,099;    1,682
567,788;19327,912;   -1,264;    1,500
568,370;20129,280;    1,917;   -0,500
568,951;19967,710;    0,190;    0,227
569,533;20799,118;   -0,628;   -0,500
570,114;21269,198;   -0,446;    0,682
570,695;21772,343;   -0,174;   -1,318
571,277;22214,724;   -0,265;   -1,682
571,858;22938,831;    2,008;   -1,136
572,439;23827,146;    1,554;   -1,045
573,021;23995,160;    2,099;   -2,773
573,602;24484,778;   -1,265;    0,318
574,183;25368,130;   -2,083;    2,227
574,764;25521,822;   -1,629;    0,409
575,345;26044,474;    0,917;   -0,136
575,926;26607,075;   -0,356;    0,136
576,507;26610,777;    1,099;   -0,227
577,088;27747,019;    3,099;    1,682
577,669;27728,106;    0,735;    1,955
578,250;28517,857;    0,644;   -1,045
578,831;29161,601;   -1,356;   -2,227
579,412;29379,169;   -0,810;    0,955
579,993;30340,779;    1,008;    0,227
580,573;30625,720;   -0,629;   -0,955
581,154;29648,047;    0,735;   -0,591
581,735;30506,710;    0,644;    0,773
582,315;30030,892;   -0,629;    2,136
582,896;30339,913;   -0,174;    1,227
583,477;29809,492;    0,189;    1,227
584,057;30107,475;    0,553;    0,955
584,638;30382,324;    2,553;    2,318
585,218;30372,109;   -0,538;    2,682
585,799;30523,219;    0,281;   -0,227
586,379;30527,837;    0,372;    1,591
586,959;29360,282;    0,735;    0,318
587,540;28666,232;   -0,629;    2,227
588,120;28293,757;    1,007;   -0,045
588,700;27297,846;    2,553;    2,136
589,281;27616,204;    0,462;   -0,955
589,861;27592,425;    0,099;   -1,682
590,441;27427,025;    2,371;   -2,682
591,021;26502,141;   -0,265;   -2,591
591,601;26689,404;   -0,537;    0,500
592,181;26714,156;   -0,719;   -0,773
592,761;26041,765;    0,007;    1,409
593,341;25967,977;   -0,901;    0,045
593,921;25975,897;   -0,265;    1,591
594,501;25853,586;   -0,538;    1,318
595,081;25753,016;    0,917;   -0,318
595,661;26130,819;   -1,447;    0,955
596,240;26631,616;   -0,537;    0,136
596,820;26310,984;    0,372;    1,955
597,400;26490,300;    2,008;    0,773
597,980;26673,454;    2,008;    1,045
598,559;26691,387;    2,735;   -0,227
599,139;26399,941;   -0,174;   -1,227
599,718;26398,668;   -0,174;   -0,409
600,298;26633,872;    0,735;    0,682
600,877;26857,549;    2,917;    1,409
601,457;27176,189;    2,281;    1,136
602,036;27062,402;    0,190;    2,045
602,616;27300,543;    0,644;    1,682
603,195;27651,461;   -0,355;    3,500
603,774;27133,347;   -0,901;    2,045
604,354;27031,138;    0,826;   -0,500
604,933;26553,945;    0,463;    1,864
605,512;26687,566;    3,554;    0,591
606,091;26752,238;   -0,537;    3,773
606,671;27581,342;    0,281;    0,773
607,250;26726,163;    1,644;    3,136
607,829;26969,131;    2,372;    3,227
608,408;26877,477;    1,190;    2,591
608,987;25883,070;    1,281;    3,409
609,566;26209,911;   -1,265;   -2,500
610,145;26274,227;   -1,082;    0,682
610,723;26665,354;    4,372;    6,864
611,302;26003,876;   -0,446;    1,682
611,881;25519,069;    5,008;   11,227
612,460;26305,770;    1,645;    3,955
613,039;26695,318;   -0,082;    2,045
613,617;25514,621;    1,736;    4,773
614,196;25695,800;    1,099;    1,227
614,775;26041,830;    1,009;    2,409
615,353;25987,874;    0,736;    0,864
615,932;25760,393;    0,100;    2,409
616,510;26318,464;    0,554;    0,591
617,089;25841,185;    7,100;   17,591
617,667;25661,849;    2,372;    6,136
618,246;25474,772;   -1,537;    1,318
618,824;25604,656;   -3,355;   -0,955
619,402;25239,112;   -2,900;   -1,773
619,981;25734,366;   -0,173;   -1,045
620,559;25584,414;    0,009;    1,682
621,137;25093,392;   -0,718;    1,864
621,715;25167,428;   -1,173;   -0,682
622,293;25038,268;   -0,537;   -0,773
622,871;25492,120;   -0,718;    0,500
623,450;25116,815;    0,373;   -0,864
624,028;25053,989;    0,191;   -0,955
624,606;24728,277;   -1,718;    1,682
625,183;25076,226;   -1,536;   -1,136
625,761;24677,225;    1,009;    1,136
626,339;24995,344;    1,373;    2,591
626,917;25306,468;   -0,172;   -0,045
627,495;25413,958;   -0,354;    1,318
628,073;24880,876;   -0,263;    2,864
628,650;24612,243;    0,100;    2,136
629,228;25012,931;    0,373;    4,409
629,806;24433,064;    2,282;    1,136
630,383;24721,191;    1,464;   -0,318
630,961;24554,095;    2,555;   -0,955
631,539;24239,885;    2,464;    0,227
632,116;23586,549;   11,373;   15,409
632,694;24191,648;    2,555;    6,500
633,271;24482,816;    0,828;    2,682
633,848;24419,927;    1,828;    2,045
634,426;24459,317;   -1,081;    1,773
635,003;23599,054;    1,101;   -0,409
635,580;23923,502;    1,192;    3,682
636,158;24514,602;    3,737;    1,227
636,735;24498,211;    0,555;   -0,500
637,312;24653,812;   -0,809;   -0,682
637,889;24727,643;   -4,354;   -0,682
638,466;24212,494;   -3,990;   -0,409
639,043;24183,757;    2,101;   -1,136
639,620;24488,088;   -2,262;   -0,955
640,197;24804,925;    1,100;    1,682
640,774;24921,428;   -0,172;    1,136
641,351;25338,113;    0,737;    1,136
641,928;24770,980;   -0,627;    1,409
642,505;24430,938;    0,828;   -0,500
643,082;24562,714;   -1,718;    1,227
643,658;23601,399;   -0,718;    1,500
644,235;24341,357;    1,191;    2,500
644,812;24635,860;    1,918;    0,773
645,388;24390,636;   -0,991;    1,409
645,965;24505,866;   -0,809;    1,682
646,542;24558,461;   -1,445;   -0,227
647,118;24536,055;    1,009;   -0,955
647,695;24842,740;   -0,263;    1,136
648,271;24765,607;   -0,536;    0,500
648,848;25090,837;    0,736;    2,227
649,424;24896,523;    0,827;    1,318
650,000;24671,299;   -0,354;   -1,045
650,577;24461,347;   -0,627;   -0,955
651,153;24980,578;   -1,809;    0,955
651,729;25945,263;    1,191;    0,864
652,305;26248,039;    0,645;    2,773
652,881;30755,179;   -0,082;    1,136
653,458;37563,591;    1,100;    0,227
654,034;41198,549;    0,282;    1,591
654,610;42599,325;    0,554;    0,773
655,186;43848,555;    0,645;    3,045
655,762;43480,695;   -0,991;    0,409
656,338;43442,653;    0,100;    0,136
656,913;44383,065;   -0,082;    0,409
657,489;43610,114;    0,827;   -0,318
658,065;43628,890;   -0,173;   -1,591
658,641;44314,757;   -0,900;   -0,864
659,217;43598,351;   -0,991;    0,409
659,792;43016,945;    0,645;   -0,409
660,368;43225,358;   -2,173;   -0,682
660,944;42839,315;   -2,082;    1,227
661,519;38186,364;   -0,628;    0,409
662,095;32378,958;   -1,719;    0,591
662,670;28007,553;    1,281;   -0,136
663,246;26986,601;    1,009;   -0,409
663,821;26289,014;    0,281;    1,682
664,396;25774,971;    0,009;    1,864
664,972;26042,202;    0,009;   -0,500
665,547;26327,342;    1,372;    0,136
666,122;26401,845;   -1,082;    0,318
666,698;26695,985;   -0,173;    0,318
667,273;25996,852;   -0,173;    0,136
667,848;26842,809;    2,372;    1,500
668,423;26658,676;    2,190;    2,318
668,998;27207,816;    2,827;   -0,682
669,573;27697,683;   -3,264;   -1,500
670,148;27533,732;   -1,446;   -0,682
670,723;27337,780;   -1,810;    0,318
671,298;27772,920;    2,372;    1,045
671,873;27939,969;   -0,082;   -0,136
672,448;27856,199;    0,645;    0,136
673,023;28147,248;   -1,992;   -0,227
673,597;28480,024;    0,827;    2,318
674,172;28245,709;   -0,355;    0,318
674,747;27722,394;    0,372;   -1,045
675,321;27553,988;   -0,628;    3,318
675,896;27153,401;    0,645;    1,045
676,471;28161,449;    2,645;    1,591
677,045;27882,680;   -1,264;    0,682
677,620;27961,002;    0,190;    1,136
678,194;28326,505;   -2,628;    1,136
678,769;27863,917;   -1,083;   -0,318
679,343;28114,966;   -0,628;    1,773
679,917;27989,469;   -1,446;    1,955
680,492;28032,518;    0,826;    3,227
681,066;28196,203;    3,372;    0,409
681,640;28233,161;    1,463;   -0,318
682,214;29061,391;    0,735;    0,500
682,788;28580,258;   -1,356;   -0,773
683,363;28543,580;   -1,810;    1,682
683,937;28239,356;   -1,719;   -0,318
684,511;28995,314;    0,463;   -0,591
685,085;28713,090;   -1,356;    0,318
685,659;28425,866;   -2,538;    0,864
686,232;28730,369;   -0,356;   -0,318
686,806;28453,781;   -0,901;    0,409
687,380;29086,012;   -0,174;    0,591
687,954;29312,424;   -1,174;    1,136
688,528;28993,655;   -0,719;    1,955
689,101;29770,158;   -3,992;    1,045
689,675;29363,934;   -0,356;   -0,136
690,249;28726,983;   -0,719;    0,409
690,822;29055,032;    0,280;    0,318
691,396;29174,898;   -0,265;    1,227
691,969;28638,493;    1,280;    0,136
692,543;29038,269;   -0,447;   -1,955
693,116;28703,681;   -0,265;   -1,409
693,690;28615,912;    0,099;    0,500
694,263;29126,960;   -1,083;    2,955
694,836;29190,827;    1,371;    3,591
695,410;27847,331;   -0,265;    1,773
695,983;28352,379;    0,189;    0,591
696,556;28276,155;   -0,447;   -1,045
697,129;28684,477;   -0,356;    1,409
697,703;28330,980;   -1,629;    1,955
698,276;28309,483;    1,462;   -0,773
698,849;28150,259;    1,280;    1,409
699,422;28493,672;   -1,083;    0,591
699,995;28219,175;    0,007;    0,136
700,568;28653,224;   -0,629;    3,045
701,140;28662,636;   -2,811;    1,682
701,713;28399,139;   -0,174;    2,409
702,286;28174,461;   -0,538;    0,864
702,859;28078,510;   -0,902;   -0,591
703,432;27277,286;    0,825;    0,682
704,004;27740,334;    0,462;    0,318
704,577;27640,656;   -0,629;    0,136
705,150;28219,432;    0,189;    2,500
705,722;27967,390;   -0,356;   -3,227
706,295;27764,347;   -0,175;   -0,591
706,867;27584,305;   -0,175;    1,955
707,440;27793,990;   -1,720;   -0,409
708,012;28088,675;    0,462;    0,591
708,584;27986,633;    2,462;    0,227
709,157;28286,591;    1,825;   -0,591
709,729;27944,003;    2,280;    2,045
710,301;28800,779;    0,734;    0,045
710,874;28848,101;   -1,447;   -0,227
711,446;27690,241;    0,371;    0,864
712,018;27518,471;    0,098;    0,500
712,590;27337,702;   -1,993;    1,682
713,162;27847,387;    0,825;    1,318
713,734;28067,072;    1,825;   -2,045
714,306;28016,848;   -1,902;   -0,409
714,878;26698,624;    0,825;    0,864
715,450;27483,127;    0,643;    0,864
716,022;27717,449;    1,552;    1,318
716,593;27856,316;    0,189;    0,591
717,165;27844,364;   -3,175;   -1,227
717,737;27580,413;    0,280;    0,409
718,309;27216,825;    0,280;   -0,045
718,880;27201,783;   -0,539;   -1,409
719,452;27446,287;   -0,175;   -1,591
720,024;27044,790;    0,734;   -0,591
720,595;27583,657;   -2,902;    0,955
721,167;27095,524;    0,370;   -2,045
721,738;26642,845;   -0,812;   -1,045
722,309;26694,712;   -0,993;   -1,227
722,881;26444,397;   -1,357;    0,773
723,452;27084,082;   -2,630;    2,864
724,023;27262,585;   -0,721;    2,682
724,595;27022,725;    0,007;    0,682
725,166;26795,319;    0,007;   -0,409
725,737;26480,095;    1,734;    0,227
726,308;26505,599;   -0,266;    0,318
726,879;26954,920;   -1,630;    1,227
727,450;26823,696;    0,552;   -0,045
728,021;26812,108;    3,097;    0,682
728,592;26549,975;    0,734;    0,500
729,163;26885,115;    0,643;   -0,136
729,734;26958,891;    0,188;   -0,227
730,305;27264,849;    1,734;    0,136
730,876;27638,716;    0,188;    2,955
731,447;27354,310;    2,188;    2,682
732,017;27438,268;    1,097;    1,864
732,588;26904,771;    0,734;    1,227
733,159;27079,093;    0,643;   -1,045
733,729;26902,869;    0,006;    0,409
734,300;26232,372;    0,915;    0,864
734,870;26649,148;    3,461;    0,591
735,441;27175,197;    0,370;   -0,591
736,011;26972,154;    0,643;   -1,591
736,582;26920,294;   -0,812;    0,045
737,152;26373,616;   -1,721;   -2,045
737,722;26788,482;   -0,267;   -0,682
738,293;26587,804;   -1,358;    1,318
738,863;26457,307;    2,461;    2,318
739,433;26199,083;    5,279;    0,318
740,003;26835,768;   -0,994;   -0,682
740,573;26264,544;    2,097;   -1,591
741,143;26269,775;   -1,085;    0,318
741,713;27027,096;    1,188;   -0,500
742,283;26699,872;    0,915;    1,591
742,853;26505,103;    1,915;    1,591
743,423;25971,879;    1,733;    0,045
743,993;26105,109;   -0,358;    1,500
744,563;25435,704;    0,097;   -0,864
745,133;25430,571;   -0,812;   -0,864
745,702;26109,983;   -0,267;    1,773
746,272;25302,486;   -0,176;    0,591
746,842;25051,899;   -1,358;   -0,591
747,411;25516,675;   -0,267;   -0,318
747,981;25680,905;    0,097;    0,500
748,551;25759,863;    2,278;   -1,045
749,120;25600,912;    0,642;   -0,227
749,690;25953,415;   -0,631;    2,409
750,259;26312,918;    1,369;    2,955
750,828;26231,512;    1,551;   -1,955
751,398;26542,016;    1,278;   -0,045
751,967;26043,883;    2,187;    0,409
752,536;26217,022;   -0,813;   -0,227
753,105;26654,707;    0,096;    0,227
753,675;26423,938;    0,096;    1,773
754,244;26370,169;   -0,904;    3,591
754,813;26348,672;    0,551;    1,227
755,382;25968,811;    0,460;    0,955
755,951;26586,951;    1,551;    3,682
756,520;26109,454;   -0,085;    1,864
757,089;26655,321;    0,278;    0,500
757,658;26753,643;    1,733;    1,227
758,227;26762,873;    1,096;    0,318
758,795;27119,831;    1,187;    1,136
759,364;27296,153;   -0,086;   -0,591
759,933;26315,747;   -1,176;   -0,045
760,501;25814,796;    0,733;   -1,318
761,070;26311,117;   -2,813;   -1,409
761,639;27020,438;   -1,904;    1,318
762,207;26408,669;    1,551;   -0,955
762,776;26323,900;    0,369;    0,864
763,344;26276,857;   -0,995;    0,591
763,913;25355,997;   -0,722;    1,409
764,481;26106,409;    1,005;   -0,136
765,049;25907,367;   -1,358;    1,409
765,618;25785,689;   -0,086;    0,318
766,186;25888,737;    0,278;    0,136
766,754;26112,332;    0,005;    1,864
767,322;25059,199;   -1,995;    0,409
767,890;25063,611;   -0,722;   -1,773
768,459;25453,114;   -2,177;   -0,318
769,027;25623,708;    1,641;    3,409
769,595;24606,848;    3,278;    2,591
770,163;25044,533;    3,823;    2,955
770,730;24837,127;    0,732;   -0,136
771,298;24685,176;    0,187;   -1,409
771,866;24742,134;   -1,541;    4,955
772,434;25061,001;   -0,631;   -1,864
773,002;25247,504;    0,005;    0,682
773,569;24949,098;    0,914;    1,682
774,137;24717,874;   -0,268;   -0,045
774,705;25492,196;    0,278;   -0,136
775,272;25014,972;    0,641;    0,682
775,840;24763,293;   -0,177;    2,682
776,407;24301,887;    0,277;    1,955
776,975;23937,936;   -0,632;    0,318
777,542;24873,985;   -1,086;   -0,045
778,110;24740,579;   -1,268;   -0,045
778,677;24449,719;   -2,359;   -0,864
779,244;24122,222;    2,186;    1,045
779,812;24308,816;    1,823;    0,864
780,379;24178,501;    0,005;    1,136
780,946;24366,823;    1,005;   -0,773
781,513;24737,053;   -1,450;    0,318
782,080;24152,466;   -0,086;    2,864
782,647;24860,514;   -0,268;    3,045
783,214;24413,381;   -0,177;    3,864
783,781;24049,794;   -0,723;   -0,682
784,348;23957,752;   -0,632;    1,500
784,915;24359,709;   -3,177;    0,318
785,482;24158,485;    1,368;    2,591
786,049;24592,807;    0,186;   -0,591
786,615;24671,583;    0,277;   -0,955
787,182;24399,086;    0,186;   -0,682
787,749;24130,226;   -2,814;    1,409
788,315;23467,275;   -1,632;   -0,409
788,882;23771,960;    1,550;   -1,227
789,448;24486,554;    1,732;   -0,955
790,015;24478,966;    1,095;    3,227
790,581;24007,106;    1,459;    0,227
791,148;23936,518;    0,641;    1,045
791,714;24169,112;   -0,541;    3,136
792,280;23835,979;    0,186;    1,591
792,847;23429,301;    0,550;    2,500
793,413;23961,713;   -0,269;   -0,318
793,979;23513,489;    3,459;   -1,318
794,545;23605,447;    4,459;    2,682
795,111;22979,496;    2,186;    1,318
795,678;23165,454;    0,731;   -1,682
796,244;22842,230;    3,368;    0,136
796,810;23361,006;    1,731;    0,773
797,375;23068,963;    0,549;   -2,136
797,941;23116,194;   -0,541;    0,591
798,507;23263,788;   -0,451;   -0,955
799,073;22808,746;   -0,360;    0,591
799,639;22839,340;   -2,632;    3,136
800,205;22901,662;    0,095;    2,682
800,770;22445,801;    0,640;    1,773
801,336;22535,032;    1,368;   -0,955
801,901;22233,353;    4,549;    3,136
802,467;22764,220;   -0,542;    2,045
803,033;22107,542;   -0,087;    0,864
803,598;22319,499;    1,913;   -1,045
804,163;22344,730;    1,095;   -0,318
804,729;22332,961;   -0,178;    1,136
805,294;22760,009;    0,822;    2,227
805,859;22568,513;    0,731;   -0,409
806,425;21981,198;    1,186;    2,682
806,990;21670,246;    2,186;    4,318
807,555;22190,750;   -1,451;    2,591
808,120;22075,162;    0,822;   -0,409
808,685;22134,665;    0,185;   -2,500
809,250;21639,987;    0,004;   -0,500
809,815;21955,763;    1,913;    0,682
810,380;22484,266;   -0,269;    1,591
810,945;23001,042;   -1,087;    2,045
811,510;22158,909;    2,094;    1,591
812,075;21892,503;   -0,633;   -1,409
812,640;21916,097;    2,003;    1,409
813,204;21985,055;    0,822;   -0,227
813,769;22494,104;    2,094;   -0,045
814,334;21902,971;    0,458;    0,864
814,898;21935,201;    0,367;    0,591
815,463;21774,614;    1,276;   -0,773
816,027;21723,390;   -0,724;   -2,318
816,592;21874,620;    0,640;   -2,045
817,156;21371,669;    2,094;    1,136
817,721;21215,809;    4,276;    2,318
818,285;21173,948;    2,912;    1,500
818,849;21850,361;   -1,451;    1,682
819,414;21732,410;   -0,269;    2,955
819,978;21275,095;   -1,269;    1,773
820,542;21848,325;    2,003;    0,500
821,106;21596,738;   -0,815;    0,682
821,670;21691,877;   -0,815;    2,591
822,234;21451,290;   -0,270;    1,409
822,798;20824,793;    0,003;    0,500
823,362;20801,023;   -0,633;    4,227
823,926;20120,254;    0,094;    1,136
824,490;20332,666;   -0,997;   -0,682
825,054;20785,624;   -0,088;   -1,136
825,618;20401,400;   -1,542;   -1,500
826,181;20382,540;    0,458;   -1,318
826,745;20298,589;    1,367;   -1,045
827,309;20629,001;    1,185;    1,318
827,872;20056,686;    1,367;    0,955
828,436;21041,553;    1,185;   -0,773
828,999;21091,420;   -0,997;    1,227
829,563;19901,014;   -0,179;    1,136
830,126;19725,154;   -0,179;   -0,591
830,690;19737,748;   -1,997;    2,864
831,253;19259,524;   -0,543;    2,227
831,816;19404,664;   -1,906;    0,500
832,380;19302,076;    0,185;    0,864
832,943;19536,670;   -1,361;   -0,500
833,506;19008,082;    2,639;   -1,227
834,069;19829,313;    3,912;   -0,955
834,632;19913,089;    1,730;    1,318
835,195;19787,956;    1,003;    0,955
835,758;18973,459;   -0,997;    1,955
836,321;18829,599;    0,730;   -1,045
836,884;18928,466;   -0,725;   -0,955
837,447;18925,605;   -2,816;    1,773
838,010;19183,927;    0,366;    3,227
838,573;19479,976;   -1,179;    0,773
839,135;19436,297;   -1,361;   -0,955
839,698;18916,891;    1,275;    0,409
840,261;18444,940;    1,003;   -0,227
840,823;18246,171;   -0,543;    0,864
841,386;18550,401;   -0,452;   -2,409
841,948;18413,450;   -1,361;    1,773
842,511;18140,953;    0,912;    1,682
843,073;18323,547;    1,912;    0,227
843,636;18131,778;   -0,361;   -0,227
844,198;18033,554;    0,911;    0,591
844,760;18194,875;    1,093;    1,955
845,322;17880,106;    0,548;    1,136
845,885;18279,064;    0,730;    0,591
846,447;18753,931;   -1,998;    0,227
847,009;18324,070;    1,911;   -0,682
847,571;18660,665;    0,820;   -2,045
848,133;18736,986;   -1,089;   -1,864
848,695;18568,398;   -0,543;    1,409
849,257;18095,629;   -1,089;   -1,682
849,819;18296,314;   -0,998;   -0,409
850,381;18347,817;   -0,725;   -0,864
850,942;18697,684;    1,093;   -0,591
851,504;18666,460;    1,184;    0,227
852,066;18659,418;    1,275;   -1,591
852,628;18175,285;   -0,180;    1,955
853,189;17751,788;    1,638;    2,682
853,751;17853,564;   -0,907;    1,409
854,312;17671,340;   -0,453;   -1,682
854,874;18158,934;   -2,089;   -0,773
855,435;18701,438;   -0,907;   -1,682
855,997;18895,123;   -1,816;   -0,136
856,558;18177,626;    0,366;    1,773
857,119;18245,675;    0,820;    2,864
857,681;17951,815;    0,002;    0,318
858,242;17971,227;    1,911;   -2,136
858,803;18389,912;    0,456;   -0,773
859,364;18982,052;    0,184;   -4,773
859,925;18285,282;   -2,453;   -0,955
860,486;18195,422;   -0,453;   -0,955
861,047;17915,743;   -0,544;   -1,227
861,608;17717,247;   -1,089;   -0,773
862,169;17870,750;    0,638;   -0,045
862,730;17649,708;    0,456;    1,409
863,291;17881,575;   -0,635;   -0,500
863,852;18307,260;   -0,635;    1,955
864,412;17741,308;   -0,271;   -0,864
864,973;16346,812;   -0,089;    0,500
865,534;16205,679;   -1,726;    0,227
866,094;17635,364;    1,820;    0,227
866,655;17342,958;    1,274;    3,318
867,215;17658,734;    0,274;    0,136
867,776;17459,419;    0,547;   -0,136
868,336;17595,740;   -1,453;    0,136
868,897;17065,153;    2,638;    1,682
869,457;16785,293;    1,365;    0,318
870,017;17046,250;    0,547;   -1,227
870,578;17580,572;   -0,817;    0,773
871,138;17186,075;   -2,089;   -0,955
871,698;16775,760;   -0,817;   -1,318
872,258;16677,445;   -0,453;   -2,864
872,818;17038,312;    2,729;    0,045
873,378;17012,452;    0,638;    1,045
873,938;16528,137;    0,547;    0,500
874,498;16854,004;    0,274;   -1,955
875,058;16765,325;    2,183;    1,773
875,618;16633,829;    1,910;   -2,682
876,177;16531,786;    1,274;    0,136
876,737;16177,290;   -0,090;    1,955
877,297;16219,702;    0,183;    1,955
877,856;16185,751;   -0,362;    0,318
878,416;16151,981;    1,183;   -0,136
878,976;16363,757;   -1,817;    0,409
879,535;16570,442;    0,092;    3,136
880,095;16308,219;   -0,544;    0,045
880,654;16409,813;   -1,090;    1,318
881,213;16533,316;    2,456;    1,500
881,773;16177,274;    2,637;    2,682
882,332;16524,323;    3,365;    5,136
882,891;16362,917;    3,092;    2,136
883,451;16817,329;   -1,272;    1,682
884,010;16268,651;   -2,908;   -0,409
884,569;16342,972;   -0,999;   -0,045
885,128;16500,657;    2,819;   -1,864
885,687;16544,433;    4,455;    0,682
886,246;16295,573;    1,455;    2,136
886,805;16075,167;    2,455;    2,045
887,364;16331,488;   -0,999;   -0,500
887,922;16653,628;   -1,181;    0,045
888,481;16169,495;   -1,545;    0,591
889,040;16534,180;    1,183;    2,136
889,599;17151,320;    2,455;    1,409
890,157;17223,732;    1,455;    2,409
890,716;16876,144;   -0,090;    0,227
891,274;16715,102;    0,092;   -1,136
891,833;17116,333;    1,546;    0,864
892,391;16997,745;   -0,454;    0,500
892,950;17081,521;    1,819;   -0,773
893,508;17440,661;    0,455;   -0,409
894,067;16789,255;    0,637;    0,136
894,625;16698,031;   -0,636;   -1,500
895,183;16930,353;   -0,363;   -0,682
895,741;16840,038;    1,728;   -1,773
896,299;16661,995;   -0,545;   -2,409
896,858;16882,408;    0,819;   -1,591
897,416;16986,729;    2,728;   -1,318
897,974;16680,596;    1,819;    0,318
898,532;16882,281;    6,091;    2,682
899,089;16766,512;    2,091;   -0,682
899,647;16817,652;   -1,454;    1,318
900,205;16540,791;    1,182;    1,045
900,763;16737,476;   -0,454;    0,227
901,321;16753,161;    2,364;   -1,409
901,878;16181,119;   -1,000;   -0,773
902,436;16068,441;   -1,363;    1,318
902,994;16475,762;    4,728;    3,682
903,551;15926,265;    0,728;    0,409
904,109;16273,496;    0,182;   -1,409
904,666;15855,727;    2,455;    1,045
905,224;15708,412;    0,182;   -0,409
905,781;15437,188;    0,727;   -0,318
906,338;15534,327;   -1,363;    1,045
906,895;15458,740;    0,637;    2,045
907,453;15383,425;    1,727;    1,136
908,010;15433,746;   -0,909;    0,409
908,567;15132,704;    1,273;    0,591
909,124;14608,935;    0,364;   -1,500
909,681;14638,983;   -2,909;    0,682
910,238;14793,941;    0,636;   -1,318
910,795;15124,626;   -0,273;   -1,136
911,352;14754,990;   -2,909;   -2,682
911,909;14162,990;   -1,364;   -0,864
912,466;14684,354;   -3,182;    1,500
913,022;14234,808;   -1,636;    0,500
913,579;14593,899;   -0,909;    2,045
914,136;14287,172;    1,636;    0,955
914,692;14588,172;    0,091;   -1,227
915,249;14222,717;    1,455;    0,409
915,806;14466,808;    0,182;    1,955
916,362;14200,081;    1,909;    1,864
916,918;13760,990;    2,000;    1,045
917,475;13756,444;   -1,182;    0,955
918,031;13803,626;    3,364;   -0,045
918,587;13219,899;   -0,909;   -0,318
919,144;13484,717;   -2,273;    0,227
919,700;13771,717;    1,727;    0,773
920,256;13335,990;    0,727;    0,045
920,812;12996,717;   -0,727;   -1,045
921,368;13033,899;   -1,727;   -1,045
921,924;12665,990;    0,182;   -0,136
922,480;12273,263;   -0,545;    1,227
923,036;12870,081;    1,273;    1,955
923,592;12779,990;    0,455;    0,318
924,148;12710,081;    0,455;   -0,955
924,704;12044,354;   -1,364;   -0,409
925,259;12283,354;   -0,273;    0,591
925,815;12032,263;    1,455;    0,500
926,371;11620,626;    2,909;    1,409
926,926;11504,263;    2,091;    0,591
927,482;11147,626;   -1,364;    0,773
928,037;11018,717;    0,909;    2,045
928,593;11344,263;    1,636;    1,045
929,148;11145,899;   -1,818;   -1,500
929,704;10654,263;   -1,455;   -0,500
930,259;10819,626;    0,091;   -0,136
930,814; 9930,717;   -0,818;    1,955
931,369; 9629,626;    1,091;   -0,773
931,925; 9503,172;   -0,091;    0,136
932,480; 9417,626;   -2,818;   -2,591
933,035; 9341,081;    0,545;   -0,318
933,590; 9086,263;    0,364;   -1,773
934,145; 8715,172;   -1,364;   -0,318
934,700; 9072,444;    0,455;   -0,591
935,255; 8883,808;   -0,091;    0,045
935,809; 8178,535;    3,182;    0,864
936,364; 7323,808;   -0,455;   -0,136
936,919; 7296,990;    0,455;   -1,773
937,474; 7224,081;    1,455;    0,136
938,028; 6945,263;   -1,636;    1,136
938,583; 6440,626;    1,818;    4,682
939,138; 6696,354;    2,091;    2,136
939,692; 6146,263;    1,636;   -1,136
940,247; 5874,081;   -0,727;   -1,045
940,801; 5438,808;   -0,636;    0,227
941,355; 5332,990;   -0,364;    2,591
941,910; 4967,808;   -0,273;   -2,136
942,464; 5075,354;   -0,818;   -0,318
943,018; 4877,081;    1,000;   -0,227
943,572; 4830,444;    2,545;   -0,682
944,126; 4281,444;    0,091;   -0,409
944,681; 4176,535;    3,091;    0,227
945,235; 4158,990;    1,000;   -0,591
945,789; 4092,626;    0,364;   -1,864
946,342; 4185,717;    0,455;   -0,591
946,896; 3967,990;   -2,273;    0,955
947,450; 3729,263;    1,545;   -0,227
948,004; 3930,081;    1,727;   -0,045
948,558; 3945,172;    0,273;   -0,864
949,111; 3857,626;   -0,273;   -0,318
949,665; 3890,081;    1,636;   -0,682
950,219; 3782,808;   -0,091;   -1,045
950,772; 3856,990;   -1,909;    1,864
951,326; 3758,808;    0,545;   -0,955
951,879; 3851,899;    0,727;   -2,318
952,433; 3882,808;    0,000;    2,227
952,986; 3719,899;    2,909;    0,682
953,539; 3695,354;   -0,273;    0,591
954,093; 3612,354;    0,545;   -1,318
954,646; 3752,444;    0,909;    1,318
955,199; 3542,899;    0,000;   -0,500
955,752; 3463,717;   -0,455;    1,773
956,305; 3403,990;   -0,091;    2,955
956,858; 3564,990;    0,818;   -0,318
957,411; 3745,444;   -0,545;    2,136
957,964; 3579,808;    1,364;    2,136
958,517; 3581,808;   -1,545;    3,136
959,070; 3409,535;   -0,455;    1,955
959,623; 3474,808;    1,091;    1,500
960,176; 3252,535;    1,727;    2,045
960,728; 3228,626;   -2,727;    0,773
961,281; 3294,081;    0,545;    0,500
961,834; 3336,899;   -0,909;    0,864
962,386; 3244,081;    1,727;    1,045
962,939; 3170,263;    0,364;   -0,318
963,491; 3313,444;    0,455;    1,136
964,043; 3193,626;    1,182;    2,409
964,596; 3323,626;   -1,000;    2,227
965,148; 3155,626;   -1,000;    1,773
965,700; 3071,626;    1,091;   -0,227
966,253; 3220,899;   -0,636;    0,318
966,805; 3061,626;   -2,273;    0,773
967,357; 3106,172;    1,091;   -1,500
967,909; 3081,172;    0,455;   -1,227
968,461; 3171,899;    0,545;    3,136
969,013; 3118,535;   -0,182;   -0,864
969,565; 3196,535;   -0,455;   -1,136
970,117; 3259,535;   -0,364;    1,045
970,669; 3077,808;    0,182;   -0,136
971,220; 2957,899;   -0,455;   -1,500
971,772; 2891,535;   -0,636;   -0,318
972,324; 2989,899;    0,091;   -0,500
972,876; 2946,354;    0,818;   -0,045
973,427; 3087,626;    1,909;   -1,045
973,979; 3042,990;   -0,727;   -2,500
974,530; 3075,808;    1,818;    1,318
975,082; 3082,354;   -0,545;    1,682
975,633; 2982,172;    1,091;    1,682
976,184; 3124,354;    0,909;    0,773
976,736; 2918,081;    0,091;    0,227
977,287; 2732,808;   -0,909;   -0,500
977,838; 2913,172;    0,909;   -0,318
978,389; 2966,626;   -1,000;   -0,500
978,940; 2823,626;    0,545;   -0,409
979,491; 2873,899;    0,091;   -0,500
980,042; 2834,808;    0,182;    3,045
980,593; 2885,626;   -2,545;    0,227
981,144; 2927,717;    2,545;   -0,500
981,695; 2890,354;    1,455;    1,500
982,246; 2850,626;   -0,273;    1,045
982,797; 3016,808;   -1,727;    0,682
983,347; 3111,081;    0,364;    0,591
983,898; 3283,263;    3,091;    0,409
984,449; 3108,172;    2,182;    0,773
984,999; 3006,808;    1,455;   -1,136
985,550; 2802,354;    0,182;   -0,318
986,100; 2823,535;   -0,455;   -0,318
986,651; 2859,172;   -0,818;    0,045
987,201; 2836,535;   -1,000;   -0,591
987,751; 2909,808;    0,818;    2,864
988,302; 2879,626;    2,636;    1,500
988,852; 2903,899;    0,455;   -1,136
989,402; 2970,899;    0,091;    0,682
989,952; 2894,717;   -2,182;    0,864
990,502; 2970,990;   -0,091;    0,682
991,052; 2930,899;   -0,727;    0,045
991,602; 2811,172;   -2,909;    1,318
992,152; 2814,444;    0,455;    0,682
992,702; 2802,626;    1,364;   -0,045
993,252; 2705,444;   -3,000;   -0,500
993,802; 2799,354;   -0,273;    1,318
994,352; 3040,899;   -1,545;    1,136
994,901; 3121,444;   -0,182;    3,227
995,451; 3048,899;   -0,182;    0,318
996,000; 3131,444;    1,636;    0,318
996,550; 2841,717;    2,273;    0,227
997,100; 2832,717;    1,273;   -0,045
997,649; 3112,172;    2,182;    0,955
998,198; 2753,626;    1,727;   -1,500
998,748; 2971,263;    1,091;   -2,318
999,297; 2878,990;   -0,818;   -0,409
999,846; 2926,263;    1,000;   -0,773
1000,395; 2959,535;   -0,818;    0,500
1000,945; 2935,899;    1,818;   -0,773
1001,494; 3011,899;    2,364;    0,682
1002,043; 2989,081;    4,636;    0,864
1002,592; 2833,444;   -1,091;    1,955
1003,141; 2989,717;   -0,455;   -0,682
1003,690; 2850,263;    1,727;    0,500
1004,238; 2934,717;    1,455;   -0,045
1004,787; 2555,354;    1,364;    1,227
1005,336; 2793,717;    0,364;    0,682
1005,885; 2943,899;    1,364;   -2,773
1006,433; 3074,263;    0,545;    0,955
1006,982; 3136,354;    0,455;    1,682
1007,531; 3037,990;   -1,818;   -0,227
1008,079; 2996,263;   -2,273;    0,500
1008,627; 3144,717;   -1,455;    0,409
1009,176; 2885,899;    0,000;   -1,955
1009,724; 2917,899;    1,091;    0,864
1010,273; 2978,172;    1,273;    0,500
1010,821; 3079,263;    0,091;    1,409
1011,369; 2828,990;   -1,364;    1,318
1011,917; 2775,899;   -1,364;   -0,591
1012,465; 3075,081;    1,273;   -1,591
1013,013; 3179,808;    2,091;   -1,682
1013,561; 3070,354;    0,455;   -0,773
1014,109; 3118,808;   -1,909;    1,682
1014,657; 3000,626;    0,364;    0,591
1015,205; 3126,172;    1,636;   -0,955
1015,753; 3143,626;   -0,545;   -1,409
1016,301; 3186,081;   -2,636;    3,045
1016,848; 3197,354;   -1,273;    0,409
1017,396; 3231,354;    2,545;    0,045
1017,944; 3356,899;    1,182;    1,864
1018,491; 3103,172;    0,273;    1,409
1019,039; 3267,808;    0,455;    0,591
1019,586; 3172,263;   -1,364;    1,682
1020,134; 3276,626;    0,455;    1,500
1020,681; 3295,535;    0,182;   -1,136
1021,228; 3306,990;    2,909;   -2,227
1021,776; 3111,626;    1,182;   -1,136
1022,323; 3352,990;    0,455;    0,773
1022,870; 3274,354;   -1,000;   -0,045
1023,417; 3164,990;    2,636;    1,864
1023,964; 3310,444;    2,636;    1,227
1024,511; 3146,263;    1,000;    0,773
1025,058; 2959,444;    3,182;   -0,045
1025,605; 3016,535;   -2,273;    3,136
1026,152; 3242,172;    1,727;   -0,591
1026,699; 2978,990;    1,818;    1,318
1027,245; 3154,808;   -0,091;    0,318
1027,792; 3349,354;   -1,000;    1,409
1028,339; 3243,535;    2,364;   -0,045
1028,885; 3080,717;    1,000;   -0,227
1029,432; 3026,899;   -0,091;    0,227
1029,978; 3095,990;   -1,000;   -1,591
1030,525; 3000,172;    1,000;    0,409
1031,071; 3236,081;   -1,364;    1,136
1031,618; 3336,899;    0,364;    1,682
1032,164; 3111,354;   -0,091;    3,045
1032,710; 3171,081;    1,636;   -1,500
1033,256; 3054,354;   -0,636;   -0,136
1033,803; 3052,081;   -0,545;    1,500
1034,349; 2775,808;   -1,364;    0,136
1034,895; 2946,172;    0,000;   -0,318
1035,441; 2931,808;   -0,818;    0,318
1035,987; 2929,808;   -2,364;   -0,682
1036,533; 2923,172;   -1,455;   -0,955
1037,078; 3127,626;    1,455;    1,682
1037,624; 2953,626;    2,455;   -0,955
1038,170; 2972,263;    0,455;   -0,318
1038,716; 2896,535;    1,636;   -0,409
1039,261; 2803,172;   -2,273;   -0,773
1039,807; 2738,172;   -0,091;    3,409
1040,352; 2827,626;   -1,909;   -0,318
1040,898; 2856,354;   -1,545;   -0,682
1041,443; 2762,263;   -1,455;   -2,591
1041,989; 2792,354;    1,091;    1,591
1042,534; 2664,808;   -0,364;    2,591
1043,079; 2778,263;    2,909;    0,955
1043,625; 2569,626;    1,818;    0,500
1044,170; 2618,990;   -1,364;    1,045
1044,715; 2865,081;    2,455;    0,955
1045,260; 2683,990;    2,182;   -0,955
1045,805; 2712,263;    1,182;   -0,591
1046,350; 2666,717;    1,364;   -0,409
1046,895; 2632,899;    2,909;    1,591
1047,440; 2578,444;    5,364;    0,409
1047,985; 2485,081;    2,818;   -0,955
1048,530; 2401,354;    1,545;    1,227
1049,074; 2460,172;    0,000;    0,318
1049,619; 2436,535;   -1,364;    1,955
1050,164; 2254,444;    0,455;    0,227
1050,708; 2295,535;   -0,455;    0,045
1051,253; 2674,263;    1,273;   -2,227
1051,797; 2366,990;    0,818;   -1,318
1052,342; 2359,808;   -1,182;    1,045
1052,886; 2363,444;    0,364;   -1,409
1053,430; 2263,899;   -1,364;    0,136
1053,975; 2269,717;   -0,818;   -0,318
1054,519; 2243,990;   -0,727;    3,227
1055,063; 2273,263;    0,909;    1,318
1055,607; 2160,444;   -0,182;    0,227
1056,151; 2187,172;    2,909;    1,682
1056,695; 2107,354;    2,273;   -1,136
1057,239; 2161,899;   -1,727;   -0,682
1057,783; 2171,990;    0,818;   -1,500
1058,327; 2112,535;    0,000;    1,409
1058,871; 2349,535;   -0,545;    1,318
1059,415; 2067,626;   -0,818;   -0,045
1059,958; 2329,990;    1,455;    2,591
1060,502; 2050,263;   -1,000;   -0,773
1061,046; 1940,990;    0,364;   -0,955
1061,589; 1915,626;   -3,000;   -1,136
1062,133; 1811,354;   -1,273;    1,864
1062,676; 1752,535;    1,182;    0,864
1063,220; 1757,263;    1,091;    0,500
1063,763; 1782,899;    0,909;    1,136
1064,306; 1867,263;   -0,909;    1,864
1064,849; 1749,899;   -0,909;    0,591
1065,393; 1750,444;    2,000;   -1,500
1065,936; 1876,808;    0,182;   -0,409
1066,479; 1757,808;   -1,455;    1,318
1067,022; 1774,990;   -0,273;   -0,227
1067,565; 1670,717;   -0,091;   -1,318
1068,108; 1698,444;    0,727;   -0,591
1068,651; 1672,990;   -0,636;    1,409
1069,194; 1587,172;   -0,455;   -1,682
1069,736; 1593,899;   -1,273;    0,955
1070,279; 1586,626;   -1,364;   -0,500
1070,822; 1635,717;   -2,000;   -0,318
1071,364; 1726,990;   -0,364;    1,318
1071,907; 1535,263;   -0,727;    3,227
1072,450; 1434,899;    0,000;   -0,045
1072,992; 1433,263;   -0,273;    3,136
1073,535; 1586,808;    2,091;    2,136
1074,077; 1374,626;   -0,727;    2,045
1074,619; 1326,990;   -1,364;    0,591
1075,161; 1373,899;   -1,091;    1,500
1075,704; 1563,354;    1,545;    1,227
1076,246; 1361,172;   -0,182;    0,682
1076,788; 1279,444;   -0,364;    1,773
1077,330; 1357,354;    1,273;    2,136
1077,872; 1323,535;    0,909;    0,955
1078,414; 1558,081;    2,727;    0,773
1078,956; 1280,899;    1,273;   -0,227
1079,498; 1547,263;    1,636;    0,318
1080,040; 1251,535;    1,909;   -1,318
1080,581; 1199,717;    1,636;   -0,318
1081,123; 1125,172;    0,091;   -0,773
1081,665; 1166,535;   -1,182;   -0,955
1082,206; 1465,808;    1,364;   -0,500
1082,748; 1321,808;    0,727;    2,045
1083,289; 1192,990;   -2,000;    1,318
1083,831; 1100,808;   -0,545;    0,227
1084,372; 1146,354;    0,000;    0,591
1084,913; 1153,081;    1,091;    0,864
1085,455; 1102,081;   -1,909;   -2,045
1085,996; 1089,990;   -2,273;    0,136
1086,537; 1111,263;   -0,091;    0,864
1087,078; 1152,990;   -0,909;   -2,136
1087,619; 1192,081;   -1,273;    0,227
1088,160; 1095,899;    0,000;    1,318
1088,701; 1079,081;   -1,091;    0,682
1089,242; 1024,626;    1,364;   -2,227
1089,783; 1123,990;   -0,273;    1,409
1090,324; 1089,899;    0,455;    0,682
1090,865;  964,535;    2,727;   -0,409
1091,405;  938,444;    0,727;    2,227
1091,946;  963,626;    0,182;   -0,955
1092,487;  889,172;    0,818;   -1,409
1093,027; 1058,354;   -1,364;   -1,500
1093,568;  912,990;   -0,364;    1,227
1094,108; 1006,535;    0,273;    1,773
1094,649;  942,808;   -1,182;    0,136
1095,189;  879,717;   -0,636;   -0,682
1095,729;  818,899;   -0,091;    0,955
1096,269;  827,899;    0,727;   -0,955
1096,810; 1173,444;   -1,364;    0,500
1097,350;  995,354;    1,364;   -0,773
1097,890;  887,990;    0,364;    1,227
1098,430; 1141,717;    2,364;    2,864
1098,970; 1018,808;    2,182;    1,682
1099,510;  871,899;    0,545;   -2,318
1100,050;  805,990;    1,000;   -1,591
1100,589;  765,535;   -0,727;   -0,318
1101,129;  897,717;    0,818;   -0,955
1101,669; 1050,990;    1,727;    2,136
1102,209;  882,717;   -0,091;    2,227
1102,748;  826,717;    0,000;    0,955
1103,288;  815,263;    1,273;   -1,227
1103,827;  859,444;    3,091;   -2,227
1104,367;  728,172;   -0,091;   -2,409
1104,906;  689,626;    1,364;   -1,136
1105,445;  756,263;    0,636;   -1,136
1105,985;  708,990;   -0,727;    1,500
1106,524;  760,717;   -1,727;   -0,682
1107,063;  723,899;   -2,727;    1,409
1107,602;  697,081;   -1,909;   -1,500
1108,141;  626,172;   -1,909;    1,500
1108,680;  739,081;   -3,455;   -0,591
1109,219;  660,263;   -0,909;   -0,500
1109,758;  668,717;    0,455;    0,682
1110,297;  639,899;    1,000;   -0,682
1110,836;  577,626;   -0,727;    0,955
1111,375;  752,535;   -2,545;    0,409
1111,913;  763,990;   -1,000;    0,773
1112,452;  684,444;   -0,273;    0,136
1112,991;  572,990;    1,091;    1,955
1113,529;  531,263;   -0,818;   -0,045
1114,068;  603,717;   -0,273;    2,955
1114,606;  505,444;   -0,364;   -0,955
1115,144;  664,717;   -1,273;    1,045
1115,683;  603,354;   -0,727;    0,318
1116,221;  664,899;   -0,455;   -0,864
1116,759;  556,444;    0,636;   -0,864
1117,297;  752,263;    0,000;    1,864
1117,836;  559,626;   -2,182;   -1,227
1118,374;  583,081;    0,182;   -0,682
1118,912;  521,808;    0,909;    2,682
1119,450;  504,444;    1,000;    0,864
1119,988;  552,535;    1,545;    2,136
1120,525; 1010,263;    5,091;    3,318
1121,063;  715,354;    1,182;    1,864
1121,601;  523,717;   -0,909;   -1,227
1122,139;  483,990;   -0,727;   -2,045
1122,676;  681,717;   -0,727;    2,773
1123,214;  608,535;   -1,182;    4,409
1123,751;  420,081;    1,727;    2,227
1124,289;  545,990;   -0,091;   -0,409
1124,826;  412,990;    1,727;    0,227
1125,364;  339,444;    1,727;   -0,955
1125,901;  528,354;    1,182;    1,227
1126,438;  649,535;    0,818;    0,955
1126,975;  375,626;   -0,727;   -0,773
1127,513;  442,444;    0,273;    2,136
1128,050;  340,081;    1,636;   -0,682
1128,587;  439,626;    2,000;   -0,227
1129,124;  492,626;    0,091;    1,318
1129,661;  356,081;    0,273;    0,227
1130,198;  522,172;    1,636;    0,773
1130,734;  470,081;    0,182;    1,409
1131,271;  326,444;   -0,909;    0,864
1131,808;  508,263;    2,909;    3,045
1132,345;  376,990;    1,545;    0,318
1132,881;  245,444;   -1,545;   -1,864
1133,418;  380,899;    0,727;   -1,136
1133,954;  317,263;    2,455;   -2,682
1134,491;  399,263;    1,364;   -0,773
1135,027;  281,990;    2,364;    0,864
1135,564;  372,535;    0,273;    2,955
1136,100;  366,263;    0,364;    2,136
1136,636;  245,717;   -1,273;   -1,045
1137,172;  355,808;    0,000;   -1,045
1137,708;  285,172;   -1,364;   -1,045
1138,245;  279,899;    1,273;   -1,227
1138,781;  227,081;    1,091;   -3,318
1139,317;  296,535;    1,273;   -1,409
1139,852;  276,717;    3,091;    0,136
1140,388;  401,899;   -1,182;   -0,409
1140,924;  286,990;   -1,091;   -2,227
1141,460;  220,899;   -1,636;    0,136
1141,996;  157,535;   -1,364;    2,682
1142,531;  213,081;    1,364;    3,318
1143,067;  430,717;    1,182;    1,045
1143,602;  486,444;   -0,091;   -0,318
1144,138;  318,808;   -2,636;    1,045
1144,673;  186,990;   -1,455;    1,409
1145,209;  255,354;   -1,909;   -0,318
1145,744;  175,535;   -0,727;    0,864
1146,279;  316,990;    1,818;   -0,136
1146,815;  227,717;    1,545;   -2,682
1147,350;  270,717;   -1,364;    0,045
1147,885;  178,808;   -0,818;   -1,318
1148,420;  179,990;   -2,273;    0,773
1148,955;  164,354;   -1,727;    1,864
1149,490;  186,990;   -0,909;   -1,591
1150,025;  165,172;    0,455;   -1,773
1150,560;  283,172;    1,091;   -0,955
1151,094;  254,263;    1,455;   -0,591
1151,629;  261,899;    1,636;    0,864
1152,164;  182,354;    1,364;    1,318
1152,698;  143,899;   -0,182;   -0,136
1153,233;  104,444;    0,091;   -0,682
1153,767;  149,172;   -3,000;   -2,318
1154,302;  192,081;   -1,455;    1,773
1154,836;  198,535;   -0,455;   -2,136
1155,371;  253,626;   -1,364;    3,682
1155,905;  204,263;   -0,636;    1,682
1156,439;  168,081;   -0,636;   -0,500
1156,973;  202,444;    0,364;    0,318
1157,507;  136,081;   -0,364;    0,682
1158,042;  162,081;   -0,727;    1,045
1158,576;  222,808;    0,182;    1,773
1159,110;  204,717;   -0,818;    2,409
1159,643;  177,535;    0,636;   -0,045
1160,177;  109,172;   -1,545;    1,500

