
Integration time [ms]:   0,040
Averaging Nr. [scans]: 11
Smoothing Nr. [pixels]: 0
Data measured with spectrometer [name]: 7318044SP
Wave   ;Sample   ;Dark     ;Reference
[nm]   ;[counts] ;[counts] ;[counts] 

186,757;   25,206;   31,551;    1,318
187,357;   61,161;   22,551;    0,955
187,958;   40,790;   15,460;   -1,591
188,558;   84,194;    8,915;   -1,227
189,159;   57,361;    6,733;   -4,500
189,759;   16,141;    7,278;   -3,591
190,360;   16,658;    2,824;   -2,136
190,960;   58,922;    2,915;   -4,136
191,560;   77,797;    3,189;   -6,591
192,161;  332,100;    4,372;   -3,500
192,761;  165,809;    4,010;   -3,227
193,361;  110,177;    1,556;   -3,773
193,962;  165,624;    2,010;   -2,682
194,562;   90,165;    1,189;   -3,955
195,162;  123,596;   -2,448;   -2,227
195,762;  298,088;   -3,176;   -0,045
196,362;  236,253;    1,370;   -2,500
196,963;   93,574;    2,006;   -0,864
197,563;  172,200;    1,551;   -0,955
198,163;  117,269;    0,096;   -0,682
198,763;  136,468;    1,733;   -0,500
199,363;  252,182;    3,096;   -0,500
199,963;  209,655;    0,369;    0,409
200,563;  180,495;    2,823;   -1,409
201,163;  156,719;    3,277;   -0,227
201,763;  260,960;    3,732;    0,318
202,363;  184,893;    1,459;    1,500
202,963;  302,876;    1,459;    1,045
203,563;  422,385;    0,277;    0,500
204,162;  263,501;    2,096;   -1,864
204,762;  243,952;    0,550;    0,591
205,362;  216,449;    3,004;    1,955
205,962;  322,531;    3,096;    1,955
206,562;  320,698;    1,823;    2,318
207,161;  280,079;   -0,087;    0,318
207,761;  441,458;    1,277;    2,409
208,361;  316,241;   -0,268;    1,409
208,960;  429,095;    0,459;    1,500
209,560;  502,607;    1,277;    1,591
210,160;  468,974;    0,550;    1,864
210,759;  432,307;    4,186;    1,227
211,359;  450,973;    1,459;    1,045
211,958;  717,902;    1,277;    2,045
212,558;  809,591;    1,732;    1,864
213,157;  650,127;    1,822;    1,500
213,757; 1098,374;    3,822;   -0,227
214,356;  778,943;    1,277;   -0,409
214,956; 1131,548;    3,095;    0,409
215,555;  742,860;    2,095;    2,136
216,154;  682,347;   -2,723;   -0,591
216,754;  692,062;    0,277;    0,773
217,353;  837,353;   -0,268;   -1,045
217,952;  688,505;   -0,178;    0,318
218,552;  932,511;    1,368;   -0,773
219,151;  832,982;    0,277;    0,955
219,750;  832,620;    0,004;   -0,227
220,349;  977,691;   -0,451;    1,045
220,948; 1026,143;   -1,360;    1,136
221,548; 1044,382;    0,913;    1,227
222,147; 1177,383;   -0,087;   -0,409
222,746; 1465,124;   -0,451;   -0,955
223,345; 1356,155;    0,731;    0,500
223,944; 1365,458;   -0,451;    0,773
224,543; 1545,105;    1,004;   -1,409
225,142; 1651,248;    0,094;    0,136
225,741; 1565,106;   -0,814;    1,045
226,340; 1592,261;   -0,451;   -0,955
226,939; 2071,189;   -0,996;   -0,136
227,538; 2040,211;   -0,360;   -0,773
228,137; 2193,380;   -0,814;    0,864
228,735; 2361,919;   -0,541;    1,227
229,334; 2105,724;   -0,905;   -0,227
229,933; 2495,165;    0,459;    0,591
230,532; 2621,454;    1,186;   -0,409
231,131; 2680,982;    1,732;    0,318
231,729; 2839,498;   -2,450;   -2,318
232,328; 2976,719;   -0,723;   -1,500
232,927; 3073,094;    1,004;   -0,500
233,525; 3225,661;    3,640;    0,045
234,124; 3444,694;    2,368;   -1,591
234,723; 3451,017;    0,913;   -1,045
235,321; 3594,994;    2,277;    0,136
235,920; 3862,686;    1,186;   -1,227
236,518; 4140,299;    3,459;    0,318
237,117; 4347,720;    0,004;   -0,227
237,715; 4520,607;    0,640;   -0,500
238,314; 4538,291;   -0,087;   -2,318
238,912; 4656,232;   -0,723;   -1,409
239,510; 4700,116;    0,459;   -1,227
240,109; 4880,076;    0,004;    3,773
240,707; 4927,711;   -0,996;    1,227
241,305; 5339,060;    0,550;    0,136
241,904; 5549,969;   -0,178;   -2,045
242,502; 5530,534;   -0,632;   -0,227
243,100; 5463,959;   -0,087;   -0,955
243,698; 5730,210;    0,732;    1,682
244,297; 5906,367;   -0,632;    0,682
244,895; 5717,527;   -0,269;   -2,318
245,493; 6060,011;    2,186;   -0,591
246,091; 6104,045;    1,368;   -1,318
246,689; 6093,493;    1,004;    0,591
247,287; 6273,091;    0,822;   -1,136
247,885; 6579,307;   -1,451;    1,227
248,483; 6675,689;    1,822;   -0,500
249,081; 6824,120;    0,185;    1,591
249,679; 6992,764;   -0,178;    1,682
250,277; 7258,808;   -1,723;    0,864
250,875; 7257,510;   -1,087;   -1,045
251,473; 7273,122;   -1,178;    0,500
252,071; 7469,780;    1,459;    1,045
252,669; 7634,731;   -1,814;    0,318
253,267; 7899,580;   -0,087;    0,773
253,864; 7886,727;   -0,360;    0,682
254,462; 7722,288;    1,640;    1,591
255,060; 7688,257;   -0,269;    1,318
255,658; 8059,277;    0,822;   -0,136
256,255; 8470,266;    0,186;   -2,045
256,853; 8308,852;   -0,269;    1,409
257,451; 8321,181;    0,822;    1,864
258,048; 8607,422;    1,822;    1,864
258,646; 8350,009;    1,731;   -1,045
259,243; 8570,580;   -0,087;    2,227
259,841; 8614,341;   -0,814;    0,318
260,438; 8488,372;   -0,087;    0,864
261,036; 9232,133;   -1,905;    1,409
261,633; 9146,471;   -0,087;    2,227
262,231; 8859,563;    2,731;   -0,045
262,828; 8941,271;   -0,905;    1,136
263,425; 8995,319;    0,913;   -0,591
264,023; 9271,439;    0,186;    0,045
264,620; 8804,451;   -0,360;   -0,318
265,217; 9147,010;   -2,087;    3,136
265,815; 9297,472;   -1,905;    2,136
266,412; 9078,295;    0,731;    0,136
267,009; 9120,538;   -1,451;    0,773
267,606; 8987,282;    0,822;   -0,955
268,203; 8976,281;   -0,269;   -0,591
268,801; 9281,030;    1,731;    0,591
269,398; 9571,449;   -0,360;    2,500
269,995; 9560,362;    0,277;    1,591
270,592; 9337,939;   -0,632;   -0,500
271,189; 9550,208;    0,186;    0,409
271,786; 9666,994;   -0,632;    1,227
272,383; 9502,600;   -1,087;    0,227
272,980; 9708,882;    0,277;    0,318
273,577;10194,045;    0,004;    1,227
274,174; 9738,103;    0,822;    2,591
274,771; 9739,186;   -0,814;   -0,773
275,367; 9880,039;    2,277;    1,409
275,964; 9820,997;    0,731;   -0,500
276,561; 9951,114;    1,549;   -1,045
277,158;10179,037;    0,095;   -1,773
277,755;10332,302;    2,185;    0,409
278,351; 9683,912;   -0,451;   -1,500
278,948;10019,355;   -0,815;    0,045
279,545;10030,494;   -1,360;    2,318
280,141;10667,519;   -1,723;   -2,045
280,738;10541,355;   -0,451;   -0,136
281,334;10815,631;   -1,633;    0,591
281,931;10162,895;   -0,087;   -1,318
282,528;10260,897;    0,822;   -0,500
283,124;10989,652;   -1,087;   -0,500
283,721;10912,416;   -0,451;    1,409
284,317;10693,330;    0,185;    2,500
284,913;11278,396;   -1,360;    0,591
285,510;11449,760;    0,640;   -0,318
286,106;11482,101;   -2,269;   -0,955
286,703;11082,303;   -0,360;    1,955
287,299;11285,796;   -1,451;   -0,591
287,895;11489,029;    0,822;   -1,045
288,491;12064,449;    0,186;    2,136
289,088;11813,109;   -2,360;    2,409
289,684;11889,549;   -1,723;    1,500
290,280;11896,591;    0,368;    0,682
290,876;11957,140;    1,822;    5,500
291,472;11832,797;    1,276;    2,227
292,068;11945,113;    1,367;    0,227
292,665;11689,523;    2,095;    0,773
293,261;11290,312;    0,276;    2,136
293,857;11689,852;    2,913;    2,136
294,453;11637,977;    3,550;    0,955
295,049;11535,516;   -0,268;    1,955
295,644;11517,477;    0,095;    0,136
296,240;11397,975;   -0,905;   -0,136
296,836;11429,747;   -0,995;    0,318
297,432;11736,121;    1,096;   -0,500
298,028;11780,913;    0,732;    0,773
298,624;12178,038;    1,459;    1,864
299,220;12463,131;    2,368;    0,591
299,815;12113,180;    1,005;   -0,409
300,411;11887,516;    0,914;    1,773
301,007;11903,167;    1,368;    0,227
301,602;11967,545;   -0,541;   -2,318
302,198;12137,377;    0,732;   -0,773
302,794;12458,171;    1,187;   -0,500
303,389;12597,281;   -1,177;    1,045
303,985;12686,813;    0,550;    1,409
304,580;12633,165;    1,459;    1,591
305,176;12600,848;   -3,086;    0,136
305,771;12546,391;   -1,268;   -1,227
306,367;12384,311;    4,095;    0,136
306,962;12731,090;    0,641;    1,500
307,558;12479,207;   -0,450;    0,136
308,153;12377,581;    1,095;   -1,136
308,748;12628,239;   -0,814;    1,682
309,344;12594,435;   -0,632;   -1,318
309,939;12690,593;   -1,905;   -1,318
310,534;12978,468;   -0,086;   -1,682
311,130;12944,764;    0,459;   -2,500
311,725;12655,632;    1,004;   -0,500
312,320;12973,434;    2,459;    0,045
312,915;12788,384;    1,459;   -1,045
313,510;12883,035;    1,550;   -0,500
314,105;13409,919;    1,096;    1,409
314,700;12792,424;   -3,086;   -1,045
315,295;12397,528;   -0,904;    0,045
315,890;11962,441;    1,277;    0,864
316,485;12331,009;   -0,359;   -0,318
317,080;12460,557;   -3,086;    1,591
317,675;13049,259;    2,005;   -0,682
318,270;12421,499;    5,550;    3,318
318,865;12450,675;    3,278;    3,045
319,460;12274,149;   -0,904;    0,591
320,055;12480,132;   -0,541;   -1,227
320,650;12180,705;   -1,995;   -0,591
321,244;12219,254;   -0,177;   -1,409
321,839;13182,715;   -1,541;   -0,227
322,434;13068,707;   -1,086;   -1,591
323,029;12687,472;    1,732;    1,591
323,623;12512,420;    1,550;    0,773
324,218;12287,338;    2,368;    1,409
324,812;12143,723;    1,096;    1,591
325,407;11935,967;   -0,814;    2,045
326,002;11904,220;    0,277;   -0,409
326,596;12194,496;    0,914;    1,318
327,191;12426,189;    0,823;   -1,045
327,785;11968,132;   -0,813;   -0,227
328,379;12194,494;    1,368;    0,136
328,974;12002,253;    0,914;   -3,955
329,568;12218,034;    0,186;   -2,409
330,163;12032,426;    2,096;    1,045
330,757;12405,995;    2,459;    1,591
331,351;11724,322;    0,459;    0,682
331,945;12043,438;    0,914;    1,409
332,540;11635,601;   -1,723;   -0,591
333,134;11793,520;   -1,086;    0,773
333,728;12042,751;    0,005;    0,318
334,322;12333,968;   -1,177;   -0,864
334,916;11613,193;    0,277;    0,955
335,510;11889,069;   -0,450;   -0,136
336,105;12149,552;   -1,086;    1,591
336,699;11912,438;   -1,086;    0,591
337,293;11815,239;   -1,723;    0,318
337,887;11973,921;   -2,723;    1,955
338,481;12054,355;    0,459;    0,591
339,074;12209,369;   -0,359;    2,682
339,668;11995,032;   -1,632;    1,227
340,262;12286,832;    1,732;    3,227
340,856;11793,587;    1,822;   -0,682
341,450;11122,065;    1,004;    1,864
342,044;12038,330;    1,459;    0,136
342,637;11807,167;    0,913;   -2,136
343,231;11683,882;   -2,360;    0,682
343,825;11654,068;   -1,086;   -0,591
344,419;11617,566;   -1,995;    0,500
345,012;11396,633;    2,459;    4,045
345,606;11345,109;    4,641;    1,591
346,199;11192,242;   -1,813;   -0,227
346,793;10741,542;    1,914;    2,045
347,386;10925,230;   -0,813;   -1,136
347,980;10920,044;   -0,268;   -0,045
348,573;10710,457;    2,278;    0,409
349,167;10380,040;    5,278;    4,773
349,760;10716,448;    2,914;    2,682
350,354;10733,732;   -0,813;    1,136
350,947;10448,714;    1,096;    1,682
351,540;10151,370;   -0,358;   -1,409
352,134;10072,026;    1,096;    1,136
352,727;10128,559;   -0,086;    1,136
353,320; 9931,544;    0,005;    0,591
353,913; 9803,523;   -1,995;    1,864
354,507; 9993,100;    0,823;   -1,227
355,100; 9992,699;    0,460;    0,864
355,693; 9226,559;    2,005;    2,409
356,286; 9239,293;    0,823;    2,773
356,879; 9607,552;   -0,722;    1,227
357,472; 9193,421;   -0,904;    1,500
358,065; 9398,289;   -0,722;    2,500
358,658; 9328,909;   -0,540;    2,318
359,251; 8955,649;   -1,631;   -0,591
359,844; 8444,543;   -1,904;   -1,136
360,437; 8622,224;   -2,995;    0,045
361,030; 8900,344;    1,369;   -0,682
361,623; 8462,753;    2,824;    0,318
362,215; 8509,120;   -0,086;    2,045
362,808; 8359,431;   -2,358;   -1,682
363,401; 8573,852;   -2,449;    0,136
363,994; 8295,582;   -0,631;   -1,500
364,586; 8208,160;    0,824;   -1,500
365,179; 8420,898;   -0,449;   -1,136
365,772; 7876,927;   -1,995;    2,045
366,364; 8191,448;    1,915;   -3,227
366,957; 8403,342;    2,279;   -0,045
367,549; 8412,754;    2,188;   -0,864
368,142; 8040,689;    1,825;   -1,500
368,734; 8232,863;    0,734;   -2,136
369,327; 8188,381;    1,643;   -0,500
369,919; 8096,324;   -1,538;    0,409
370,512; 7919,147;   -1,083;   -0,500
371,104; 7661,396;   -0,901;    1,591
371,696; 7851,791;    1,191;   -0,955
372,289; 7960,274;    0,373;    1,136
372,881; 8072,989;   -2,080;    1,318
373,473; 7995,317;   -2,170;    1,136
374,066; 7804,048;   -0,169;    0,500
374,658; 7637,896;    0,378;    1,136
375,250; 8004,813;    0,653;   -1,409
375,842; 7847,639;    0,473;   -0,045
376,434; 7752,303;   -0,435;   -0,409
377,026; 8338,550;    0,204;   -2,500
377,618; 8245,170;   -0,158;   -0,682
378,210; 8085,154;   -0,338;   -1,955
378,802; 7913,219;    0,754;   -0,591
379,394; 7879,251;    1,846;    0,682
379,986; 8492,969;    1,393;   -0,955
380,578; 8604,853;   -0,153;    0,773
381,170; 7886,582;   -0,972;    0,045
381,762; 7857,934;    0,755;    1,409
382,354; 8083,526;   -0,065;   -1,318
382,945; 8193,715;   -2,976;    0,318
383,537; 8329,359;   -2,705;   -1,955
384,129; 8350,554;   -2,160;   -1,136
384,721; 8554,150;   -0,252;    0,955
385,312; 8450,699;   -0,161;   -0,955
385,904; 8534,934;   -2,706;    1,591
386,496; 7920,085;   -0,979;    1,045
387,087; 8086,795;    1,022;    2,500
387,679; 8109,432;   -1,160;    0,045
388,270; 8228,106;    2,840;    2,045
388,862; 8364,420;    1,295;   -0,318
389,453; 8276,267;   -0,887;    1,045
390,045; 8553,507;   -0,705;   -2,682
390,636; 8477,579;    0,204;   -0,591
391,227; 8333,155;   -0,523;   -0,045
391,819; 8425,625;    0,204;    0,773
392,410; 8522,470;    1,022;    0,045
393,001; 8439,218;   -0,979;   -1,591
393,593; 8743,799;    1,930;   -0,045
394,184; 8556,595;    1,385;   -0,409
394,775; 8508,270;    1,839;    2,136
395,366; 8697,830;    1,385;    0,773
395,957; 8694,060;    0,113;    0,136
396,548; 9025,859;   -0,342;    2,682
397,139; 9363,609;   -2,433;    0,591
397,730; 9048,149;   -1,888;    0,955
398,321; 9138,208;   -1,252;    0,955
398,912; 9183,563;   -0,615;    0,136
399,503; 9272,129;   -3,524;   -1,409
400,094; 8664,352;    0,294;    1,682
400,685; 8545,670;   -0,433;    0,045
401,276; 8619,438;    0,930;   -0,955
401,867; 8947,012;   -0,888;    0,773
402,458; 9014,666;   -2,251;   -2,318
403,048; 8986,328;    1,112;    0,591
403,639; 8613,134;    0,840;    0,864
404,230; 8870,373;    2,476;    0,318
404,821; 8796,674;   -0,615;    0,045
405,411; 8933,274;    1,203;   -2,591
406,002; 8483,373;   -1,252;   -1,136
406,592; 8304,438;    2,294;    0,045
407,183; 8634,041;    0,566;   -1,500
407,774; 8586,563;    3,475;   -0,136
408,364; 8947,838;    0,930;    0,409
408,954; 8512,147;    0,384;    1,227
409,545; 8563,765;    1,021;    1,045
410,135; 8094,940;    1,293;    0,500
410,726; 8300,558;    1,838;    0,318
411,316; 8695,209;    0,111;    0,773
411,906; 8342,925;   -0,253;   -0,409
412,497; 7801,817;   -1,070;   -0,045
413,087; 8417,894;   -1,980;   -0,227
413,677; 8831,226;   -0,707;    3,864
414,267; 8661,351;    0,656;    1,409
414,857; 8681,206;   -2,980;    4,227
415,448; 8985,776;    0,839;    0,500
416,038; 8648,476;    0,020;   -0,591
416,628; 8632,480;   -0,889;    0,409
417,218; 8067,808;    0,565;    3,318
417,808; 8316,118;    0,202;   -0,409
418,398; 8824,702;    0,020;    2,682
418,988; 8875,792;    2,020;    0,591
419,578; 9107,322;   -0,707;    1,409
420,168; 9462,574;   -1,343;   -0,955
420,757; 9017,535;   -1,343;   -1,500
421,347; 8685,930;    0,111;   -0,227
421,937; 8879,034;    2,292;    1,409
422,527; 8816,934;    0,838;   -0,773
423,116; 8645,547;   -0,253;   -0,045
423,706; 8987,323;   -1,889;    0,318
424,296; 8977,856;    1,384;    0,682
424,885; 9397,674;   -0,071;   -3,045
425,475; 9673,859;    1,474;   -2,864
426,065; 9602,151;   -0,980;   -0,318
426,654; 9236,200;   -0,435;   -0,318
427,244; 9337,643;    0,020;    1,409
427,833; 8789,327;    1,383;   -0,500
428,423; 9321,462;   -0,526;    1,136
429,012;10075,722;   -0,344;   -1,136
429,601; 9519,933;   -1,344;    0,136
430,191; 9785,166;    1,292;    4,318
430,780; 9427,806;   -0,344;   -0,409
431,369; 9354,121;    0,746;   -0,045
431,959;10006,457;   -1,254;    0,500
432,548; 9763,235;   -1,163;   -0,045
433,137; 9899,492;   -1,254;   -1,318
433,726;10438,163;    0,292;    0,500
434,315; 9785,278;   -0,526;    2,409
434,905; 9894,560;   -1,254;    1,409
435,494; 9761,559;    0,746;    0,955
436,083;10245,708;   -0,981;   -0,955
436,672;10127,873;    0,110;    0,500
437,261; 9679,160;    0,292;   -1,955
437,850; 9789,429;    1,383;    0,682
438,439; 9766,901;    3,291;    1,955
439,027; 9628,223;    3,655;    1,773
439,616; 9996,381;    2,927;    1,227
440,205; 9887,502;    0,200;   -2,136
440,794; 9969,139;    2,109;   -0,045
441,383;10229,263;   -1,346;   -0,591
441,971;10081,238;   -2,436;    0,591
442,560; 9970,148;    0,563;   -1,773
443,149; 9710,306;    0,379;   -1,318
443,737; 9863,382;   -0,074;   -2,318
444,326;10091,803;    0,018;    0,318
444,915;10176,804;   -1,982;    0,864
445,503;10614,463;   -2,891;   -0,318
446,092; 9836,785;    0,382;    2,136
446,680;10388,879;    0,382;    0,318
447,269;10578,267;   -0,346;   -0,318
447,857;10338,392;    0,018;   -1,773
448,445;10424,286;    0,563;    1,318
449,034;10672,826;   -1,528;   -1,136
449,622;10840,560;   -1,073;    3,500
450,210; 9989,465;    2,017;    2,227
450,799;10599,145;    0,290;   -0,591
451,387;10552,046;    1,381;   -0,591
451,975;10147,159;    2,654;    0,864
452,563;10235,014;    3,472;    2,318
453,151;10281,377;   -0,528;   -1,227
453,739;10202,873;   -1,347;    0,136
454,328;10039,578;    2,381;   -2,136
454,916; 9763,528;    2,562;   -0,136
455,504; 9961,558;    1,017;    1,227
456,092;10151,782;    0,017;   -1,591
456,679;10132,950;    1,472;    0,682
457,267;10046,893;    4,017;    1,045
457,855;10219,118;    1,017;    1,409
458,443; 9994,449;   -0,165;    1,682
459,031;10111,265;    0,108;    2,409
459,619;10578,606;   -1,801;    2,864
460,206;10721,149;    0,835;    2,045
460,794;10818,723;   -2,983;   -0,227
461,382;11053,943;   -0,529;   -0,864
461,970;10640,333;    1,198;    1,864
462,557;10668,535;   -0,711;   -0,682
463,145;10847,070;   -3,165;   -1,682
463,732;10989,270;    2,016;   -1,045
464,320;10938,998;   -0,075;   -3,045
464,907;10629,364;    2,743;   -0,773
465,495;10490,813;    0,743;   -1,227
466,082;10630,557;   -1,984;   -0,045
466,670;10558,036;   -2,529;    1,227
467,257;11012,281;   -1,711;    2,045
467,844;11144,187;   -0,075;    0,045
468,432;11166,881;    0,834;    3,500
469,019;10638,751;    0,925;   -1,773
469,606;11114,982;    0,470;    3,682
470,193;10965,266;   -1,439;    0,227
470,780;10524,961;   -2,075;    0,864
471,368;10874,470;   -1,257;   -0,773
471,955;10642,777;    1,379;   -0,682
472,542;10287,063;    0,652;   -1,136
473,129;10511,601;   -0,166;    0,136
473,716;10241,706;    1,470;    0,591
474,303;10453,082;    0,652;   -0,864
474,890;10754,408;   -1,439;   -0,500
475,477;10752,912;   -1,621;    0,409
476,064;10675,093;    1,106;   -1,591
476,650;10616,567;    0,288;    0,318
477,237;10433,385;   -0,258;    0,955
477,824;10646,364;   -1,076;    0,864
478,411;10640,157;   -1,894;   -0,318
478,997;10865,665;    0,560;   -0,773
479,584;10914,820;    1,196;   -0,409
480,171;11646,563;   -0,440;   -0,773
480,757;11327,582;    2,651;    0,773
481,344;11632,634;    0,469;    0,409
481,931;11111,835;    1,105;    1,045
482,517;12174,804;   -1,258;    0,318
483,104;12818,060;    1,106;    2,864
483,690;13122,806;   -1,804;    0,045
484,276;13510,885;   -0,895;    0,227
484,863;13260,986;    2,469;    1,136
485,449;13871,361;   -0,077;    0,318
486,035;13877,328;   -1,986;   -0,136
486,622;14300,197;   -0,895;    0,045
487,208;14226,797;    1,378;    1,500
487,794;14043,766;    0,741;    0,318
488,380;14130,998;    0,105;   -1,409
488,967;14216,696;   -1,168;   -0,409
489,553;14278,902;   -1,895;   -1,409
490,139;14494,518;    1,559;    0,773
490,725;13888,913;    0,741;   -0,227
491,311;13423,213;    3,287;    3,045
491,897;12715,504;   -0,986;    1,500
492,483;12512,223;    0,105;    1,227
493,069;12267,042;    3,923;    0,864
493,655;12281,194;    1,650;    0,682
494,241;12165,948;    1,377;   -0,955
494,826;12599,804;    0,287;   -1,045
495,412;12075,928;    2,559;   -0,682
495,998;12171,428;   -0,805;   -0,318
496,584;12342,834;    0,377;    1,045
497,169;12381,052;    1,014;   -0,682
497,755;12318,972;    0,650;    1,227
498,341;12887,228;    0,559;    0,318
498,926;12459,659;    1,832;    1,955
499,512;12650,185;    1,286;    2,955
500,097;12837,882;    0,195;   -0,318
500,683;12714,079;   -0,350;    2,136
501,268;13098,215;   -0,169;   -0,955
501,854;12792,076;   -0,169;    1,227
502,439;12702,706;   -0,624;   -1,773
503,024;12945,094;    0,195;    0,500
503,610;13033,925;   -0,078;   -0,682
504,195;13058,572;    0,558;    1,955
504,780;13172,695;    2,922;    1,227
505,366;12967,385;    3,013;    2,864
505,951;12693,284;    0,740;    1,045
506,536;12683,006;   -3,260;   -3,682
507,121;12665,600;    0,285;   -0,318
507,706;13223,891;    2,376;    1,045
508,291;13614,836;    2,649;    1,136
508,876;13073,212;   -0,988;    2,591
509,461;12539,626;   -0,169;   -0,773
510,046;12986,270;    0,194;    0,318
510,631;13218,527;   -0,351;   -0,773
511,216;12872,946;    2,467;   -0,500
511,801;13240,174;   -0,442;    2,591
512,386;13568,908;    0,740;    0,500
512,971;13526,538;   -2,988;    0,955
513,555;13030,205;   -0,897;   -1,500
514,140;13854,190;   -0,442;   -3,136
514,725;13888,358;   -0,715;   -1,136
515,309;13964,229;   -0,533;    0,318
515,894;13415,827;   -0,624;   -2,227
516,479;13870,890;   -0,624;   -0,955
517,063;13717,470;    0,376;    1,227
517,648;13850,222;    1,012;   -1,136
518,232;13497,106;   -0,261;   -1,409
518,817;13846,995;   -0,079;    1,682
519,401;14051,198;    2,194;    0,591
519,985;13557,875;    1,103;    1,136
520,570;13422,202;    0,830;   -1,955
521,154;13731,075;    2,102;    0,591
521,738;13929,432;   -2,352;    2,409
522,323;14508,220;   -0,170;    1,682
522,907;14202,745;    0,466;   -0,136
523,491;13930,673;    0,557;    0,955
524,075;13924,107;    2,284;    0,591
524,659;14034,761;    1,466;    0,591
525,243;13467,909;    1,739;    0,409
525,827;13729,536;    0,648;   -0,045
526,411;14574,397;   -1,989;   -0,136
526,995;14787,063;   -0,352;    1,409
527,579;14397,113;   -0,443;   -1,045
528,163;14703,154;    0,375;   -1,500
528,747;14603,032;    2,466;   -0,773
529,331;14956,306;   -0,080;   -1,409
529,915;15147,926;    1,738;    0,955
530,499;15102,349;   -0,807;    1,227
531,082;14802,464;   -0,534;    1,591
531,666;14235,804;    1,374;    0,773
532,250;14906,921;    1,284;    2,682
532,833;15248,740;    0,920;    2,773
533,417;15114,876;   -1,807;    0,864
534,001;15097,754;    1,647;   -0,318
534,584;15846,554;    0,374;    0,500
535,168;15667,996;    0,465;    1,409
535,751;15702,933;    0,647;    0,045
536,334;15169,262;   -0,898;   -0,409
536,918;15751,821;    0,011;    1,591
537,501;15877,363;   -0,899;    1,318
538,085;15908,498;   -0,444;    1,045
538,668;16091,024;    0,829;    2,409
539,251;16403,367;    1,829;    3,773
539,834;16387,979;    0,101;    0,773
540,418;16330,186;   -1,990;    4,318
541,001;16456,195;   -0,990;    1,773
541,584;16410,729;    2,101;    2,227
542,167;16137,607;    1,374;    2,955
542,750;16305,241;    1,919;   -0,773
543,333;15883,960;    0,555;    2,136
543,916;16689,219;    0,192;    2,500
544,499;17307,158;   -1,354;    0,227
545,082;17308,599;    1,374;    3,591
545,665;17456,218;    1,919;    1,500
546,248;17804,142;    1,010;   -0,318
546,830;17455,351;   -0,445;    1,955
547,413;17871,917;    1,010;   -0,773
547,996;18407,330;    0,555;    0,500
548,579;18210,767;    0,919;    0,955
549,161;18017,026;    1,828;    2,682
549,744;17760,737;   -0,809;    0,409
550,326;18261,476;   -0,809;   -1,136
550,909;18070,895;    2,737;    0,591
551,492;18455,439;   -0,263;    0,227
552,074;18256,614;   -0,173;   -1,318
552,657;18793,315;    2,373;    0,045
553,239;18521,528;   -0,173;   -0,773
553,821;18457,039;   -1,082;    1,045
554,404;17946,458;    1,282;    1,136
554,986;18367,533;    0,464;    1,045
555,568;18960,292;    1,191;   -0,955
556,151;18206,817;    1,191;   -0,227
556,733;18395,866;   -0,264;   -0,864
557,315;18841,702;    0,100;    0,500
557,897;18636,281;    0,554;   -0,500
558,479;18774,508;   -1,991;    1,318
559,061;18922,786;   -0,719;   -0,864
559,643;19288,939;   -0,264;    0,045
560,225;19627,642;    1,645;    2,864
560,807;19693,393;    0,918;    0,318
561,389;19172,489;    0,554;    2,318
561,971;19941,091;    0,463;    2,136
562,553;19702,188;   -1,628;    1,591
563,135;19886,656;   -0,537;    1,136
563,717;19471,709;    3,372;    1,136
564,298;20166,895;    3,645;   -0,045
564,880;19920,222;    0,645;   -1,409
565,462;20102,131;    0,645;    1,318
566,043;21306,957;   -0,446;    2,318
566,625;20848,133;    1,918;    1,227
567,207;20708,427;    1,099;    1,682
567,788;21857,095;   -1,264;    1,500
568,370;22708,491;    1,917;   -0,500
568,951;22567,560;    0,190;    0,227
569,533;23482,942;   -0,628;   -0,500
570,114;23925,500;   -0,446;    0,682
570,695;24485,289;   -0,174;   -1,318
571,277;25001,728;   -0,265;   -1,682
571,858;25700,334;    2,008;   -1,136
572,439;26643,312;    1,554;   -1,045
573,021;26860,312;    2,099;   -2,773
573,602;27362,412;   -1,265;    0,318
574,183;28305,734;   -2,083;    2,227
574,764;28440,228;   -1,629;    0,409
575,345;29074,569;    0,917;   -0,136
575,926;29715,413;   -0,356;    0,136
576,507;29691,133;    1,099;   -0,227
577,088;30823,646;    3,099;    1,682
577,669;30768,278;    0,735;    1,955
578,250;31555,825;    0,644;   -1,045
578,831;32267,005;   -1,356;   -2,227
579,412;32569,531;   -0,810;    0,955
579,993;33456,790;    1,008;    0,227
580,573;33787,556;   -0,629;   -0,955
581,154;32779,589;    0,735;   -0,591
581,735;33653,876;    0,644;    0,773
582,315;33174,967;   -0,629;    2,136
582,896;33455,501;   -0,174;    1,227
583,477;32894,196;    0,189;    1,227
584,057;33083,485;    0,553;    0,955
584,638;33363,699;    2,553;    2,318
585,218;33359,291;   -0,538;    2,682
585,799;33516,182;    0,281;   -0,227
586,379;33454,828;    0,372;    1,591
586,959;32191,253;    0,735;    0,318
587,540;31490,889;   -0,629;    2,227
588,120;31017,914;    1,007;   -0,045
588,700;29959,439;    2,553;    2,136
589,281;30357,946;    0,462;   -0,955
589,861;30267,379;    0,099;   -1,682
590,441;30049,140;    2,371;   -2,682
591,021;28989,056;   -0,265;   -2,591
591,601;29231,180;   -0,537;    0,500
592,181;29207,369;   -0,719;   -0,773
592,761;28463,119;    0,007;    1,409
593,341;28398,033;   -0,901;    0,045
593,921;28381,614;   -0,265;    1,591
594,501;28326,558;   -0,538;    1,318
595,081;28126,179;    0,917;   -0,318
595,661;28447,034;   -1,447;    0,955
596,240;28992,122;   -0,537;    0,136
596,820;28652,763;    0,372;    1,955
597,400;28899,411;    2,008;    0,773
597,980;29100,468;    2,008;    1,045
598,559;29124,938;    2,735;   -0,227
599,139;28789,339;   -0,174;   -1,227
599,718;28694,066;   -0,174;   -0,409
600,298;28977,788;    0,735;    0,682
600,877;29227,123;    2,917;    1,409
601,457;29458,673;    2,281;    1,136
602,036;29349,265;    0,190;    2,045
602,616;29591,462;    0,644;    1,682
603,195;29952,303;   -0,355;    3,500
603,774;29460,126;   -0,901;    2,045
604,354;29339,379;    0,826;   -0,500
604,933;28812,525;    0,463;    1,864
605,512;28915,911;    3,554;    0,591
606,091;28967,136;   -0,537;    3,773
606,671;29799,283;    0,281;    0,773
607,250;28911,023;    1,644;    3,136
607,829;29159,788;    2,372;    3,227
608,408;29005,727;    1,190;    2,591
608,987;28014,261;    1,281;    3,409
609,566;28324,949;   -1,265;   -2,500
610,145;28398,435;   -1,082;    0,682
610,723;28768,402;    4,372;    6,864
611,302;28081,205;   -0,446;    1,682
611,881;27592,437;    5,008;   11,227
612,460;28423,877;    1,645;    3,955
613,039;28779,876;   -0,082;    2,045
613,617;27529,937;    1,736;    4,773
614,196;27718,455;    1,099;    1,227
614,775;28077,649;    1,009;    2,409
615,353;28032,184;    0,736;    0,864
615,932;27771,716;    0,100;    2,409
616,510;28328,279;    0,554;    0,591
617,089;27841,430;    7,100;   17,591
617,667;27551,631;    2,372;    6,136
618,246;27438,316;   -1,537;    1,318
618,824;27597,309;   -3,355;   -0,955
619,402;27244,951;   -2,900;   -1,773
619,981;27674,779;   -0,173;   -1,045
620,559;27529,872;    0,009;    1,682
621,137;26999,241;   -0,718;    1,864
621,715;27024,753;   -1,173;   -0,682
622,293;26963,384;   -0,537;   -0,773
622,871;27371,520;   -0,718;    0,500
623,450;26967,104;    0,373;   -0,864
624,028;26839,899;    0,191;   -0,955
624,606;26513,317;   -1,718;    1,682
625,183;26885,197;   -1,536;   -1,136
625,761;26570,918;    1,009;    1,136
626,339;26818,588;    1,373;    2,591
626,917;27189,878;   -0,172;   -0,045
627,495;27234,201;   -0,354;    1,318
628,073;26656,504;   -0,263;    2,864
628,650;26371,985;    0,100;    2,136
629,228;26845,111;    0,373;    4,409
629,806;26234,997;    2,282;    1,136
630,383;26421,313;    1,464;   -0,318
630,961;26236,121;    2,555;   -0,955
631,539;25962,268;    2,464;    0,227
632,116;25327,030;   11,373;   15,409
632,694;25876,780;    2,555;    6,500
633,271;26224,704;    0,828;    2,682
633,848;26126,973;    1,828;    2,045
634,426;26127,518;   -1,081;    1,773
635,003;25240,351;    1,101;   -0,409
635,580;25566,690;    1,192;    3,682
636,158;26147,378;    3,737;    1,227
636,735;26122,736;    0,555;   -0,500
637,312;26251,972;   -0,809;   -0,682
637,889;26362,727;   -4,354;   -0,682
638,466;25838,198;   -3,990;   -0,409
639,043;25848,958;    2,101;   -1,136
639,620;26167,374;   -2,262;   -0,955
640,197;26514,765;    1,100;    1,682
640,774;26627,099;   -0,172;    1,136
641,351;27041,159;    0,737;    1,136
641,928;26416,311;   -0,627;    1,409
642,505;26093,827;    0,828;   -0,500
643,082;26225,615;   -1,718;    1,227
643,658;25207,130;   -0,718;    1,500
644,235;26044,645;    1,191;    2,500
644,812;26334,070;    1,918;    0,773
645,388;26012,131;   -0,991;    1,409
645,965;26126,828;   -0,809;    1,682
646,542;26227,434;   -1,445;   -0,227
647,118;26161,677;    1,009;   -0,955
647,695;26453,192;   -0,263;    1,136
648,271;26387,344;   -0,536;    0,500
648,848;26769,950;    0,736;    2,227
649,424;26520,829;    0,827;    1,318
650,000;26285,345;   -0,354;   -1,045
650,577;26108,224;   -0,627;   -0,955
651,153;26601,739;   -1,809;    0,955
651,729;27607,618;    1,191;    0,864
652,305;27955,133;    0,645;    2,773
652,881;32817,376;   -0,082;    1,136
653,458;39981,892;    1,100;    0,227
654,034;43843,043;    0,282;    1,591
654,610;45326,922;    0,554;    0,773
655,186;46626,438;    0,645;    3,045
655,762;46314,317;   -0,991;    0,409
656,338;46312,468;    0,100;    0,136
656,913;47240,257;   -0,082;    0,409
657,489;46501,408;    0,827;   -0,318
658,065;46446,196;   -0,173;   -1,591
658,641;47102,803;   -0,900;   -0,864
659,217;46388,136;   -0,991;    0,409
659,792;45711,015;    0,645;   -0,409
660,368;45970,258;   -2,173;   -0,682
660,944;45530,410;   -2,082;    1,227
661,519;40568,380;   -0,628;    0,409
662,095;34375,804;   -1,719;    0,591
662,670;29710,319;    1,281;   -0,136
663,246;28557,017;    1,009;   -0,409
663,821;27924,532;    0,281;    1,682
664,396;27424,229;    0,009;    1,864
664,972;27704,381;    0,009;   -0,500
665,547;27961,442;    1,372;    0,136
666,122;28036,412;   -1,082;    0,318
666,698;28338,473;   -0,173;    0,318
667,273;27630,806;   -0,173;    0,136
667,848;28455,594;    2,372;    1,500
668,423;28236,928;    2,190;    2,318
668,998;28827,352;    2,827;   -0,682
669,573;29362,686;   -3,264;   -1,500
670,148;29198,019;   -1,446;   -0,682
670,723;29039,717;   -1,810;    0,318
671,298;29436,868;    2,372;    1,045
671,873;29564,656;   -0,082;   -0,136
672,448;29512,354;    0,645;    0,136
673,023;29838,687;   -1,992;   -0,227
673,597;30151,566;    0,827;    2,318
674,172;29902,172;   -0,355;    0,318
674,747;29376,142;    0,372;   -1,045
675,321;29247,203;   -0,628;    3,318
675,896;28778,900;    0,645;    1,045
676,471;29845,416;    2,645;    1,591
677,045;29586,295;   -1,264;    0,682
677,620;29639,901;    0,190;    1,136
678,194;29936,507;   -2,628;    1,136
678,769;29505,386;   -1,083;   -0,318
679,343;29745,084;   -0,628;    1,773
679,917;29622,872;   -1,446;    1,955
680,492;29703,751;    0,826;    3,227
681,066;29870,539;    3,372;    0,409
681,640;29900,054;    1,463;   -0,318
682,214;30706,570;    0,735;    0,500
682,788;30240,358;   -1,356;   -0,773
683,363;30183,237;   -1,810;    1,682
683,937;29918,479;   -1,719;   -0,318
684,511;30676,449;    0,463;   -0,591
685,085;30329,965;   -1,356;    0,318
685,659;30078,662;   -2,538;    0,864
686,232;30398,723;   -0,356;   -0,318
686,806;30109,784;   -0,901;    0,409
687,380;30778,935;   -0,174;    0,591
687,954;30968,632;   -1,174;    1,136
688,528;30668,239;   -0,719;    1,955
689,101;31436,300;   -3,992;    1,045
689,675;31033,815;   -0,356;   -0,136
690,249;30405,239;   -0,719;    0,409
690,822;30714,937;    0,280;    0,318
691,396;30805,088;   -0,265;    1,227
691,969;30282,513;    1,280;    0,136
692,543;30706,574;   -0,447;   -1,955
693,116;30379,544;   -0,265;   -1,409
693,690;30274,604;    0,099;    0,500
694,263;30842,756;   -1,083;    2,955
694,836;30821,999;    1,371;    3,591
695,410;29439,241;   -0,265;    1,773
695,983;29901,757;    0,189;    0,591
696,556;29937,818;   -0,447;   -1,045
697,129;30320,242;   -0,356;    1,409
697,703;29945,848;   -1,629;    1,955
698,276;29934,091;    1,462;   -0,773
698,849;29699,879;    1,280;    1,409
699,422;30064,485;   -1,083;    0,591
699,995;29728,274;    0,007;    0,136
700,568;30303,244;   -0,629;    3,045
701,140;30289,668;   -2,811;    1,682
701,713;29971,729;   -0,174;    2,409
702,286;29715,335;   -0,538;    0,864
702,859;29674,214;   -0,902;   -0,591
703,432;28816,184;    0,825;    0,682
704,004;29285,881;    0,462;    0,318
704,577;29204,033;   -0,629;    0,136
705,150;29802,639;    0,189;    2,500
705,722;29563,427;   -0,356;   -3,227
706,295;29330,579;   -0,175;   -0,591
706,867;29212,095;   -0,175;    1,955
707,440;29424,064;   -1,720;   -0,409
708,012;29672,398;    0,462;    0,591
708,584;29562,459;    2,462;    0,227
709,157;29877,065;    1,825;   -0,591
709,729;29487,126;    2,280;    2,045
710,301;30343,732;    0,734;    0,045
710,874;30366,339;   -1,447;   -0,227
711,446;29247,672;    0,371;    0,864
712,018;29128,551;    0,098;    0,500
712,590;28922,976;   -1,993;    1,682
713,162;29438,673;    0,825;    1,318
713,734;29684,915;    1,825;   -2,045
714,306;29578,613;   -1,902;   -0,409
714,878;28228,946;    0,825;    0,864
715,450;29101,916;    0,643;    0,864
716,022;29284,613;    1,552;    1,318
716,593;29443,492;    0,189;    0,591
717,165;29421,280;   -3,175;   -1,227
717,737;29106,978;    0,280;    0,409
718,309;28744,220;    0,280;   -0,045
718,880;28692,554;   -0,539;   -1,409
719,452;28898,887;   -0,175;   -1,591
720,024;28490,857;    0,734;   -0,591
720,595;29066,918;   -2,902;    0,955
721,167;28604,797;    0,370;   -2,045
721,738;28171,403;   -0,812;   -1,045
722,309;28175,282;   -0,993;   -1,227
722,881;27909,071;   -1,357;    0,773
723,452;28575,950;   -2,630;    2,864
724,023;28714,556;   -0,721;    2,682
724,595;28498,708;    0,007;    0,682
725,166;28251,768;    0,007;   -0,409
725,737;27897,193;    1,734;    0,227
726,308;27972,254;   -0,266;    0,318
726,879;28439,951;   -1,630;    1,227
727,450;28275,466;    0,552;   -0,045
728,021;28242,345;    3,097;    0,682
728,592;28043,133;    0,734;    0,500
729,163;28344,013;    0,643;   -0,136
729,734;28364,619;    0,188;   -0,227
730,305;28710,134;    1,734;    0,136
730,876;29071,468;    0,188;    2,955
731,447;28786,619;    2,188;    2,682
732,017;28908,862;    1,097;    1,864
732,588;28388,741;    0,734;    1,227
733,159;28593,620;    0,643;   -1,045
733,729;28390,136;    0,006;    0,409
734,300;27660,105;    0,915;    0,864
734,870;28109,166;    3,461;    0,591
735,441;28701,773;    0,370;   -0,591
736,011;28464,833;    0,643;   -1,591
736,582;28396,076;   -0,812;    0,045
737,152;27841,591;   -1,721;   -2,045
737,722;28277,016;   -0,267;   -0,682
738,293;28000,986;   -1,358;    1,318
738,863;27913,501;    2,461;    2,318
739,433;27684,926;    5,279;    0,318
740,003;28344,805;   -0,994;   -0,682
740,573;27729,320;    2,097;   -1,591
741,143;27654,745;   -1,085;    0,318
741,713;28468,896;    1,188;   -0,500
742,283;28168,321;    0,915;    1,591
742,853;28016,200;    1,915;    1,591
743,423;27381,715;    1,733;    0,045
743,993;27489,958;   -0,358;    1,500
744,563;26876,655;    0,097;   -0,864
745,133;26804,079;   -0,812;   -0,864
745,702;27456,049;   -0,267;    1,773
746,272;26715,838;   -0,176;    0,591
746,842;26453,989;   -1,358;   -0,591
747,411;26881,868;   -0,267;   -0,318
747,981;27054,020;    0,097;    0,500
748,551;27111,717;    2,278;   -1,045
749,120;26940,324;    0,642;   -0,227
749,690;27322,112;   -0,631;    2,409
750,259;27670,991;    1,369;    2,955
750,828;27588,870;    1,551;   -1,955
751,398;27864,294;    1,278;   -0,045
751,967;27367,537;    2,187;    0,409
752,536;27569,779;   -0,813;   -0,227
753,105;27966,386;    0,096;    0,227
753,675;27801,628;    0,096;    1,773
754,244;27725,507;   -0,904;    3,591
754,813;27748,477;    0,551;    1,227
755,382;27396,629;    0,460;    0,955
755,951;27952,690;    1,551;    3,682
756,520;27462,023;   -0,085;    1,864
757,089;28086,084;    0,278;    0,500
757,658;28258,600;    1,733;    1,227
758,227;28197,479;    1,096;    0,318
758,795;28520,449;    1,187;    1,136
759,364;28731,600;   -0,086;   -0,591
759,933;27705,752;   -1,176;   -0,045
760,501;27258,813;    0,733;   -1,318
761,070;27714,601;   -2,813;   -1,409
761,639;28462,389;   -1,904;    1,318
762,207;27791,086;    1,551;   -0,955
762,776;27716,965;    0,369;    0,864
763,344;27631,663;   -0,995;    0,591
763,913;26772,905;   -0,722;    1,409
764,481;27485,511;    1,005;   -0,136
765,049;27233,209;   -1,358;    1,409
765,618;27162,360;   -0,086;    0,318
766,186;27268,421;    0,278;    0,136
766,754;27416,482;    0,005;    1,864
767,322;26434,634;   -1,995;    0,409
767,890;26461,240;   -0,722;   -1,773
768,459;26851,210;   -2,177;   -0,318
769,027;27021,544;    1,641;    3,409
769,595;25962,514;    3,278;    2,591
770,163;26395,120;    3,823;    2,955
770,730;26175,635;    0,732;   -0,136
771,298;25961,514;    0,187;   -1,409
771,866;26058,393;   -1,541;    4,955
772,434;26413,545;   -0,631;   -1,864
773,002;26582,424;    0,005;    0,682
773,569;26195,667;    0,914;    1,682
774,137;26045,000;   -0,268;   -0,045
774,705;26849,788;    0,278;   -0,136
775,272;26355,304;    0,641;    0,682
775,840;26071,637;   -0,177;    2,682
776,407;25606,880;    0,277;    1,955
776,975;25219,577;   -0,632;    0,318
777,542;26214,002;   -1,086;   -0,045
778,110;25996,335;   -1,268;   -0,045
778,677;25719,760;   -2,359;   -0,864
779,244;25470,275;    2,186;    1,045
779,812;25603,972;    1,823;    0,864
780,379;25463,124;    0,005;    1,136
780,946;25739,912;    1,005;   -0,773
781,513;26089,246;   -1,450;    0,318
782,080;25448,852;   -0,086;    2,864
782,647;26188,367;   -0,268;    3,045
783,214;25712,974;   -0,177;    3,864
783,781;25359,762;   -0,723;   -0,682
784,348;25203,822;   -0,632;    1,500
784,915;25710,156;   -3,177;    0,318
785,482;25434,217;    1,368;    2,591
786,049;25793,096;    0,186;   -0,591
786,615;25933,066;    0,277;   -0,955
787,182;25722,399;    0,186;   -0,682
787,749;25394,097;   -2,814;    1,409
788,315;24744,157;   -1,632;   -0,409
788,882;25033,127;    1,550;   -1,227
789,448;25741,097;    1,732;   -0,955
790,015;25743,794;    1,095;    3,227
790,581;25322,583;    1,459;    0,227
791,148;25260,007;    0,641;    1,045
791,714;25454,704;   -0,541;    3,136
792,280;25103,492;    0,186;    1,591
792,847;24645,280;    0,550;    2,500
793,413;25196,705;   -0,269;   -0,318
793,979;24763,675;    3,459;   -1,318
794,545;24855,463;    4,459;    2,682
795,111;24263,615;    2,186;    1,318
795,678;24456,766;    0,731;   -1,682
796,244;24074,282;    3,368;    0,136
796,810;24619,434;    1,731;    0,773
797,375;24310,585;    0,549;   -2,136
797,941;24340,282;   -0,541;    0,591
798,507;24539,707;   -0,451;   -0,955
799,073;24049,404;   -0,360;    0,591
799,639;24109,738;   -2,632;    3,136
800,205;24162,889;    0,095;    2,682
800,770;23659,041;    0,640;    1,773
801,336;23755,375;    1,368;   -0,955
801,901;23438,436;    4,549;    3,136
802,467;23997,587;   -0,542;    2,045
803,033;23322,012;   -0,087;    0,864
803,598;23575,709;    1,913;   -1,045
804,163;23549,679;    1,095;   -0,318
804,729;23497,467;   -0,178;    1,136
805,294;23921,164;    0,822;    2,227
805,859;23747,225;    0,731;   -0,409
806,425;23211,831;    1,186;    2,682
806,990;22859,801;    2,186;    4,318
807,555;23361,771;   -1,451;    2,591
808,120;23219,650;    0,822;   -0,409
808,685;23261,893;    0,185;   -2,500
809,250;22806,499;    0,004;   -0,500
809,815;23046,924;    1,913;    0,682
810,380;23658,439;   -0,269;    1,591
810,945;24212,954;   -1,087;    2,045
811,510;23350,652;    2,094;    1,591
812,075;23067,349;   -0,633;   -1,409
812,640;23104,319;    2,003;    1,409
813,204;23195,289;    0,822;   -0,227
813,769;23631,259;    2,094;   -0,045
814,334;23047,774;    0,458;    0,864
814,898;23119,744;    0,367;    0,591
815,463;23028,714;    1,276;   -0,773
816,027;22940,047;   -0,724;   -2,318
816,592;22967,381;    0,640;   -2,045
817,156;22521,805;    2,094;    1,136
817,721;22348,048;    4,276;    2,318
818,285;22310,291;    2,912;    1,500
818,849;22994,624;   -1,451;    1,682
819,414;22844,958;   -0,269;    2,955
819,978;22434,110;   -1,269;    1,773
820,542;23015,807;    2,003;    0,500
821,106;22739,049;   -0,815;    0,682
821,670;22816,656;   -0,815;    2,591
822,234;22561,807;   -0,270;    1,409
822,798;21934,323;    0,003;    0,500
823,362;21875,202;   -0,633;    4,227
823,926;21146,444;    0,094;    1,136
824,490;21386,687;   -0,997;   -0,682
825,054;21876,657;   -0,088;   -1,136
825,618;21507,263;   -1,542;   -1,500
826,181;21415,233;    0,458;   -1,318
826,745;21352,385;    1,367;   -1,045
827,309;21695,628;    1,185;    1,318
827,872;21049,143;    1,367;    0,955
828,436;22064,749;    1,185;   -0,773
828,999;22094,810;   -0,997;    1,227
829,563;20897,598;   -0,179;    1,136
830,126;20736,841;   -0,179;   -0,591
830,690;20736,902;   -1,997;    2,864
831,253;20272,508;   -0,543;    2,227
831,816;20388,842;   -1,906;    0,500
832,380;20318,084;    0,185;    0,864
832,943;20519,781;   -1,361;   -0,500
833,506;20006,115;    2,639;   -1,227
834,069;20763,994;    3,912;   -0,955
834,632;20830,419;    1,730;    1,318
835,195;20747,752;    1,003;    0,955
835,758;19936,631;   -0,997;    1,955
836,321;19779,419;    0,730;   -1,045
836,884;19899,844;   -0,725;   -0,955
837,447;19904,086;   -2,816;    1,773
838,010;20181,965;    0,366;    3,227
838,573;20524,935;   -1,179;    0,773
839,135;20408,178;   -1,361;   -0,955
839,698;19867,148;    1,275;    0,409
840,261;19381,754;    1,003;   -0,227
840,823;19207,815;   -0,543;    0,864
841,386;19533,149;   -0,452;   -2,409
841,948;19406,482;   -1,361;    1,773
842,511;19169,997;    0,912;    1,682
843,073;19277,604;    1,912;    0,227
843,636;19076,301;   -0,361;   -0,227
844,198;19009,907;    0,911;    0,591
844,760;19140,241;    1,093;    1,955
845,322;18784,211;    0,548;    1,136
845,885;19162,544;    0,730;    0,591
846,447;19676,241;   -1,998;    0,227
847,009;19286,757;    1,911;   -0,682
847,571;19599,454;    0,820;   -2,045
848,133;19669,515;   -1,089;   -1,864
848,695;19518,121;   -0,543;    1,409
849,257;19025,091;   -1,089;   -1,682
849,819;19216,152;   -0,998;   -0,409
850,381;19259,395;   -0,725;   -0,864
850,942;19646,274;    1,093;   -0,591
851,504;19568,971;    1,184;    0,227
852,066;19661,577;    1,275;   -1,591
852,628;19126,729;   -0,180;    1,955
853,189;18715,881;    1,638;    2,682
853,751;18851,669;   -0,907;    1,409
854,312;18650,820;   -0,453;   -1,682
854,874;19199,154;   -2,089;   -0,773
855,435;19711,397;   -0,907;   -1,682
855,997;19826,639;   -1,816;   -0,136
856,558;19095,336;    0,366;    1,773
857,119;19205,216;    0,820;    2,864
857,681;18878,458;    0,002;    0,318
858,242;18918,792;    1,911;   -2,136
858,803;19383,307;    0,456;   -0,773
859,364;19947,277;    0,184;   -4,773
859,925;19248,974;   -2,453;   -0,955
860,486;19145,581;   -0,453;   -0,955
861,047;18889,732;   -0,544;   -1,227
861,608;18709,339;   -1,089;   -0,773
862,169;18823,672;    0,638;   -0,045
862,730;18561,551;    0,456;    1,409
863,291;18840,794;   -0,635;   -0,500
863,852;19228,946;   -0,635;    1,955
864,412;18656,825;   -0,271;   -0,864
864,973;17206,794;   -0,089;    0,500
865,534;17085,037;   -1,726;    0,227
866,094;18617,643;    1,820;    0,227
866,655;18245,250;    1,274;    3,318
867,215;18548,947;    0,274;    0,136
867,776;18344,190;    0,547;   -0,136
868,336;18445,614;   -1,453;    0,136
868,897;17941,948;    2,638;    1,682
869,457;17719,190;    1,365;    0,318
870,017;17907,160;    0,547;   -1,227
870,578;18429,676;   -0,817;    0,773
871,138;18111,736;   -2,089;   -0,955
871,698;17645,161;   -0,817;   -1,318
872,258;17506,131;   -0,453;   -2,864
872,818;17893,464;    2,729;    0,045
873,378;17858,889;    0,638;    1,045
873,938;17416,859;    0,547;    0,500
874,498;17761,647;    0,274;   -1,955
875,058;17631,799;    2,183;    1,773
875,618;17482,496;    1,910;   -2,682
876,177;17414,920;    1,274;    0,136
876,737;17034,617;   -0,090;    1,955
877,297;17061,496;    0,183;    1,955
877,856;17066,739;   -0,362;    0,318
878,416;16983,891;    1,183;   -0,136
878,976;17236,133;   -1,817;    0,409
879,535;17425,831;    0,092;    3,136
880,095;17141,982;   -0,544;    0,045
880,654;17259,043;   -1,090;    1,318
881,213;17401,013;    2,456;    1,500
881,773;17007,892;    2,637;    2,682
882,332;17288,135;    3,365;    5,136
882,891;17193,287;    3,092;    2,136
883,451;17654,347;   -1,272;    1,682
884,010;17088,317;   -2,908;   -0,409
884,569;17190,287;   -0,999;   -0,045
885,128;17351,530;    2,819;   -1,864
885,687;17400,500;    4,455;    0,682
886,246;17147,652;    1,455;    2,136
886,805;16896,167;    2,455;    2,045
887,364;17184,682;   -0,999;   -0,500
887,922;17544,652;   -1,181;    0,045
888,481;17007,895;   -1,545;    0,591
889,040;17302,774;    1,183;    2,136
889,599;17977,653;    2,455;    1,409
890,157;18084,077;    1,455;    2,409
890,716;17751,593;   -0,090;    0,227
891,274;17574,017;    0,092;   -1,136
891,833;17997,987;    1,546;    0,864
892,391;17871,775;   -0,454;    0,500
892,950;17969,473;    1,819;   -0,773
893,508;18349,624;    0,455;   -0,409
894,067;17671,776;    0,637;    0,136
894,625;17577,655;   -0,636;   -1,500
895,183;17802,079;   -0,363;   -0,682
895,741;17696,595;    1,728;   -1,773
896,299;17491,110;   -0,545;   -2,409
896,858;17680,535;    0,819;   -1,591
897,416;17841,868;    2,728;   -1,318
897,974;17588,747;    1,819;    0,318
898,532;17720,081;    6,091;    2,682
899,089;17654,869;    2,091;   -0,682
899,647;17677,657;   -1,454;    1,318
900,205;17393,991;    1,182;    1,045
900,763;17582,233;   -0,454;    0,227
901,321;17558,840;    2,364;   -1,409
901,878;16999,991;   -1,000;   -0,773
902,436;16910,416;   -1,363;    1,318
902,994;17304,840;    4,728;    3,682
903,551;16708,537;    0,728;    0,409
904,109;17120,416;    0,182;   -1,409
904,666;16708,386;    2,455;    1,045
905,224;16510,447;    0,182;   -0,409
905,781;16227,235;    0,727;   -0,318
906,338;16287,478;   -1,363;    1,045
906,895;16223,357;    0,637;    2,045
907,453;16145,327;    1,727;    1,136
908,010;16218,842;   -0,909;    0,409
908,567;15865,176;    1,273;    0,591
909,124;15362,419;    0,364;   -1,500
909,681;15373,752;   -2,909;    0,682
910,238;15518,722;    0,636;   -1,318
910,795;15870,601;   -0,273;   -1,136
911,352;15439,328;   -2,909;   -2,682
911,909;14878,056;   -1,364;   -0,864
912,466;15390,146;   -3,182;    1,500
913,022;14952,419;   -1,636;    0,500
913,579;15321,419;   -0,909;    2,045
914,136;14959,146;    1,636;    0,955
914,692;15330,783;    0,091;   -1,227
915,249;14926,965;    1,455;    0,409
915,806;15165,237;    0,182;    1,955
916,362;14900,419;    1,909;    1,864
916,918;14461,965;    2,000;    1,045
917,475;14431,965;   -1,182;    0,955
918,031;14546,328;    3,364;   -0,045
918,587;13955,146;   -0,909;   -0,318
919,144;14141,874;   -2,273;    0,227
919,700;14462,783;    1,727;    0,773
920,256;14055,237;    0,727;    0,045
920,812;13657,056;   -0,727;   -1,045
921,368;13677,783;   -1,727;   -1,045
921,924;13302,328;    0,182;   -0,136
922,480;12866,056;   -0,545;    1,227
923,036;13491,601;    1,273;    1,955
923,592;13448,237;    0,455;    0,318
924,148;13340,419;    0,455;   -0,955
924,704;12641,056;   -1,364;   -0,409
925,259;12887,237;   -0,273;    0,591
925,815;12687,692;    1,455;    0,500
926,371;12188,601;    2,909;    1,409
926,926;12079,601;    2,091;    0,591
927,482;11703,965;   -1,364;    0,773
928,037;11591,783;    0,909;    2,045
928,593;11887,874;    1,636;    1,045
929,148;11675,692;   -1,818;   -1,500
929,704;11195,692;   -1,455;   -0,500
930,259;11405,237;    0,091;   -0,136
930,814;10471,601;   -0,818;    1,955
931,369;10150,601;    1,091;   -0,773
931,925; 9997,510;   -0,091;    0,136
932,480; 9888,783;   -2,818;   -2,591
933,035; 9795,237;    0,545;   -0,318
933,590; 9558,237;    0,364;   -1,773
934,145; 9181,692;   -1,364;   -0,318
934,700; 9531,419;    0,455;   -0,591
935,255; 9321,965;   -0,091;    0,045
935,809; 8595,419;    3,182;    0,864
936,364; 7699,692;   -0,455;   -0,136
936,919; 7673,237;    0,455;   -1,773
937,474; 7564,328;    1,455;    0,136
938,028; 7311,146;   -1,636;    1,136
938,583; 6763,237;    1,818;    4,682
939,138; 7029,328;    2,091;    2,136
939,692; 6468,510;    1,636;   -1,136
940,247; 6158,965;   -0,727;   -1,045
940,801; 5688,965;   -0,636;    0,227
941,355; 5599,965;   -0,364;    2,591
941,910; 5229,328;   -0,273;   -2,136
942,464; 5359,874;   -0,818;   -0,318
943,018; 5130,237;    1,000;   -0,227
943,572; 5077,965;    2,545;   -0,682
944,126; 4492,237;    0,091;   -0,409
944,681; 4364,510;    3,091;    0,227
945,235; 4349,510;    1,000;   -0,591
945,789; 4301,146;    0,364;   -1,864
946,342; 4368,419;    0,455;   -0,591
946,896; 4184,874;   -2,273;    0,955
947,450; 3947,510;    1,545;   -0,227
948,004; 4148,146;    1,727;   -0,045
948,558; 4144,328;    0,273;   -0,864
949,111; 4059,146;   -0,273;   -0,318
949,665; 4091,692;    1,636;   -0,682
950,219; 3938,965;   -0,091;   -1,045
950,772; 4044,874;   -1,909;    1,864
951,326; 3940,146;    0,545;   -0,955
951,879; 4027,783;    0,727;   -2,318
952,433; 4073,601;    0,000;    2,227
952,986; 3905,419;    2,909;    0,682
953,539; 3855,510;   -0,273;    0,591
954,093; 3784,965;    0,545;   -1,318
954,646; 3916,965;    0,909;    1,318
955,199; 3735,874;    0,000;   -0,500
955,752; 3621,783;   -0,455;    1,773
956,305; 3565,874;   -0,091;    2,955
956,858; 3734,328;    0,818;   -0,318
957,411; 3912,874;   -0,545;    2,136
957,964; 3738,965;    1,364;    2,136
958,517; 3740,146;   -1,545;    3,136
959,070; 3552,056;   -0,455;    1,955
959,623; 3624,510;    1,091;    1,500
960,176; 3412,601;    1,727;    2,045
960,728; 3382,056;   -2,727;    0,773
961,281; 3427,237;    0,545;    0,500
961,834; 3502,783;   -0,909;    0,864
962,386; 3396,237;    1,727;    1,045
962,939; 3317,328;    0,364;   -0,318
963,491; 3467,419;    0,455;    1,136
964,043; 3342,783;    1,182;    2,409
964,596; 3452,965;   -1,000;    2,227
965,148; 3303,328;   -1,000;    1,773
965,700; 3214,056;    1,091;   -0,227
966,253; 3386,419;   -0,636;    0,318
966,805; 3210,237;   -2,273;    0,773
967,357; 3256,783;    1,091;   -1,500
967,909; 3215,419;    0,455;   -1,227
968,461; 3309,237;    0,545;    3,136
969,013; 3254,692;   -0,182;   -0,864
969,565; 3319,237;   -0,455;   -1,136
970,117; 3379,601;   -0,364;    1,045
970,669; 3211,056;    0,182;   -0,136
971,220; 3089,783;   -0,455;   -1,500
971,772; 3033,510;   -0,636;   -0,318
972,324; 3135,237;    0,091;   -0,500
972,876; 3089,419;    0,818;   -0,045
973,427; 3231,510;    1,909;   -1,045
973,979; 3188,056;   -0,727;   -2,500
974,530; 3247,328;    1,818;    1,318
975,082; 3230,692;   -0,545;    1,682
975,633; 3128,692;    1,091;    1,682
976,184; 3261,328;    0,909;    0,773
976,736; 3047,419;    0,091;    0,227
977,287; 2851,146;   -0,909;   -0,500
977,838; 3039,419;    0,909;   -0,318
978,389; 3092,965;   -1,000;   -0,500
978,940; 2970,237;    0,545;   -0,409
979,491; 2991,328;    0,091;   -0,500
980,042; 2963,601;    0,182;    3,045
980,593; 3022,965;   -2,545;    0,227
981,144; 3059,056;    2,545;   -0,500
981,695; 3019,874;    1,455;    1,500
982,246; 2988,874;   -0,273;    1,045
982,797; 3168,237;   -1,727;    0,682
983,347; 3264,965;    0,364;    0,591
983,898; 3418,874;    3,091;    0,409
984,449; 3226,510;    2,182;    0,773
984,999; 3157,419;    1,455;   -1,136
985,550; 2917,783;    0,182;   -0,318
986,100; 2950,783;   -0,455;   -0,318
986,651; 2979,601;   -0,818;    0,045
987,201; 2977,419;   -1,000;   -0,591
987,751; 3042,328;    0,818;    2,864
988,302; 3037,601;    2,636;    1,500
988,852; 3062,510;    0,455;   -1,136
989,402; 3095,419;    0,091;    0,682
989,952; 2995,692;   -2,182;    0,864
990,502; 3125,237;   -0,091;    0,682
991,052; 3092,601;   -0,727;    0,045
991,602; 2949,328;   -2,909;    1,318
992,152; 2947,419;    0,455;    0,682
992,702; 2930,328;    1,364;   -0,045
993,252; 2846,874;   -3,000;   -0,500
993,802; 2937,692;   -0,273;    1,318
994,352; 3172,510;   -1,545;    1,136
994,901; 3283,783;   -0,182;    3,227
995,451; 3192,510;   -0,182;    0,318
996,000; 3260,874;    1,636;    0,318
996,550; 2991,510;    2,273;    0,227
997,100; 2987,056;    1,273;   -0,045
997,649; 3262,510;    2,182;    0,955
998,198; 2899,328;    1,727;   -1,500
998,748; 3109,419;    1,091;   -2,318
999,297; 3014,510;   -0,818;   -0,409
999,846; 3069,237;    1,000;   -0,773
1000,395; 3109,783;   -0,818;    0,500
1000,945; 3035,601;    1,818;   -0,773
1001,494; 3143,965;    2,364;    0,682
1002,043; 3137,328;    4,636;    0,864
1002,592; 2976,510;   -1,091;    1,955
1003,141; 3129,783;   -0,455;   -0,682
1003,690; 2982,510;    1,727;    0,500
1004,238; 3075,056;    1,455;   -0,045
1004,787; 2700,510;    1,364;    1,227
1005,336; 2933,056;    0,364;    0,682
1005,885; 3089,874;    1,364;   -2,773
1006,433; 3219,965;    0,545;    0,955
1006,982; 3285,146;    0,455;    1,682
1007,531; 3197,965;   -1,818;   -0,227
1008,079; 3141,056;   -2,273;    0,500
1008,627; 3283,692;   -1,455;    0,409
1009,176; 3017,328;    0,000;   -1,955
1009,724; 3057,783;    1,091;    0,864
1010,273; 3113,056;    1,273;    0,500
1010,821; 3225,965;    0,091;    1,409
1011,369; 2976,056;   -1,364;    1,318
1011,917; 2940,601;   -1,364;   -0,591
1012,465; 3231,692;    1,273;   -1,591
1013,013; 3349,146;    2,091;   -1,682
1013,561; 3227,056;    0,455;   -0,773
1014,109; 3249,237;   -1,909;    1,682
1014,657; 3142,510;    0,364;    0,591
1015,205; 3281,237;    1,636;   -0,955
1015,753; 3308,601;   -0,545;   -1,409
1016,301; 3341,419;   -2,636;    3,045
1016,848; 3331,692;   -1,273;    0,409
1017,396; 3377,146;    2,545;    0,045
1017,944; 3498,965;    1,182;    1,864
1018,491; 3275,146;    0,273;    1,409
1019,039; 3419,692;    0,455;    0,591
1019,586; 3356,692;   -1,364;    1,682
1020,134; 3419,328;    0,455;    1,500
1020,681; 3461,874;    0,182;   -1,136
1021,228; 3474,146;    2,909;   -2,227
1021,776; 3285,510;    1,182;   -1,136
1022,323; 3505,965;    0,455;    0,773
1022,870; 3453,146;   -1,000;   -0,045
1023,417; 3334,056;    2,636;    1,864
1023,964; 3489,874;    2,636;    1,227
1024,511; 3344,056;    1,000;    0,773
1025,058; 3150,510;    3,182;   -0,045
1025,605; 3162,874;   -2,273;    3,136
1026,152; 3399,965;    1,727;   -0,591
1026,699; 3129,056;    1,818;    1,318
1027,245; 3293,692;   -0,091;    0,318
1027,792; 3508,419;   -1,000;    1,409
1028,339; 3379,874;    2,364;   -0,045
1028,885; 3226,692;    1,000;   -0,227
1029,432; 3179,874;   -0,091;    0,227
1029,978; 3256,874;   -1,000;   -1,591
1030,525; 3149,146;    1,000;    0,409
1031,071; 3399,965;   -1,364;    1,136
1031,618; 3494,328;    0,364;    1,682
1032,164; 3271,783;   -0,091;    3,045
1032,710; 3300,783;    1,636;   -1,500
1033,256; 3222,692;   -0,636;   -0,136
1033,803; 3209,510;   -0,545;    1,500
1034,349; 2935,056;   -1,364;    0,136
1034,895; 3103,056;    0,000;   -0,318
1035,441; 3088,328;   -0,818;    0,318
1035,987; 3085,601;   -2,364;   -0,682
1036,533; 3067,328;   -1,455;   -0,955
1037,078; 3276,874;    1,455;    1,682
1037,624; 3080,965;    2,455;   -0,955
1038,170; 3108,510;    0,455;   -0,318
1038,716; 3012,965;    1,636;   -0,409
1039,261; 2925,874;   -2,273;   -0,773
1039,807; 2867,237;   -0,091;    3,409
1040,352; 2944,692;   -1,909;   -0,318
1040,898; 2967,056;   -1,545;   -0,682
1041,443; 2892,056;   -1,455;   -2,591
1041,989; 2897,692;    1,091;    1,591
1042,534; 2790,965;   -0,364;    2,591
1043,079; 2900,419;    2,909;    0,955
1043,625; 2698,692;    1,818;    0,500
1044,170; 2737,419;   -1,364;    1,045
1044,715; 3003,874;    2,455;    0,955
1045,260; 2820,419;    2,182;   -0,955
1045,805; 2868,692;    1,182;   -0,591
1046,350; 2788,965;    1,364;   -0,409
1046,895; 2738,510;    2,909;    1,591
1047,440; 2705,874;    5,364;    0,409
1047,985; 2599,874;    2,818;   -0,955
1048,530; 2516,783;    1,545;    1,227
1049,074; 2569,692;    0,000;    0,318
1049,619; 2556,783;   -1,364;    1,955
1050,164; 2359,146;    0,455;    0,227
1050,708; 2387,783;   -0,455;    0,045
1051,253; 2757,692;    1,273;   -2,227
1051,797; 2475,965;    0,818;   -1,318
1052,342; 2485,237;   -1,182;    1,045
1052,886; 2476,692;    0,364;   -1,409
1053,430; 2374,601;   -1,364;    0,136
1053,975; 2378,874;   -0,818;   -0,318
1054,519; 2357,510;   -0,727;    3,227
1055,063; 2362,056;    0,909;    1,318
1055,607; 2242,965;   -0,182;    0,227
1056,151; 2272,328;    2,909;    1,682
1056,695; 2190,328;    2,273;   -1,136
1057,239; 2251,328;   -1,727;   -0,682
1057,783; 2263,328;    0,818;   -1,500
1058,327; 2213,328;    0,000;    1,409
1058,871; 2438,510;   -0,545;    1,318
1059,415; 2132,692;   -0,818;   -0,045
1059,958; 2410,692;    1,455;    2,591
1060,502; 2132,146;   -1,000;   -0,773
1061,046; 2027,510;    0,364;   -0,955
1061,589; 1994,419;   -3,000;   -1,136
1062,133; 1879,692;   -1,273;    1,864
1062,676; 1831,874;    1,182;    0,864
1063,220; 1821,783;    1,091;    0,500
1063,763; 1848,965;    0,909;    1,136
1064,306; 1942,510;   -0,909;    1,864
1064,849; 1814,056;   -0,909;    0,591
1065,393; 1825,692;    2,000;   -1,500
1065,936; 1935,510;    0,182;   -0,409
1066,479; 1825,965;   -1,455;    1,318
1067,022; 1857,601;   -0,273;   -0,227
1067,565; 1744,146;   -0,091;   -1,318
1068,108; 1762,692;    0,727;   -0,591
1068,651; 1734,056;   -0,636;    1,409
1069,194; 1664,056;   -0,455;   -1,682
1069,736; 1671,783;   -1,273;    0,955
1070,279; 1656,419;   -1,364;   -0,500
1070,822; 1688,601;   -2,000;   -0,318
1071,364; 1784,056;   -0,364;    1,318
1071,907; 1608,056;   -0,727;    3,227
1072,450; 1510,146;    0,000;   -0,045
1072,992; 1500,419;   -0,273;    3,136
1073,535; 1655,056;    2,091;    2,136
1074,077; 1442,874;   -0,727;    2,045
1074,619; 1406,419;   -1,364;    0,591
1075,161; 1441,146;   -1,091;    1,500
1075,704; 1619,510;    1,545;    1,227
1076,246; 1415,056;   -0,182;    0,682
1076,788; 1342,874;   -0,364;    1,773
1077,330; 1423,965;    1,273;    2,136
1077,872; 1383,510;    0,909;    0,955
1078,414; 1611,419;    2,727;    0,773
1078,956; 1346,328;    1,273;   -0,227
1079,498; 1605,965;    1,636;    0,318
1080,040; 1309,056;    1,909;   -1,318
1080,581; 1240,692;    1,636;   -0,318
1081,123; 1173,510;    0,091;   -0,773
1081,665; 1218,056;   -1,182;   -0,955
1082,206; 1512,692;    1,364;   -0,500
1082,748; 1380,328;    0,727;    2,045
1083,289; 1258,237;   -2,000;    1,318
1083,831; 1159,510;   -0,545;    0,227
1084,372; 1189,510;    0,000;    0,591
1084,913; 1200,601;    1,091;    0,864
1085,455; 1165,965;   -1,909;   -2,045
1085,996; 1132,692;   -2,273;    0,136
1086,537; 1150,874;   -0,091;    0,864
1087,078; 1173,237;   -0,909;   -2,136
1087,619; 1232,601;   -1,273;    0,227
1088,160; 1146,419;    0,000;    1,318
1088,701; 1117,692;   -1,091;    0,682
1089,242; 1072,419;    1,364;   -2,227
1089,783; 1166,510;   -0,273;    1,409
1090,324; 1129,601;    0,455;    0,682
1090,865; 1008,965;    2,727;   -0,409
1091,405;  989,328;    0,727;    2,227
1091,946; 1018,783;    0,182;   -0,955
1092,487;  937,419;    0,818;   -1,409
1093,027; 1095,874;   -1,364;   -1,500
1093,568;  946,237;   -0,364;    1,227
1094,108; 1058,146;    0,273;    1,773
1094,649;  997,965;   -1,182;    0,136
1095,189;  920,874;   -0,636;   -0,682
1095,729;  871,692;   -0,091;    0,955
1096,269;  882,419;    0,727;   -0,955
1096,810; 1201,601;   -1,364;    0,500
1097,350; 1018,328;    1,364;   -0,773
1097,890;  921,237;    0,364;    1,227
1098,430; 1178,237;    2,364;    2,864
1098,970; 1043,783;    2,182;    1,682
1099,510;  910,783;    0,545;   -2,318
1100,050;  832,601;    1,000;   -1,591
1100,589;  804,056;   -0,727;   -0,318
1101,129;  927,965;    0,818;   -0,955
1101,669; 1091,328;    1,727;    2,136
1102,209;  904,056;   -0,091;    2,227
1102,748;  842,056;    0,000;    0,955
1103,288;  850,056;    1,273;   -1,227
1103,827;  871,874;    3,091;   -2,227
1104,367;  743,965;   -0,091;   -2,409
1104,906;  712,601;    1,364;   -1,136
1105,445;  791,783;    0,636;   -1,136
1105,985;  724,328;   -0,727;    1,500
1106,524;  780,056;   -1,727;   -0,682
1107,063;  757,419;   -2,727;    1,409
1107,602;  737,692;   -1,909;   -1,500
1108,141;  648,328;   -1,909;    1,500
1108,680;  742,510;   -3,455;   -0,591
1109,219;  677,237;   -0,909;   -0,500
1109,758;  687,056;    0,455;    0,682
1110,297;  653,510;    1,000;   -0,682
1110,836;  602,783;   -0,727;    0,955
1111,375;  771,783;   -2,545;    0,409
1111,913;  785,328;   -1,000;    0,773
1112,452;  723,510;   -0,273;    0,136
1112,991;  596,146;    1,091;    1,955
1113,529;  559,056;   -0,818;   -0,045
1114,068;  618,601;   -0,273;    2,955
1114,606;  529,874;   -0,364;   -0,955
1115,144;  698,783;   -1,273;    1,045
1115,683;  623,419;   -0,727;    0,318
1116,221;  670,783;   -0,455;   -0,864
1116,759;  582,601;    0,636;   -0,864
1117,297;  786,783;    0,000;    1,864
1117,836;  583,510;   -2,182;   -1,227
1118,374;  600,965;    0,182;   -0,682
1118,912;  538,601;    0,909;    2,682
1119,450;  527,783;    1,000;    0,864
1119,988;  576,146;    1,545;    2,136
1120,525; 1035,328;    5,091;    3,318
1121,063;  729,328;    1,182;    1,864
1121,601;  539,056;   -0,909;   -1,227
1122,139;  497,056;   -0,727;   -2,045
1122,676;  705,874;   -0,727;    2,773
1123,214;  636,510;   -1,182;    4,409
1123,751;  437,874;    1,727;    2,227
1124,289;  576,056;   -0,091;   -0,409
1124,826;  436,056;    1,727;    0,227
1125,364;  363,419;    1,727;   -0,955
1125,901;  558,874;    1,182;    1,227
1126,438;  670,328;    0,818;    0,955
1126,975;  390,237;   -0,727;   -0,773
1127,513;  458,146;    0,273;    2,136
1128,050;  363,874;    1,636;   -0,682
1128,587;  468,874;    2,000;   -0,227
1129,124;  512,146;    0,091;    1,318
1129,661;  371,328;    0,273;    0,227
1130,198;  545,146;    1,636;    0,773
1130,734;  486,146;    0,182;    1,409
1131,271;  334,874;   -0,909;    0,864
1131,808;  516,692;    2,909;    3,045
1132,345;  375,692;    1,545;    0,318
1132,881;  248,692;   -1,545;   -1,864
1133,418;  390,056;    0,727;   -1,136
1133,954;  330,146;    2,455;   -2,682
1134,491;  413,056;    1,364;   -0,773
1135,027;  307,874;    2,364;    0,864
1135,564;  401,146;    0,273;    2,955
1136,100;  386,146;    0,364;    2,136
1136,636;  267,510;   -1,273;   -1,045
1137,172;  363,056;    0,000;   -1,045
1137,708;  285,601;   -1,364;   -1,045
1138,245;  288,692;    1,273;   -1,227
1138,781;  237,601;    1,091;   -3,318
1139,317;  304,783;    1,273;   -1,409
1139,852;  295,510;    3,091;    0,136
1140,388;  415,510;   -1,182;   -0,409
1140,924;  303,237;   -1,091;   -2,227
1141,460;  229,419;   -1,636;    0,136
1141,996;  163,328;   -1,364;    2,682
1142,531;  221,965;    1,364;    3,318
1143,067;  438,965;    1,182;    1,045
1143,602;  497,692;   -0,091;   -0,318
1144,138;  336,783;   -2,636;    1,045
1144,673;  203,056;   -1,455;    1,409
1145,209;  265,328;   -1,909;   -0,318
1145,744;  183,783;   -0,727;    0,864
1146,279;  325,510;    1,818;   -0,136
1146,815;  236,601;    1,545;   -2,682
1147,350;  270,328;   -1,364;    0,045
1147,885;  186,419;   -0,818;   -1,318
1148,420;  184,328;   -2,273;    0,773
1148,955;  165,874;   -1,727;    1,864
1149,490;  194,328;   -0,909;   -1,591
1150,025;  186,874;    0,455;   -1,773
1150,560;  296,783;    1,091;   -0,955
1151,094;  264,965;    1,455;   -0,591
1151,629;  269,510;    1,636;    0,864
1152,164;  194,510;    1,364;    1,318
1152,698;  145,146;   -0,182;   -0,136
1153,233;  115,965;    0,091;   -0,682
1153,767;  161,510;   -3,000;   -2,318
1154,302;  212,601;   -1,455;    1,773
1154,836;  205,056;   -0,455;   -2,136
1155,371;  262,328;   -1,364;    3,682
1155,905;  216,328;   -0,636;    1,682
1156,439;  180,056;   -0,636;   -0,500
1156,973;  213,783;    0,364;    0,318
1157,507;  141,692;   -0,364;    0,682
1158,042;  177,056;   -0,727;    1,045
1158,576;  223,146;    0,182;    1,773
1159,110;  211,237;   -0,818;    2,409
1159,643;  181,328;    0,636;   -0,045
1160,177;  114,965;   -1,545;    1,500

