
Integration time [ms]:   0,040
Averaging Nr. [scans]: 11
Smoothing Nr. [pixels]: 0
Data measured with spectrometer [name]: 7318044SP
Wave   ;Sample   ;Dark     ;Reference
[nm]   ;[counts] ;[counts] ;[counts] 

186,757;   11,571;   31,551;    1,318
187,357;   45,576;   22,551;    0,955
187,958;   21,198;   15,460;   -1,591
188,558;   57,835;    8,915;   -1,227
189,159;   29,861;    6,733;   -4,500
189,759;   -6,447;    7,278;   -3,591
190,360;   -6,303;    2,824;   -2,136
190,960;   36,319;    2,915;   -4,136
191,560;   37,287;    3,189;   -6,591
192,161;  270,066;    4,372;   -3,500
192,761;  112,684;    4,010;   -3,227
193,361;   68,360;    1,556;   -3,773
193,962;  106,599;    2,010;   -2,682
194,562;   27,474;    1,189;   -3,955
195,162;   44,845;   -2,448;   -2,227
195,762;  172,952;   -3,176;   -0,045
196,362;  125,459;    1,370;   -2,500
196,963;   26,292;    2,006;   -0,864
197,563;   75,112;    1,551;   -0,955
198,163;   13,387;    0,096;   -0,682
198,763;   34,617;    1,733;   -0,500
199,363;   90,508;    3,096;   -0,500
199,963;   61,193;    0,369;    0,409
200,563;   36,099;    2,823;   -1,409
201,163;   19,201;    3,277;   -0,227
201,763;   75,088;    3,732;    0,318
202,363;   37,641;    1,459;    1,500
202,963;   86,502;    1,459;    1,045
203,563;  159,667;    0,277;    0,500
204,162;   70,230;    2,096;   -1,864
204,762;   61,690;    0,550;    0,591
205,362;   31,403;    3,004;    1,955
205,962;   83,924;    3,096;    1,955
206,562;   76,031;    1,823;    2,318
207,161;   58,797;   -0,087;    0,318
207,761;  167,518;    1,277;    2,409
208,361;   77,421;   -0,268;    1,409
208,960;  126,800;    0,459;    1,500
209,560;  149,249;    1,277;    1,591
210,160;  149,915;    0,550;    1,864
210,759;  120,994;    4,186;    1,227
211,359;  115,405;    1,459;    1,045
211,958;  292,201;    1,277;    2,045
212,558;  328,356;    1,732;    1,864
213,157;  217,140;    1,822;    1,500
213,757;  503,795;    3,822;   -0,227
214,356;  284,211;    1,277;   -0,409
214,956;  505,235;    3,095;    0,409
215,555;  246,453;    2,095;    2,136
216,154;  203,848;   -2,723;   -0,591
216,754;  198,658;    0,277;    0,773
217,353;  265,353;   -0,268;   -1,045
217,952;  138,695;   -0,178;    0,318
218,552;  319,244;    1,368;   -0,773
219,151;  230,601;    0,277;    0,955
219,750;  225,020;    0,004;   -0,227
220,349;  218,598;   -0,451;    1,045
220,948;  354,750;   -1,360;    1,136
221,548;  254,855;    0,913;    1,227
222,147;  337,319;   -0,087;   -0,409
222,746;  541,828;   -0,451;   -0,955
223,345;  392,122;    0,731;    0,500
223,944;  392,008;   -0,451;    0,773
224,543;  429,315;    1,004;   -1,409
225,142;  499,450;    0,094;    0,136
225,741;  432,461;   -0,814;    1,045
226,340;  409,151;   -0,451;   -0,955
226,939;  616,219;   -0,996;   -0,136
227,538;  413,116;   -0,360;   -0,773
228,137;  602,971;   -0,814;    0,864
228,735;  535,148;   -0,541;    1,227
229,334;  363,958;   -0,905;   -0,227
229,933;  632,576;    0,459;    0,591
230,532;  674,432;    1,186;   -0,409
231,131;  747,611;    1,732;    0,318
231,729;  593,099;   -2,450;   -2,318
232,328;  498,964;   -0,723;   -1,500
232,927;  483,826;    1,004;   -0,500
233,525;  457,313;    3,640;    0,045
234,124;  535,310;    2,368;   -1,591
234,723;  430,163;    0,913;   -1,045
235,321;  431,019;    2,277;    0,136
235,920;  490,376;    1,186;   -1,227
236,518;  695,142;    3,459;    0,318
237,117;  493,736;    0,004;   -0,227
237,715;  494,021;    0,640;   -0,500
238,314;  590,445;   -0,087;   -2,318
238,912;  782,659;   -0,723;   -1,409
239,510;  619,733;    0,459;   -1,227
240,109;  793,550;    0,004;    3,773
240,707;  751,631;   -0,996;    1,227
241,305;  586,875;    0,550;    0,136
241,904;  773,784;   -0,178;   -2,045
242,502;  908,161;   -0,632;   -0,227
243,100;  802,376;   -0,087;   -0,955
243,698;  797,934;    0,732;    1,682
244,297;  896,326;   -0,632;    0,682
244,895;  921,828;   -0,269;   -2,318
245,493; 1227,022;    2,186;   -0,591
246,091; 1232,427;    1,368;   -1,318
246,689; 1225,059;    1,004;    0,591
247,287; 1238,751;    0,822;   -1,136
247,885; 1320,565;   -1,451;    1,227
248,483; 1322,805;    1,822;   -0,500
249,081; 1466,707;    0,185;    1,591
249,679; 1628,994;   -0,178;    1,682
250,277; 1666,535;   -1,723;    0,864
250,875; 1776,835;   -1,087;   -1,045
251,473; 1775,772;   -1,178;    0,500
252,071; 1934,078;    1,459;    1,045
252,669; 2011,280;   -1,814;    0,318
253,267; 2107,429;   -0,087;    0,773
253,864; 2069,296;   -0,360;    0,682
254,462; 2291,552;    1,640;    1,591
255,060; 2144,530;   -0,269;    1,318
255,658; 2265,462;    0,822;   -0,136
256,255; 2583,474;    0,186;   -2,045
256,853; 2588,020;   -0,269;    1,409
257,451; 2577,468;    0,822;    1,864
258,048; 3079,901;    1,822;    1,864
258,646; 2713,366;    1,731;   -1,045
259,243; 2870,110;   -0,087;    2,227
259,841; 2894,526;   -0,814;    0,318
260,438; 2832,083;   -0,087;    0,864
261,036; 3206,908;   -1,905;    1,409
261,633; 3195,016;   -0,087;    2,227
262,231; 3126,481;    2,731;   -0,045
262,828; 3241,786;   -0,905;    1,136
263,425; 3280,346;    0,913;   -0,591
264,023; 3493,439;    0,186;    0,045
264,620; 3299,630;   -0,360;   -0,318
265,217; 3539,285;   -2,087;    3,136
265,815; 3546,153;   -1,905;    2,136
266,412; 3584,748;    0,731;    0,136
267,009; 3599,736;   -1,451;    0,773
267,606; 3723,093;    0,822;   -0,955
268,203; 3584,229;   -0,269;   -0,591
268,801; 3770,853;    1,731;    0,591
269,398; 3951,155;   -0,360;    2,500
269,995; 4003,241;    0,277;    1,591
270,592; 3852,626;   -0,632;   -0,500
271,189; 3968,096;    0,186;    0,409
271,786; 4061,019;   -0,632;    1,227
272,383; 4110,007;   -1,087;    0,227
272,980; 4103,713;    0,277;    0,318
273,577; 4352,574;    0,004;    1,227
274,174; 4006,441;    0,822;    2,591
274,771; 4027,917;   -0,814;   -0,773
275,367; 4296,024;    2,277;    1,409
275,964; 4228,594;    0,731;   -0,500
276,561; 4252,021;    1,549;   -1,045
277,158; 4284,267;    0,095;   -1,773
277,755; 4473,434;    2,185;    0,409
278,351; 4007,089;   -0,451;   -1,500
278,948; 4232,035;   -0,815;    0,045
279,545; 4175,650;   -1,360;    2,318
280,141; 4695,178;   -1,723;   -2,045
280,738; 4510,090;   -0,451;   -0,136
281,334; 4533,337;   -1,633;    0,591
281,931; 4171,086;   -0,087;   -1,318
282,528; 4318,823;    0,822;   -0,500
283,124; 4804,734;   -1,087;   -0,500
283,721; 4676,977;   -0,451;    1,409
284,317; 4550,517;    0,185;    2,500
284,913; 5000,136;   -1,360;    0,591
285,510; 5230,591;    0,640;   -0,318
286,106; 5215,957;   -2,269;   -0,955
286,703; 4819,081;   -0,360;    1,955
287,299; 5023,799;   -1,451;   -0,591
287,895; 5230,843;    0,822;   -1,045
288,491; 5649,610;    0,186;    2,136
289,088; 5589,254;   -2,360;    2,409
289,684; 5698,644;   -1,723;    1,500
290,280; 5782,346;    0,368;    0,682
290,876; 5904,412;    1,822;    5,500
291,472; 5918,480;    1,276;    2,227
292,068; 6124,784;    1,367;    0,227
292,665; 5925,526;    2,095;    0,773
293,261; 5798,832;    0,276;    2,136
293,857; 6163,701;    2,913;    2,136
294,453; 6186,480;    3,550;    0,955
295,049; 6215,304;   -0,268;    1,955
295,644; 6332,304;    0,095;    0,136
296,240; 6358,379;   -0,905;   -0,136
296,836; 6533,284;   -0,995;    0,318
297,432; 6858,146;    1,096;   -0,500
298,028; 7011,300;    0,732;    0,773
298,624; 7387,115;    1,459;    1,864
299,220; 7618,135;    2,368;    0,591
299,815; 7405,614;    1,005;   -0,409
300,411; 7361,850;    0,914;    1,773
301,007; 7438,742;    1,368;    0,227
301,602; 7526,715;   -0,541;   -2,318
302,198; 7715,062;    0,732;   -0,773
302,794; 8043,363;    1,187;   -0,500
303,389; 8161,285;   -1,177;    1,045
303,985; 8274,084;    0,550;    1,409
304,580; 8318,267;    1,459;    1,591
305,176; 8297,454;   -3,086;    0,136
305,771; 8277,798;   -1,268;   -1,227
306,367; 8243,706;    4,095;    0,136
306,962; 8464,170;    0,641;    1,500
307,558; 8188,197;   -0,450;    0,136
308,153; 8143,731;    1,095;   -1,136
308,748; 8343,492;   -0,814;    1,682
309,344; 8331,465;   -0,632;   -1,318
309,939; 8413,639;   -1,905;   -1,318
310,534; 8569,870;   -0,086;   -1,682
311,130; 8458,923;    0,459;   -2,500
311,725; 8174,958;    1,004;   -0,500
312,320; 8451,328;    2,459;    0,045
312,915; 8356,784;    1,459;   -1,045
313,510; 8397,630;    1,550;   -0,500
314,105; 8688,305;    1,096;    1,409
314,700; 8127,976;   -3,086;   -1,045
315,295; 7834,722;   -0,904;    0,045
315,890; 7425,706;    1,277;    0,864
316,485; 7669,421;   -0,359;   -0,318
317,080; 7711,451;   -3,086;    1,591
317,675; 8140,878;    2,005;   -0,682
318,270; 7686,811;    5,550;    3,318
318,865; 7626,988;    3,278;    3,045
319,460; 7409,683;   -0,904;    0,591
320,055; 7586,372;   -0,541;   -1,227
320,650; 7269,137;   -1,995;   -0,591
321,244; 7281,030;   -0,177;   -1,409
321,839; 7981,807;   -1,541;   -0,227
322,434; 7842,601;   -1,086;   -1,591
323,029; 7604,501;    1,732;    1,591
323,623; 7446,946;    1,550;    0,773
324,218; 7294,289;    2,368;    1,409
324,812; 7202,094;    1,096;    1,591
325,407; 7059,592;   -0,814;    2,045
326,002; 7045,569;    0,277;   -0,409
326,596; 7324,236;    0,914;    1,318
327,191; 7478,366;    0,823;   -1,045
327,785; 7182,508;   -0,813;   -0,227
328,379; 7440,398;    1,368;    0,136
328,974; 7252,157;    0,914;   -3,955
329,568; 7553,767;    0,186;   -2,409
330,163; 7474,178;    2,096;    1,045
330,757; 7813,675;    2,459;    1,591
331,351; 7336,841;    0,459;    0,682
331,945; 7681,631;    0,914;    1,409
332,540; 7441,573;   -1,723;   -0,591
333,134; 7644,561;   -1,086;    0,773
333,728; 7901,995;    0,005;    0,318
334,322; 8242,421;   -1,177;   -0,864
334,916; 7700,850;    0,277;    0,955
335,510; 8125,137;   -0,450;   -0,136
336,105; 8395,184;   -1,086;    1,591
336,699; 8192,767;   -1,086;    0,591
337,293; 8201,901;   -1,723;    0,318
337,887; 8394,633;   -2,723;    1,955
338,481; 8594,327;    0,459;    0,591
339,074; 8849,119;   -0,359;    2,682
339,668; 8770,338;   -1,632;    1,227
340,262; 9129,052;    1,732;    3,227
340,856; 8690,680;    1,822;   -0,682
341,450; 8235,870;    1,004;    1,864
342,044; 9077,173;    1,459;    0,136
342,637; 8944,368;    0,913;   -2,136
343,231; 8866,077;   -2,360;    0,682
343,825; 8931,581;   -1,086;   -0,591
344,419; 8969,839;   -1,995;    0,500
345,012; 8872,013;    2,459;    4,045
345,606; 8939,865;    4,641;    1,591
346,199; 8831,294;   -1,813;   -0,227
346,793; 8491,968;    1,914;    2,045
347,386; 8716,604;   -0,813;   -1,136
347,980; 8740,129;   -0,268;   -0,045
348,573; 8602,300;    2,278;    0,409
349,167; 8372,281;    5,278;    4,773
349,760; 8742,413;    2,914;    2,682
350,354; 8719,239;   -0,813;    1,136
350,947; 8508,635;    1,096;    1,682
351,540; 8222,295;   -0,358;   -1,409
352,134; 8186,353;    1,096;    1,136
352,727; 8293,471;   -0,086;    1,136
353,320; 8120,407;    0,005;    0,591
353,913; 7964,101;   -1,995;    1,864
354,507; 8178,123;    0,823;   -1,227
355,100; 8207,824;    0,460;    0,864
355,693; 7546,026;    2,005;    2,409
356,286; 7578,258;    0,823;    2,773
356,879; 7898,512;   -0,722;    1,227
357,472; 7531,739;   -0,904;    1,500
358,065; 7723,092;   -0,722;    2,500
358,658; 7651,871;   -0,540;    2,318
359,251; 7325,426;   -1,631;   -0,591
359,844; 6853,352;   -1,904;   -1,136
360,437; 7039,256;   -2,995;    0,045
361,030; 7285,939;    1,369;   -0,682
361,623; 6898,217;    2,824;    0,318
362,215; 6937,292;   -0,086;    2,045
362,808; 6759,137;   -2,358;   -1,682
363,401; 6932,696;   -2,449;    0,136
363,994; 6739,079;   -0,631;   -1,500
364,586; 6633,530;    0,824;   -1,500
365,179; 6821,120;   -0,449;   -1,136
365,772; 6321,930;   -1,995;    2,045
366,364; 6571,468;    1,915;   -3,227
366,957; 6776,813;    2,279;   -0,045
367,549; 6734,338;    2,188;   -0,864
368,142; 6428,593;    1,825;   -1,500
368,734; 6601,497;    0,734;   -2,136
369,327; 6563,324;    1,643;   -0,500
369,919; 6473,512;   -1,538;    0,409
370,512; 6291,425;   -1,083;   -0,500
371,104; 6086,019;   -0,901;    1,591
371,696; 6241,969;    1,191;   -0,955
372,289; 6308,390;    0,373;    1,136
372,881; 6398,048;   -2,080;    1,318
373,473; 6296,188;   -2,170;    1,136
374,066; 6151,339;   -0,169;    0,500
374,658; 6027,163;    0,378;    1,136
375,250; 6332,945;    0,653;   -1,409
375,842; 6187,691;    0,473;   -0,045
376,434; 6060,268;   -0,435;   -0,409
377,026; 6539,654;    0,204;   -2,500
377,618; 6452,029;   -0,158;   -0,682
378,210; 6289,894;   -0,338;   -1,955
378,802; 6128,988;    0,754;   -0,591
379,394; 6143,358;    1,846;    0,682
379,986; 6652,080;    1,393;   -0,955
380,578; 6718,018;   -0,153;    0,773
381,170; 6124,018;   -0,972;    0,045
381,762; 6094,852;    0,755;    1,409
382,354; 6253,555;   -0,065;   -1,318
382,945; 6337,029;   -2,976;    0,318
383,537; 6479,468;   -2,705;   -1,955
384,129; 6498,538;   -2,160;   -1,136
384,721; 6660,936;   -0,252;    0,955
385,312; 6575,138;   -0,161;   -0,955
385,904; 6694,066;   -2,706;    1,591
386,496; 6095,282;   -0,979;    1,045
387,087; 6239,561;    1,022;    2,500
387,679; 6273,708;   -1,160;    0,045
388,270; 6379,426;    2,840;    2,045
388,862; 6477,800;    1,295;   -0,318
389,453; 6372,575;   -0,887;    1,045
390,045; 6616,543;   -0,705;   -2,682
390,636; 6564,121;    0,204;   -0,591
391,227; 6430,996;   -0,523;   -0,045
391,819; 6498,070;    0,204;    0,773
392,410; 6544,507;    1,022;    0,045
393,001; 6521,757;   -0,979;   -1,591
393,593; 6750,490;    1,930;   -0,045
394,184; 6615,584;    1,385;   -0,409
394,775; 6532,620;    1,839;    2,136
395,366; 6743,613;    1,385;    0,773
395,957; 6704,183;    0,113;    0,136
396,548; 6991,570;   -0,342;    2,682
397,139; 7282,486;   -2,433;    0,591
397,730; 7015,209;   -1,888;    0,955
398,321; 7082,223;   -1,252;    0,955
398,912; 7068,653;   -0,615;    0,136
399,503; 7165,494;   -3,524;   -1,409
400,094; 6681,414;    0,294;    1,682
400,685; 6510,692;   -0,433;    0,045
401,276; 6567,748;    0,930;   -0,955
401,867; 6832,740;   -0,888;    0,773
402,458; 6904,071;   -2,251;   -2,318
403,048; 6914,770;    1,112;    0,591
403,639; 6534,453;    0,840;    0,864
404,230; 6806,356;    2,476;    0,318
404,821; 6726,312;   -0,615;    0,045
405,411; 6831,513;    1,203;   -2,591
406,002; 6437,083;   -1,252;   -1,136
406,592; 6329,647;    2,294;    0,045
407,183; 6559,186;    0,566;   -1,500
407,774; 6449,825;    3,475;   -0,136
408,364; 6732,027;    0,930;    0,409
408,954; 6370,225;    0,384;    1,227
409,545; 6381,484;    1,021;    1,045
410,135; 5934,152;    1,293;    0,500
410,726; 6052,583;    1,838;    0,318
411,316; 6356,395;    0,111;    0,773
411,906; 6040,431;   -0,253;   -0,409
412,497; 5574,484;   -1,070;   -0,045
413,087; 6056,556;   -1,980;   -0,227
413,677; 6360,797;   -0,707;    3,864
414,267; 6191,475;    0,656;    1,409
414,857; 6139,410;   -2,980;    4,227
415,448; 6329,428;    0,839;    0,500
416,038; 6018,845;    0,020;   -0,591
416,628; 5930,693;   -0,889;    0,409
417,218; 5505,358;    0,565;    3,318
417,808; 5675,294;    0,202;   -0,409
418,398; 5955,239;    0,020;    2,682
418,988; 5865,411;    2,020;    0,591
419,578; 6031,518;   -0,707;    1,409
420,168; 6249,713;   -1,343;   -0,955
420,757; 5862,914;   -1,343;   -1,500
421,347; 5508,688;    0,111;   -0,227
421,937; 5590,434;    2,292;    1,409
422,527; 5546,036;    0,838;   -0,773
423,116; 5341,812;   -0,253;   -0,045
423,706; 5492,564;   -1,889;    0,318
424,296; 5350,101;    1,384;    0,682
424,885; 5694,464;   -0,071;   -3,045
425,475; 5830,802;    1,474;   -2,864
426,065; 5671,553;   -0,980;   -0,318
426,654; 5320,522;   -0,435;   -0,318
427,244; 5410,124;    0,020;    1,409
427,833; 4930,730;    1,383;   -0,500
428,423; 5135,715;   -0,526;    1,136
429,012; 5627,560;   -0,344;   -1,136
429,601; 5199,562;   -1,344;    0,136
430,191; 5297,844;    1,292;    4,318
430,780; 4902,419;   -0,344;   -0,409
431,369; 4899,203;    0,746;   -0,045
431,959; 5248,711;   -1,254;    0,500
432,548; 4958,665;   -1,163;   -0,045
433,137; 4943,626;   -1,254;   -1,318
433,726; 5292,769;    0,292;    0,500
434,315; 4813,594;   -0,526;    2,409
434,905; 4821,164;   -1,254;    1,409
435,494; 4725,109;    0,746;    0,955
436,083; 4875,668;   -0,981;   -0,955
436,672; 4670,811;    0,110;    0,500
437,261; 4408,057;    0,292;   -1,955
437,850; 4489,436;    1,383;    0,682
438,439; 4362,020;    3,291;    1,955
439,027; 4228,873;    3,655;    1,773
439,616; 4341,538;    2,927;    1,227
440,205; 4042,059;    0,200;   -2,136
440,794; 3899,559;    2,109;   -0,045
441,383; 3903,546;   -1,346;   -0,591
441,971; 3700,256;   -2,436;    0,591
442,560; 3498,119;    0,563;   -1,773
443,149; 3231,562;    0,379;   -1,318
443,737; 3294,664;   -0,074;   -2,318
444,326; 3319,314;    0,018;    0,318
444,915; 3252,324;   -1,982;    0,864
445,503; 3337,549;   -2,891;   -0,318
446,092; 3132,129;    0,382;    2,136
446,680; 3225,013;    0,382;    0,318
447,269; 3141,293;   -0,346;   -0,318
447,857; 2915,471;    0,018;   -1,773
448,445; 2862,897;    0,563;    1,318
449,034; 2850,993;   -1,528;   -1,136
449,622; 2751,180;   -1,073;    3,500
450,210; 2801,276;    2,017;    2,227
450,799; 2805,034;    0,290;   -0,591
451,387; 2554,555;    1,381;   -0,591
451,975; 2412,871;    2,654;    0,864
452,563; 2516,761;    3,472;    2,318
453,151; 2206,160;   -0,528;   -1,227
453,739; 2134,216;   -1,347;    0,136
454,328; 2231,491;    2,381;   -2,136
454,916; 2005,501;    2,562;   -0,136
455,504; 1969,377;    1,017;    1,227
456,092; 1901,170;    0,017;   -1,591
456,679; 1735,424;    1,472;    0,682
457,267; 2332,239;    4,017;    1,045
457,855; 1830,623;    1,017;    1,409
458,443; 1479,637;   -0,165;    1,682
459,031; 1828,662;    0,108;    2,409
459,619; 1761,846;   -1,801;    2,864
460,206; 1545,554;    0,835;    2,045
460,794; 1581,465;   -2,983;   -0,227
461,382; 1656,991;   -0,529;   -0,864
461,970; 1483,109;    1,198;    1,864
462,557; 1418,041;   -0,711;   -0,682
463,145; 1596,780;   -3,165;   -1,682
463,732; 1864,192;    2,016;   -1,045
464,320; 1500,510;   -0,075;   -3,045
464,907; 1669,803;    2,743;   -0,773
465,495; 1493,798;    0,743;   -1,227
466,082; 1335,711;   -1,984;   -0,045
466,670; 1268,546;   -2,529;    1,227
467,257; 1187,044;   -1,711;    2,045
467,844; 1354,934;   -0,075;    0,045
468,432; 1310,892;    0,834;    3,500
469,019; 1139,255;    0,925;   -1,773
469,606; 1227,062;    0,470;    3,682
470,193; 1259,551;   -1,439;    0,227
470,780; 1194,029;   -2,075;    0,864
471,368; 1050,321;   -1,257;   -0,773
471,955; 1153,191;    1,379;   -0,682
472,542; 1025,791;    0,652;   -1,136
473,129;  808,004;   -0,166;    0,136
473,716;  763,033;    1,470;    0,591
474,303;  803,950;    0,652;   -0,864
474,890;  791,914;   -1,439;   -0,500
475,477;  924,485;   -1,621;    0,409
476,064;  731,793;    1,106;   -1,591
476,650;  886,407;    0,288;    0,318
477,237;  738,225;   -0,258;    0,955
477,824;  661,737;   -1,076;    0,864
478,411;  465,993;   -1,894;   -0,318
478,997;  430,820;    0,560;   -0,773
479,584;  309,101;    1,196;   -0,409
480,171;  647,049;   -0,440;   -0,773
480,757;  726,107;    2,651;    0,773
481,344;  495,207;    0,469;    0,409
481,931;  297,711;    1,105;    1,045
482,517;  542,381;   -1,258;    0,318
483,104;  647,524;    1,106;    2,864
483,690;  434,628;   -1,804;    0,045
484,276;  369,028;   -0,895;    0,227
484,863;  704,153;    2,469;    1,136
485,449;  435,743;   -0,077;    0,318
486,035;  346,156;   -1,986;   -0,136
486,622;  499,064;   -0,895;    0,045
487,208;  356,094;    1,378;    1,500
487,794;  200,935;    0,741;    0,318
488,380;  193,879;    0,105;   -1,409
488,967;  218,686;   -1,168;   -0,409
489,553;  228,829;   -1,895;   -1,409
490,139;  363,079;    1,559;    0,773
490,725;  216,374;    0,741;   -0,227
491,311;  294,229;    3,287;    3,045
491,897;  235,333;   -0,986;    1,500
492,483;  240,854;    0,105;    1,227
493,069;  923,501;    3,923;    0,864
493,655;  495,797;    1,650;    0,682
494,241;  318,289;    1,377;   -0,955
494,826;  371,552;    0,287;   -1,045
495,412;  507,039;    2,559;   -0,682
495,998;  372,534;   -0,805;   -0,318
496,584;  507,418;    0,377;    1,045
497,169;  524,434;    1,014;   -0,682
497,755;  421,741;    0,650;    1,227
498,341;  785,521;    0,559;    0,318
498,926; 1020,104;    1,832;    1,955
499,512;  650,480;    1,286;    2,955
500,097;  677,786;    0,195;   -0,318
500,683;  769,643;   -0,350;    2,136
501,268;  790,502;   -0,169;   -0,955
501,854;  921,795;   -0,169;    1,227
502,439;  944,190;   -0,624;   -1,773
503,024; 1190,980;    0,195;    0,500
503,610; 1402,999;   -0,078;   -0,682
504,195; 1371,806;    0,558;    1,955
504,780; 1703,701;    2,922;    1,227
505,366; 2028,766;    3,013;    2,864
505,951; 2040,631;    0,740;    1,045
506,536; 2273,000;   -3,260;   -3,682
507,121; 2504,070;    0,285;   -0,318
507,706; 2942,265;    2,376;    1,045
508,291; 3322,999;    2,649;    1,136
508,876; 3407,816;   -0,988;    2,591
509,461; 3556,179;   -0,169;   -0,773
510,046; 4161,648;    0,194;    0,318
510,631; 4650,574;   -0,351;   -0,773
511,216; 4821,512;    2,467;   -0,500
511,801; 5488,345;   -0,442;    2,591
512,386; 5995,849;    0,740;    0,500
512,971; 6357,608;   -2,988;    0,955
513,555; 6477,675;   -0,897;   -1,500
514,140; 7455,828;   -0,442;   -3,136
514,725; 7787,572;   -0,715;   -1,136
515,309; 8254,637;   -0,533;    0,318
515,894; 8246,874;   -0,624;   -2,227
516,479; 8946,735;   -0,624;   -0,955
517,063; 9120,060;    0,376;    1,227
517,648; 9572,168;    1,012;   -1,136
518,232; 9511,595;   -0,261;   -1,409
518,817;10141,936;   -0,079;    1,682
519,401;10641,151;    2,194;    0,591
519,985;10398,116;    1,103;    1,136
520,570;10493,226;    0,830;   -1,955
521,154;11006,164;    2,102;    0,591
521,738;11397,559;   -2,352;    2,409
522,323;12124,956;   -0,170;    1,682
522,907;12013,605;    0,466;   -0,136
523,491;11933,891;    0,557;    0,955
524,075;12058,141;    2,284;    0,591
524,659;12287,371;    1,466;    0,591
525,243;11875,602;    1,739;    0,409
525,827;12267,295;    0,648;   -0,045
526,411;13199,280;   -1,989;   -0,136
526,995;13481,747;   -0,352;    1,409
527,579;13159,090;   -0,443;   -1,045
528,163;13536,009;    0,375;   -1,500
528,747;13549,533;    2,466;   -0,773
529,331;13908,634;   -0,080;   -1,409
529,915;14186,777;    1,738;    0,955
530,499;14162,745;   -0,807;    1,227
531,082;13927,445;   -0,534;    1,591
531,666;13456,154;    1,374;    0,773
532,250;14163,419;    1,284;    2,682
532,833;14530,464;    0,920;    2,773
533,417;14435,869;   -1,807;    0,864
534,001;14451,801;    1,647;   -0,318
534,584;15178,834;    0,374;    0,500
535,168;15002,552;    0,465;    1,409
535,751;15098,554;    0,647;    0,045
536,334;14584,230;   -0,898;   -0,409
536,918;15173,339;    0,011;    1,591
537,501;15332,673;   -0,899;    1,318
538,085;15305,976;   -0,444;    1,045
538,668;15495,135;    0,829;    2,409
539,251;15833,567;    1,829;    3,773
539,834;15839,640;    0,101;    0,773
540,418;15791,339;   -1,990;    4,318
541,001;15938,636;   -0,990;    1,773
541,584;15931,718;    2,101;    2,227
542,167;15652,025;    1,374;    2,955
542,750;15813,278;    1,919;   -0,773
543,333;15456,481;    0,555;    2,136
543,916;16196,416;    0,192;    2,500
544,499;16777,337;   -1,354;    0,227
545,082;16835,319;    1,374;    3,591
545,665;16999,225;    1,919;    1,500
546,248;17360,935;    1,010;   -0,318
546,830;16982,336;   -0,445;    1,955
547,413;17368,314;    1,010;   -0,773
547,996;17928,793;    0,555;    0,500
548,579;17719,290;    0,919;    0,955
549,161;17540,453;    1,828;    2,682
549,744;17302,950;   -0,809;    0,409
550,326;17838,413;   -0,809;   -1,136
550,909;17617,715;    2,737;    0,591
551,492;18031,478;   -0,263;    0,227
552,074;17803,964;   -0,173;   -1,318
552,657;18384,391;    2,373;    0,045
553,239;18169,685;   -0,173;   -0,773
553,821;18040,598;   -1,082;    1,045
554,404;17561,264;    1,282;    1,136
554,986;17925,134;    0,464;    1,045
555,568;18525,883;    1,191;   -0,955
556,151;17749,315;    1,191;   -0,227
556,733;17941,022;   -0,264;   -0,864
557,315;18429,252;    0,100;    0,500
557,897;18255,567;    0,554;   -0,500
558,479;18352,243;   -1,991;    1,318
559,061;18478,829;   -0,719;   -0,864
559,643;18844,918;   -0,264;    0,045
560,225;19201,865;    1,645;    2,864
560,807;19207,554;    0,918;    0,318
561,389;18708,185;    0,554;    2,318
561,971;19497,169;    0,463;    2,136
562,553;19295,683;   -1,628;    1,591
563,135;19392,611;   -0,537;    1,136
563,717;19038,029;    3,372;    1,136
564,298;19750,377;    3,645;   -0,045
564,880;19489,078;    0,645;   -1,409
565,462;19669,442;    0,645;    1,318
566,043;20799,784;   -0,446;    2,318
566,625;20323,598;    1,918;    1,227
567,207;20203,768;    1,099;    1,682
567,788;21344,335;   -1,264;    1,500
568,370;22170,230;    1,917;   -0,500
568,951;22026,334;    0,190;    0,227
569,533;22901,928;   -0,628;   -0,500
570,114;23353,037;   -0,446;    0,682
570,695;23832,844;   -0,174;   -1,318
571,277;24315,350;   -0,265;   -1,682
571,858;25062,884;    2,008;   -1,136
572,439;26018,432;    1,554;   -1,045
573,021;26163,149;    2,099;   -2,773
573,602;26664,638;   -1,265;    0,318
574,183;27593,481;   -2,083;    2,227
574,764;27698,800;   -1,629;    0,409
575,345;28295,030;    0,917;   -0,136
575,926;28909,012;   -0,356;    0,136
576,507;28857,725;    1,099;   -0,227
577,088;30018,511;    3,099;    1,682
577,669;30053,653;    0,735;    1,955
578,250;30841,572;    0,644;   -1,045
578,831;31504,416;   -1,356;   -2,227
579,412;31725,903;   -0,810;    0,955
579,993;32599,702;    1,008;    0,227
580,573;32949,829;   -0,629;   -0,955
581,154;31862,235;    0,735;   -0,591
581,735;32764,981;    0,644;    0,773
582,315;32274,617;   -0,629;    2,136
582,896;32594,618;   -0,174;    1,227
583,477;32054,905;    0,189;    1,227
584,057;32224,489;    0,553;    0,955
584,638;32547,884;    2,553;    2,318
585,218;32537,389;   -0,538;    2,682
585,799;32682,659;    0,281;   -0,227
586,379;32656,420;    0,372;    1,591
586,959;31385,363;    0,735;    0,318
587,540;30721,126;   -0,629;    2,227
588,120;30270,916;    1,007;   -0,045
588,700;29235,756;    2,553;    2,136
589,281;29576,402;    0,462;   -0,955
589,861;29576,642;    0,099;   -1,682
590,441;29313,320;    2,371;   -2,682
591,021;28347,152;   -0,265;   -2,591
591,601;28556,421;   -0,537;    0,500
592,181;28531,163;   -0,719;   -0,773
592,761;27837,332;    0,007;    1,409
593,341;27763,781;   -0,901;    0,045
593,921;27772,570;   -0,265;    1,591
594,501;27673,304;   -0,538;    1,318
595,081;27474,775;    0,917;   -0,318
595,661;27834,337;   -1,447;    0,955
596,240;28346,180;   -0,537;    0,136
596,820;28006,857;    0,372;    1,955
597,400;28198,264;    2,008;    0,773
597,980;28410,632;    2,008;    1,045
598,559;28412,888;    2,735;   -0,227
599,139;28120,459;   -0,174;   -1,227
599,718;28034,278;   -0,174;   -0,409
600,298;28239,010;    0,735;    0,682
600,877;28447,463;    2,917;    1,409
601,457;28796,776;    2,281;    1,136
602,036;28710,053;    0,190;    2,045
602,616;28937,718;    0,644;    1,682
603,195;29232,135;   -0,355;    3,500
603,774;28835,766;   -0,901;    2,045
604,354;28711,743;    0,826;   -0,500
604,933;28179,590;    0,463;    1,864
605,512;28291,906;    3,554;    0,591
606,091;28373,345;   -0,537;    3,773
606,671;29190,294;    0,281;    0,773
607,250;28286,848;    1,644;    3,136
607,829;28509,839;    2,372;    3,227
608,408;28381,214;    1,190;    2,591
608,987;27358,533;    1,281;    3,409
609,566;27693,887;   -1,265;   -2,500
610,145;27803,610;   -1,082;    0,682
610,723;28177,659;    4,372;    6,864
611,302;27391,040;   -0,446;    1,682
611,881;26936,893;    5,008;   11,227
612,460;27789,329;    1,645;    3,955
613,039;28207,000;   -0,082;    2,045
613,617;26929,342;    1,736;    4,773
614,196;27110,360;    1,099;    1,227
614,775;27490,778;    1,009;    2,409
615,353;27399,880;    0,736;    0,864
615,932;27132,680;    0,100;    2,409
616,510;27751,592;    0,554;    0,591
617,089;27234,025;    7,100;   17,591
617,667;27033,411;    2,372;    6,136
618,246;26863,573;   -1,537;    1,318
618,824;26985,740;   -3,355;   -0,955
619,402;26575,835;   -2,900;   -1,773
619,981;27086,142;   -0,173;   -1,045
620,559;26920,981;    0,009;    1,682
621,137;26445,702;   -0,718;    1,864
621,715;26481,933;   -1,173;   -0,682
622,293;26397,212;   -0,537;   -0,773
622,871;26877,161;   -0,718;    0,500
623,450;26459,334;    0,373;   -0,864
624,028;26321,826;    0,191;   -0,955
624,606;25931,083;   -1,718;    1,682
625,183;26365,535;   -1,536;   -1,136
625,761;25914,713;    1,009;    1,136
626,339;26246,164;    1,373;    2,591
626,917;26613,349;   -0,172;   -0,045
627,495;26645,757;   -0,354;    1,318
628,073;26082,996;   -0,263;    2,864
628,650;25804,614;    0,100;    2,136
629,228;26242,257;    0,373;    4,409
629,806;25635,987;    2,282;    1,136
630,383;25926,881;    1,464;   -0,318
630,961;25715,746;    2,555;   -0,955
631,539;25436,386;    2,464;    0,227
632,116;24815,837;   11,373;   15,409
632,694;25310,162;    2,555;    6,500
633,271;25671,782;    0,828;    2,682
633,848;25629,207;    1,828;    2,045
634,426;25623,070;   -1,081;    1,773
635,003;24766,791;    1,101;   -0,409
635,580;25084,773;    1,192;    3,682
636,158;25663,954;    3,737;    1,227
636,735;25608,996;    0,555;   -0,500
637,312;25768,469;   -0,809;   -0,682
637,889;25825,926;   -4,354;   -0,682
638,466;25327,656;   -3,990;   -0,409
639,043;25328,652;    2,101;   -1,136
639,620;25632,616;   -2,262;   -0,955
640,197;25928,190;    1,100;    1,682
640,774;26124,701;   -0,172;    1,136
641,351;26548,484;    0,737;    1,136
641,928;25969,631;   -0,627;    1,409
642,505;25539,687;    0,828;   -0,500
643,082;25686,198;   -1,718;    1,227
643,658;24684,890;   -0,718;    1,500
644,235;25445,583;    1,191;    2,500
644,812;25746,366;    1,918;    0,773
645,388;25514,877;   -0,991;    1,409
645,965;25611,569;   -0,809;    1,682
646,542;25657,898;   -1,445;   -0,227
647,118;25656,772;    1,009;   -0,955
647,695;25936,737;   -0,263;    1,136
648,271;25822,066;   -0,536;    0,500
648,848;26168,032;    0,736;    2,227
649,424;25955,451;    0,827;    1,318
650,000;25769,780;   -0,354;   -1,045
650,577;25584,109;   -0,627;   -0,955
651,153;26008,256;   -1,809;    0,955
651,729;27062,130;    1,191;    0,864
652,305;27333,823;    0,645;    2,773
652,881;32007,697;   -0,082;    1,136
653,458;38953,480;    1,100;    0,227
654,034;42668,355;    0,282;    1,591
654,610;44076,774;    0,554;    0,773
655,186;45487,831;    0,645;    3,045
655,762;45142,887;   -0,991;    0,409
656,338;45095,306;    0,100;    0,136
656,913;46001,181;   -0,082;    0,409
657,489;45299,510;    0,827;   -0,318
658,065;45219,384;   -0,173;   -1,591
658,641;45847,531;   -0,900;   -0,864
659,217;45155,314;   -0,991;    0,409
659,792;44550,552;    0,645;   -0,409
660,368;44758,426;   -2,173;   -0,682
660,944;44388,755;   -2,082;    1,227
661,519;39641,902;   -0,628;    0,409
662,095;33673,686;   -1,719;    0,591
662,670;29131,651;    1,281;   -0,136
663,246;27984,434;    1,009;   -0,409
663,821;27332,309;    0,281;    1,682
664,396;26815,910;    0,009;    1,864
664,972;27109,239;    0,009;   -0,500
665,547;27371,841;    1,372;    0,136
666,122;27463,260;   -1,082;    0,318
666,698;27747,953;   -0,173;    0,318
667,273;27116,463;   -0,173;    0,136
667,848;27863,974;    2,372;    1,500
668,423;27683,757;    2,190;    2,318
668,998;28298,632;    2,827;   -0,682
669,573;28792,779;   -3,264;   -1,500
670,148;28651,744;   -1,446;   -0,682
670,723;28453,436;   -1,810;    0,318
671,298;28853,311;    2,372;    1,045
671,873;28971,730;   -0,082;   -0,136
672,448;28898,423;    0,645;    0,136
673,023;29278,479;   -1,992;   -0,227
673,597;29612,353;    0,827;    2,318
674,172;29401,046;   -0,355;    0,318
674,747;28850,102;    0,372;   -1,045
675,321;28668,885;   -0,628;    3,318
675,896;28229,214;    0,645;    1,045
676,471;29214,543;    2,645;    1,591
677,045;28976,235;   -1,264;    0,682
677,620;29057,019;    0,190;    1,136
678,194;29327,711;   -2,628;    1,136
678,769;28844,313;   -1,083;   -0,318
679,343;29167,369;   -0,628;    1,773
679,917;29078,062;   -1,446;    1,955
680,492;29167,299;    0,826;    3,227
681,066;29333,628;    3,372;    0,409
681,640;29368,866;    1,463;   -0,318
682,214;30191,831;    0,735;    0,500
682,788;29689,888;   -1,356;   -0,773
683,363;29606,944;   -1,810;    1,682
683,937;29361,363;   -1,719;   -0,318
684,511;30054,965;    0,463;   -0,591
685,085;29765,839;   -1,356;    0,318
685,659;29527,986;   -2,538;    0,864
686,232;29832,770;   -0,356;   -0,318
686,806;29508,462;   -0,901;    0,409
687,380;30113,791;   -0,174;    0,591
687,954;30320,483;   -1,174;    1,136
688,528;30072,449;   -0,719;    1,955
689,101;30864,777;   -3,992;    1,045
689,675;30443,379;   -0,356;   -0,136
690,249;29821,253;   -0,719;    0,409
690,822;30085,673;    0,280;    0,318
691,396;30222,547;   -0,265;    1,227
691,969;29686,149;    1,280;    0,136
692,543;30149,387;   -0,447;   -1,955
693,116;29744,807;   -0,265;   -1,409
693,690;29670,590;    0,099;    0,500
694,263;30208,555;   -1,083;    2,955
694,836;30223,702;    1,371;    3,591
695,410;28909,304;   -0,265;    1,773
695,983;29379,905;    0,189;    0,591
696,556;29360,961;   -0,447;   -1,045
697,129;29721,654;   -0,356;    1,409
697,703;29311,528;   -1,629;    1,955
698,276;29270,130;    1,462;   -0,773
698,849;29163,640;    1,280;    1,409
699,422;29545,242;   -1,083;    0,591
699,995;29226,389;    0,007;    0,136
700,568;29725,445;   -0,629;    3,045
701,140;29781,956;   -2,811;    1,682
701,713;29519,012;   -0,174;    2,409
702,286;29240,159;   -0,538;    0,864
702,859;29113,033;   -0,902;   -0,591
703,432;28294,180;    0,825;    0,682
704,004;28779,509;    0,462;    0,318
704,577;28632,202;   -0,629;    0,136
705,150;29205,712;    0,189;    2,500
705,722;28955,041;   -0,356;   -3,227
706,295;28794,733;   -0,175;   -0,591
706,867;28597,881;   -0,175;    1,955
707,440;28783,937;   -1,720;   -0,409
708,012;29155,447;    0,462;    0,591
708,584;29017,503;    2,462;    0,227
709,157;29309,559;    1,825;   -0,591
709,729;28905,070;    2,280;    2,045
710,301;29800,126;    0,734;    0,045
710,874;29778,728;   -1,447;   -0,227
711,446;28710,875;    0,371;    0,864
712,018;28572,931;    0,098;    0,500
712,590;28264,896;   -1,993;    1,682
713,162;28850,407;    0,825;    1,318
713,734;29100,645;    1,825;   -2,045
714,306;28999,792;   -1,902;   -0,409
714,878;27653,212;    0,825;    0,864
715,450;28479,722;    0,643;    0,864
716,022;28757,778;    1,552;    1,318
716,593;28853,743;    0,189;    0,591
717,165;28817,345;   -3,175;   -1,227
717,737;28540,674;    0,280;    0,409
718,309;28189,003;    0,280;   -0,045
718,880;28183,695;   -0,539;   -1,409
719,452;28388,751;   -0,175;   -1,591
720,024;27929,353;    0,734;   -0,591
720,595;28521,318;   -2,902;    0,955
721,167;28057,738;    0,370;   -2,045
721,738;27618,885;   -0,812;   -1,045
722,309;27581,123;   -0,993;   -1,227
722,881;27404,361;   -1,357;    0,773
723,452;28000,508;   -2,630;    2,864
724,023;28139,109;   -0,721;    2,682
724,595;27929,438;    0,007;    0,682
725,166;27671,949;    0,007;   -0,409
725,737;27337,369;    1,734;    0,227
726,308;27426,152;   -0,266;    0,318
726,879;27899,481;   -1,630;    1,227
727,450;27754,991;    0,552;   -0,045
728,021;27713,048;    3,097;    0,682
728,592;27450,467;    0,734;    0,500
729,163;27786,614;    0,643;   -0,136
729,734;27810,579;    0,188;   -0,227
730,305;28167,181;    1,734;    0,136
730,876;28538,874;    0,188;    2,955
731,447;28218,021;    2,188;    2,682
732,017;28349,713;    1,097;    1,864
732,588;27781,405;    0,734;    1,227
733,159;28024,462;    0,643;   -1,045
733,729;27817,518;    0,006;    0,409
734,300;27070,574;    0,915;    0,864
734,870;27540,266;    3,461;    0,591
735,441;28103,959;    0,370;   -0,591
736,011;27876,560;    0,643;   -1,591
736,582;27832,253;   -0,812;    0,045
737,152;27321,400;   -1,721;   -2,045
737,722;27736,092;   -0,267;   -0,682
738,293;27422,785;   -1,358;    1,318
738,863;27325,205;    2,461;    2,318
739,433;27091,442;    5,279;    0,318
740,003;27739,408;   -0,994;   -0,682
740,573;27170,918;    2,097;   -1,591
741,143;27078,065;   -1,085;    0,318
741,713;27859,758;    1,188;   -0,500
742,283;27610,814;    0,915;    1,591
742,853;27371,597;    1,915;    1,591
743,423;26832,199;    1,733;    0,045
743,993;26914,800;   -0,358;    1,500
744,563;26273,038;    0,097;   -0,864
745,133;26228,731;   -0,812;   -0,864
745,702;26956,605;   -0,267;    1,773
746,272;26200,298;   -0,176;    0,591
746,842;25951,172;   -1,358;   -0,591
747,411;26379,773;   -0,267;   -0,318
747,981;26571,284;    0,097;    0,500
748,551;26592,431;    2,278;   -1,045
749,120;26401,578;    0,642;   -0,227
749,690;26794,271;   -0,631;    2,409
750,259;27146,509;    1,369;    2,955
750,828;27075,837;    1,551;   -1,955
751,398;27325,621;    1,278;   -0,045
751,967;26789,677;    2,187;    0,409
752,536;27036,915;   -0,813;   -0,227
753,105;27443,698;    0,096;    0,227
753,675;27301,027;    0,096;    1,773
754,244;27232,447;   -0,904;    3,591
754,813;27262,685;    0,551;    1,227
755,382;26800,014;    0,460;    0,955
755,951;27420,070;    1,551;    3,682
756,520;26935,853;   -0,085;    1,864
757,089;27515,545;    0,278;    0,500
757,658;27676,874;    1,733;    1,227
758,227;27678,203;    1,096;    0,318
758,795;27962,441;    1,187;    1,136
759,364;28134,952;   -0,086;   -0,591
759,933;27138,826;   -1,176;   -0,045
760,501;26650,700;    0,733;   -1,318
761,070;27138,120;   -2,813;   -1,409
761,639;27849,903;   -1,904;    1,318
762,207;27180,596;    1,551;   -0,955
762,776;27108,470;    0,369;    0,864
763,344;27114,072;   -0,995;    0,591
763,913;26212,219;   -0,722;    1,409
764,481;26932,820;    1,005;   -0,136
765,049;26704,604;   -1,358;    1,409
765,618;26582,296;   -0,086;    0,318
766,186;26665,534;    0,278;    0,136
766,754;26875,136;    0,005;    1,864
767,322;25898,555;   -1,995;    0,409
767,890;25922,703;   -0,722;   -1,773
768,459;26364,850;   -2,177;   -0,318
769,027;26489,178;    1,641;    3,409
769,595;25438,416;    3,278;    2,591
770,163;25846,018;    3,823;    2,955
770,730;25649,438;    0,732;   -0,136
771,298;25493,676;    0,187;   -1,409
771,866;25539,277;   -1,541;    4,955
772,434;25923,788;   -0,631;   -1,864
773,002;26090,844;    0,005;    0,682
773,569;25709,355;    0,914;    1,682
774,137;25495,774;   -0,268;   -0,045
774,705;26330,012;    0,278;   -0,136
775,272;25831,614;    0,641;    0,682
775,840;25567,670;   -0,177;    2,682
776,407;25130,544;    0,277;    1,955
776,975;24775,964;   -0,632;    0,318
777,542;25785,656;   -1,086;   -0,045
778,110;25588,167;   -1,268;   -0,045
778,677;25285,587;   -2,359;   -0,864
779,244;25026,461;    2,186;    1,045
779,812;25139,517;    1,823;    0,864
780,379;24977,301;    0,005;    1,136
780,946;25262,448;    1,005;   -0,773
781,513;25572,322;   -1,450;    0,318
782,080;24881,651;   -0,086;    2,864
782,647;25596,161;   -0,268;    3,045
783,214;25176,217;   -0,177;    3,864
783,781;24757,728;   -0,723;   -0,682
784,348;24675,966;   -0,632;    1,500
784,915;25169,022;   -3,177;    0,318
785,482;24902,533;    1,368;    2,591
786,049;25338,953;    0,186;   -0,591
786,615;25495,372;    0,277;   -0,955
787,182;25191,883;    0,186;   -0,682
787,749;24860,575;   -2,814;    1,409
788,315;24204,086;   -1,632;   -0,409
788,882;24490,597;    1,550;   -1,227
789,448;25201,653;    1,732;   -0,955
790,015;25224,164;    1,095;    3,227
790,581;24749,583;    1,459;    0,227
791,148;24691,548;    0,641;    1,045
791,714;24899,877;   -0,541;    3,136
792,280;24566,570;    0,186;    1,591
792,847;24135,535;    0,550;    2,500
793,413;24724,500;   -0,269;   -0,318
793,979;24231,193;    3,459;   -1,318
794,545;24326,976;    4,459;    2,682
795,111;23749,305;    2,186;    1,318
795,678;23902,906;    0,731;   -1,682
796,244;23539,417;    3,368;    0,136
796,810;24132,564;    1,731;    0,773
797,375;23827,984;    0,549;   -2,136
797,941;23849,131;   -0,541;    0,591
798,507;23990,732;   -0,451;   -0,955
799,073;23534,425;   -0,360;    0,591
799,639;23569,936;   -2,632;    3,136
800,205;23639,719;    0,095;    2,682
800,770;23188,321;    0,640;    1,773
801,336;23283,649;    1,368;   -0,955
801,901;22984,160;    4,549;    3,136
802,467;23576,034;   -0,542;    2,045
803,033;22869,272;   -0,087;    0,864
803,598;23154,783;    1,913;   -1,045
804,163;23112,021;    1,095;   -0,318
804,729;23071,986;   -0,178;    1,136
805,294;23520,860;    0,822;    2,227
805,859;23312,189;    0,731;   -0,409
806,425;22781,336;    1,186;    2,682
806,990;22421,665;    2,186;    4,318
807,555;22888,358;   -1,451;    2,591
808,120;22800,141;    0,822;   -0,409
808,685;22869,833;    0,185;   -2,500
809,250;22381,799;    0,004;   -0,500
809,815;22630,127;    1,913;    0,682
810,380;23192,184;   -0,269;    1,591
810,945;23728,512;   -1,087;    2,045
811,510;22901,568;    2,094;    1,591
812,075;22638,352;   -0,633;   -1,409
812,640;22638,226;    2,003;    1,409
813,204;22665,282;    0,822;   -0,227
813,769;23146,884;    2,094;   -0,045
814,334;22596,758;    0,458;    0,864
814,898;22674,905;    0,367;    0,591
815,463;22515,689;    1,276;   -0,773
816,027;22442,290;   -0,724;   -2,318
816,592;22554,164;    0,640;   -2,045
817,156;22045,675;    2,094;    1,136
817,721;21939,913;    4,276;    2,318
818,285;21885,605;    2,912;    1,500
818,849;22548,843;   -1,451;    1,682
819,414;22430,899;   -0,269;    2,955
819,978;22031,592;   -1,269;    1,773
820,542;22573,830;    2,003;    0,500
821,106;22279,704;   -0,815;    0,682
821,670;22374,851;   -0,815;    2,591
822,234;22128,362;   -0,270;    1,409
822,798;21488,054;    0,003;    0,500
823,362;21420,565;   -0,633;    4,227
823,926;20782,803;    0,094;    1,136
824,490;20967,768;   -0,997;   -0,682
825,054;21434,461;   -0,088;   -1,136
825,618;21016,153;   -1,542;   -1,500
826,181;21039,300;    0,458;   -1,318
826,745;20915,720;    1,367;   -1,045
827,309;21238,594;    1,185;    1,318
827,872;20644,377;    1,367;    0,955
828,436;21640,797;    1,185;   -0,773
828,999;21700,672;   -0,997;    1,227
829,563;20480,091;   -0,179;    1,136
830,126;20303,420;   -0,179;   -0,591
830,690;20328,203;   -1,997;    2,864
831,253;19859,532;   -0,543;    2,227
831,816;20019,861;   -1,906;    0,500
832,380;19944,826;    0,185;    0,864
832,943;20117,973;   -1,361;   -0,500
833,506;19598,666;    2,639;   -1,227
834,069;20415,267;    3,912;   -0,955
834,632;20501,142;    1,730;    1,318
835,195;20396,016;    1,003;    0,955
835,758;19541,163;   -0,997;    1,955
836,321;19421,310;    0,730;   -1,045
836,884;19490,912;   -0,725;   -0,955
837,447;19478,150;   -2,816;    1,773
838,010;19799,115;    0,366;    3,227
838,573;20086,171;   -1,179;    0,773
839,135;20043,682;   -1,361;   -0,955
839,698;19512,465;    1,275;    0,409
840,261;19054,066;    1,003;   -0,227
840,823;18883,486;   -0,543;    0,864
841,386;19138,633;   -0,452;   -2,409
841,948;19024,871;   -1,361;    1,773
842,511;18786,200;    0,912;    1,682
843,073;18906,165;    1,912;    0,227
843,636;18723,221;   -0,361;   -0,227
844,198;18702,823;    0,911;    0,591
844,760;18784,061;    1,093;    1,955
845,322;18455,026;    0,548;    1,136
845,885;18888,173;    0,730;    0,591
846,447;19310,229;   -1,998;    0,227
847,009;18893,831;    1,911;   -0,682
847,571;19231,796;    0,820;   -2,045
848,133;19294,307;   -1,089;   -1,864
848,695;19129,726;   -0,543;    1,409
849,257;18678,055;   -1,089;   -1,682
849,819;18865,020;   -0,998;   -0,409
850,381;18880,167;   -0,725;   -0,864
850,942;19236,496;    1,093;   -0,591
851,504;19232,552;    1,184;    0,227
852,066;19251,154;    1,275;   -1,591
852,628;18779,028;   -0,180;    1,955
853,189;18302,539;    1,638;    2,682
853,751;18463,140;   -0,907;    1,409
854,312;18286,106;   -0,453;   -1,682
854,874;18755,071;   -2,089;   -0,773
855,435;19273,581;   -0,907;   -1,682
855,997;19417,001;   -1,816;   -0,136
856,558;18754,966;    0,366;    1,773
857,119;18872,113;    0,820;    2,864
857,681;18528,806;    0,002;    0,318
858,242;18553,953;    1,911;   -2,136
858,803;19025,918;    0,456;   -0,773
859,364;19571,974;    0,184;   -4,773
859,925;18908,030;   -2,453;   -0,955
860,486;18791,723;   -0,453;   -0,955
861,047;18495,870;   -0,544;   -1,227
861,608;18310,653;   -1,089;   -0,773
862,169;18436,437;    0,638;   -0,045
862,730;18252,038;    0,456;    1,409
863,291;18483,367;   -0,635;   -0,500
863,852;18842,605;   -0,635;    1,955
864,412;18301,479;   -0,271;   -0,864
864,973;16853,263;   -0,089;    0,500
865,534;16738,682;   -1,726;    0,227
866,094;18227,557;    1,820;    0,227
866,655;17882,249;    1,274;    3,318
867,215;18139,487;    0,274;    0,136
867,776;18039,634;    0,547;   -0,136
868,336;18157,054;   -1,453;    0,136
868,897;17592,655;    2,638;    1,682
869,457;17344,257;    1,365;    0,318
870,017;17569,495;    0,547;   -1,227
870,578;18087,006;   -0,817;    0,773
871,138;17755,243;   -2,089;   -0,955
871,698;17302,118;   -0,817;   -1,318
872,258;17184,356;   -0,453;   -2,864
872,818;17525,321;    2,729;    0,045
873,378;17519,922;    0,638;    1,045
873,938;17086,342;    0,547;    0,500
874,498;17428,853;    0,274;   -1,955
875,058;17262,636;    2,183;    1,773
875,618;17120,056;    1,910;   -2,682
876,177;17090,021;    1,274;    0,136
876,737;16692,441;   -0,090;    1,955
877,297;16712,224;    0,183;    1,955
877,856;16701,099;   -0,362;    0,318
878,416;16639,155;    1,183;   -0,136
878,976;16894,120;   -1,817;    0,409
879,535;17029,812;    0,092;    3,136
880,095;16732,687;   -0,544;    0,045
880,654;16907,743;   -1,090;    1,318
881,213;16981,344;    2,456;    1,500
881,773;16677,128;    2,637;    2,682
882,332;17035,638;    3,365;    5,136
882,891;16858,422;    3,092;    2,136
883,451;17317,660;   -1,272;    1,682
884,010;16751,989;   -2,908;   -0,409
884,569;16835,772;   -0,999;   -0,045
885,128;16957,101;    2,819;   -1,864
885,687;17088,702;    4,455;    0,682
886,246;16749,940;    1,455;    2,136
886,805;16517,360;    2,455;    2,045
887,364;16821,780;   -0,999;   -0,500
887,922;17224,927;   -1,181;    0,045
888,481;16682,619;   -1,545;    0,591
889,040;16960,766;    1,183;    2,136
889,599;17641,641;    2,455;    1,409
890,157;17713,515;    1,455;    2,409
890,716;17400,935;   -0,090;    0,227
891,274;17210,354;    0,092;   -1,136
891,833;17677,865;    1,546;    0,864
892,391;17501,739;   -0,454;    0,500
892,950;17602,886;    1,819;   -0,773
893,508;17972,306;    0,455;   -0,409
894,067;17324,089;    0,637;    0,136
894,625;17230,873;   -0,636;   -1,500
895,183;17437,383;   -0,363;   -0,682
895,741;17337,167;    1,728;   -1,773
896,299;17192,677;   -0,545;   -2,409
896,858;17347,279;    0,819;   -1,591
897,416;17460,972;    2,728;   -1,318
897,974;17206,028;    1,819;    0,318
898,532;17381,266;    6,091;    2,682
899,089;17289,685;    2,091;   -0,682
899,647;17293,378;   -1,454;    1,318
900,205;17026,434;    1,182;    1,045
900,763;17241,672;   -0,454;    0,227
901,321;17269,092;    2,364;   -1,409
901,878;16659,420;   -1,000;   -0,773
902,436;16547,113;   -1,363;    1,318
902,994;16923,805;    4,728;    3,682
903,551;16316,316;    0,728;    0,409
904,109;16710,281;    0,182;   -1,409
904,666;16315,065;    2,455;    1,045
905,224;16160,030;    0,182;   -0,409
905,781;15884,268;    0,727;   -0,318
906,338;15965,960;   -1,363;    1,045
906,895;15914,653;    0,637;    2,045
907,453;15829,982;    1,727;    1,136
908,010;15892,947;   -0,909;    0,409
908,567;15521,094;    1,273;    0,591
909,124;15024,423;    0,364;   -1,500
909,681;15087,933;   -2,909;    0,682
910,238;15222,626;    0,636;   -1,318
910,795;15556,500;   -0,273;   -1,136
911,352;15150,318;   -2,909;   -2,682
911,909;14591,045;   -1,364;   -0,864
912,466;15088,500;   -3,182;    1,500
913,022;14656,045;   -1,636;    0,500
913,579;14998,500;   -0,909;    2,045
914,136;14692,045;    1,636;    0,955
914,692;15040,045;    0,091;   -1,227
915,249;14629,773;    1,455;    0,409
915,806;14884,045;    0,182;    1,955
916,362;14646,591;    1,909;    1,864
916,918;14166,227;    2,000;    1,045
917,475;14108,409;   -1,182;    0,955
918,031;14209,318;    3,364;   -0,045
918,587;13658,864;   -0,909;   -0,318
919,144;13896,682;   -2,273;    0,227
919,700;14212,318;    1,727;    0,773
920,256;13780,136;    0,727;    0,045
920,812;13403,409;   -0,727;   -1,045
921,368;13389,500;   -1,727;   -1,045
921,924;13054,682;    0,182;   -0,136
922,480;12641,136;   -0,545;    1,227
923,036;13235,045;    1,273;    1,955
923,592;13194,591;    0,455;    0,318
924,148;13084,682;    0,455;   -0,955
924,704;12377,318;   -1,364;   -0,409
925,259;12643,591;   -0,273;    0,591
925,815;12432,045;    1,455;    0,500
926,371;11936,591;    2,909;    1,409
926,926;11819,409;    2,091;    0,591
927,482;11437,591;   -1,364;    0,773
928,037;11335,591;    0,909;    2,045
928,593;11642,682;    1,636;    1,045
929,148;11468,500;   -1,818;   -1,500
929,704;10966,864;   -1,455;   -0,500
930,259;11180,136;    0,091;   -0,136
930,814;10259,136;   -0,818;    1,955
931,369; 9913,864;    1,091;   -0,773
931,925; 9788,864;   -0,091;    0,136
932,480; 9724,773;   -2,818;   -2,591
933,035; 9607,318;    0,545;   -0,318
933,590; 9340,045;    0,364;   -1,773
934,145; 8988,227;   -1,364;   -0,318
934,700; 9364,227;    0,455;   -0,591
935,255; 9153,318;   -0,091;    0,045
935,809; 8404,227;    3,182;    0,864
936,364; 7540,227;   -0,455;   -0,136
936,919; 7523,955;    0,455;   -1,773
937,474; 7428,500;    1,455;    0,136
938,028; 7165,955;   -1,636;    1,136
938,583; 6624,500;    1,818;    4,682
939,138; 6916,500;    2,091;    2,136
939,692; 6375,409;    1,636;   -1,136
940,247; 6049,864;   -0,727;   -1,045
940,801; 5610,318;   -0,636;    0,227
941,355; 5484,136;   -0,364;    2,591
941,910; 5145,227;   -0,273;   -2,136
942,464; 5257,318;   -0,818;   -0,318
943,018; 5033,500;    1,000;   -0,227
943,572; 4973,136;    2,545;   -0,682
944,126; 4390,682;    0,091;   -0,409
944,681; 4308,773;    3,091;    0,227
945,235; 4277,500;    1,000;   -0,591
945,789; 4198,864;    0,364;   -1,864
946,342; 4312,136;    0,455;   -0,591
946,896; 4109,045;   -2,273;    0,955
947,450; 3864,682;    1,545;   -0,227
948,004; 4062,682;    1,727;   -0,045
948,558; 4068,136;    0,273;   -0,864
949,111; 3974,864;   -0,273;   -0,318
949,665; 4003,955;    1,636;   -0,682
950,219; 3879,318;   -0,091;   -1,045
950,772; 3971,773;   -1,909;    1,864
951,326; 3867,864;    0,545;   -0,955
951,879; 3984,591;    0,727;   -2,318
952,433; 4003,773;    0,000;    2,227
952,986; 3824,682;    2,909;    0,682
953,539; 3800,591;   -0,273;    0,591
954,093; 3719,773;    0,545;   -1,318
954,646; 3863,773;    0,909;    1,318
955,199; 3671,591;    0,000;   -0,500
955,752; 3553,318;   -0,455;    1,773
956,305; 3511,136;   -0,091;    2,955
956,858; 3699,045;    0,818;   -0,318
957,411; 3845,136;   -0,545;    2,136
957,964; 3665,136;    1,364;    2,136
958,517; 3682,773;   -1,545;    3,136
959,070; 3504,318;   -0,455;    1,955
959,623; 3564,409;    1,091;    1,500
960,176; 3356,136;    1,727;    2,045
960,728; 3333,955;   -2,727;    0,773
961,281; 3382,773;    0,545;    0,500
961,834; 3431,045;   -0,909;    0,864
962,386; 3342,682;    1,727;    1,045
962,939; 3273,773;    0,364;   -0,318
963,491; 3432,136;    0,455;    1,136
964,043; 3291,591;    1,182;    2,409
964,596; 3405,864;   -1,000;    2,227
965,148; 3232,227;   -1,000;    1,773
965,700; 3153,318;    1,091;   -0,227
966,253; 3314,227;   -0,636;    0,318
966,805; 3152,227;   -2,273;    0,773
967,357; 3199,045;    1,091;   -1,500
967,909; 3153,773;    0,455;   -1,227
968,461; 3262,136;    0,545;    3,136
969,013; 3199,227;   -0,182;   -0,864
969,565; 3284,682;   -0,455;   -1,136
970,117; 3346,591;   -0,364;    1,045
970,669; 3181,227;    0,182;   -0,136
971,220; 3040,227;   -0,455;   -1,500
971,772; 2979,773;   -0,636;   -0,318
972,324; 3096,500;    0,091;   -0,500
972,876; 3030,318;    0,818;   -0,045
973,427; 3174,864;    1,909;   -1,045
973,979; 3139,500;   -0,727;   -2,500
974,530; 3172,045;    1,818;    1,318
975,082; 3201,409;   -0,545;    1,682
975,633; 3073,864;    1,091;    1,682
976,184; 3211,500;    0,909;    0,773
976,736; 3000,136;    0,091;    0,227
977,287; 2810,682;   -0,909;   -0,500
977,838; 2991,409;    0,909;   -0,318
978,389; 3065,682;   -1,000;   -0,500
978,940; 2914,864;    0,545;   -0,409
979,491; 2934,591;    0,091;   -0,500
980,042; 2933,409;    0,182;    3,045
980,593; 2968,773;   -2,545;    0,227
981,144; 3009,591;    2,545;   -0,500
981,695; 2985,318;    1,455;    1,500
982,246; 2946,045;   -0,273;    1,045
982,797; 3097,682;   -1,727;    0,682
983,347; 3209,409;    0,364;    0,591
983,898; 3378,500;    3,091;    0,409
984,449; 3202,500;    2,182;    0,773
984,999; 3101,955;    1,455;   -1,136
985,550; 2874,409;    0,182;   -0,318
986,100; 2910,773;   -0,455;   -0,318
986,651; 2956,500;   -0,818;    0,045
987,201; 2917,773;   -1,000;   -0,591
987,751; 2986,955;    0,818;    2,864
988,302; 2982,500;    2,636;    1,500
988,852; 3007,045;    0,455;   -1,136
989,402; 3056,045;    0,091;    0,682
989,952; 2971,591;   -2,182;    0,864
990,502; 3066,227;   -0,091;    0,682
991,052; 3023,773;   -0,727;    0,045
991,602; 2890,500;   -2,909;    1,318
992,152; 2909,318;    0,455;    0,682
992,702; 2894,955;    1,364;   -0,045
993,252; 2811,227;   -3,000;   -0,500
993,802; 2894,955;   -0,273;    1,318
994,352; 3125,045;   -1,545;    1,136
994,901; 3222,773;   -0,182;    3,227
995,451; 3139,500;   -0,182;    0,318
996,000; 3210,227;    1,636;    0,318
996,550; 2912,045;    2,273;    0,227
997,100; 2925,864;    1,273;   -0,045
997,649; 3195,409;    2,182;    0,955
998,198; 2850,318;    1,727;   -1,500
998,748; 3038,318;    1,091;   -2,318
999,297; 2946,136;   -0,818;   -0,409
999,846; 3011,318;    1,000;   -0,773
1000,395; 3060,500;   -0,818;    0,500
1000,945; 3009,773;    1,818;   -0,773
1001,494; 3086,500;    2,364;    0,682
1002,043; 3089,591;    4,636;    0,864
1002,592; 2925,227;   -1,091;    1,955
1003,141; 3067,864;   -0,455;   -0,682
1003,690; 2928,773;    1,727;    0,500
1004,238; 3012,227;    1,455;   -0,045
1004,787; 2652,864;    1,364;    1,227
1005,336; 2868,591;    0,364;    0,682
1005,885; 3036,682;    1,364;   -2,773
1006,433; 3161,955;    0,545;    0,955
1006,982; 3209,318;    0,455;    1,682
1007,531; 3107,591;   -1,818;   -0,227
1008,079; 3081,318;   -2,273;    0,500
1008,627; 3209,318;   -1,455;    0,409
1009,176; 2946,318;    0,000;   -1,955
1009,724; 3005,591;    1,091;    0,864
1010,273; 3062,864;    1,273;    0,500
1010,821; 3174,136;    0,091;    1,409
1011,369; 2928,500;   -1,364;    1,318
1011,917; 2888,864;   -1,364;   -0,591
1012,465; 3180,136;    1,273;   -1,591
1013,013; 3300,955;    2,091;   -1,682
1013,561; 3162,500;    0,455;   -0,773
1014,109; 3219,318;   -1,909;    1,682
1014,657; 3081,318;    0,364;    0,591
1015,205; 3197,318;    1,636;   -0,955
1015,753; 3228,864;   -0,545;   -1,409
1016,301; 3262,682;   -2,636;    3,045
1016,848; 3280,682;   -1,273;    0,409
1017,396; 3324,409;    2,545;    0,045
1017,944; 3437,955;    1,182;    1,864
1018,491; 3190,864;    0,273;    1,409
1019,039; 3353,864;    0,455;    0,591
1019,586; 3267,136;   -1,364;    1,682
1020,134; 3349,409;    0,455;    1,500
1020,681; 3375,409;    0,182;   -1,136
1021,228; 3386,045;    2,909;   -2,227
1021,776; 3220,773;    1,182;   -1,136
1022,323; 3429,955;    0,455;    0,773
1022,870; 3380,318;   -1,000;   -0,045
1023,417; 3279,773;    2,636;    1,864
1023,964; 3399,955;    2,636;    1,227
1024,511; 3259,409;    1,000;    0,773
1025,058; 3052,773;    3,182;   -0,045
1025,605; 3103,045;   -2,273;    3,136
1026,152; 3351,318;    1,727;   -0,591
1026,699; 3078,682;    1,818;    1,318
1027,245; 3225,682;   -0,091;    0,318
1027,792; 3440,864;   -1,000;    1,409
1028,339; 3322,955;    2,364;   -0,045
1028,885; 3179,591;    1,000;   -0,227
1029,432; 3102,500;   -0,091;    0,227
1029,978; 3183,773;   -1,000;   -1,591
1030,525; 3101,955;    1,000;    0,409
1031,071; 3333,318;   -1,364;    1,136
1031,618; 3438,318;    0,364;    1,682
1032,164; 3240,227;   -0,091;    3,045
1032,710; 3252,409;    1,636;   -1,500
1033,256; 3164,773;   -0,636;   -0,136
1033,803; 3157,500;   -0,545;    1,500
1034,349; 2881,318;   -1,364;    0,136
1034,895; 3037,500;    0,000;   -0,318
1035,441; 3009,955;   -0,818;    0,318
1035,987; 2996,591;   -2,364;   -0,682
1036,533; 3005,227;   -1,455;   -0,955
1037,078; 3204,864;    1,455;    1,682
1037,624; 3026,136;    2,455;   -0,955
1038,170; 3065,500;    0,455;   -0,318
1038,716; 2974,773;    1,636;   -0,409
1039,261; 2876,682;   -2,273;   -0,773
1039,807; 2831,591;   -0,091;    3,409
1040,352; 2874,500;   -1,909;   -0,318
1040,898; 2926,864;   -1,545;   -0,682
1041,443; 2818,864;   -1,455;   -2,591
1041,989; 2845,864;    1,091;    1,591
1042,534; 2728,864;   -0,364;    2,591
1043,079; 2854,318;    2,909;    0,955
1043,625; 2646,864;    1,818;    0,500
1044,170; 2698,045;   -1,364;    1,045
1044,715; 2948,136;    2,455;    0,955
1045,260; 2760,045;    2,182;   -0,955
1045,805; 2796,864;    1,182;   -0,591
1046,350; 2723,591;    1,364;   -0,409
1046,895; 2681,682;    2,909;    1,591
1047,440; 2645,955;    5,364;    0,409
1047,985; 2553,500;    2,818;   -0,955
1048,530; 2458,227;    1,545;    1,227
1049,074; 2533,591;    0,000;    0,318
1049,619; 2515,409;   -1,364;    1,955
1050,164; 2319,045;    0,455;    0,227
1050,708; 2357,136;   -0,455;    0,045
1051,253; 2719,318;    1,273;   -2,227
1051,797; 2418,409;    0,818;   -1,318
1052,342; 2425,136;   -1,182;    1,045
1052,886; 2434,136;    0,364;   -1,409
1053,430; 2323,409;   -1,364;    0,136
1053,975; 2324,955;   -0,818;   -0,318
1054,519; 2316,682;   -0,727;    3,227
1055,063; 2325,045;    0,909;    1,318
1055,607; 2207,773;   -0,182;    0,227
1056,151; 2242,227;    2,909;    1,682
1056,695; 2153,591;    2,273;   -1,136
1057,239; 2215,500;   -1,727;   -0,682
1057,783; 2245,500;    0,818;   -1,500
1058,327; 2181,682;    0,000;    1,409
1058,871; 2412,864;   -0,545;    1,318
1059,415; 2111,864;   -0,818;   -0,045
1059,958; 2382,136;    1,455;    2,591
1060,502; 2090,773;   -1,000;   -0,773
1061,046; 2000,682;    0,364;   -0,955
1061,589; 1978,955;   -3,000;   -1,136
1062,133; 1862,409;   -1,273;    1,864
1062,676; 1801,682;    1,182;    0,864
1063,220; 1797,591;    1,091;    0,500
1063,763; 1818,864;    0,909;    1,136
1064,306; 1900,591;   -0,909;    1,864
1064,849; 1785,318;   -0,909;    0,591
1065,393; 1796,682;    2,000;   -1,500
1065,936; 1910,864;    0,182;   -0,409
1066,479; 1783,864;   -1,455;    1,318
1067,022; 1807,955;   -0,273;   -0,227
1067,565; 1711,136;   -0,091;   -1,318
1068,108; 1755,955;    0,727;   -0,591
1068,651; 1724,955;   -0,636;    1,409
1069,194; 1647,136;   -0,455;   -1,682
1069,736; 1658,409;   -1,273;    0,955
1070,279; 1633,318;   -1,364;   -0,500
1070,822; 1673,773;   -2,000;   -0,318
1071,364; 1759,591;   -0,364;    1,318
1071,907; 1591,045;   -0,727;    3,227
1072,450; 1484,409;    0,000;   -0,045
1072,992; 1482,591;   -0,273;    3,136
1073,535; 1619,227;    2,091;    2,136
1074,077; 1423,682;   -0,727;    2,045
1074,619; 1380,955;   -1,364;    0,591
1075,161; 1419,864;   -1,091;    1,500
1075,704; 1600,864;    1,545;    1,227
1076,246; 1400,864;   -0,182;    0,682
1076,788; 1327,318;   -0,364;    1,773
1077,330; 1407,227;    1,273;    2,136
1077,872; 1353,318;    0,909;    0,955
1078,414; 1569,955;    2,727;    0,773
1078,956; 1310,136;    1,273;   -0,227
1079,498; 1579,227;    1,636;    0,318
1080,040; 1286,500;    1,909;   -1,318
1080,581; 1212,136;    1,636;   -0,318
1081,123; 1149,773;    0,091;   -0,773
1081,665; 1200,227;   -1,182;   -0,955
1082,206; 1502,864;    1,364;   -0,500
1082,748; 1365,500;    0,727;    2,045
1083,289; 1223,227;   -2,000;    1,318
1083,831; 1134,227;   -0,545;    0,227
1084,372; 1177,773;    0,000;    0,591
1084,913; 1179,955;    1,091;    0,864
1085,455; 1150,864;   -1,909;   -2,045
1085,996; 1122,955;   -2,273;    0,136
1086,537; 1142,864;   -0,091;    0,864
1087,078; 1166,773;   -0,909;   -2,136
1087,619; 1217,136;   -1,273;    0,227
1088,160; 1120,409;    0,000;    1,318
1088,701; 1114,591;   -1,091;    0,682
1089,242; 1063,318;    1,364;   -2,227
1089,783; 1153,955;   -0,273;    1,409
1090,324; 1116,591;    0,455;    0,682
1090,865;  999,955;    2,727;   -0,409
1091,405;  954,500;    0,727;    2,227
1091,946;  982,591;    0,182;   -0,955
1092,487;  925,591;    0,818;   -1,409
1093,027; 1094,409;   -1,364;   -1,500
1093,568;  937,591;   -0,364;    1,227
1094,108; 1031,591;    0,273;    1,773
1094,649;  968,591;   -1,182;    0,136
1095,189;  913,864;   -0,636;   -0,682
1095,729;  869,500;   -0,091;    0,955
1096,269;  865,500;    0,727;   -0,955
1096,810; 1192,955;   -1,364;    0,500
1097,350;  998,864;    1,364;   -0,773
1097,890;  908,591;    0,364;    1,227
1098,430; 1173,409;    2,364;    2,864
1098,970; 1032,773;    2,182;    1,682
1099,510;  886,955;    0,545;   -2,318
1100,050;  812,591;    1,000;   -1,591
1100,589;  790,955;   -0,727;   -0,318
1101,129;  919,591;    0,818;   -0,955
1101,669; 1077,955;    1,727;    2,136
1102,209;  887,591;   -0,091;    2,227
1102,748;  850,136;    0,000;    0,955
1103,288;  841,591;    1,273;   -1,227
1103,827;  865,227;    3,091;   -2,227
1104,367;  741,591;   -0,091;   -2,409
1104,906;  705,409;    1,364;   -1,136
1105,445;  780,318;    0,636;   -1,136
1105,985;  725,500;   -0,727;    1,500
1106,524;  769,136;   -1,727;   -0,682
1107,063;  736,773;   -2,727;    1,409
1107,602;  717,682;   -1,909;   -1,500
1108,141;  639,136;   -1,909;    1,500
1108,680;  750,500;   -3,455;   -0,591
1109,219;  683,227;   -0,909;   -0,500
1109,758;  678,591;    0,455;    0,682
1110,297;  647,045;    1,000;   -0,682
1110,836;  589,591;   -0,727;    0,955
1111,375;  761,318;   -2,545;    0,409
1111,913;  775,136;   -1,000;    0,773
1112,452;  711,318;   -0,273;    0,136
1112,991;  592,682;    1,091;    1,955
1113,529;  546,591;   -0,818;   -0,045
1114,068;  624,227;   -0,273;    2,955
1114,606;  526,955;   -0,364;   -0,955
1115,144;  697,227;   -1,273;    1,045
1115,683;  620,318;   -0,727;    0,318
1116,221;  663,955;   -0,455;   -0,864
1116,759;  577,773;    0,636;   -0,864
1117,297;  786,682;    0,000;    1,864
1117,836;  574,773;   -2,182;   -1,227
1118,374;  585,227;    0,182;   -0,682
1118,912;  528,227;    0,909;    2,682
1119,450;  515,409;    1,000;    0,864
1119,988;  571,682;    1,545;    2,136
1120,525; 1035,318;    5,091;    3,318
1121,063;  728,955;    1,182;    1,864
1121,601;  531,773;   -0,909;   -1,227
1122,139;  497,500;   -0,727;   -2,045
1122,676;  693,591;   -0,727;    2,773
1123,214;  621,136;   -1,182;    4,409
1123,751;  426,136;    1,727;    2,227
1124,289;  565,773;   -0,091;   -0,409
1124,826;  428,773;    1,727;    0,227
1125,364;  355,864;    1,727;   -0,955
1125,901;  539,864;    1,182;    1,227
1126,438;  650,136;    0,818;    0,955
1126,975;  385,500;   -0,727;   -0,773
1127,513;  453,318;    0,273;    2,136
1128,050;  352,500;    1,636;   -0,682
1128,587;  449,136;    2,000;   -0,227
1129,124;  488,500;    0,091;    1,318
1129,661;  364,864;    0,273;    0,227
1130,198;  539,227;    1,636;    0,773
1130,734;  475,227;    0,182;    1,409
1131,271;  321,864;   -0,909;    0,864
1131,808;  508,318;    2,909;    3,045
1132,345;  377,773;    1,545;    0,318
1132,881;  246,682;   -1,545;   -1,864
1133,418;  392,318;    0,727;   -1,136
1133,954;  327,227;    2,455;   -2,682
1134,491;  418,318;    1,364;   -0,773
1135,027;  311,409;    2,364;    0,864
1135,564;  392,864;    0,273;    2,955
1136,100;  374,773;    0,364;    2,136
1136,636;  262,045;   -1,273;   -1,045
1137,172;  366,773;    0,000;   -1,045
1137,708;  280,500;   -1,364;   -1,045
1138,245;  286,318;    1,273;   -1,227
1138,781;  233,591;    1,091;   -3,318
1139,317;  309,682;    1,273;   -1,409
1139,852;  294,591;    3,091;    0,136
1140,388;  410,318;   -1,182;   -0,409
1140,924;  296,318;   -1,091;   -2,227
1141,460;  226,955;   -1,636;    0,136
1141,996;  162,864;   -1,364;    2,682
1142,531;  210,136;    1,364;    3,318
1143,067;  428,409;    1,182;    1,045
1143,602;  483,227;   -0,091;   -0,318
1144,138;  333,682;   -2,636;    1,045
1144,673;  195,864;   -1,455;    1,409
1145,209;  271,773;   -1,909;   -0,318
1145,744;  187,136;   -0,727;    0,864
1146,279;  320,591;    1,818;   -0,136
1146,815;  230,955;    1,545;   -2,682
1147,350;  274,409;   -1,364;    0,045
1147,885;  184,591;   -0,818;   -1,318
1148,420;  184,500;   -2,273;    0,773
1148,955;  167,591;   -1,727;    1,864
1149,490;  192,045;   -0,909;   -1,591
1150,025;  183,318;    0,455;   -1,773
1150,560;  298,045;    1,091;   -0,955
1151,094;  261,864;    1,455;   -0,591
1151,629;  268,773;    1,636;    0,864
1152,164;  199,045;    1,364;    1,318
1152,698;  155,591;   -0,182;   -0,136
1153,233;  104,500;    0,091;   -0,682
1153,767;  148,136;   -3,000;   -2,318
1154,302;  203,955;   -1,455;    1,773
1154,836;  208,773;   -0,455;   -2,136
1155,371;  261,773;   -1,364;    3,682
1155,905;  207,409;   -0,636;    1,682
1156,439;  170,591;   -0,636;   -0,500
1156,973;  205,955;    0,364;    0,318
1157,507;  141,045;   -0,364;    0,682
1158,042;  176,500;   -0,727;    1,045
1158,576;  220,773;    0,182;    1,773
1159,110;  213,227;   -0,818;    2,409
1159,643;  181,500;    0,636;   -0,045
1160,177;  118,227;   -1,545;    1,500

