
Integration time [ms]:   0,040
Averaging Nr. [scans]: 11
Smoothing Nr. [pixels]: 0
Data measured with spectrometer [name]: 7318044SP
Wave   ;Sample   ;Dark     ;Reference
[nm]   ;[counts] ;[counts] ;[counts] 

186,757;   10,610;   31,551;    1,318
187,357;   29,086;   22,551;    0,955
187,958;   11,615;   15,460;   -1,591
188,558;   45,784;    8,915;   -1,227
189,159;   15,097;    6,733;   -4,500
189,759;   -7,393;    7,278;   -3,591
190,360;   -7,948;    2,824;   -2,136
190,960;   20,430;    2,915;   -4,136
191,560;   25,005;    3,189;   -6,591
192,161;  231,731;    4,372;   -3,500
192,761;   93,288;    4,010;   -3,227
193,361;   42,703;    1,556;   -3,773
193,962;   81,053;    2,010;   -2,682
194,562;   13,585;    1,189;   -3,955
195,162;   26,149;   -2,448;   -2,227
195,762;  137,673;   -3,176;   -0,045
196,362;   90,627;    1,370;   -2,500
196,963;    3,086;    2,006;   -0,864
197,563;   50,788;    1,551;   -0,955
198,163;   -2,777;    0,096;   -0,682
198,763;    9,373;    1,733;   -0,500
199,363;   52,898;    3,096;   -0,500
199,963;   33,290;    0,369;    0,409
200,563;   19,097;    2,823;   -1,409
201,163;    5,006;    3,277;   -0,227
201,763;   37,351;    3,732;    0,318
202,363;    3,626;    1,459;    1,500
202,963;   31,749;    1,459;    1,045
203,563;   82,285;    0,277;    0,500
204,162;   18,572;    2,096;   -1,864
204,762;    4,187;    0,550;    0,591
205,362;  -11,999;    3,004;    1,955
205,962;   12,639;    3,096;    1,955
206,562;    5,090;    1,823;    2,318
207,161;   -6,349;   -0,087;    0,318
207,761;   78,485;    1,277;    2,409
208,361;    6,580;   -0,268;    1,409
208,960;   27,498;    0,459;    1,500
209,560;   22,198;    1,277;    1,591
210,160;   31,237;    0,550;    1,864
210,759;    5,595;    4,186;    1,227
211,359;   -6,564;    1,459;    1,045
211,958;   96,976;    1,277;    2,045
212,558;  100,135;    1,732;    1,864
213,157;   36,820;    1,822;    1,500
213,757;  180,640;    3,822;   -0,227
214,356;   73,339;    1,277;   -0,409
214,956;  166,745;    3,095;    0,409
215,555;   43,841;    2,095;    2,136
216,154;   10,872;   -2,723;   -0,591
216,754;   10,865;    0,277;    0,773
217,353;   27,755;   -0,268;   -1,045
217,952;  -18,931;   -0,178;    0,318
218,552;   48,073;    1,368;   -0,773
219,151;   10,422;    0,277;    0,955
219,750;    2,556;    0,004;   -0,227
220,349;  -11,849;   -0,451;    1,045
220,948;   50,658;   -1,360;    1,136
221,548;   -7,586;    0,913;    1,227
222,147;    9,609;   -0,087;   -0,409
222,746;   86,738;   -0,451;   -0,955
223,345;   37,211;    0,731;    0,500
223,944;   35,563;   -0,451;    0,773
224,543;   36,424;    1,004;   -1,409
225,142;   20,617;    0,094;    0,136
225,741;   28,830;   -0,814;    1,045
226,340;   27,153;   -0,451;   -0,955
226,939;   74,238;   -0,996;   -0,136
227,538;    9,941;   -0,360;   -0,773
228,137;   80,540;   -0,814;    0,864
228,735;   47,900;   -0,541;    1,227
229,334;  -16,198;   -0,905;   -0,227
229,933;   76,872;    0,459;    0,591
230,532;   78,737;    1,186;   -0,409
231,131;  115,284;    1,732;    0,318
231,729;   51,399;   -2,450;   -2,318
232,328;   15,266;   -0,723;   -1,500
232,927;   17,775;    1,004;   -0,500
233,525;   17,873;    3,640;    0,045
234,124;   28,705;    2,368;   -1,591
234,723;    1,280;    0,913;   -1,045
235,321;    1,127;    2,277;    0,136
235,920;    7,494;    1,186;   -1,227
236,518;   75,886;    3,459;    0,318
237,117;    7,659;    0,004;   -0,227
237,715;   22,410;    0,640;   -0,500
238,314;   31,930;   -0,087;   -2,318
238,912;   82,416;   -0,723;   -1,409
239,510;   40,674;    0,459;   -1,227
240,109;   91,504;    0,004;    3,773
240,707;   73,946;   -0,996;    1,227
241,305;    4,822;    0,550;    0,136
241,904;   38,731;   -0,178;   -2,045
242,502;  101,651;   -0,632;   -0,227
243,100;   48,585;   -0,087;   -0,955
243,698;    4,154;    0,732;    1,682
244,297;   27,351;   -0,632;    0,682
244,895;   14,574;   -0,269;   -2,318
245,493;   88,943;    2,186;   -0,591
246,091;  106,079;    1,368;   -1,318
246,689;   58,166;    1,004;    0,591
247,287;   49,858;    0,822;   -1,136
247,885;   30,114;   -1,451;    1,227
248,483;    8,004;    1,822;   -0,500
249,081;   51,790;    0,185;    1,591
249,679;   49,443;   -0,178;    1,682
250,277;    3,543;   -1,723;    0,864
250,875;   51,316;   -1,087;   -1,045
251,473;    9,240;   -1,178;    0,500
252,071;   54,822;    1,459;    1,045
252,669;   19,563;   -1,814;    0,318
253,267;    0,417;   -0,087;    0,773
253,864;   20,858;   -0,360;    0,682
254,462;   64,739;    1,640;    1,591
255,060;   -5,825;   -0,269;    1,318
255,658;   -4,255;    0,822;   -0,136
256,255;   10,127;    0,186;   -2,045
256,853;   33,750;   -0,269;    1,409
257,451;   14,208;    0,822;    1,864
258,048;  180,463;    1,822;    1,864
258,646;   75,826;    1,731;   -1,045
259,243;  119,114;   -0,087;    2,227
259,841;   54,990;   -0,814;    0,318
260,438;    2,541;   -0,087;    0,864
261,036;   43,204;   -1,905;    1,409
261,633;    3,298;   -0,087;    2,227
262,231;   -5,508;    2,731;   -0,045
262,828;  -15,640;   -0,905;    1,136
263,425;   -1,727;    0,913;   -0,591
264,023;    7,630;    0,186;    0,045
264,620;   62,364;   -0,360;   -0,318
265,217;  101,294;   -2,087;    3,136
265,815;   25,237;   -1,905;    2,136
266,412;   45,938;    0,731;    0,136
267,009;   42,750;   -1,451;    0,773
267,606;   76,008;    0,822;   -0,955
268,203;   27,615;   -0,269;   -0,591
268,801;   23,954;    1,731;    0,591
269,398;   -3,298;   -0,360;    2,500
269,995;   40,906;    0,277;    1,591
270,592;   32,197;   -0,632;   -0,500
271,189;   -2,630;    0,186;    0,409
271,786;  -18,601;   -0,632;    1,227
272,383;   58,212;   -1,087;    0,227
272,980;   19,635;    0,277;    0,318
273,577;   -0,666;    0,004;    1,227
274,174;   -3,892;    0,822;    2,591
274,771;   48,836;   -0,814;   -0,773
275,367;  194,785;    2,277;    1,409
275,964;   93,711;    0,731;   -0,500
276,561;   18,029;    1,549;   -1,045
277,158;   -5,103;    0,095;   -1,773
277,755;   84,881;    2,185;    0,409
278,351;   44,550;   -0,451;   -1,500
278,948;   65,027;   -0,815;    0,045
279,545;   46,105;   -1,360;    2,318
280,141;   81,921;   -1,723;   -2,045
280,738;   92,101;   -0,451;   -0,136
281,334;   22,975;   -1,633;    0,591
281,931;   15,976;   -0,087;   -1,318
282,528;   59,534;    0,822;   -0,500
283,124;   86,467;   -1,087;   -0,500
283,721;   73,142;   -0,451;    1,409
284,317;   36,497;    0,185;    2,500
284,913;   90,664;   -1,360;    0,591
285,510;  149,664;    0,640;   -0,318
286,106;   91,311;   -2,269;   -0,955
286,703;   50,894;   -0,360;    1,955
287,299;   26,626;   -1,451;   -0,591
287,895;   17,305;    0,822;   -1,045
288,491;    8,793;    0,186;    2,136
289,088;   44,341;   -2,360;    2,409
289,684;   48,472;   -1,723;    1,500
290,280;  112,364;    0,368;    0,682
290,876;   88,056;    1,822;    5,500
291,472;   73,656;    1,276;    2,227
292,068;   76,591;    1,367;    0,227
292,665;   35,626;    2,095;    0,773
293,261;   13,923;    0,276;    2,136
293,857;   76,720;    2,913;    2,136
294,453;   45,505;    3,550;    0,955
295,049;  131,908;   -0,268;    1,955
295,644;   71,072;    0,095;    0,136
296,240;   13,977;   -0,905;   -0,136
296,836;   62,804;   -0,995;    0,318
297,432;  120,314;    1,096;   -0,500
298,028;  140,559;    0,732;    0,773
298,624;   83,543;    1,459;    1,864
299,220;   90,660;    2,368;    0,591
299,815;   91,676;    1,005;   -0,409
300,411;  152,727;    0,914;    1,773
301,007;  200,730;    1,368;    0,227
301,602;  114,417;   -0,541;   -2,318
302,198;  206,783;    0,732;   -0,773
302,794;  132,526;    1,187;   -0,500
303,389;   78,083;   -1,177;    1,045
303,985;  110,699;    0,550;    1,409
304,580;  217,068;    1,459;    1,591
305,176;  157,513;   -3,086;    0,136
305,771;   69,760;   -1,268;   -1,227
306,367;  352,937;    4,095;    0,136
306,962;  189,689;    0,641;    1,500
307,558;  227,172;   -0,450;    0,136
308,153;  243,517;    1,095;   -1,136
308,748;  122,281;   -0,814;    1,682
309,344;  368,877;   -0,632;   -1,318
309,939;  359,148;   -1,905;   -1,318
310,534;  159,285;   -0,086;   -1,682
311,130;  133,712;    0,459;   -2,500
311,725;   97,832;    1,004;   -0,500
312,320;  126,938;    2,459;    0,045
312,915;  189,471;    1,459;   -1,045
313,510;  323,413;    1,550;   -0,500
314,105;  127,290;    1,096;    1,409
314,700;   48,956;   -3,086;   -1,045
315,295;   93,068;   -0,904;    0,045
315,890;   63,046;    1,277;    0,864
316,485;  121,385;   -0,359;   -0,318
317,080;   55,060;   -3,086;    1,591
317,675;  235,578;    2,005;   -0,682
318,270;  365,802;    5,550;    3,318
318,865;  266,253;    3,278;    3,045
319,460;  163,203;   -0,904;    0,591
320,055;   62,461;   -0,541;   -1,227
320,650;   67,956;   -1,995;   -0,591
321,244;   64,843;   -0,177;   -1,409
321,839;   60,513;   -1,541;   -0,227
322,434;   82,756;   -1,086;   -1,591
323,029;   48,216;    1,732;    1,591
323,623;   37,736;    1,550;    0,773
324,218;  145,281;    2,368;    1,409
324,812;  113,348;    1,096;    1,591
325,407;   97,294;   -0,814;    2,045
326,002;  180,816;    0,277;   -0,409
326,596;  143,309;    0,914;    1,318
327,191;   59,888;    0,823;   -1,045
327,785;   70,672;   -0,813;   -0,227
328,379;   67,647;    1,368;    0,136
328,974;   93,860;    0,914;   -3,955
329,568;  114,474;    0,186;   -2,409
330,163;  166,891;    2,096;    1,045
330,757;   80,001;    2,459;    1,591
331,351;   53,083;    0,459;    0,682
331,945;   53,795;    0,914;    1,409
332,540;  146,723;   -1,723;   -0,591
333,134;  154,614;   -1,086;    0,773
333,728;  173,055;    0,005;    0,318
334,322;  105,671;   -1,177;   -0,864
334,916;  118,350;    0,277;    0,955
335,510;  256,198;   -0,450;   -0,136
336,105;  256,433;   -1,086;    1,591
336,699;  188,916;   -1,086;    0,591
337,293;  244,402;   -1,723;    0,318
337,887;  208,606;   -2,723;    1,955
338,481;  373,751;    0,459;    0,591
339,074;  502,165;   -0,359;    2,682
339,668;  504,115;   -1,632;    1,227
340,262; 1095,467;    1,732;    3,227
340,856;  750,356;    1,822;   -0,682
341,450;  442,267;    1,004;    1,864
342,044;  544,857;    1,459;    0,136
342,637;  742,232;    0,913;   -2,136
343,231;  801,272;   -2,360;    0,682
343,825;  674,458;   -1,086;   -0,591
344,419;  690,908;   -1,995;    0,500
345,012; 1348,270;    2,459;    4,045
345,606; 1182,761;    4,641;    1,591
346,199;  861,472;   -1,813;   -0,227
346,793; 1064,149;    1,914;    2,045
347,386;  900,494;   -0,813;   -1,136
347,980;  786,136;   -0,268;   -0,045
348,573;  985,408;    2,278;    0,409
349,167; 1318,673;    5,278;    4,773
349,760; 1322,530;    2,914;    2,682
350,354; 1259,750;   -0,813;    1,136
350,947; 1358,224;    1,096;    1,682
351,540; 1150,793;   -0,358;   -1,409
352,134; 1025,835;    1,096;    1,136
352,727; 1138,844;   -0,086;    1,136
353,320; 1190,794;    0,005;    0,591
353,913; 1081,302;   -1,995;    1,864
354,507; 1369,139;    0,823;   -1,227
355,100; 1267,208;    0,460;    0,864
355,693; 1660,706;    2,005;    2,409
356,286; 1385,922;    0,823;    2,773
356,879; 1253,083;   -0,722;    1,227
357,472; 1182,853;   -0,904;    1,500
358,065; 1284,671;   -0,722;    2,500
358,658; 1144,261;   -0,540;    2,318
359,251; 1037,905;   -1,631;   -0,591
359,844; 1201,296;   -1,904;   -1,136
360,437; 1317,911;   -2,995;    0,045
361,030; 1177,964;    1,369;   -0,682
361,623; 1106,350;    2,824;    0,318
362,215; 1343,873;   -0,086;    2,045
362,808; 1149,896;   -2,358;   -1,682
363,401; 1091,925;   -2,449;    0,136
363,994; 1334,223;   -0,631;   -1,500
364,586; 1049,601;    0,824;   -1,500
365,179;  971,566;   -0,449;   -1,136
365,772;  764,788;   -1,995;    2,045
366,364;  933,635;    1,915;   -3,227
366,957; 1056,736;    2,279;   -0,045
367,549;  943,632;    2,188;   -0,864
368,142;  923,539;    1,825;   -1,500
368,734;  864,929;    0,734;   -2,136
369,327;  761,495;    1,643;   -0,500
369,919;  801,704;   -1,538;    0,409
370,512;  831,647;   -1,083;   -0,500
371,104; 1101,386;   -0,901;    1,591
371,696; 1158,310;    1,191;   -0,955
372,289;  985,680;    0,373;    1,136
372,881;  900,318;   -2,080;    1,318
373,473;  738,972;   -2,170;    1,136
374,066;  867,232;   -0,169;    0,500
374,658;  791,564;    0,378;    1,136
375,250;  713,846;    0,653;   -1,409
375,842;  765,201;    0,473;   -0,045
376,434;  697,083;   -0,435;   -0,409
377,026;  735,546;    0,204;   -2,500
377,618;  736,809;   -0,158;   -0,682
378,210;  623,180;   -0,338;   -1,955
378,802;  543,555;    0,754;   -0,591
379,394; 1060,371;    1,846;    0,682
379,986;  790,793;    1,393;   -0,955
380,578;  677,929;   -0,153;    0,773
381,170;  933,595;   -0,972;    0,045
381,762;  811,894;    0,755;    1,409
382,354;  782,846;   -0,065;   -1,318
382,945;  673,839;   -2,976;    0,318
383,537;  642,422;   -2,705;   -1,955
384,129;  647,298;   -2,160;   -1,136
384,721;  788,479;   -0,252;    0,955
385,312;  684,384;   -0,161;   -0,955
385,904;  815,695;   -2,706;    1,591
386,496;  635,932;   -0,979;    1,045
387,087;  813,886;    1,022;    2,500
387,679;  741,051;   -1,160;    0,045
388,270;  746,692;    2,840;    2,045
388,862;  701,420;    1,295;   -0,318
389,453;  624,928;   -0,887;    1,045
390,045;  682,260;   -0,705;   -2,682
390,636;  578,582;    0,204;   -0,591
391,227;  618,982;   -0,523;   -0,045
391,819;  633,227;    0,204;    0,773
392,410;  925,740;    1,022;    0,045
393,001;  708,127;   -0,979;   -1,591
393,593;  810,123;    1,930;   -0,045
394,184;  858,134;    1,385;   -0,409
394,775;  662,169;    1,839;    2,136
395,366;  627,913;    1,385;    0,773
395,957;  850,142;    0,113;    0,136
396,548;  719,330;   -0,342;    2,682
397,139;  898,090;   -2,433;    0,591
397,730;  777,146;   -1,888;    0,955
398,321;  765,872;   -1,252;    0,955
398,912;  687,297;   -0,615;    0,136
399,503;  715,049;   -3,524;   -1,409
400,094;  726,504;    0,294;    1,682
400,685;  717,707;   -0,433;    0,045
401,276;  620,041;    0,930;   -0,955
401,867;  610,930;   -0,888;    0,773
402,458;  568,093;   -2,251;   -2,318
403,048;  774,774;    1,112;    0,591
403,639;  634,113;    0,840;    0,864
404,230;  829,995;    2,476;    0,318
404,821;  871,958;   -0,615;    0,045
405,411;  737,602;    1,203;   -2,591
406,002;  593,813;   -1,252;   -1,136
406,592;  882,361;    2,294;    0,045
407,183;  690,697;    0,566;   -1,500
407,774;  621,526;    3,475;   -0,136
408,364;  578,189;    0,930;    0,409
408,954;  722,562;    0,384;    1,227
409,545;  704,641;    1,021;    1,045
410,135;  597,564;    1,293;    0,500
410,726;  542,509;    1,838;    0,318
411,316;  767,253;    0,111;    0,773
411,906;  518,366;   -0,253;   -0,409
412,497;  488,987;   -1,070;   -0,045
413,087;  407,694;   -1,980;   -0,227
413,677;  323,541;   -0,707;    3,864
414,267;  299,585;    0,656;    1,409
414,857;  248,880;   -2,980;    4,227
415,448;  237,108;    0,839;    0,500
416,038;  254,158;    0,020;   -0,591
416,628;  301,711;   -0,889;    0,409
417,218;  362,823;    0,565;    3,318
417,808;  528,482;    0,202;   -0,409
418,398;  353,426;    0,020;    2,682
418,988;  192,686;    2,020;    0,591
419,578;  279,077;   -0,707;    1,409
420,168;  192,828;   -1,343;   -0,955
420,757;  344,776;   -1,343;   -1,500
421,347;  221,313;    0,111;   -0,227
421,937;  162,243;    2,292;    1,409
422,527;  308,200;    0,838;   -0,773
423,116;  439,090;   -0,253;   -0,045
423,706;  106,562;   -1,889;    0,318
424,296;   58,100;    1,384;    0,682
424,885;  191,645;   -0,071;   -3,045
425,475;  149,701;    1,474;   -2,864
426,065;   28,452;   -0,980;   -0,318
426,654;   -1,968;   -0,435;   -0,318
427,244;  269,838;    0,020;    1,409
427,833;  238,176;    1,383;   -0,500
428,423;   90,414;   -0,526;    1,136
429,012;   82,151;   -0,344;   -1,136
429,601;  202,780;   -1,344;    0,136
430,191;   93,715;    1,292;    4,318
430,780;   -9,337;   -0,344;   -0,409
431,369;  168,784;    0,746;   -0,045
431,959;   59,652;   -1,254;    0,500
432,548;  -11,669;   -1,163;   -0,045
433,137;  -62,169;   -1,254;   -1,318
433,726;    1,070;    0,292;    0,500
434,315;   28,163;   -0,526;    2,409
434,905;  130,798;   -1,254;    1,409
435,494;  116,119;    0,746;    0,955
436,083;   -7,398;   -0,981;   -0,955
436,672;   77,556;    0,110;    0,500
437,261;   26,243;    0,292;   -1,955
437,850;  245,174;    1,383;    0,682
438,439;  292,281;    3,291;    1,955
439,027;  395,674;    3,655;    1,773
439,616;  311,689;    2,927;    1,227
440,205;   98,951;    0,200;   -2,136
440,794;   50,890;    2,109;   -0,045
441,383;   -7,321;   -1,346;   -0,591
441,971;  -38,609;   -2,436;    0,591
442,560;  -22,397;    0,563;   -1,773
443,149; -102,405;    0,379;   -1,318
443,737;  -69,628;   -0,074;   -2,318
444,326;  -40,204;    0,018;    0,318
444,915;    8,354;   -1,982;    0,864
445,503;   16,586;   -2,891;   -0,318
446,092;  257,707;    0,382;    2,136
446,680;  183,944;    0,382;    0,318
447,269;  103,310;   -0,346;   -0,318
447,857;   89,021;    0,018;   -1,773
448,445;   39,079;    0,563;    1,318
449,034;  -17,549;   -1,528;   -1,136
449,622;   -7,636;   -1,073;    3,500
450,210;  264,525;    2,017;    2,227
450,799;  180,914;    0,290;   -0,591
451,387;  144,430;    1,381;   -0,591
451,975;  121,662;    2,654;    0,864
452,563;  190,836;    3,472;    2,318
453,151;   29,490;   -0,528;   -1,227
453,739;   75,338;   -1,347;    0,136
454,328;  174,985;    2,381;   -2,136
454,916;  111,713;    2,562;   -0,136
455,504;  136,870;    1,017;    1,227
456,092;   21,944;    0,017;   -1,591
456,679;  -12,349;    1,472;    0,682
457,267;  384,453;    4,017;    1,045
457,855;   80,103;    1,017;    1,409
458,443;  -61,990;   -0,165;    1,682
459,031;   92,682;    0,108;    2,409
459,619;   55,602;   -1,801;    2,864
460,206;  -42,788;    0,835;    2,045
460,794;  -37,977;   -2,983;   -0,227
461,382;   16,076;   -0,529;   -0,864
461,970;   14,740;    1,198;    1,864
462,557;  -59,054;   -0,711;   -0,682
463,145;   63,419;   -3,165;   -1,682
463,732;  293,902;    2,016;   -1,045
464,320;   74,477;   -0,075;   -3,045
464,907;  208,867;    2,743;   -0,773
465,495;  114,378;    0,743;   -1,227
466,082;   38,679;   -1,984;   -0,045
466,670;   60,603;   -2,529;    1,227
467,257;  -36,814;   -1,711;    2,045
467,844;   64,888;   -0,075;    0,045
468,432;   45,661;    0,834;    3,500
469,019;    6,189;    0,925;   -1,773
469,606;   94,643;    0,470;    3,682
470,193;  117,018;   -1,439;    0,227
470,780;   68,333;   -2,075;    0,864
471,368;   12,341;   -1,257;   -0,773
471,955;  109,126;    1,379;   -0,682
472,542;   68,345;    0,652;   -1,136
473,129;  -43,247;   -0,166;    0,136
473,716;  -35,759;    1,470;    0,591
474,303;    5,248;    0,652;   -0,864
474,890;    9,091;   -1,439;   -0,500
475,477;  100,472;   -1,621;    0,409
476,064;   12,762;    1,106;   -1,591
476,650;  130,392;    0,288;    0,318
477,237;   40,847;   -0,258;    0,955
477,824;   19,355;   -1,076;    0,864
478,411;  -56,024;   -1,894;   -0,318
478,997;  -63,574;    0,560;   -0,773
479,584; -110,857;    1,196;   -0,409
480,171;   59,643;   -0,440;   -0,773
480,757;  116,685;    2,651;    0,773
481,344;    8,528;    0,469;    0,409
481,931;  -76,383;    1,105;    1,045
482,517;   43,126;   -1,258;    0,318
483,104;  129,838;    1,106;    2,864
483,690;    3,759;   -1,804;    0,045
484,276;  -23,764;   -0,895;    0,227
484,863;  179,187;    2,469;    1,136
485,449;   30,121;   -0,077;    0,318
486,035;  -20,378;   -1,986;   -0,136
486,622;   78,816;   -0,895;    0,045
487,208;    3,928;    1,378;    1,500
487,794;  -77,879;    0,741;    0,318
488,380;  -69,394;    0,105;   -1,409
488,967;  -65,885;   -1,168;   -0,409
489,553;  -55,186;   -1,895;   -1,409
490,139;   18,426;    1,559;    0,773
490,725;  -44,192;    0,741;   -0,227
491,311;   -4,787;    3,287;    3,045
491,897;  -27,594;   -0,986;    1,500
492,483;  -21,987;    0,105;    1,227
493,069;  415,207;    3,923;    0,864
493,655;  135,764;    1,650;    0,682
494,241;   15,260;    1,377;   -0,955
494,826;   17,901;    0,287;   -1,045
495,412;   88,114;    2,559;   -0,682
495,998;    0,123;   -0,805;   -0,318
496,584;   57,560;    0,377;    1,045
497,169;   71,479;    1,014;   -0,682
497,755;    4,491;    0,650;    1,227
498,341;  136,384;    0,559;    0,318
498,926;  252,321;    1,832;    1,955
499,512;   -2,262;    1,286;    2,955
500,097;    1,793;    0,195;   -0,318
500,683;   13,567;   -0,350;    2,136
501,268;  -26,485;   -0,169;   -0,955
501,854;   -6,108;   -0,169;    1,227
502,439;  -14,640;   -0,624;   -1,773
503,024;    4,617;    0,195;    0,500
503,610;   31,456;   -0,078;   -0,682
504,195;  -11,199;    0,558;    1,955
504,780;   74,621;    2,922;    1,227
505,366;  151,598;    3,013;    2,864
505,951;   78,785;    0,740;    1,045
506,536;   10,340;   -3,260;   -3,682
507,121;   74,781;    0,285;   -0,318
507,706;   26,974;    2,376;    1,045
508,291;  -33,757;    2,649;    1,136
508,876;  -31,065;   -0,988;    2,591
509,461;   18,493;   -0,169;   -0,773
510,046;   58,055;    0,194;    0,318
510,631;   67,810;   -0,351;   -0,773
511,216;    0,012;    2,467;   -0,500
511,801;   56,229;   -0,442;    2,591
512,386;   86,899;    0,740;    0,500
512,971;   97,185;   -2,988;    0,955
513,555;  149,537;   -0,897;   -1,500
514,140;  120,958;   -0,442;   -3,136
514,725;  283,592;   -0,715;   -1,136
515,309;  216,206;   -0,533;    0,318
515,894;  137,534;   -0,624;   -2,227
516,479;  226,117;   -0,624;   -0,955
517,063;  289,629;    0,376;    1,227
517,648;  295,734;    1,012;   -1,136
518,232;  350,403;   -0,261;   -1,409
518,817;  559,743;   -0,079;    1,682
519,401;  853,961;    2,194;    0,591
519,985;  858,568;    1,103;    1,136
520,570;  836,667;    0,830;   -1,955
521,154; 1190,324;    2,102;    0,591
521,738; 1691,519;   -2,352;    2,409
522,323; 1852,574;   -0,170;    1,682
522,907; 1973,658;    0,466;   -0,136
523,491; 2173,851;    0,557;    0,955
524,075; 2483,463;    2,284;    0,591
524,659; 2976,704;    1,466;    0,591
525,243; 3146,478;    1,739;    0,409
525,827; 3593,617;    0,648;   -0,045
526,411; 4399,250;   -1,989;   -0,136
526,995; 5042,983;   -0,352;    1,409
527,579; 5244,121;   -0,443;   -1,045
528,163; 5874,485;    0,375;   -1,500
528,747; 6326,739;    2,466;   -0,773
529,331; 6961,842;   -0,080;   -1,409
529,915; 7452,705;    1,738;    0,955
530,499; 7866,765;   -0,807;    1,227
531,082; 8046,568;   -0,534;    1,591
531,666; 8032,431;    1,374;    0,773
532,250; 8931,715;    1,284;    2,682
532,833; 9528,472;    0,920;    2,773
533,417; 9734,420;   -1,807;    0,864
534,001; 9999,704;    1,647;   -0,318
534,584;10891,905;    0,374;    0,500
535,168;11035,988;    0,465;    1,409
535,751;11362,103;    0,647;    0,045
536,334;11086,227;   -0,898;   -0,409
536,918;11869,702;    0,011;    1,591
537,501;12140,209;   -0,899;    1,318
538,085;12374,144;   -0,444;    1,045
538,668;12689,120;    0,829;    2,409
539,251;13171,005;    1,829;    3,773
539,834;13380,990;    0,101;    0,773
540,418;13473,581;   -1,990;    4,318
541,001;13681,519;   -0,990;    1,773
541,584;13765,845;    2,101;    2,227
542,167;13578,263;    1,374;    2,955
542,750;13821,965;    1,919;   -0,773
543,333;13587,965;    0,555;    2,136
543,916;14434,824;    0,192;    2,500
544,499;15068,375;   -1,354;    0,227
545,082;15153,082;    1,374;    3,591
545,665;15339,629;    1,919;    1,500
546,248;15716,965;    1,010;   -0,318
546,830;15492,370;   -0,445;    1,955
547,413;15949,151;    1,010;   -0,773
547,996;16539,986;    0,555;    0,500
548,579;16359,291;    0,919;    0,955
549,161;16213,543;    1,828;    2,682
549,744;16037,939;   -0,809;    0,409
550,326;16564,673;   -0,809;   -1,136
550,909;16423,603;    2,737;    0,591
551,492;16873,833;   -0,263;    0,227
552,074;16694,392;   -0,173;   -1,318
552,657;17257,182;    2,373;    0,045
553,239;17031,292;   -0,173;   -0,773
553,821;16993,035;   -1,082;    1,045
554,404;16547,511;    1,282;    1,136
554,986;16958,101;    0,464;    1,045
555,568;17534,938;    1,191;   -0,955
556,151;16846,914;    1,191;   -0,227
556,733;17024,900;   -0,264;   -0,864
557,315;17480,747;    0,100;    0,500
557,897;17348,610;    0,554;   -0,500
558,479;17464,103;   -1,991;    1,318
559,061;17609,579;   -0,719;   -0,864
559,643;17987,677;   -0,264;    0,045
560,225;18372,644;    1,645;    2,864
560,807;18384,313;    0,918;    0,318
561,389;17875,486;    0,554;    2,318
561,971;18667,445;    0,463;    2,136
562,553;18489,977;   -1,628;    1,591
563,135;18635,271;   -0,537;    1,136
563,717;18270,326;    3,372;    1,136
564,298;18982,759;    3,645;   -0,045
564,880;18713,796;    0,645;   -1,409
565,462;18839,887;    0,645;    1,318
566,043;20037,614;   -0,446;    2,318
566,625;19577,338;    1,918;    1,227
567,207;19461,677;    1,099;    1,682
567,788;20574,514;   -1,264;    1,500
568,370;21403,667;    1,917;   -0,500
568,951;21193,691;    0,190;    0,227
569,533;22082,901;   -0,628;   -0,500
570,114;22576,770;   -0,446;    0,682
570,695;23074,188;   -0,174;   -1,318
571,277;23540,051;   -0,265;   -1,682
571,858;24247,318;    2,008;   -1,136
572,439;25146,965;    1,554;   -1,045
573,021;25386,467;    2,099;   -2,773
573,602;25854,237;   -1,265;    0,318
574,183;26748,527;   -2,083;    2,227
574,764;26862,757;   -1,629;    0,409
575,345;27450,979;    0,917;   -0,136
575,926;28089,250;   -0,356;    0,136
576,507;28069,415;    1,099;   -0,227
577,088;29117,656;    3,099;    1,682
577,669;29150,968;    0,735;    1,955
578,250;29907,799;    0,644;   -1,045
578,831;30570,531;   -1,356;   -2,227
579,412;30841,671;   -0,810;    0,955
579,993;31730,287;    1,008;    0,227
580,573;32074,959;   -0,629;   -0,955
581,154;31074,185;    0,735;   -0,591
581,735;31968,842;    0,644;    0,773
582,315;31430,660;   -0,629;    2,136
582,896;31738,302;   -0,174;    1,227
583,477;31232,119;    0,189;    1,227
584,057;31430,165;    0,553;    0,955
584,638;31714,287;    2,553;    2,318
585,218;31719,521;   -0,538;    2,682
585,799;31969,159;    0,281;   -0,227
586,379;31896,384;    0,372;    1,591
586,959;30646,317;    0,735;    0,318
587,540;30012,425;   -0,629;    2,227
588,120;29554,925;    1,007;   -0,045
588,700;28540,325;    2,553;    2,136
589,281;28871,441;    0,462;   -0,955
589,861;28865,859;    0,099;   -1,682
590,441;28688,267;    2,371;   -2,682
591,021;27680,556;   -0,265;   -2,591
591,601;27921,480;   -0,537;    0,500
592,181;27906,496;   -0,719;   -0,773
592,761;27216,806;    0,007;    1,409
593,341;27123,736;   -0,901;    0,045
593,921;27131,261;   -0,265;    1,591
594,501;27020,167;   -0,538;    1,318
595,081;26869,012;    0,917;   -0,318
595,661;27222,113;   -1,447;    0,955
596,240;27779,148;   -0,537;    0,136
596,820;27415,290;    0,372;    1,955
597,400;27614,406;    2,008;    0,773
597,980;27789,877;    2,008;    1,045
598,559;27813,395;    2,735;   -0,227
599,139;27552,508;   -0,174;   -1,227
599,718;27469,144;   -0,174;   -0,409
600,298;27702,790;    0,735;    0,682
600,877;27973,706;    2,917;    1,409
601,457;28226,394;    2,281;    1,136
602,036;28101,567;    0,190;    2,045
602,616;28302,509;    0,644;    1,682
603,195;28686,572;   -0,355;    3,500
603,774;28256,836;   -0,901;    2,045
604,354;28123,357;    0,826;   -0,500
604,933;27634,378;    0,463;    1,864
605,512;27752,246;    3,554;    0,591
606,091;27821,696;   -0,537;    3,773
606,671;28663,275;    0,281;    0,773
607,250;27763,646;    1,644;    3,136
607,829;28024,197;    2,372;    3,227
608,408;27919,385;    1,190;    2,591
608,987;26903,815;    1,281;    3,409
609,566;27205,753;   -1,265;   -2,500
610,145;27287,071;   -1,082;    0,682
610,723;27719,481;    4,372;    6,864
611,302;26970,963;   -0,446;    1,682
611,881;26490,720;    5,008;   11,227
612,460;27335,790;    1,645;    3,955
613,039;27724,202;   -0,082;    2,045
613,617;26476,062;    1,736;    4,773
614,196;26628,731;    1,099;    1,227
614,775;26967,436;    1,009;    2,409
615,353;26960,090;    0,736;    0,864
615,932;26707,070;    0,100;    2,409
616,510;27267,614;    0,554;    0,591
617,089;26774,322;    7,100;   17,591
617,667;26571,165;    2,372;    6,136
618,246;26468,606;   -1,537;    1,318
618,824;26627,317;   -3,355;   -0,955
619,402;26194,593;   -2,900;   -1,773
619,981;26655,363;   -0,173;   -1,045
620,559;26470,389;    0,009;    1,682
621,137;26016,016;   -0,718;    1,864
621,715;26045,153;   -1,173;   -0,682
622,293;25977,253;   -0,537;   -0,773
622,871;26409,656;   -0,718;    0,500
623,450;26042,934;    0,373;   -0,864
624,028;25997,417;    0,191;   -0,955
624,606;25577,316;   -1,718;    1,682
625,183;25942,687;   -1,536;   -1,136
625,761;25575,320;    1,009;    1,136
626,339;25880,031;    1,373;    2,591
626,917;26270,787;   -0,172;   -0,045
627,495;26284,920;   -0,354;    1,318
628,073;25707,351;   -0,263;    2,864
628,650;25390,681;    0,100;    2,136
629,228;25861,496;    0,373;    4,409
629,806;25312,052;    2,282;    1,136
630,383;25530,412;    1,464;   -0,318
630,961;25346,538;    2,555;   -0,955
631,539;25104,737;    2,464;    0,227
632,116;24418,175;   11,373;   15,409
632,694;24994,238;    2,555;    6,500
633,271;25369,059;    0,828;    2,682
633,848;25262,111;    1,828;    2,045
634,426;25329,445;   -1,081;    1,773
635,003;24393,643;    1,101;   -0,409
635,580;24715,264;    1,192;    3,682
636,158;25331,337;    3,737;    1,227
636,735;25284,454;    0,555;   -0,500
637,312;25431,553;   -0,809;   -0,682
637,889;25468,031;   -4,354;   -0,682
638,466;24991,878;   -3,990;   -0,409
639,043;25023,074;    2,101;   -1,136
639,620;25360,130;   -2,262;   -0,955
640,197;25651,461;    1,100;    1,682
640,774;25773,788;   -0,172;    1,136
641,351;26140,297;    0,737;    1,136
641,928;25615,352;   -0,627;    1,409
642,505;25263,407;    0,828;   -0,500
643,082;25360,825;   -1,718;    1,227
643,658;24386,061;   -0,718;    1,500
644,235;25164,843;    1,191;    2,500
644,812;25448,897;    1,918;    0,773
645,388;25212,043;   -0,991;    1,409
645,965;25259,097;   -0,809;    1,682
646,542;25337,152;   -1,445;   -0,227
647,118;25292,479;    1,009;   -0,955
647,695;25616,443;   -0,263;    1,136
648,271;25491,225;   -0,536;    0,500
648,848;25849,097;    0,736;    2,227
649,424;25733,425;    0,827;    1,318
650,000;25511,479;   -0,354;   -1,045
650,577;25303,079;   -0,627;   -0,955
651,153;25774,406;   -1,809;    0,955
651,729;26728,643;    1,191;    0,864
652,305;27036,243;    0,645;    2,773
652,881;31625,843;   -0,082;    1,136
653,458;38594,988;    1,100;    0,227
654,034;42261,497;    0,282;    1,591
654,610;43677,915;    0,554;    0,773
655,186;45017,152;    0,645;    3,045
655,762;44599,206;   -0,991;    0,409
656,338;44564,806;    0,100;    0,136
656,913;45563,406;   -0,082;    0,409
657,489;44773,461;    0,827;   -0,318
658,065;44693,697;   -0,173;   -1,591
658,641;45339,570;   -0,900;   -0,864
659,217;44703,170;   -0,991;    0,409
659,792;44115,588;    0,645;   -0,409
660,368;44329,643;   -2,173;   -0,682
660,944;43915,515;   -2,082;    1,227
661,519;39188,570;   -0,628;    0,409
662,095;33254,533;   -1,719;    0,591
662,670;28787,588;    1,281;   -0,136
663,246;27765,097;    1,009;   -0,409
663,821;27109,061;    0,281;    1,682
664,396;26556,661;    0,009;    1,864
664,972;26855,715;    0,009;   -0,500
665,547;27139,861;    1,372;    0,136
666,122;27173,370;   -1,082;    0,318
666,698;27477,061;   -0,173;    0,318
667,273;26812,661;   -0,173;    0,136
667,848;27666,624;    2,372;    1,500
668,423;27498,952;    2,190;    2,318
668,998;28015,097;    2,827;   -0,682
669,573;28531,061;   -3,264;   -1,500
670,148;28344,842;   -1,446;   -0,682
670,723;28156,079;   -1,810;    0,318
671,298;28552,497;    2,372;    1,045
671,873;28656,642;   -0,082;   -0,136
672,448;28637,424;    0,645;    0,136
673,023;28973,115;   -1,992;   -0,227
673,597;29336,624;    0,827;    2,318
674,172;29065,861;   -0,355;    0,318
674,747;28534,733;    0,372;   -1,045
675,321;28361,788;   -0,628;    3,318
675,896;27939,933;    0,645;    1,045
676,471;28982,261;    2,645;    1,591
677,045;28766,315;   -1,264;    0,682
677,620;28805,006;    0,190;    1,136
678,194;29095,788;   -2,628;    1,136
678,769;28649,751;   -1,083;   -0,318
679,343;28922,260;   -0,628;    1,773
679,917;28811,224;   -1,446;    1,955
680,492;28920,279;    0,826;    3,227
681,066;28999,879;    3,372;    0,409
681,640;29026,751;    1,463;   -0,318
682,214;29880,351;    0,735;    0,500
682,788;29381,951;   -1,356;   -0,773
683,363;29391,006;   -1,810;    1,682
683,937;29065,515;   -1,719;   -0,318
684,511;29847,206;    0,463;   -0,591
685,085;29528,260;   -1,356;    0,318
685,659;29249,860;   -2,538;    0,864
686,232;29535,279;   -0,356;   -0,318
686,806;29256,060;   -0,901;    0,409
687,380;29890,751;   -0,174;    0,591
687,954;30158,442;   -1,174;    1,136
688,528;29770,497;   -0,719;    1,955
689,101;30594,278;   -3,992;    1,045
689,675;30181,333;   -0,356;   -0,136
690,249;29504,660;   -0,719;    0,409
690,822;29798,533;    0,280;    0,318
691,396;29905,315;   -0,265;    1,227
691,969;29411,278;    1,280;    0,136
692,543;29852,333;   -0,447;   -1,955
693,116;29512,297;   -0,265;   -1,409
693,690;29388,533;    0,099;    0,500
694,263;29972,497;   -1,083;    2,955
694,836;29973,460;    1,371;    3,591
695,410;28661,151;   -0,265;    1,773
695,983;29106,933;    0,189;    0,591
696,556;29073,624;   -0,447;   -1,045
697,129;29428,678;   -0,356;    1,409
697,703;29067,278;   -1,629;    1,955
698,276;29035,333;    1,462;   -0,773
698,849;28858,569;    1,280;    1,409
699,422;29265,715;   -1,083;    0,591
699,995;28967,769;    0,007;    0,136
700,568;29444,006;   -0,629;    3,045
701,140;29515,242;   -2,811;    1,682
701,713;29217,842;   -0,174;    2,409
702,286;28977,078;   -0,538;    0,864
702,859;28913,224;   -0,902;   -0,591
703,432;28009,824;    0,825;    0,682
704,004;28473,424;    0,462;    0,318
704,577;28390,569;   -0,629;    0,136
705,150;28969,169;    0,189;    2,500
705,722;28739,860;   -0,356;   -3,227
706,295;28551,369;   -0,175;   -0,591
706,867;28411,151;   -0,175;    1,955
707,440;28574,751;   -1,720;   -0,409
708,012;28840,896;    0,462;    0,591
708,584;28764,678;    2,462;    0,227
709,157;29043,824;    1,825;   -0,591
709,729;28677,969;    2,280;    2,045
710,301;29557,478;    0,734;    0,045
710,874;29622,169;   -1,447;   -0,227
711,446;28426,133;    0,371;    0,864
712,018;28343,369;    0,098;    0,500
712,590;28055,424;   -1,993;    1,682
713,162;28594,751;    0,825;    1,318
713,734;28834,624;    1,825;   -2,045
714,306;28702,678;   -1,902;   -0,409
714,878;27474,460;    0,825;    0,864
715,450;28262,514;    0,643;    0,864
716,022;28494,387;    1,552;    1,318
716,593;28657,442;    0,189;    0,591
717,165;28572,860;   -3,175;   -1,227
717,737;28352,733;    0,280;    0,409
718,309;27990,242;    0,280;   -0,045
718,880;27879,569;   -0,539;   -1,409
719,452;28125,533;   -0,175;   -1,591
720,024;27737,133;    0,734;   -0,591
720,595;28326,187;   -2,902;    0,955
721,167;27864,423;    0,370;   -2,045
721,738;27398,296;   -0,812;   -1,045
722,309;27373,351;   -0,993;   -1,227
722,881;27153,314;   -1,357;    0,773
723,452;27778,096;   -2,630;    2,864
724,023;27979,605;   -0,721;    2,682
724,595;27743,478;    0,007;    0,682
725,166;27501,623;    0,007;   -0,409
725,737;27122,860;    1,734;    0,227
726,308;27226,460;   -0,266;    0,318
726,879;27682,151;   -1,630;    1,227
727,450;27510,387;    0,552;   -0,045
728,021;27515,532;    3,097;    0,682
728,592;27255,860;    0,734;    0,500
729,163;27603,641;    0,643;   -0,136
729,734;27623,514;    0,188;   -0,227
730,305;28006,023;    1,734;    0,136
730,876;28330,623;    0,188;    2,955
731,447;28026,496;    2,188;    2,682
732,017;28152,823;    1,097;    1,864
732,588;27573,514;    0,734;    1,227
733,159;27821,932;    0,643;   -1,045
733,729;27647,169;    0,006;    0,409
734,300;26924,678;    0,915;    0,864
734,870;27320,278;    3,461;    0,591
735,441;27924,605;    0,370;   -0,591
736,011;27644,932;    0,643;   -1,591
736,582;27627,078;   -0,812;    0,045
737,152;27049,132;   -1,721;   -2,045
737,722;27525,732;   -0,267;   -0,682
738,293;27244,332;   -1,358;    1,318
738,863;27115,114;    2,461;    2,318
739,433;26925,805;    5,279;    0,318
740,003;27536,769;   -0,994;   -0,682
740,573;26987,005;    2,097;   -1,591
741,143;26908,878;   -1,085;    0,318
741,713;27664,114;    1,188;   -0,500
742,283;27397,259;    0,915;    1,591
742,853;27194,859;    1,915;    1,591
743,423;26655,641;    1,733;    0,045
743,993;26745,696;   -0,358;    1,500
744,563;26186,659;    0,097;   -0,864
745,133;26113,987;   -0,812;   -0,864
745,702;26787,132;   -0,267;    1,773
746,272;26009,368;   -0,176;    0,591
746,842;25796,968;   -1,358;   -0,591
747,411;26210,659;   -0,267;   -0,318
747,981;26395,168;    0,097;    0,500
748,551;26400,768;    2,278;   -1,045
749,120;26219,459;    0,642;   -0,227
749,690;26606,514;   -0,631;    2,409
750,259;26942,750;    1,369;    2,955
750,828;26920,623;    1,551;   -1,955
751,398;27154,041;    1,278;   -0,045
751,967;26658,187;    2,187;    0,409
752,536;26858,241;   -0,813;   -0,227
753,105;27264,841;    0,096;    0,227
753,675;27145,805;    0,096;    1,773
754,244;27042,950;   -0,904;    3,591
754,813;27004,732;    0,551;    1,227
755,382;26660,877;    0,460;    0,955
755,951;27225,023;    1,551;    3,682
756,520;26733,259;   -0,085;    1,864
757,089;27305,223;    0,278;    0,500
757,658;27469,550;    1,733;    1,227
758,227;27465,423;    1,096;    0,318
758,795;27725,841;    1,187;    1,136
759,364;27961,532;   -0,086;   -0,591
759,933;26979,586;   -1,176;   -0,045
760,501;26503,459;    0,733;   -1,318
761,070;27010,241;   -2,813;   -1,409
761,639;27687,295;   -1,904;    1,318
762,207;27056,714;    1,551;   -0,955
762,776;26951,950;    0,369;    0,864
763,344;26968,641;   -0,995;    0,591
763,913;26062,241;   -0,722;    1,409
764,481;26817,659;    1,005;   -0,136
765,049;26546,986;   -1,358;    1,409
765,618;26447,677;   -0,086;    0,318
766,186;26484,368;    0,278;    0,136
766,754;26711,786;    0,005;    1,864
767,322;25712,114;   -1,995;    0,409
767,890;25784,532;   -0,722;   -1,773
768,459;26145,041;   -2,177;   -0,318
769,027;26304,641;    1,641;    3,409
769,595;25269,695;    3,278;    2,591
770,163;25713,932;    3,823;    2,955
770,730;25431,441;    0,732;   -0,136
771,298;25274,495;    0,187;   -1,409
771,866;25375,368;   -1,541;    4,955
772,434;25713,968;   -0,631;   -1,864
773,002;25849,113;    0,005;    0,682
773,569;25505,077;    0,914;    1,682
774,137;25318,041;   -0,268;   -0,045
774,705;26121,641;    0,278;   -0,136
775,272;25628,968;    0,641;    0,682
775,840;25406,659;   -0,177;    2,682
776,407;24951,895;    0,277;    1,955
776,975;24531,768;   -0,632;    0,318
777,542;25528,732;   -1,086;   -0,045
778,110;25367,150;   -1,268;   -0,045
778,677;25036,932;   -2,359;   -0,864
779,244;24747,804;    2,186;    1,045
779,812;24863,768;    1,823;    0,864
780,379;24763,732;    0,005;    1,136
780,946;24988,695;    1,005;   -0,773
781,513;25316,841;   -1,450;    0,318
782,080;24667,986;   -0,086;    2,864
782,647;25453,131;   -0,268;    3,045
783,214;25036,641;   -0,177;    3,864
783,781;24628,604;   -0,723;   -0,682
784,348;24516,022;   -0,632;    1,500
784,915;25008,350;   -3,177;    0,318
785,482;24768,131;    1,368;    2,591
786,049;25189,459;    0,186;   -0,591
786,615;25285,968;    0,277;   -0,955
787,182;25007,477;    0,186;   -0,682
787,749;24688,622;   -2,814;    1,409
788,315;24041,222;   -1,632;   -0,409
788,882;24363,095;    1,550;   -1,227
789,448;25053,604;    1,732;   -0,955
790,015;25066,931;    1,095;    3,227
790,581;24635,895;    1,459;    0,227
791,148;24547,313;    0,641;    1,045
791,714;24733,731;   -0,541;    3,136
792,280;24353,331;    0,186;    1,591
792,847;23963,022;    0,550;    2,500
793,413;24489,713;   -0,269;   -0,318
793,979;24039,768;    3,459;   -1,318
794,545;24147,913;    4,459;    2,682
795,111;23591,604;    2,186;    1,318
795,678;23781,477;    0,731;   -1,682
796,244;23379,622;    3,368;    0,136
796,810;23937,404;    1,731;    0,773
797,375;23698,822;    0,549;   -2,136
797,941;23691,058;   -0,541;    0,591
798,507;23828,931;   -0,451;   -0,955
799,073;23373,258;   -0,360;    0,591
799,639;23509,495;   -2,632;    3,136
800,205;23513,004;    0,095;    2,682
800,770;23019,331;    0,640;    1,773
801,336;23152,204;    1,368;   -0,955
801,901;22854,531;    4,549;    3,136
802,467;23398,495;   -0,542;    2,045
803,033;22712,549;   -0,087;    0,864
803,598;22914,786;    1,913;   -1,045
804,163;22937,749;    1,095;   -0,318
804,729;22903,804;   -0,178;    1,136
805,294;23316,404;    0,822;    2,227
805,859;23117,822;    0,731;   -0,409
806,425;22585,513;    1,186;    2,682
806,990;22195,567;    2,186;    4,318
807,555;22690,077;   -1,451;    2,591
808,120;22591,858;    0,822;   -0,409
808,685;22667,276;    0,185;   -2,500
809,250;22163,240;    0,004;   -0,500
809,815;22472,386;    1,913;    0,682
810,380;22996,531;   -0,269;    1,591
810,945;23594,222;   -1,087;    2,045
811,510;22756,822;    2,094;    1,591
812,075;22458,422;   -0,633;   -1,409
812,640;22509,022;    2,003;    1,409
813,204;22562,804;    0,822;   -0,227
813,769;22978,949;    2,094;   -0,045
814,334;22358,276;    0,458;    0,864
814,898;22477,240;    0,367;    0,591
815,463;22331,476;    1,276;   -0,773
816,027;22330,985;   -0,724;   -2,318
816,592;22384,858;    0,640;   -2,045
817,156;21911,822;    2,094;    1,136
817,721;21784,058;    4,276;    2,318
818,285;21732,476;    2,912;    1,500
818,849;22382,349;   -1,451;    1,682
819,414;22285,222;   -0,269;    2,955
819,978;21879,913;   -1,269;    1,773
820,542;22435,967;    2,003;    0,500
821,106;22141,113;   -0,815;    0,682
821,670;22245,622;   -0,815;    2,591
822,234;21956,949;   -0,270;    1,409
822,798;21344,458;    0,003;    0,500
823,362;21288,785;   -0,633;    4,227
823,926;20637,113;    0,094;    1,136
824,490;20830,440;   -0,997;   -0,682
825,054;21295,767;   -0,088;   -1,136
825,618;20945,731;   -1,542;   -1,500
826,181;20870,058;    0,458;   -1,318
826,745;20792,931;    1,367;   -1,045
827,309;21157,803;    1,185;    1,318
827,872;20542,222;    1,367;    0,955
828,436;21526,458;    1,185;   -0,773
828,999;21542,058;   -0,997;    1,227
829,563;20315,294;   -0,179;    1,136
830,126;20180,258;   -0,179;   -0,591
830,690;20248,312;   -1,997;    2,864
831,253;19756,276;   -0,543;    2,227
831,816;19870,240;   -1,906;    0,500
832,380;19788,112;    0,185;    0,864
832,943;20057,258;   -1,361;   -0,500
833,506;19494,949;    2,639;   -1,227
834,069;20256,549;    3,912;   -0,955
834,632;20335,694;    1,730;    1,318
835,195;20246,476;    1,003;    0,955
835,758;19429,349;   -0,997;    1,955
836,321;19305,221;    0,730;   -1,045
836,884;19385,821;   -0,725;   -0,955
837,447;19405,331;   -2,816;    1,773
838,010;19705,476;    0,366;    3,227
838,573;19965,349;   -1,179;    0,773
839,135;19899,585;   -1,361;   -0,955
839,698;19344,185;    1,275;    0,409
840,261;18908,512;    1,003;   -0,227
840,823;18723,385;   -0,543;    0,864
841,386;19044,985;   -0,452;   -2,409
841,948;18910,494;   -1,361;    1,773
842,511;18698,094;    0,912;    1,682
843,073;18823,512;    1,912;    0,227
843,636;18623,021;   -0,361;   -0,227
844,198;18520,349;    0,911;    0,591
844,760;18680,767;    1,093;    1,955
845,322;18354,912;    0,548;    1,136
845,885;18719,967;    0,730;    0,591
846,447;19144,930;   -1,998;    0,227
847,009;18697,803;    1,911;   -0,682
847,571;19054,767;    0,820;   -2,045
848,133;19197,276;   -1,089;   -1,864
848,695;18994,785;   -0,543;    1,409
849,257;18537,749;   -1,089;   -1,682
849,819;18726,167;   -0,998;   -0,409
850,381;18826,312;   -0,725;   -0,864
850,942;19155,094;    1,093;   -0,591
851,504;19126,421;    1,184;    0,227
852,066;19172,021;    1,275;   -1,591
852,628;18653,439;   -0,180;    1,955
853,189;18206,767;    1,638;    2,682
853,751;18337,276;   -0,907;    1,409
854,312;18101,876;   -0,453;   -1,682
854,874;18615,294;   -2,089;   -0,773
855,435;19144,530;   -0,907;   -1,682
855,997;19347,585;   -1,816;   -0,136
856,558;18626,912;    0,366;    1,773
857,119;18671,057;    0,820;    2,864
857,681;18394,930;    0,002;    0,318
858,242;18453,076;    1,911;   -2,136
858,803;18884,857;    0,456;   -0,773
859,364;19461,730;    0,184;   -4,773
859,925;18758,421;   -2,453;   -0,955
860,486;18659,657;   -0,453;   -0,955
861,047;18371,076;   -0,544;   -1,227
861,608;18160,766;   -1,089;   -0,773
862,169;18304,276;    0,638;   -0,045
862,730;18081,785;    0,456;    1,409
863,291;18336,748;   -0,635;   -0,500
863,852;18730,985;   -0,635;    1,955
864,412;18183,130;   -0,271;   -0,864
864,973;16782,548;   -0,089;    0,500
865,534;16596,876;   -1,726;    0,227
866,094;18129,657;    1,820;    0,227
866,655;17827,530;    1,274;    3,318
867,215;18099,766;    0,274;    0,136
867,776;17927,366;    0,547;   -0,136
868,336;18010,057;   -1,453;    0,136
868,897;17511,475;    2,638;    1,682
869,457;17237,803;    1,365;    0,318
870,017;17435,857;    0,547;   -1,227
870,578;17939,639;   -0,817;    0,773
871,138;17644,603;   -2,089;   -0,955
871,698;17194,294;   -0,817;   -1,318
872,258;17076,257;   -0,453;   -2,864
872,818;17453,584;    2,729;    0,045
873,378;17400,184;    0,638;    1,045
873,938;16930,330;    0,547;    0,500
874,498;17277,112;    0,274;   -1,955
875,058;17191,348;    2,183;    1,773
875,618;17067,039;    1,910;   -2,682
876,177;16975,548;    1,274;    0,136
876,737;16601,603;   -0,090;    1,955
877,297;16614,930;    0,183;    1,955
877,856;16635,348;   -0,362;    0,318
878,416;16592,675;    1,183;   -0,136
878,976;16844,639;   -1,817;    0,409
879,535;16970,421;    0,092;    3,136
880,095;16692,475;   -0,544;    0,045
880,654;16819,439;   -1,090;    1,318
881,213;16904,766;    2,456;    1,500
881,773;16553,275;    2,637;    2,682
882,332;16914,875;    3,365;    5,136
882,891;16785,202;    3,092;    2,136
883,451;17258,712;   -1,272;    1,682
884,010;16657,221;   -2,908;   -0,409
884,569;16720,639;   -0,999;   -0,045
885,128;16846,057;    2,819;   -1,864
885,687;16931,112;    4,455;    0,682
886,246;16676,348;    1,455;    2,136
886,805;16480,402;    2,455;    2,045
887,364;16728,548;   -0,999;   -0,500
887,922;17097,239;   -1,181;    0,045
888,481;16532,566;   -1,545;    0,591
889,040;16888,893;    1,183;    2,136
889,599;17553,584;    2,455;    1,409
890,157;17611,730;    1,455;    2,409
890,716;17235,693;   -0,090;    0,227
891,274;17089,021;    0,092;   -1,136
891,833;17555,984;    1,546;    0,864
892,391;17442,857;   -0,454;    0,500
892,950;17503,457;    1,819;   -0,773
893,508;17869,602;    0,455;   -0,409
894,067;17230,202;    0,637;    0,136
894,625;17094,802;   -0,636;   -1,500
895,183;17314,948;   -0,363;   -0,682
895,741;17257,639;    1,728;   -1,773
896,299;17080,693;   -0,545;   -2,409
896,858;17264,566;    0,819;   -1,591
897,416;17406,257;    2,728;   -1,318
897,974;17135,675;    1,819;    0,318
898,532;17280,002;    6,091;    2,682
899,089;17150,148;    2,091;   -0,682
899,647;17221,929;   -1,454;    1,318
900,205;16956,802;    1,182;    1,045
900,763;17122,584;   -0,454;    0,227
901,321;17134,002;    2,364;   -1,409
901,878;16545,966;   -1,000;   -0,773
902,436;16461,111;   -1,363;    1,318
902,994;16845,075;    4,728;    3,682
903,551;16282,857;    0,728;    0,409
904,109;16658,275;    0,182;   -1,409
904,666;16255,057;    2,455;    1,045
905,224;16081,111;    0,182;   -0,409
905,781;15830,348;    0,727;   -0,318
906,338;15914,402;   -1,363;    1,045
906,895;15846,002;    0,637;    2,045
907,453;15778,966;    1,727;    1,136
908,010;15812,293;   -0,909;    0,409
908,567;15487,711;    1,273;    0,591
909,124;14957,129;    0,364;   -1,500
909,681;15039,729;   -2,909;    0,682
910,238;15165,875;    0,636;   -1,318
910,795;15508,111;   -0,273;   -1,136
911,352;15099,657;   -2,909;   -2,682
911,909;14554,929;   -1,364;   -0,864
912,466;15061,566;   -3,182;    1,500
913,022;14612,566;   -1,636;    0,500
913,579;14935,384;   -0,909;    2,045
914,136;14649,929;    1,636;    0,955
914,692;14957,657;    0,091;   -1,227
915,249;14563,838;    1,455;    0,409
915,806;14782,384;    0,182;    1,955
916,362;14530,838;    1,909;    1,864
916,918;14110,475;    2,000;    1,045
917,475;14094,475;   -1,182;    0,955
918,031;14127,020;    3,364;   -0,045
918,587;13600,838;   -0,909;   -0,318
919,144;13813,747;   -2,273;    0,227
919,700;14134,111;    1,727;    0,773
920,256;13705,202;    0,727;    0,045
920,812;13341,475;   -0,727;   -1,045
921,368;13327,202;   -1,727;   -1,045
921,924;12949,384;    0,182;   -0,136
922,480;12552,384;   -0,545;    1,227
923,036;13194,838;    1,273;    1,955
923,592;13154,657;    0,455;    0,318
924,148;13043,657;    0,455;   -0,955
924,704;12353,566;   -1,364;   -0,409
925,259;12577,929;   -0,273;    0,591
925,815;12353,384;    1,455;    0,500
926,371;11887,929;    2,909;    1,409
926,926;11781,929;    2,091;    0,591
927,482;11422,838;   -1,364;    0,773
928,037;11290,020;    0,909;    2,045
928,593;11607,929;    1,636;    1,045
929,148;11424,111;   -1,818;   -1,500
929,704;10886,747;   -1,455;   -0,500
930,259;11094,384;    0,091;   -0,136
930,814;10187,566;   -0,818;    1,955
931,369; 9859,202;    1,091;   -0,773
931,925; 9734,838;   -0,091;    0,136
932,480; 9652,929;   -2,818;   -2,591
933,035; 9559,929;    0,545;   -0,318
933,590; 9319,111;    0,364;   -1,773
934,145; 8955,747;   -1,364;   -0,318
934,700; 9303,111;    0,455;   -0,591
935,255; 9095,657;   -0,091;    0,045
935,809; 8379,202;    3,182;    0,864
936,364; 7520,020;   -0,455;   -0,136
936,919; 7489,020;    0,455;   -1,773
937,474; 7362,384;    1,455;    0,136
938,028; 7109,475;   -1,636;    1,136
938,583; 6601,838;    1,818;    4,682
939,138; 6877,384;    2,091;    2,136
939,692; 6326,384;    1,636;   -1,136
940,247; 6017,111;   -0,727;   -1,045
940,801; 5572,384;   -0,636;    0,227
941,355; 5437,384;   -0,364;    2,591
941,910; 5087,566;   -0,273;   -2,136
942,464; 5210,747;   -0,818;   -0,318
943,018; 5002,838;    1,000;   -0,227
943,572; 4933,566;    2,545;   -0,682
944,126; 4374,020;    0,091;   -0,409
944,681; 4253,202;    3,091;    0,227
945,235; 4220,202;    1,000;   -0,591
945,789; 4186,020;    0,364;   -1,864
946,342; 4300,566;    0,455;   -0,591
946,896; 4099,747;   -2,273;    0,955
947,450; 3855,202;    1,545;   -0,227
948,004; 4035,566;    1,727;   -0,045
948,558; 4059,293;    0,273;   -0,864
949,111; 3967,384;   -0,273;   -0,318
949,665; 3991,475;    1,636;   -0,682
950,219; 3855,566;   -0,091;   -1,045
950,772; 3949,566;   -1,909;    1,864
951,326; 3843,111;    0,545;   -0,955
951,879; 3961,384;    0,727;   -2,318
952,433; 3980,293;    0,000;    2,227
952,986; 3819,657;    2,909;    0,682
953,539; 3783,657;   -0,273;    0,591
954,093; 3690,384;    0,545;   -1,318
954,646; 3816,929;    0,909;    1,318
955,199; 3638,111;    0,000;   -0,500
955,752; 3544,747;   -0,455;    1,773
956,305; 3500,020;   -0,091;    2,955
956,858; 3675,657;    0,818;   -0,318
957,411; 3828,747;   -0,545;    2,136
957,964; 3661,929;    1,364;    2,136
958,517; 3648,566;   -1,545;    3,136
959,070; 3479,293;   -0,455;    1,955
959,623; 3554,838;    1,091;    1,500
960,176; 3333,747;    1,727;    2,045
960,728; 3318,293;   -2,727;    0,773
961,281; 3353,293;    0,545;    0,500
961,834; 3404,020;   -0,909;    0,864
962,386; 3330,475;    1,727;    1,045
962,939; 3261,566;    0,364;   -0,318
963,491; 3380,384;    0,455;    1,136
964,043; 3268,293;    1,182;    2,409
964,596; 3385,202;   -1,000;    2,227
965,148; 3235,657;   -1,000;    1,773
965,700; 3159,020;    1,091;   -0,227
966,253; 3299,475;   -0,636;    0,318
966,805; 3121,838;   -2,273;    0,773
967,357; 3174,475;    1,091;   -1,500
967,909; 3139,475;    0,455;   -1,227
968,461; 3263,566;    0,545;    3,136
969,013; 3196,111;   -0,182;   -0,864
969,565; 3256,384;   -0,455;   -1,136
970,117; 3328,475;   -0,364;    1,045
970,669; 3158,657;    0,182;   -0,136
971,220; 3038,384;   -0,455;   -1,500
971,772; 2964,838;   -0,636;   -0,318
972,324; 3068,566;    0,091;   -0,500
972,876; 3018,384;    0,818;   -0,045
973,427; 3154,929;    1,909;   -1,045
973,979; 3123,838;   -0,727;   -2,500
974,530; 3165,293;    1,818;    1,318
975,082; 3165,657;   -0,545;    1,682
975,633; 3056,566;    1,091;    1,682
976,184; 3193,020;    0,909;    0,773
976,736; 2993,020;    0,091;    0,227
977,287; 2806,020;   -0,909;   -0,500
977,838; 2977,293;    0,909;   -0,318
978,389; 3052,929;   -1,000;   -0,500
978,940; 2892,838;    0,545;   -0,409
979,491; 2930,838;    0,091;   -0,500
980,042; 2902,929;    0,182;    3,045
980,593; 2945,202;   -2,545;    0,227
981,144; 2988,202;    2,545;   -0,500
981,695; 2959,657;    1,455;    1,500
982,246; 2924,384;   -0,273;    1,045
982,797; 3079,202;   -1,727;    0,682
983,347; 3170,202;    0,364;    0,591
983,898; 3338,293;    3,091;    0,409
984,449; 3162,657;    2,182;    0,773
984,999; 3089,475;    1,455;   -1,136
985,550; 2862,293;    0,182;   -0,318
986,100; 2890,111;   -0,455;   -0,318
986,651; 2914,566;   -0,818;    0,045
987,201; 2899,475;   -1,000;   -0,591
987,751; 2982,657;    0,818;    2,864
988,302; 2972,475;    2,636;    1,500
988,852; 2988,384;    0,455;   -1,136
989,402; 3036,838;    0,091;    0,682
989,952; 2962,293;   -2,182;    0,864
990,502; 3061,475;   -0,091;    0,682
991,052; 3005,475;   -0,727;    0,045
991,602; 2884,202;   -2,909;    1,318
992,152; 2886,657;    0,455;    0,682
992,702; 2855,657;    1,364;   -0,045
993,252; 2795,566;   -3,000;   -0,500
993,802; 2886,475;   -0,273;    1,318
994,352; 3117,747;   -1,545;    1,136
994,901; 3182,384;   -0,182;    3,227
995,451; 3099,293;   -0,182;    0,318
996,000; 3185,747;    1,636;    0,318
996,550; 2909,747;    2,273;    0,227
997,100; 2898,929;    1,273;   -0,045
997,649; 3184,293;    2,182;    0,955
998,198; 2820,384;    1,727;   -1,500
998,748; 3013,929;    1,091;   -2,318
999,297; 2928,929;   -0,818;   -0,409
999,846; 2992,747;    1,000;   -0,773
1000,395; 3029,929;   -0,818;    0,500
1000,945; 2992,747;    1,818;   -0,773
1001,494; 3072,202;    2,364;    0,682
1002,043; 3074,475;    4,636;    0,864
1002,592; 2911,384;   -1,091;    1,955
1003,141; 3058,747;   -0,455;   -0,682
1003,690; 2907,293;    1,727;    0,500
1004,238; 2990,020;    1,455;   -0,045
1004,787; 2636,929;    1,364;    1,227
1005,336; 2884,747;    0,364;    0,682
1005,885; 3020,838;    1,364;   -2,773
1006,433; 3154,384;    0,545;    0,955
1006,982; 3217,293;    0,455;    1,682
1007,531; 3103,111;   -1,818;   -0,227
1008,079; 3047,657;   -2,273;    0,500
1008,627; 3194,929;   -1,455;    0,409
1009,176; 2927,020;    0,000;   -1,955
1009,724; 2992,475;    1,091;    0,864
1010,273; 3048,111;    1,273;    0,500
1010,821; 3159,384;    0,091;    1,409
1011,369; 2880,657;   -1,364;    1,318
1011,917; 2857,111;   -1,364;   -0,591
1012,465; 3147,020;    1,273;   -1,591
1013,013; 3265,929;    2,091;   -1,682
1013,561; 3145,384;    0,455;   -0,773
1014,109; 3186,293;   -1,909;    1,682
1014,657; 3076,202;    0,364;    0,591
1015,205; 3184,020;    1,636;   -0,955
1015,753; 3226,747;   -0,545;   -1,409
1016,301; 3256,384;   -2,636;    3,045
1016,848; 3241,020;   -1,273;    0,409
1017,396; 3285,838;    2,545;    0,045
1017,944; 3436,384;    1,182;    1,864
1018,491; 3187,838;    0,273;    1,409
1019,039; 3354,929;    0,455;    0,591
1019,586; 3258,838;   -1,364;    1,682
1020,134; 3352,202;    0,455;    1,500
1020,681; 3371,929;    0,182;   -1,136
1021,228; 3376,929;    2,909;   -2,227
1021,776; 3210,566;    1,182;   -1,136
1022,323; 3422,111;    0,455;    0,773
1022,870; 3351,566;   -1,000;   -0,045
1023,417; 3252,566;    2,636;    1,864
1023,964; 3417,657;    2,636;    1,227
1024,511; 3247,566;    1,000;    0,773
1025,058; 3045,929;    3,182;   -0,045
1025,605; 3094,020;   -2,273;    3,136
1026,152; 3325,929;    1,727;   -0,591
1026,699; 3061,020;    1,818;    1,318
1027,245; 3208,111;   -0,091;    0,318
1027,792; 3424,384;   -1,000;    1,409
1028,339; 3290,566;    2,364;   -0,045
1028,885; 3152,475;    1,000;   -0,227
1029,432; 3096,566;   -0,091;    0,227
1029,978; 3159,384;   -1,000;   -1,591
1030,525; 3074,929;    1,000;    0,409
1031,071; 3303,202;   -1,364;    1,136
1031,618; 3412,202;    0,364;    1,682
1032,164; 3203,929;   -0,091;    3,045
1032,710; 3249,111;    1,636;   -1,500
1033,256; 3178,202;   -0,636;   -0,136
1033,803; 3139,111;   -0,545;    1,500
1034,349; 2850,293;   -1,364;    0,136
1034,895; 3025,838;    0,000;   -0,318
1035,441; 2984,566;   -0,818;    0,318
1035,987; 2986,475;   -2,364;   -0,682
1036,533; 2986,293;   -1,455;   -0,955
1037,078; 3194,384;    1,455;    1,682
1037,624; 3019,838;    2,455;   -0,955
1038,170; 3045,293;    0,455;   -0,318
1038,716; 2952,202;    1,636;   -0,409
1039,261; 2879,293;   -2,273;   -0,773
1039,807; 2810,020;   -0,091;    3,409
1040,352; 2876,475;   -1,909;   -0,318
1040,898; 2931,293;   -1,545;   -0,682
1041,443; 2827,020;   -1,455;   -2,591
1041,989; 2843,566;    1,091;    1,591
1042,534; 2726,475;   -0,364;    2,591
1043,079; 2822,747;    2,909;    0,955
1043,625; 2635,657;    1,818;    0,500
1044,170; 2689,384;   -1,364;    1,045
1044,715; 2922,747;    2,455;    0,955
1045,260; 2741,475;    2,182;   -0,955
1045,805; 2783,929;    1,182;   -0,591
1046,350; 2722,111;    1,364;   -0,409
1046,895; 2695,475;    2,909;    1,591
1047,440; 2655,111;    5,364;    0,409
1047,985; 2538,111;    2,818;   -0,955
1048,530; 2459,384;    1,545;    1,227
1049,074; 2514,929;    0,000;    0,318
1049,619; 2489,929;   -1,364;    1,955
1050,164; 2293,929;    0,455;    0,227
1050,708; 2352,020;   -0,455;    0,045
1051,253; 2711,384;    1,273;   -2,227
1051,797; 2425,657;    0,818;   -1,318
1052,342; 2443,293;   -1,182;    1,045
1052,886; 2425,384;    0,364;   -1,409
1053,430; 2308,111;   -1,364;    0,136
1053,975; 2324,384;   -0,818;   -0,318
1054,519; 2301,747;   -0,727;    3,227
1055,063; 2311,202;    0,909;    1,318
1055,607; 2198,475;   -0,182;    0,227
1056,151; 2223,111;    2,909;    1,682
1056,695; 2143,566;    2,273;   -1,136
1057,239; 2207,293;   -1,727;   -0,682
1057,783; 2219,020;    0,818;   -1,500
1058,327; 2161,566;    0,000;    1,409
1058,871; 2400,111;   -0,545;    1,318
1059,415; 2101,020;   -0,818;   -0,045
1059,958; 2365,566;    1,455;    2,591
1060,502; 2077,020;   -1,000;   -0,773
1061,046; 1982,111;    0,364;   -0,955
1061,589; 1957,293;   -3,000;   -1,136
1062,133; 1853,202;   -1,273;    1,864
1062,676; 1786,020;    1,182;    0,864
1063,220; 1791,202;    1,091;    0,500
1063,763; 1811,475;    0,909;    1,136
1064,306; 1891,747;   -0,909;    1,864
1064,849; 1772,111;   -0,909;    0,591
1065,393; 1795,838;    2,000;   -1,500
1065,936; 1907,747;    0,182;   -0,409
1066,479; 1789,384;   -1,455;    1,318
1067,022; 1809,020;   -0,273;   -0,227
1067,565; 1714,111;   -0,091;   -1,318
1068,108; 1715,838;    0,727;   -0,591
1068,651; 1694,475;   -0,636;    1,409
1069,194; 1632,111;   -0,455;   -1,682
1069,736; 1632,293;   -1,273;    0,955
1070,279; 1615,475;   -1,364;   -0,500
1070,822; 1654,929;   -2,000;   -0,318
1071,364; 1735,384;   -0,364;    1,318
1071,907; 1566,020;   -0,727;    3,227
1072,450; 1462,838;    0,000;   -0,045
1072,992; 1474,929;   -0,273;    3,136
1073,535; 1613,111;    2,091;    2,136
1074,077; 1400,475;   -0,727;    2,045
1074,619; 1367,020;   -1,364;    0,591
1075,161; 1405,838;   -1,091;    1,500
1075,704; 1579,202;    1,545;    1,227
1076,246; 1372,020;   -0,182;    0,682
1076,788; 1305,566;   -0,364;    1,773
1077,330; 1370,202;    1,273;    2,136
1077,872; 1346,020;    0,909;    0,955
1078,414; 1578,020;    2,727;    0,773
1078,956; 1314,747;    1,273;   -0,227
1079,498; 1570,929;    1,636;    0,318
1080,040; 1277,293;    1,909;   -1,318
1080,581; 1214,111;    1,636;   -0,318
1081,123; 1136,838;    0,091;   -0,773
1081,665; 1195,202;   -1,182;   -0,955
1082,206; 1500,747;    1,364;   -0,500
1082,748; 1350,202;    0,727;    2,045
1083,289; 1220,384;   -2,000;    1,318
1083,831; 1135,838;   -0,545;    0,227
1084,372; 1172,929;    0,000;    0,591
1084,913; 1180,838;    1,091;    0,864
1085,455; 1145,566;   -1,909;   -2,045
1085,996; 1105,747;   -2,273;    0,136
1086,537; 1134,475;   -0,091;    0,864
1087,078; 1155,475;   -0,909;   -2,136
1087,619; 1216,929;   -1,273;    0,227
1088,160; 1114,475;    0,000;    1,318
1088,701; 1107,384;   -1,091;    0,682
1089,242; 1053,111;    1,364;   -2,227
1089,783; 1140,111;   -0,273;    1,409
1090,324; 1110,202;    0,455;    0,682
1090,865;  987,566;    2,727;   -0,409
1091,405;  946,929;    0,727;    2,227
1091,946;  976,293;    0,182;   -0,955
1092,487;  907,475;    0,818;   -1,409
1093,027; 1083,384;   -1,364;   -1,500
1093,568;  934,475;   -0,364;    1,227
1094,108; 1037,566;    0,273;    1,773
1094,649;  971,293;   -1,182;    0,136
1095,189;  902,111;   -0,636;   -0,682
1095,729;  862,293;   -0,091;    0,955
1096,269;  859,020;    0,727;   -0,955
1096,810; 1181,020;   -1,364;    0,500
1097,350;  996,838;    1,364;   -0,773
1097,890;  901,566;    0,364;    1,227
1098,430; 1156,657;    2,364;    2,864
1098,970; 1035,929;    2,182;    1,682
1099,510;  897,020;    0,545;   -2,318
1100,050;  820,657;    1,000;   -1,591
1100,589;  779,838;   -0,727;   -0,318
1101,129;  907,293;    0,818;   -0,955
1101,669; 1060,202;    1,727;    2,136
1102,209;  884,020;   -0,091;    2,227
1102,748;  827,384;    0,000;    0,955
1103,288;  829,384;    1,273;   -1,227
1103,827;  854,566;    3,091;   -2,227
1104,367;  732,838;   -0,091;   -2,409
1104,906;  704,657;    1,364;   -1,136
1105,445;  778,747;    0,636;   -1,136
1105,985;  719,293;   -0,727;    1,500
1106,524;  763,384;   -1,727;   -0,682
1107,063;  742,747;   -2,727;    1,409
1107,602;  706,566;   -1,909;   -1,500
1108,141;  622,566;   -1,909;    1,500
1108,680;  728,020;   -3,455;   -0,591
1109,219;  671,111;   -0,909;   -0,500
1109,758;  670,475;    0,455;    0,682
1110,297;  654,566;    1,000;   -0,682
1110,836;  597,111;   -0,727;    0,955
1111,375;  758,566;   -2,545;    0,409
1111,913;  765,566;   -1,000;    0,773
1112,452;  703,838;   -0,273;    0,136
1112,991;  579,657;    1,091;    1,955
1113,529;  549,293;   -0,818;   -0,045
1114,068;  616,838;   -0,273;    2,955
1114,606;  511,657;   -0,364;   -0,955
1115,144;  687,657;   -1,273;    1,045
1115,683;  614,475;   -0,727;    0,318
1116,221;  659,747;   -0,455;   -0,864
1116,759;  577,202;    0,636;   -0,864
1117,297;  780,838;    0,000;    1,864
1117,836;  576,838;   -2,182;   -1,227
1118,374;  589,384;    0,182;   -0,682
1118,912;  524,747;    0,909;    2,682
1119,450;  511,566;    1,000;    0,864
1119,988;  564,475;    1,545;    2,136
1120,525; 1028,202;    5,091;    3,318
1121,063;  733,566;    1,182;    1,864
1121,601;  537,384;   -0,909;   -1,227
1122,139;  493,747;   -0,727;   -2,045
1122,676;  685,384;   -0,727;    2,773
1123,214;  614,929;   -1,182;    4,409
1123,751;  430,566;    1,727;    2,227
1124,289;  558,747;   -0,091;   -0,409
1124,826;  427,747;    1,727;    0,227
1125,364;  347,747;    1,727;   -0,955
1125,901;  536,566;    1,182;    1,227
1126,438;  660,202;    0,818;    0,955
1126,975;  371,838;   -0,727;   -0,773
1127,513;  452,293;    0,273;    2,136
1128,050;  357,293;    1,636;   -0,682
1128,587;  461,020;    2,000;   -0,227
1129,124;  500,202;    0,091;    1,318
1129,661;  355,747;    0,273;    0,227
1130,198;  526,384;    1,636;    0,773
1130,734;  467,475;    0,182;    1,409
1131,271;  326,020;   -0,909;    0,864
1131,808;  503,747;    2,909;    3,045
1132,345;  379,020;    1,545;    0,318
1132,881;  245,111;   -1,545;   -1,864
1133,418;  386,838;    0,727;   -1,136
1133,954;  327,657;    2,455;   -2,682
1134,491;  399,020;    1,364;   -0,773
1135,027;  305,293;    2,364;    0,864
1135,564;  397,384;    0,273;    2,955
1136,100;  370,747;    0,364;    2,136
1136,636;  260,929;   -1,273;   -1,045
1137,172;  357,111;    0,000;   -1,045
1137,708;  282,293;   -1,364;   -1,045
1138,245;  285,384;    1,273;   -1,227
1138,781;  226,384;    1,091;   -3,318
1139,317;  301,929;    1,273;   -1,409
1139,852;  291,384;    3,091;    0,136
1140,388;  412,747;   -1,182;   -0,409
1140,924;  284,020;   -1,091;   -2,227
1141,460;  224,111;   -1,636;    0,136
1141,996;  161,384;   -1,364;    2,682
1142,531;  216,111;    1,364;    3,318
1143,067;  429,657;    1,182;    1,045
1143,602;  483,929;   -0,091;   -0,318
1144,138;  326,747;   -2,636;    1,045
1144,673;  189,657;   -1,455;    1,409
1145,209;  264,020;   -1,909;   -0,318
1145,744;  187,929;   -0,727;    0,864
1146,279;  328,747;    1,818;   -0,136
1146,815;  239,020;    1,545;   -2,682
1147,350;  281,384;   -1,364;    0,045
1147,885;  189,657;   -0,818;   -1,318
1148,420;  185,929;   -2,273;    0,773
1148,955;  168,747;   -1,727;    1,864
1149,490;  187,747;   -0,909;   -1,591
1150,025;  169,384;    0,455;   -1,773
1150,560;  293,838;    1,091;   -0,955
1151,094;  266,475;    1,455;   -0,591
1151,629;  261,202;    1,636;    0,864
1152,164;  187,566;    1,364;    1,318
1152,698;  142,111;   -0,182;   -0,136
1153,233;  101,020;    0,091;   -0,682
1153,767;  150,566;   -3,000;   -2,318
1154,302;  199,202;   -1,455;    1,773
1154,836;  203,384;   -0,455;   -2,136
1155,371;  258,111;   -1,364;    3,682
1155,905;  205,929;   -0,636;    1,682
1156,439;  163,293;   -0,636;   -0,500
1156,973;  205,475;    0,364;    0,318
1157,507;  143,838;   -0,364;    0,682
1158,042;  163,111;   -0,727;    1,045
1158,576;  218,384;    0,182;    1,773
1159,110;  211,020;   -0,818;    2,409
1159,643;  175,838;    0,636;   -0,045
1160,177;  112,111;   -1,545;    1,500

