
Integration time [ms]:   0,040
Averaging Nr. [scans]: 11
Smoothing Nr. [pixels]: 0
Data measured with spectrometer [name]: 7318044SP
Wave   ;Sample   ;Dark     ;Reference
[nm]   ;[counts] ;[counts] ;[counts] 

186,757;   31,084;   31,551;    1,318
187,357;   62,631;   22,551;    0,955
187,958;   36,435;   15,460;   -1,591
188,558;   82,894;    8,915;   -1,227
189,159;   48,554;    6,733;   -4,500
189,759;   17,881;    7,278;   -3,591
190,360;   13,292;    2,824;   -2,136
190,960;   66,089;    2,915;   -4,136
191,560;   79,771;    3,189;   -6,591
192,161;  331,884;    4,372;   -3,500
192,761;  168,111;    4,010;   -3,227
193,361;  119,693;    1,556;   -3,773
193,962;  162,948;    2,010;   -2,682
194,562;   80,496;    1,189;   -3,955
195,162;  118,704;   -2,448;   -2,227
195,762;  294,365;   -3,176;   -0,045
196,362;  240,691;    1,370;   -2,500
196,963;  103,163;    2,006;   -0,864
197,563;  169,534;    1,551;   -0,955
198,163;  114,724;    0,096;   -0,682
198,763;  138,134;    1,733;   -0,500
199,363;  247,024;    3,096;   -0,500
199,963;  215,259;    0,369;    0,409
200,563;  179,895;    2,823;   -1,409
201,163;  152,635;    3,277;   -0,227
201,763;  251,976;    3,732;    0,318
202,363;  184,803;    1,459;    1,500
202,963;  298,303;    1,459;    1,045
203,563;  417,649;    0,277;    0,500
204,162;  258,848;    2,096;   -1,864
204,762;  239,951;    0,550;    0,591
205,362;  210,206;    3,004;    1,955
205,962;  322,267;    3,096;    1,955
206,562;  317,107;    1,823;    2,318
207,161;  277,241;   -0,087;    0,318
207,761;  441,139;    1,277;    2,409
208,361;  316,766;   -0,268;    1,409
208,960;  412,148;    0,459;    1,500
209,560;  497,783;    1,277;    1,591
210,160;  480,265;    0,550;    1,864
210,759;  444,343;    4,186;    1,227
211,359;  447,941;    1,459;    1,045
211,958;  726,824;    1,277;    2,045
212,558;  804,615;    1,732;    1,864
213,157;  637,947;    1,822;    1,500
213,757; 1110,877;    3,822;   -0,227
214,356;  797,382;    1,277;   -0,409
214,956; 1134,947;    3,095;    0,409
215,555;  740,536;    2,095;    2,136
216,154;  680,477;   -2,723;   -0,591
216,754;  692,195;    0,277;    0,773
217,353;  842,342;   -0,268;   -1,045
217,952;  700,599;   -0,178;    0,318
218,552;  932,876;    1,368;   -0,773
219,151;  833,871;    0,277;    0,955
219,750;  820,566;    0,004;   -0,227
220,349;  960,321;   -0,451;    1,045
220,948; 1012,839;   -1,360;    1,136
221,548; 1048,122;    0,913;    1,227
222,147; 1173,858;   -0,087;   -0,409
222,746; 1456,098;   -0,451;   -0,955
223,345; 1337,484;    0,731;    0,500
223,944; 1365,549;   -0,451;    0,773
224,543; 1536,763;    1,004;   -1,409
225,142; 1636,633;    0,094;    0,136
225,741; 1556,367;   -0,814;    1,045
226,340; 1581,876;   -0,451;   -0,955
226,939; 2048,668;   -0,996;   -0,136
227,538; 2028,658;   -0,360;   -0,773
228,137; 2175,327;   -0,814;    0,864
228,735; 2336,959;   -0,541;    1,227
229,334; 2082,132;   -0,905;   -0,227
229,933; 2464,386;    0,459;    0,591
230,532; 2584,696;    1,186;   -0,409
231,131; 2624,964;    1,732;    0,318
231,729; 2788,091;   -2,450;   -2,318
232,328; 2918,955;   -0,723;   -1,500
232,927; 3012,451;    1,004;   -0,500
233,525; 3157,490;    3,640;    0,045
234,124; 3378,664;    2,368;   -1,591
234,723; 3389,791;    0,913;   -1,045
235,321; 3547,831;    2,277;    0,136
235,920; 3796,095;    1,186;   -1,227
236,518; 4069,590;    3,459;    0,318
237,117; 4269,004;    0,004;   -0,227
237,715; 4428,104;    0,640;   -0,500
238,314; 4466,164;   -0,087;   -2,318
238,912; 4566,014;   -0,723;   -1,409
239,510; 4630,996;    0,459;   -1,227
240,109; 4824,083;    0,004;    3,773
240,707; 4864,892;   -0,996;    1,227
241,305; 5238,319;    0,550;    0,136
241,904; 5490,228;   -0,178;   -2,045
242,502; 5435,605;   -0,632;   -0,227
243,100; 5385,186;   -0,087;   -0,955
243,698; 5629,287;    0,732;    1,682
244,297; 5818,045;   -0,632;    0,682
244,895; 5643,095;   -0,269;   -2,318
245,493; 5993,653;    2,186;   -0,591
246,091; 6021,604;    1,368;   -1,318
246,689; 6027,872;    1,004;    0,591
247,287; 6197,108;    0,822;   -1,136
247,885; 6491,017;   -1,451;    1,227
248,483; 6593,163;    1,822;   -0,500
249,081; 6730,616;    0,185;    1,591
249,679; 6886,175;   -0,178;    1,682
250,277; 7123,985;   -1,723;    0,864
250,875; 7125,373;   -1,087;   -1,045
251,473; 7168,585;   -1,178;    0,500
252,071; 7361,890;    1,459;    1,045
252,669; 7540,185;   -1,814;    0,318
253,267; 7788,793;   -0,087;    0,773
253,864; 7767,381;   -0,360;    0,682
254,462; 7597,185;    1,640;    1,591
255,060; 7582,890;   -0,269;    1,318
255,658; 7939,549;    0,822;   -0,136
256,255; 8355,740;    0,186;   -2,045
256,853; 8195,926;   -0,269;    1,409
257,451; 8212,099;    0,822;    1,864
258,048; 8496,076;    1,822;    1,864
258,646; 8227,180;    1,731;   -1,045
259,243; 8428,198;   -0,087;    2,227
259,841; 8490,067;   -0,814;    0,318
260,438; 8363,444;   -0,087;    0,864
261,036; 9103,082;   -1,905;    1,409
261,633; 9019,740;   -0,087;    2,227
262,231; 8737,113;    2,731;   -0,045
262,828; 8823,414;   -0,905;    1,136
263,425; 8882,340;    0,913;   -0,591
264,023; 9170,708;    0,186;    0,045
264,620; 8703,808;   -0,360;   -0,318
265,217; 9059,281;   -2,087;    3,136
265,815; 9160,789;   -1,905;    2,136
266,412; 8929,926;    0,731;    0,136
267,009; 8986,458;   -1,451;    0,773
267,606; 8882,453;    0,822;   -0,955
268,203; 8867,950;   -0,269;   -0,591
268,801; 9155,940;    1,731;    0,591
269,398; 9451,335;   -0,360;    2,500
269,995; 9416,050;    0,277;    1,591
270,592; 9197,618;   -0,632;   -0,500
271,189; 9431,457;    0,186;    0,409
271,786; 9554,467;   -0,632;    1,227
272,383; 9367,636;   -1,087;    0,227
272,980; 9568,526;    0,277;    0,318
273,577;10071,382;    0,004;    1,227
274,174; 9631,250;    0,822;    2,591
274,771; 9586,185;   -0,814;   -0,773
275,367; 9727,378;    2,277;    1,409
275,964; 9678,041;    0,731;   -0,500
276,561; 9788,471;    1,549;   -1,045
277,158;10025,902;    0,095;   -1,773
277,755;10149,161;    2,185;    0,409
278,351; 9510,267;   -0,451;   -1,500
278,948; 9840,125;   -0,815;    0,045
279,545; 9885,739;   -1,360;    2,318
280,141;10489,536;   -1,723;   -2,045
280,738;10357,722;   -0,451;   -0,136
281,334;10616,698;   -1,633;    0,591
281,931; 9997,724;   -0,087;   -1,318
282,528;10107,642;    0,822;   -0,500
283,124;10822,458;   -1,087;   -0,500
283,721;10734,342;   -0,451;    1,409
284,317;10534,065;    0,185;    2,500
284,913;11069,229;   -1,360;    0,591
285,510;11258,501;    0,640;   -0,318
286,106;11305,411;   -2,269;   -0,955
286,703;10910,807;   -0,360;    1,955
287,299;11108,885;   -1,451;   -0,591
287,895;11325,476;    0,822;   -1,045
288,491;11886,789;    0,186;    2,136
289,088;11627,980;   -2,360;    2,409
289,684;11702,003;   -1,723;    1,500
290,280;11698,522;    0,368;    0,682
290,876;11804,135;    1,822;    5,500
291,472;11700,934;    1,276;    2,227
292,068;11823,511;    1,367;    0,227
292,665;11512,431;    2,095;    0,773
293,261;11098,375;    0,276;    2,136
293,857;11492,331;    2,913;    2,136
294,453;11435,291;    3,550;    0,955
295,049;11312,016;   -0,268;    1,955
295,644;11350,110;    0,095;    0,136
296,240;11259,184;   -0,905;   -0,136
296,836;11304,721;   -0,995;    0,318
297,432;11571,944;    1,096;   -0,500
298,028;11617,553;    0,732;    0,773
298,624;12006,553;    1,459;    1,864
299,220;12252,207;    2,368;    0,591
299,815;11910,871;    1,005;   -0,409
300,411;11727,016;    0,914;    1,773
301,007;11749,085;    1,368;    0,227
301,602;11805,516;   -0,541;   -2,318
302,198;11961,768;    0,732;   -0,773
302,794;12309,162;    1,187;   -0,500
303,389;12404,085;   -1,177;    1,045
303,985;12477,430;    0,550;    1,409
304,580;12436,612;    1,459;    1,591
305,176;12391,257;   -3,086;    0,136
305,771;12313,784;   -1,268;   -1,227
306,367;12180,874;    4,095;    0,136
306,962;12530,880;    0,641;    1,500
307,558;12300,362;   -0,450;    0,136
308,153;12203,352;    1,095;   -1,136
308,748;12447,748;   -0,814;    1,682
309,344;12377,542;   -0,632;   -1,318
309,939;12455,352;   -1,905;   -1,318
310,534;12754,583;   -0,086;   -1,682
311,130;12679,907;    0,459;   -2,500
311,725;12392,943;    1,004;   -0,500
312,320;12712,039;    2,459;    0,045
312,915;12528,406;    1,459;   -1,045
313,510;12639,525;    1,550;   -0,500
314,105;13150,376;    1,096;    1,409
314,700;12542,048;   -3,086;   -1,045
315,295;12177,976;   -0,904;    0,045
315,890;11725,053;    1,277;    0,864
316,485;12110,316;   -0,359;   -0,318
317,080;12207,252;   -3,086;    1,591
317,675;12778,952;    2,005;   -0,682
318,270;12192,063;    5,550;    3,318
318,865;12176,513;    3,278;    3,045
319,460;12028,939;   -0,904;    0,591
320,055;12289,441;   -0,541;   -1,227
320,650;11943,659;   -1,995;   -0,591
321,244;11981,645;   -0,177;   -1,409
321,839;12952,789;   -1,541;   -0,227
322,434;12826,857;   -1,086;   -1,591
323,029;12448,754;    1,732;    1,591
323,623;12250,748;    1,550;    0,773
324,218;12030,813;    2,368;    1,409
324,812;11917,621;    1,096;    1,591
325,407;11686,939;   -0,814;    2,045
326,002;11612,734;    0,277;   -0,409
326,596;11967,762;    0,914;    1,318
327,191;12177,985;    0,823;   -1,045
327,785;11757,035;   -0,813;   -0,227
328,379;11946,653;    1,368;    0,136
328,974;11734,775;    0,914;   -3,955
329,568;11961,021;    0,186;   -2,409
330,163;11782,158;    2,096;    1,045
330,757;12141,570;    2,459;    1,591
331,351;11477,370;    0,459;    0,682
331,945;11740,430;    0,914;    1,409
332,540;11314,011;   -1,723;   -0,591
333,134;11486,184;   -1,086;    0,773
333,728;11742,070;    0,005;    0,318
334,322;12098,766;   -1,177;   -0,864
334,916;11358,565;    0,277;    0,955
335,510;11700,575;   -0,450;   -0,136
336,105;11952,257;   -1,086;    1,591
336,699;11663,570;   -1,086;    0,591
337,293;11599,797;   -1,723;    0,318
337,887;11755,980;   -2,723;    1,955
338,481;11835,493;    0,459;    0,591
339,074;11980,379;   -0,359;    2,682
339,668;11806,142;   -1,632;    1,227
340,262;12047,674;    1,732;    3,227
340,856;11570,487;    1,822;   -0,682
341,450;10899,587;    1,004;    1,864
342,044;11824,979;    1,459;    0,136
342,637;11580,174;    0,913;   -2,136
343,231;11456,435;   -2,360;    0,682
343,825;11398,384;   -1,086;   -0,591
344,419;11332,548;   -1,995;    0,500
345,012;11129,085;    2,459;    4,045
345,606;11173,481;    4,641;    1,591
346,199;11008,272;   -1,813;   -0,227
346,793;10500,763;    1,914;    2,045
347,386;10706,949;   -0,813;   -1,136
347,980;10737,559;   -0,268;   -0,045
348,573;10531,637;    2,278;    0,409
349,167;10173,070;    5,278;    4,773
349,760;10527,383;    2,914;    2,682
350,354;10497,295;   -0,813;    1,136
350,947;10211,057;    1,096;    1,682
351,540; 9885,716;   -0,358;   -1,409
352,134; 9850,233;    1,096;    1,136
352,727; 9916,900;   -0,086;    1,136
353,320; 9736,742;    0,005;    0,591
353,913; 9572,165;   -1,995;    1,864
354,507; 9739,915;    0,823;   -1,227
355,100; 9765,888;    0,460;    0,864
355,693; 8975,994;    2,005;    2,409
356,286; 8989,138;    0,823;    2,773
356,879; 9388,029;   -0,722;    1,227
357,472; 9017,438;   -0,904;    1,500
358,065; 9213,152;   -0,722;    2,500
358,658; 9123,570;   -0,540;    2,318
359,251; 8765,761;   -1,631;   -0,591
359,844; 8248,684;   -1,904;   -1,136
360,437; 8400,410;   -2,995;    0,045
361,030; 8678,183;    1,369;   -0,682
361,623; 8289,639;    2,824;    0,318
362,215; 8340,534;   -0,086;    2,045
362,808; 8145,197;   -2,358;   -1,682
363,401; 8353,026;   -2,449;    0,136
363,994; 8093,681;   -0,631;   -1,500
364,586; 8021,400;    0,824;   -1,500
365,179; 8222,896;   -0,449;   -1,136
365,772; 7703,625;   -1,995;    2,045
366,364; 8016,337;    1,915;   -3,227
366,957; 8211,948;    2,279;   -0,045
367,549; 8207,926;    2,188;   -0,864
368,142; 7873,813;    1,825;   -1,500
368,734; 8081,893;    0,734;   -2,136
369,327; 8055,625;    1,643;   -0,500
369,919; 7974,536;   -1,538;    0,409
370,512; 7739,170;   -1,083;   -0,500
371,104; 7502,842;   -0,901;    1,591
371,696; 7661,778;    1,191;   -0,955
372,289; 7734,281;    0,373;    1,136
372,881; 7908,831;   -2,080;    1,318
373,473; 7832,231;   -2,170;    1,136
374,066; 7617,174;   -0,169;    0,500
374,658; 7461,603;    0,378;    1,136
375,250; 7840,989;    0,653;   -1,409
375,842; 7693,064;    0,473;   -0,045
376,434; 7558,158;   -0,435;   -0,409
377,026; 8138,143;    0,204;   -2,500
377,618; 8040,663;   -0,158;   -0,682
378,210; 7871,586;   -0,338;   -1,955
378,802; 7728,384;    0,754;   -0,591
379,394; 7675,644;    1,846;    0,682
379,986; 8242,081;    1,393;   -0,955
380,578; 8368,832;   -0,153;    0,773
381,170; 7711,755;   -0,972;    0,045
381,762; 7677,426;    0,755;    1,409
382,354; 7869,882;   -0,065;   -1,318
382,945; 7981,747;   -2,976;    0,318
383,537; 8145,306;   -2,705;   -1,955
384,129; 8136,308;   -2,160;   -1,136
384,721; 8338,715;   -0,252;    0,955
385,312; 8263,559;   -0,161;   -0,955
385,904; 8351,392;   -2,706;    1,591
386,496; 7715,148;   -0,979;    1,045
387,087; 7865,509;    1,022;    2,500
387,679; 7905,652;   -1,160;    0,045
388,270; 8046,548;    2,840;    2,045
388,862; 8188,561;    1,295;   -0,318
389,453; 8062,425;   -0,887;    1,045
390,045; 8351,666;   -0,705;   -2,682
390,636; 8246,240;    0,204;   -0,591
391,227; 8106,938;   -0,523;   -0,045
391,819; 8208,742;    0,204;    0,773
392,410; 8291,818;    1,022;    0,045
393,001; 8220,079;   -0,979;   -1,591
393,593; 8503,724;    1,930;   -0,045
394,184; 8367,361;    1,385;   -0,409
394,775; 8301,670;    1,839;    2,136
395,366; 8475,476;    1,385;    0,773
395,957; 8497,041;    0,113;    0,136
396,548; 8795,976;   -0,342;    2,682
397,139; 9117,887;   -2,433;    0,591
397,730; 8853,799;   -1,888;    0,955
398,321; 8891,543;   -1,252;    0,955
398,912; 8936,156;   -0,615;    0,136
399,503; 9023,543;   -3,524;   -1,409
400,094; 8425,919;    0,294;    1,682
400,685; 8300,739;   -0,433;    0,045
401,276; 8421,430;    0,930;   -0,955
401,867; 8710,516;   -0,888;    0,773
402,458; 8787,389;   -2,251;   -2,318
403,048; 8799,638;    1,112;    0,591
403,639; 8400,226;    0,840;    0,864
404,230; 8616,497;    2,476;    0,318
404,821; 8540,725;   -0,615;    0,045
405,411; 8684,201;    1,203;   -2,591
406,002; 8279,315;   -1,252;   -1,136
406,592; 8120,246;    2,294;    0,045
407,183; 8429,244;    0,566;   -1,500
407,774; 8367,245;    3,475;   -0,136
408,364; 8697,900;    0,930;    0,409
408,954; 8292,099;    0,384;    1,227
409,545; 8321,268;    1,021;    1,045
410,135; 7887,121;    1,293;    0,500
410,726; 8072,287;    1,838;    0,318
411,316; 8420,002;    0,111;    0,773
411,906; 8107,315;   -0,253;   -0,409
412,497; 7593,635;   -1,070;   -0,045
413,087; 8211,798;   -1,980;   -0,227
413,677; 8622,319;   -0,707;    3,864
414,267; 8436,633;    0,656;    1,409
414,857; 8418,296;   -2,980;    4,227
415,448; 8740,762;    0,839;    0,500
416,038; 8395,271;    0,020;   -0,591
416,628; 8360,669;   -0,889;    0,409
417,218; 7832,428;    0,565;    3,318
417,808; 8075,273;    0,202;   -0,409
418,398; 8559,309;    0,020;    2,682
418,988; 8610,118;    2,020;    0,591
419,578; 8848,132;   -0,707;    1,409
420,168; 9180,869;   -1,343;   -0,955
420,757; 8788,975;   -1,343;   -1,500
421,347; 8465,308;    0,111;   -0,227
421,937; 8617,690;    2,292;    1,409
422,527; 8560,021;    0,838;   -0,773
423,116; 8372,791;   -0,253;   -0,045
423,706; 8706,363;   -1,889;    0,318
424,296; 8699,445;    1,384;    0,682
424,885; 9118,081;   -0,071;   -3,045
425,475; 9408,512;    1,474;   -2,864
426,065; 9309,172;   -0,980;   -0,318
426,654; 8950,783;   -0,435;   -0,318
427,244; 9034,017;    0,020;    1,409
427,833; 8543,349;    1,383;   -0,500
428,423; 9012,157;   -0,526;    1,136
429,012; 9748,733;   -0,344;   -1,136
429,601; 9270,919;   -1,344;    0,136
430,191; 9490,470;    1,292;    4,318
430,780; 9121,861;   -0,344;   -0,409
431,369; 9033,559;    0,746;   -0,045
431,959; 9705,614;   -1,254;    0,500
432,548; 9510,114;   -1,163;   -0,045
433,137; 9627,168;   -1,254;   -1,318
433,726;10134,218;    0,292;    0,500
434,315; 9486,136;   -0,526;    2,409
434,905; 9589,439;   -1,254;    1,409
435,494; 9460,835;    0,746;    0,955
436,083; 9931,118;   -0,981;   -0,955
436,672; 9833,717;    0,110;    0,500
437,261; 9369,421;    0,292;   -1,955
437,850; 9536,435;    1,383;    0,682
438,439; 9516,842;    3,291;    1,955
439,027; 9316,151;    3,655;    1,773
439,616; 9659,091;    2,927;    1,227
440,205; 9538,974;    0,200;   -2,136
440,794; 9633,750;    2,109;   -0,045
441,383; 9894,013;   -1,346;   -0,591
441,971; 9757,540;   -2,436;    0,591
442,560; 9643,498;    0,563;   -1,773
443,149; 9382,163;    0,379;   -1,318
443,737; 9513,054;   -0,074;   -2,318
444,326; 9761,148;    0,018;    0,318
444,915; 9816,703;   -1,982;    0,864
445,503;10238,381;   -2,891;   -0,318
446,092; 9488,053;    0,382;    2,136
446,680;10028,939;    0,382;    0,318
447,269;10213,493;   -0,346;   -0,318
447,857; 9984,946;    0,018;   -1,773
448,445;10100,192;    0,563;    1,318
449,034;10344,196;   -1,528;   -1,136
449,622;10450,019;   -1,073;    3,500
450,210; 9635,667;    2,017;    2,227
450,799;10217,699;    0,290;   -0,591
451,387;10166,039;    1,381;   -0,591
451,975; 9781,171;    2,654;    0,864
452,563; 9849,513;    3,472;    2,318
453,151; 9901,826;   -0,528;   -1,227
453,739; 9849,706;   -1,347;    0,136
454,328; 9705,070;    2,381;   -2,136
454,916; 9432,537;    2,562;   -0,136
455,504; 9605,593;    1,017;    1,227
456,092; 9747,839;    0,017;   -1,591
456,679; 9753,093;    1,472;    0,682
457,267; 9674,456;    4,017;    1,045
457,855; 9847,660;    1,017;    1,409
458,443; 9600,586;   -0,165;    1,682
459,031; 9713,064;    0,108;    2,409
459,619;10193,155;   -1,801;    2,864
460,206;10316,319;    0,835;    2,045
460,794;10408,413;   -2,983;   -0,227
461,382;10646,489;   -0,529;   -0,864
461,970;10237,789;    1,198;    1,864
462,557;10249,449;   -0,711;   -0,682
463,145;10447,549;   -3,165;   -1,682
463,732;10608,966;    2,016;   -1,045
464,320;10533,742;   -0,075;   -3,045
464,907;10189,761;    2,743;   -0,773
465,495;10057,036;    0,743;   -1,227
466,082;10243,124;   -1,984;   -0,045
466,670;10147,869;   -2,529;    1,227
467,257;10549,278;   -1,711;    2,045
467,844;10709,623;   -0,075;    0,045
468,432;10744,127;    0,834;    3,500
469,019;10229,676;    0,925;   -1,773
469,606;10691,391;    0,470;    3,682
470,193;10544,339;   -1,439;    0,227
470,780;10116,904;   -2,075;    0,864
471,368;10437,108;   -1,257;   -0,773
471,955;10208,067;    1,379;   -0,682
472,542; 9858,489;    0,652;   -1,136
473,129;10088,244;   -0,166;    0,136
473,716; 9836,363;    1,470;    0,591
474,303;10056,008;    0,652;   -0,864
474,890;10360,797;   -1,439;   -0,500
475,477;10353,278;   -1,621;    0,409
476,064;10234,227;    1,106;   -1,591
476,650;10155,019;    0,288;    0,318
477,237; 9994,292;   -0,258;    0,955
477,824;10165,260;   -1,076;    0,864
478,411;10190,332;   -1,894;   -0,318
478,997;10366,981;    0,560;   -0,773
479,584;10430,448;    1,196;   -0,409
480,171;11179,394;   -0,440;   -0,773
480,757;10814,002;    2,651;    0,773
481,344;11101,190;    0,469;    0,409
481,931;10583,886;    1,105;    1,045
482,517;11604,824;   -1,258;    0,318
483,104;12208,780;    1,106;    2,864
483,690;12517,794;   -1,804;    0,045
484,276;12883,925;   -0,895;    0,227
484,863;12621,684;    2,469;    1,136
485,449;13225,278;   -0,077;    0,318
486,035;13208,510;   -1,986;   -0,136
486,622;13620,234;   -0,895;    0,045
487,208;13573,447;    1,378;    1,500
487,794;13419,746;    0,741;    0,318
488,380;13534,873;    0,105;   -1,409
488,967;13585,866;   -1,168;   -0,409
489,553;13655,190;   -1,895;   -1,409
490,139;13806,803;    1,559;    0,773
490,725;13270,553;    0,741;   -0,227
491,311;12823,408;    3,287;    3,045
491,897;12164,512;   -0,986;    1,500
492,483;11993,671;    0,105;    1,227
493,069;11755,135;    3,923;    0,864
493,655;11767,070;    1,650;    0,682
494,241;11683,107;    1,377;   -0,955
494,826;12096,640;    0,287;   -1,045
495,412;11546,399;    2,559;   -0,682
495,998;11699,992;   -0,805;   -0,318
496,584;11852,965;    0,377;    1,045
497,169;11874,892;    1,014;   -0,682
497,755;11828,204;    0,650;    1,227
498,341;12410,433;    0,559;    0,318
498,926;11951,201;    1,832;    1,955
499,512;12133,770;    1,286;    2,955
500,097;12303,526;    0,195;   -0,318
500,683;12243,108;   -0,350;    2,136
501,268;12608,604;   -0,169;   -0,955
501,854;12334,081;   -0,169;    1,227
502,439;12311,934;   -0,624;   -1,773
503,024;12536,994;    0,195;    0,500
503,610;12627,103;   -0,078;   -0,682
504,195;12634,639;    0,558;    1,955
504,780;12754,167;    2,922;    1,227
505,366;12588,595;    3,013;    2,864
505,951;12303,287;    0,740;    1,045
506,536;12339,110;   -3,260;   -3,682
507,121;12337,270;    0,285;   -0,318
507,706;12822,920;    2,376;    1,045
508,291;13243,655;    2,649;    1,136
508,876;12734,935;   -0,988;    2,591
509,461;12198,022;   -0,169;   -0,773
510,046;12648,854;    0,194;    0,318
510,631;12888,050;   -0,351;   -0,773
511,216;12533,627;    2,467;   -0,500
511,801;12939,365;   -0,442;    2,591
512,386;13243,509;    0,740;    0,500
512,971;13188,908;   -2,988;    0,955
513,555;12728,336;   -0,897;   -1,500
514,140;13512,399;   -0,442;   -3,136
514,725;13557,421;   -0,715;   -1,136
515,309;13682,848;   -0,533;    0,318
515,894;13088,539;   -0,624;   -2,227
516,479;13569,220;   -0,624;   -0,955
517,063;13433,453;    0,376;    1,227
517,648;13548,289;    1,012;   -1,136
518,232;13197,087;   -0,261;   -1,409
518,817;13544,155;   -0,079;    1,682
519,401;13765,187;    2,194;    0,591
519,985;13290,151;    1,103;    1,136
520,570;13172,718;    0,830;   -1,955
521,154;13434,659;    2,102;    0,591
521,738;13605,876;   -2,352;    2,409
522,323;14211,904;   -0,170;    1,682
522,907;13916,558;    0,466;   -0,136
523,491;13660,662;    0,557;    0,955
524,075;13664,548;    2,284;    0,591
524,659;13739,413;    1,466;    0,591
525,243;13183,099;    1,739;    0,409
525,827;13453,703;    0,648;   -0,045
526,411;14303,049;   -1,989;   -0,136
526,995;14521,244;   -0,352;    1,409
527,579;14144,592;   -0,443;   -1,045
528,163;14434,151;    0,375;   -1,500
528,747;14352,219;    2,466;   -0,773
529,331;14632,410;   -0,080;   -1,409
529,915;14854,192;    1,738;    0,955
530,499;14792,614;   -0,807;    1,227
531,082;14533,220;   -0,534;    1,591
531,666;13976,027;    1,374;    0,773
532,250;14685,651;    1,284;    2,682
532,833;14983,518;    0,920;    2,773
533,417;14857,650;   -1,807;    0,864
534,001;14856,131;    1,647;   -0,318
534,584;15519,712;    0,374;    0,500
535,168;15366,157;    0,465;    1,409
535,751;15461,427;    0,647;    0,045
536,334;14881,286;   -0,898;   -0,409
536,918;15464,031;    0,011;    1,591
537,501;15561,185;   -0,899;    1,318
538,085;15542,580;   -0,444;    1,045
538,668;15754,194;    0,829;    2,409
539,251;16073,535;    1,829;    3,773
539,834;16055,062;    0,101;    0,773
540,418;15973,129;   -1,990;    4,318
541,001;16098,879;   -0,990;    1,773
541,584;16121,786;    2,101;    2,227
542,167;15823,542;    1,374;    2,955
542,750;15956,978;    1,919;   -0,773
543,333;15554,004;    0,555;    2,136
543,916;16358,028;    0,192;    2,500
544,499;16985,950;   -1,354;    0,227
545,082;16989,023;    1,374;    3,591
545,665;17114,928;    1,919;    1,500
546,248;17469,550;    1,010;   -0,318
546,830;17126,677;   -0,445;    1,955
547,413;17560,385;    1,010;   -0,773
547,996;18067,594;    0,555;    0,500
548,579;17836,911;    0,919;    0,955
549,161;17606,257;    1,828;    2,682
549,744;17414,392;   -0,809;    0,409
550,326;17926,492;   -0,809;   -1,136
550,909;17708,978;    2,737;    0,591
551,492;18097,102;   -0,263;    0,227
552,074;17929,864;   -0,173;   -1,318
552,657;18444,655;    2,373;    0,045
553,239;18214,223;   -0,173;   -0,773
553,821;18127,496;   -1,082;    1,045
554,404;17678,800;    1,282;    1,136
554,986;18042,854;    0,464;    1,045
555,568;18608,968;    1,191;   -0,955
556,151;17810,218;    1,191;   -0,227
556,733;18035,014;   -0,264;   -0,864
557,315;18519,249;    0,100;    0,500
557,897;18344,199;    0,554;   -0,500
558,479;18465,785;   -1,991;    1,318
559,061;18629,284;   -0,719;   -0,864
559,643;18948,916;   -0,264;    0,045
560,225;19255,131;    1,645;    2,864
560,807;19269,916;    0,918;    0,318
561,389;18760,366;    0,554;    2,318
561,971;19545,628;    0,463;    2,136
562,553;19329,320;   -1,628;    1,591
563,135;19523,975;   -0,537;    1,136
563,717;19131,484;    3,372;    1,136
564,298;19787,834;    3,645;   -0,045
564,880;19538,995;    0,645;   -1,409
565,462;19728,268;    0,645;    1,318
566,043;20865,879;   -0,446;    2,318
566,625;20395,056;    1,918;    1,227
567,207;20252,046;    1,099;    1,682
567,788;21418,705;   -1,264;    1,500
568,370;22259,240;    1,917;   -0,500
568,951;22063,341;    0,190;    0,227
569,533;22979,485;   -0,628;   -0,500
570,114;23375,042;   -0,446;    0,682
570,695;23935,126;   -0,174;   -1,318
571,277;24461,453;   -0,265;   -1,682
571,858;25192,258;    2,008;   -1,136
572,439;26061,259;    1,554;   -1,045
573,021;26247,438;    2,099;   -2,773
573,602;26760,743;   -1,265;    0,318
574,183;27678,497;   -2,083;    2,227
574,764;27811,907;   -1,629;    0,409
575,345;28394,138;    0,917;   -0,136
575,926;28986,934;   -0,356;    0,136
576,507;28953,921;    1,099;   -0,227
577,088;30066,525;    3,099;    1,682
577,669;30085,033;    0,735;    1,955
578,250;30915,770;    0,644;   -1,045
578,831;31529,619;   -1,356;   -2,227
579,412;31798,647;   -0,810;    0,955
579,993;32722,720;    1,008;    0,227
580,573;33045,665;   -0,629;   -0,955
581,154;32006,343;    0,735;   -0,591
581,735;32877,997;    0,644;    0,773
582,315;32418,543;   -0,629;    2,136
582,896;32701,361;   -0,174;    1,227
583,477;32116,924;    0,189;    1,227
584,057;32315,142;    0,553;    0,955
584,638;32595,992;    2,553;    2,318
585,218;32596,497;   -0,538;    2,682
585,799;32766,129;    0,281;   -0,227
586,379;32743,616;    0,372;    1,591
586,959;31521,652;    0,735;    0,318
587,540;30834,510;   -0,629;    2,227
588,120;30371,940;    1,007;   -0,045
588,700;29331,869;    2,553;    2,136
589,281;29666,420;    0,462;   -0,955
589,861;29558,297;    0,099;   -1,682
590,441;29404,065;    2,371;   -2,682
591,021;28397,806;   -0,265;   -2,591
591,601;28630,798;   -0,537;    0,500
592,181;28629,721;   -0,719;   -0,773
592,761;27919,718;    0,007;    1,409
593,341;27846,161;   -0,901;    0,045
593,921;27840,039;   -0,265;    1,591
594,501;27719,775;   -0,538;    1,318
595,081;27533,243;    0,917;   -0,318
595,661;27922,898;   -1,447;    0,955
596,240;28420,285;   -0,537;    0,136
596,820;28089,776;    0,372;    1,955
597,400;28296,825;    2,008;    0,773
597,980;28456,189;    2,008;    1,045
598,559;28495,811;    2,735;   -0,227
599,139;28186,657;   -0,174;   -1,227
599,718;28048,293;   -0,174;   -0,409
600,298;28376,571;    0,735;    0,682
600,877;28604,294;    2,917;    1,409
601,457;28858,967;    2,281;    1,136
602,036;28746,612;    0,190;    2,045
602,616;28970,912;    0,644;    1,682
603,195;29347,327;   -0,355;    3,500
603,774;28849,776;   -0,901;    2,045
604,354;28733,844;    0,826;   -0,500
604,933;28223,239;    0,463;    1,864
605,512;28337,917;    3,554;    0,591
606,091;28400,627;   -0,537;    3,773
606,671;29230,122;    0,281;    0,773
607,250;28310,676;    1,644;    3,136
607,829;28547,300;    2,372;    3,227
608,408;28375,495;    1,190;    2,591
608,987;27450,446;    1,281;    3,409
609,566;27766,993;   -1,265;   -2,500
610,145;27809,796;   -1,082;    0,682
610,723;28242,846;    4,372;    6,864
611,302;27496,224;   -0,446;    1,682
611,881;27006,987;    5,008;   11,227
612,460;27834,696;    1,645;    3,955
613,039;28229,184;   -0,082;    2,045
613,617;26982,350;    1,736;    4,773
614,196;27184,637;    1,099;    1,227
614,775;27548,870;    1,009;    2,409
615,353;27520,425;    0,736;    0,864
615,932;27242,861;    0,100;    2,409
616,510;27837,866;    0,554;    0,591
617,089;27332,025;    7,100;   17,591
617,667;27044,593;    2,372;    6,136
618,246;26934,753;   -1,537;    1,318
618,824;27074,557;   -3,355;   -0,955
619,402;26660,289;   -2,900;   -1,773
619,981;27160,594;   -0,173;   -1,045
620,559;27013,340;    0,009;    1,682
621,137;26475,699;   -0,718;    1,864
621,715;26539,658;   -1,173;   -0,682
622,293;26430,117;   -0,537;   -0,773
622,871;26876,521;   -0,718;    0,500
623,450;26448,054;    0,373;   -0,864
624,028;26389,094;    0,191;   -0,955
624,606;25941,168;   -1,718;    1,682
625,183;26367,618;   -1,536;   -1,136
625,761;25996,796;    1,009;    1,136
626,339;26293,067;    1,373;    2,591
626,917;26702,701;   -0,172;   -0,045
627,495;26723,746;   -0,354;    1,318
628,073;26165,438;   -0,263;    2,864
628,650;25874,605;    0,100;    2,136
629,228;26321,068;    0,373;    4,409
629,806;25697,432;    2,282;    1,136
630,383;25953,960;    1,464;   -0,318
630,961;25751,919;    2,555;   -0,955
631,539;25475,283;    2,464;    0,227
632,116;24797,100;   11,373;   15,409
632,694;25360,333;    2,555;    6,500
633,271;25704,039;    0,828;    2,682
633,848;25595,011;    1,828;    2,045
634,426;25692,053;   -1,081;    1,773
635,003;24790,132;    1,101;   -0,409
635,580;25087,205;    1,192;    3,682
636,158;25664,844;    3,737;    1,227
636,735;25646,707;    0,555;   -0,500
637,312;25819,820;   -0,809;   -0,682
637,889;25860,908;   -4,354;   -0,682
638,466;25370,723;   -3,990;   -0,409
639,043;25402,079;    2,101;   -1,136
639,620;25716,406;   -2,262;   -0,955
640,197;25966,266;    1,100;    1,682
640,774;26086,050;   -0,172;    1,136
641,351;26556,016;    0,737;    1,136
641,928;25967,345;   -0,627;    1,409
642,505;25585,310;    0,828;   -0,500
643,082;25772,185;   -1,718;    1,227
643,658;24748,878;   -0,718;    1,500
644,235;25510,662;    1,191;    2,500
644,812;25817,991;    1,918;    0,773
645,388;25545,865;   -0,991;    1,409
645,965;25666,376;   -0,809;    1,682
646,542;25773,524;   -1,445;   -0,227
647,118;25687,671;    1,009;   -0,955
647,695;25937,455;   -0,263;    1,136
648,271;25915,875;   -0,536;    0,500
648,848;26258,386;    0,736;    2,227
649,424;26048,442;    0,827;    1,318
650,000;25889,590;   -0,354;   -1,045
650,577;25679,737;   -0,627;   -0,955
651,153;26106,430;   -1,809;    0,955
651,729;27102,850;    1,191;    0,864
652,305;27412,634;    0,645;    2,773
652,881;32054,690;   -0,082;    1,136
653,458;39037,565;    1,100;    0,227
654,034;42780,712;    0,282;    1,591
654,610;44242,133;    0,554;    0,773
655,186;45505,280;    0,645;    3,045
655,762;45106,791;   -0,991;    0,409
656,338;45188,393;    0,100;    0,136
656,913;46102,904;   -0,082;    0,409
657,489;45400,051;    0,827;   -0,318
658,065;45378,108;   -0,173;   -1,591
658,641;45967,073;   -0,900;   -0,864
659,217;45282,675;   -0,991;    0,409
659,792;44630,095;    0,645;   -0,409
660,368;44865,424;   -2,173;   -0,682
660,944;44510,299;   -2,082;    1,227
661,519;39748,356;   -0,628;    0,409
662,095;33760,230;   -1,719;    0,591
662,670;29177,196;    1,281;   -0,136
663,246;28045,525;    1,009;   -0,409
663,821;27391,218;    0,281;    1,682
664,396;26887,547;    0,009;    1,864
664,972;27138,240;    0,009;   -0,500
665,547;27447,751;    1,372;    0,136
666,122;27523,535;   -1,082;    0,318
666,698;27775,682;   -0,173;    0,318
667,273;27112,557;   -0,173;    0,136
667,848;27920,340;    2,372;    1,500
668,423;27763,033;    2,190;    2,318
668,998;28322,726;    2,827;   -0,682
669,573;28854,055;   -3,264;   -1,500
670,148;28671,294;   -1,446;   -0,682
670,723;28488,623;   -1,810;    0,318
671,298;28917,406;    2,372;    1,045
671,873;29035,554;   -0,082;   -0,136
672,448;28960,519;    0,645;    0,136
673,023;29297,485;   -1,992;   -0,227
673,597;29668,723;    0,827;    2,318
674,172;29429,598;   -0,355;    0,318
674,747;28891,473;    0,372;   -1,045
675,321;28676,074;   -0,628;    3,318
675,896;28278,495;    0,645;    1,045
676,471;29264,460;    2,645;    1,591
677,045;29053,698;   -1,264;    0,682
677,620;29135,391;    0,190;    1,136
678,194;29451,266;   -2,628;    1,136
678,769;29017,868;   -1,083;   -0,318
679,343;29234,561;   -0,628;    1,773
679,917;29129,981;   -1,446;    1,955
680,492;29249,219;    0,826;    3,227
681,066;29374,185;    3,372;    0,409
681,640;29408,332;    1,463;   -0,318
682,214;30206,025;    0,735;    0,500
682,788;29740,899;   -1,356;   -0,773
683,363;29704,865;   -1,810;    1,682
683,937;29385,285;   -1,719;   -0,318
684,511;30133,796;    0,463;   -0,591
685,085;29855,307;   -1,356;    0,318
685,659;29583,364;   -2,538;    0,864
686,232;29834,329;   -0,356;   -0,318
686,806;29561,113;   -0,901;    0,409
687,380;30183,169;   -0,174;    0,591
687,954;30418,862;   -1,174;    1,136
688,528;30118,010;   -0,719;    1,955
689,101;30852,157;   -3,992;    1,045
689,675;30489,304;   -0,356;   -0,136
690,249;29854,088;   -0,719;    0,409
690,822;30173,145;    0,280;    0,318
691,396;30240,837;   -0,265;    1,227
691,969;29700,803;    1,280;    0,136
692,543;30183,496;   -0,447;   -1,955
693,116;29856,007;   -0,265;   -1,409
693,690;29696,972;    0,099;    0,500
694,263;30186,120;   -1,083;    2,955
694,836;30258,994;    1,371;    3,591
695,410;28920,415;   -0,265;    1,773
695,983;29419,653;    0,189;    0,591
696,556;29357,255;   -0,447;   -1,045
697,129;29665,220;   -0,356;    1,409
697,703;29393,822;   -1,629;    1,955
698,276;29367,606;    1,462;   -0,773
698,849;29198,026;    1,280;    1,409
699,422;29601,355;   -1,083;    0,591
699,995;29303,594;    0,007;    0,136
700,568;29776,468;   -0,629;    3,045
701,140;29796,707;   -2,811;    1,682
701,713;29515,399;   -0,174;    2,409
702,286;29234,547;   -0,538;    0,864
702,859;29164,421;   -0,902;   -0,591
703,432;28297,569;    0,825;    0,682
704,004;28805,262;    0,462;    0,318
704,577;28653,954;   -0,629;    0,136
705,150;29204,920;    0,189;    2,500
705,722;29027,795;   -0,356;   -3,227
706,295;28832,669;   -0,175;   -0,591
706,867;28648,998;   -0,175;    1,955
707,440;28856,419;   -1,720;   -0,409
708,012;29162,111;    0,462;    0,591
708,584;29075,077;    2,462;    0,227
709,157;29288,770;    1,825;   -0,591
709,729;28940,554;    2,280;    2,045
710,301;29827,065;    0,734;    0,045
710,874;29799,121;   -1,447;   -0,227
711,446;28718,996;    0,371;    0,864
712,018;28620,870;    0,098;    0,500
712,590;28304,745;   -1,993;    1,682
713,162;28837,347;    0,825;    1,318
713,734;29121,767;    1,825;   -2,045
714,306;28997,460;   -1,902;   -0,409
714,878;27701,971;    0,825;    0,864
715,450;28514,118;    0,643;    0,864
716,022;28794,266;    1,552;    1,318
716,593;28931,686;    0,189;    0,591
717,165;28897,742;   -3,175;   -1,227
717,737;28570,526;    0,280;    0,409
718,309;28229,946;    0,280;   -0,045
718,880;28133,730;   -0,539;   -1,409
719,452;28388,241;   -0,175;   -1,591
720,024;27970,388;    0,734;   -0,591
720,595;28529,445;   -2,902;    0,955
721,167;28095,956;    0,370;   -2,045
721,738;27617,648;   -0,812;   -1,045
722,309;27634,614;   -0,993;   -1,227
722,881;27422,852;   -1,357;    0,773
723,452;28035,727;   -2,630;    2,864
724,023;28186,874;   -0,721;    2,682
724,595;27984,840;    0,007;    0,682
725,166;27651,624;    0,007;   -0,409
725,737;27358,771;    1,734;    0,227
726,308;27429,464;   -0,266;    0,318
726,879;27926,884;   -1,630;    1,227
727,450;27760,122;    0,552;   -0,045
728,021;27737,088;    3,097;    0,682
728,592;27451,053;    0,734;    0,500
729,163;27772,019;    0,643;   -0,136
729,734;27845,075;    0,188;   -0,227
730,305;28221,314;    1,734;    0,136
730,876;28571,461;    0,188;    2,955
731,447;28271,699;    2,188;    2,682
732,017;28418,847;    1,097;    1,864
732,588;27889,176;    0,734;    1,227
733,159;28105,778;    0,643;   -1,045
733,729;27881,834;    0,006;    0,409
734,300;27146,164;    0,915;    0,864
734,870;27577,129;    3,461;    0,591
735,441;28182,276;    0,370;   -0,591
736,011;27895,515;    0,643;   -1,591
736,582;27871,480;   -0,812;    0,045
737,152;27362,991;   -1,721;   -2,045
737,722;27767,230;   -0,267;   -0,682
738,293;27446,104;   -1,358;    1,318
738,863;27316,797;    2,461;    2,318
739,433;27166,581;    5,279;    0,318
740,003;27827,910;   -0,994;   -0,682
740,573;27200,057;    2,097;   -1,591
741,143;27144,932;   -1,085;    0,318
741,713;27954,079;    1,188;   -0,500
742,283;27658,681;    0,915;    1,591
742,853;27435,556;    1,915;    1,591
743,423;26887,885;    1,733;    0,045
743,993;27026,669;   -0,358;    1,500
744,563;26360,544;    0,097;   -0,864
745,133;26365,055;   -0,812;   -0,864
745,702;27045,020;   -0,267;    1,773
746,272;26210,258;   -0,176;    0,591
746,842;25967,406;   -1,358;   -0,591
747,411;26383,281;   -0,267;   -0,318
747,981;26605,519;    0,097;    0,500
748,551;26619,666;    2,278;   -1,045
749,120;26492,632;    0,642;   -0,227
749,690;26883,506;   -0,631;    2,409
750,259;27180,381;    1,369;    2,955
750,828;27107,801;    1,551;   -1,955
751,398;27392,494;    1,278;   -0,045
751,967;26894,369;    2,187;    0,409
752,536;27073,425;   -0,813;   -0,227
753,105;27468,482;    0,096;    0,227
753,675;27275,902;    0,096;    1,773
754,244;27204,685;   -0,904;    3,591
754,813;27242,287;    0,551;    1,227
755,382;26867,253;    0,460;    0,955
755,951;27442,400;    1,551;    3,682
756,520;26940,184;   -0,085;    1,864
757,089;27528,968;    0,278;    0,500
757,658;27679,206;    1,733;    1,227
758,227;27650,444;    1,096;    0,318
758,795;27996,501;    1,187;    1,136
759,364;28172,830;   -0,086;   -0,591
759,933;27201,614;   -1,176;   -0,045
760,501;26746,579;    0,733;   -1,318
761,070;27190,454;   -2,813;   -1,409
761,639;27891,238;   -1,904;    1,318
762,207;27249,294;    1,551;   -0,955
762,776;27128,351;    0,369;    0,864
763,344;27138,862;   -0,995;    0,591
763,913;26250,918;   -0,722;    1,409
764,481;26960,065;    1,005;   -0,136
765,049;26748,486;   -1,358;    1,409
765,618;26622,360;   -0,086;    0,318
766,186;26773,871;    0,278;    0,136
766,754;26950,746;    0,005;    1,864
767,322;25919,166;   -1,995;    0,409
767,890;25947,859;   -0,722;   -1,773
768,459;26317,279;   -2,177;   -0,318
769,027;26525,517;    1,641;    3,409
769,595;25504,119;    3,278;    2,591
770,163;25930,085;    3,823;    2,955
770,730;25691,414;    0,732;   -0,136
771,298;25489,198;    0,187;   -1,409
771,866;25567,072;   -1,541;    4,955
772,434;25921,038;   -0,631;   -1,864
773,002;26107,731;    0,005;    0,682
773,569;25740,514;    0,914;    1,682
774,137;25571,662;   -0,268;   -0,045
774,705;26375,536;    0,278;   -0,136
775,272;25873,957;    0,641;    0,682
775,840;25614,649;   -0,177;    2,682
776,407;25156,524;    0,277;    1,955
776,975;24724,853;   -0,632;    0,318
777,542;25740,819;   -1,086;   -0,045
778,110;25596,603;   -1,268;   -0,045
778,677;25289,932;   -2,359;   -0,864
779,244;25055,079;    2,186;    1,045
779,812;25169,863;    1,823;    0,864
780,379;25000,919;    0,005;    1,136
780,946;25217,339;    1,005;   -0,773
781,513;25523,396;   -1,450;    0,318
782,080;24924,180;   -0,086;    2,864
782,647;25645,145;   -0,268;    3,045
783,214;25246,474;   -0,177;    3,864
783,781;24875,713;   -0,723;   -0,682
784,348;24763,860;   -0,632;    1,500
784,915;25209,462;   -3,177;    0,318
785,482;24982,064;    1,368;    2,591
786,049;25404,575;    0,186;   -0,591
786,615;25485,904;    0,277;   -0,955
787,182;25241,142;    0,186;   -0,682
787,749;24974,563;   -2,814;    1,409
788,315;24257,619;   -1,632;   -0,409
788,882;24555,675;    1,550;   -1,227
789,448;25268,823;    1,732;   -0,955
790,015;25308,243;    1,095;    3,227
790,581;24840,209;    1,459;    0,227
791,148;24728,265;    0,641;    1,045
791,714;24913,776;   -0,541;    3,136
792,280;24599,560;    0,186;    1,591
792,847;24186,434;    0,550;    2,500
793,413;24769,036;   -0,269;   -0,318
793,979;24292,638;    3,459;   -1,318
794,545;24349,786;    4,459;    2,682
795,111;23730,751;    2,186;    1,318
795,678;23958,444;    0,731;   -1,682
796,244;23559,682;    3,368;    0,136
796,810;24196,375;    1,731;    0,773
797,375;23859,977;    0,549;   -2,136
797,941;23876,852;   -0,541;    0,591
798,507;24051,545;   -0,451;   -0,955
799,073;23536,146;   -0,360;    0,591
799,639;23610,385;   -2,632;    3,136
800,205;23686,350;    0,095;    2,682
800,770;23218,316;    0,640;    1,773
801,336;23303,009;    1,368;   -0,955
801,901;22986,247;    4,549;    3,136
802,467;23551,667;   -0,542;    2,045
803,033;22909,724;   -0,087;    0,864
803,598;23148,689;    1,913;   -1,045
804,163;23113,746;    1,095;   -0,318
804,729;23059,984;   -0,178;    1,136
805,294;23458,313;    0,822;    2,227
805,859;23281,460;    0,731;   -0,409
806,425;22725,244;    1,186;    2,682
806,990;22421,664;    2,186;    4,318
807,555;22931,357;   -1,451;    2,591
808,120;22813,232;    0,822;   -0,409
808,685;22871,106;    0,185;   -2,500
809,250;22353,981;    0,004;   -0,500
809,815;22721,128;    1,913;    0,682
810,380;23249,276;   -0,269;    1,591
810,945;23804,241;   -1,087;    2,045
811,510;22919,025;    2,094;    1,591
812,075;22614,536;   -0,633;   -1,409
812,640;22677,593;    2,003;    1,409
813,204;22726,104;    0,822;   -0,227
813,769;23197,160;    2,094;   -0,045
814,334;22613,308;    0,458;    0,864
814,898;22694,273;    0,367;    0,591
815,463;22517,239;    1,276;   -0,773
816,027;22500,750;   -0,724;   -2,318
816,592;22561,079;    0,640;   -2,045
817,156;22111,044;    2,094;    1,136
817,721;21935,465;    4,276;    2,318
818,285;21897,157;    2,912;    1,500
818,849;22552,759;   -1,451;    1,682
819,414;22465,725;   -0,269;    2,955
819,978;22025,327;   -1,269;    1,773
820,542;22600,292;    2,003;    0,500
821,106;22302,894;   -0,815;    0,682
821,670;22439,678;   -0,815;    2,591
822,234;22196,553;   -0,270;    1,409
822,798;21565,427;    0,003;    0,500
823,362;21448,938;   -0,633;    4,227
823,926;20751,086;    0,094;    1,136
824,490;21011,233;   -0,997;   -0,682
825,054;21461,108;   -0,088;   -1,136
825,618;21109,073;   -1,542;   -1,500
826,181;21070,312;    0,458;   -1,318
826,745;20960,459;    1,367;   -1,045
827,309;21323,788;    1,185;    1,318
827,872;20717,299;    1,367;    0,955
828,436;21741,083;    1,185;   -0,773
828,999;21767,048;   -0,997;    1,227
829,563;20510,105;   -0,179;    1,136
830,126;20375,525;   -0,179;   -0,591
830,690;20340,400;   -1,997;    2,864
831,253;19851,183;   -0,543;    2,227
831,816;19972,422;   -1,906;    0,500
832,380;19958,569;    0,185;    0,864
832,943;20192,535;   -1,361;   -0,500
833,506;19651,955;    2,639;   -1,227
834,069;20392,829;    3,912;   -0,955
834,632;20475,068;    1,730;    1,318
835,195;20420,579;    1,003;    0,955
835,758;19582,181;   -0,997;    1,955
836,321;19447,146;    0,730;   -1,045
836,884;19536,203;   -0,725;   -0,955
837,447;19563,986;   -2,816;    1,773
838,010;19796,952;    0,366;    3,227
838,573;20119,918;   -1,179;    0,773
839,135;20096,429;   -1,361;   -0,955
839,698;19550,758;    1,275;    0,409
840,261;19071,087;    1,003;   -0,227
840,823;18904,507;   -0,543;    0,864
841,386;19184,745;   -0,452;   -2,409
841,948;19066,620;   -1,361;    1,773
842,511;18795,495;    0,912;    1,682
843,073;18951,642;    1,912;    0,227
843,636;18794,426;   -0,361;   -0,227
844,198;18709,300;    0,911;    0,591
844,760;18815,811;    1,093;    1,955
845,322;18467,231;    0,548;    1,136
845,885;18885,833;    0,730;    0,591
846,447;19333,890;   -1,998;    0,227
847,009;18913,855;    1,911;   -0,682
847,571;19244,003;    0,820;   -2,045
848,133;19374,332;   -1,089;   -1,864
848,695;19190,479;   -0,543;    1,409
849,257;18757,990;   -1,089;   -1,682
849,819;18931,774;   -0,998;   -0,409
850,381;18966,103;   -0,725;   -0,864
850,942;19297,887;    1,093;   -0,591
851,504;19292,944;    1,184;    0,227
852,066;19314,000;    1,275;   -1,591
852,628;18872,238;   -0,180;    1,955
853,189;18410,568;    1,638;    2,682
853,751;18506,169;   -0,907;    1,409
854,312;18283,408;   -0,453;   -1,682
854,874;18761,464;   -2,089;   -0,773
855,435;19322,612;   -0,907;   -1,682
855,997;19520,577;   -1,816;   -0,136
856,558;18771,543;    0,366;    1,773
857,119;18855,599;    0,820;    2,864
857,681;18556,565;    0,002;    0,318
858,242;18598,348;    1,911;   -2,136
858,803;19017,132;    0,456;   -0,773
859,364;19594,643;    0,184;   -4,773
859,925;18929,700;   -2,453;   -0,955
860,486;18826,029;   -0,453;   -0,955
861,047;18527,267;   -0,544;   -1,227
861,608;18345,960;   -1,089;   -0,773
862,169;18456,471;    0,638;   -0,045
862,730;18241,527;    0,456;    1,409
863,291;18479,311;   -0,635;   -0,500
863,852;18885,640;   -0,635;    1,955
864,412;18289,879;   -0,271;   -0,864
864,973;16870,481;   -0,089;    0,500
865,534;16753,719;   -1,726;    0,227
866,094;18265,230;    1,820;    0,227
866,655;17914,832;    1,274;    3,318
867,215;18174,525;    0,274;    0,136
867,776;18055,036;    0,547;   -0,136
868,336;18178,092;   -1,453;    0,136
868,897;17595,876;    2,638;    1,682
869,457;17348,478;    1,365;    0,318
870,017;17554,262;    0,547;   -1,227
870,578;18092,227;   -0,817;    0,773
871,138;17794,284;   -2,089;   -0,955
871,698;17319,886;   -0,817;   -1,318
872,258;17202,124;   -0,453;   -2,864
872,818;17530,817;    2,729;    0,045
873,378;17532,055;    0,638;    1,045
873,938;17097,839;    0,547;    0,500
874,498;17441,895;    0,274;   -1,955
875,058;17340,043;    2,183;    1,773
875,618;17168,099;    1,910;   -2,682
876,177;17071,792;    1,274;    0,136
876,737;16713,576;   -0,090;    1,955
877,297;16742,632;    0,183;    1,955
877,856;16754,598;   -0,362;    0,318
878,416;16665,200;    1,183;   -0,136
878,976;16927,892;   -1,817;    0,409
879,535;17071,131;    0,092;    3,136
880,095;16806,369;   -0,544;    0,045
880,654;16912,335;   -1,090;    1,318
881,213;17032,846;    2,456;    1,500
881,773;16654,720;    2,637;    2,682
882,332;17026,231;    3,365;    5,136
882,891;16857,015;    3,092;    2,136
883,451;17350,344;   -1,272;    1,682
884,010;16782,401;   -2,908;   -0,409
884,569;16875,093;   -0,999;   -0,045
885,128;17016,423;    2,819;   -1,864
885,687;17086,934;    4,455;    0,682
886,246;16773,354;    1,455;    2,136
886,805;16551,228;    2,455;    2,045
887,364;16869,921;   -0,999;   -0,500
887,922;17221,887;   -1,181;    0,045
888,481;16700,943;   -1,545;    0,591
889,040;17030,272;    1,183;    2,136
889,599;17739,147;    2,455;    1,409
890,157;17781,113;    1,455;    2,409
890,716;17439,351;   -0,090;    0,227
891,274;17251,226;    0,092;   -1,136
891,833;17708,009;    1,546;    0,864
892,391;17558,339;   -0,454;    0,500
892,950;17610,031;    1,819;   -0,773
893,508;18019,088;    0,455;   -0,409
894,067;17354,053;    0,637;    0,136
894,625;17223,655;   -0,636;   -1,500
895,183;17480,803;   -0,363;   -0,682
895,741;17335,586;    1,728;   -1,773
896,299;17149,007;   -0,545;   -2,409
896,858;17388,154;    0,819;   -1,591
897,416;17491,301;    2,728;   -1,318
897,974;17213,358;    1,819;    0,318
898,532;17367,232;    6,091;    2,682
899,089;17292,925;    2,091;   -0,682
899,647;17349,982;   -1,454;    1,318
900,205;17049,493;    1,182;    1,045
900,763;17264,913;   -0,454;    0,227
901,321;17267,697;    2,364;   -1,409
901,878;16728,208;   -1,000;   -0,773
902,436;16604,082;   -1,363;    1,318
902,994;16971,684;    4,728;    3,682
903,551;16413,377;    0,728;    0,409
904,109;16783,979;    0,182;   -1,409
904,666;16377,672;    2,455;    1,045
905,224;16189,910;    0,182;   -0,409
905,781;15934,694;    0,727;   -0,318
906,338;16009,659;   -1,363;    1,045
906,895;15931,625;    0,637;    2,045
907,453;15831,954;    1,727;    1,136
908,010;15875,192;   -0,909;    0,409
908,567;15532,976;    1,273;    0,591
909,124;15045,124;    0,364;   -1,500
909,681;15140,816;   -2,909;    0,682
910,238;15257,964;    0,636;   -1,318
910,795;15549,020;   -0,273;   -1,136
911,352;15191,111;   -2,909;   -2,682
911,909;14629,657;   -1,364;   -0,864
912,466;15155,929;   -3,182;    1,500
913,022;14677,020;   -1,636;    0,500
913,579;15061,929;   -0,909;    2,045
914,136;14751,747;    1,636;    0,955
914,692;15096,202;    0,091;   -1,227
915,249;14696,838;    1,455;    0,409
915,806;14919,929;    0,182;    1,955
916,362;14630,475;    1,909;    1,864
916,918;14193,020;    2,000;    1,045
917,475;14152,929;   -1,182;    0,955
918,031;14244,202;    3,364;   -0,045
918,587;13701,929;   -0,909;   -0,318
919,144;13932,929;   -2,273;    0,227
919,700;14241,202;    1,727;    0,773
920,256;13790,020;    0,727;    0,045
920,812;13436,384;   -0,727;   -1,045
921,368;13440,111;   -1,727;   -1,045
921,924;13085,747;    0,182;   -0,136
922,480;12662,475;   -0,545;    1,227
923,036;13289,657;    1,273;    1,955
923,592;13218,657;    0,455;    0,318
924,148;13130,838;    0,455;   -0,955
924,704;12387,657;   -1,364;   -0,409
925,259;12709,293;   -0,273;    0,591
925,815;12494,929;    1,455;    0,500
926,371;12002,566;    2,909;    1,409
926,926;11904,293;    2,091;    0,591
927,482;11514,384;   -1,364;    0,773
928,037;11368,384;    0,909;    2,045
928,593;11662,384;    1,636;    1,045
929,148;11472,202;   -1,818;   -1,500
929,704;10980,384;   -1,455;   -0,500
930,259;11189,566;    0,091;   -0,136
930,814;10258,293;   -0,818;    1,955
931,369; 9904,929;    1,091;   -0,773
931,925; 9791,384;   -0,091;    0,136
932,480; 9728,929;   -2,818;   -2,591
933,035; 9588,202;    0,545;   -0,318
933,590; 9389,929;    0,364;   -1,773
934,145; 9007,747;   -1,364;   -0,318
934,700; 9344,384;    0,455;   -0,591
935,255; 9136,020;   -0,091;    0,045
935,809; 8421,929;    3,182;    0,864
936,364; 7567,657;   -0,455;   -0,136
936,919; 7515,293;    0,455;   -1,773
937,474; 7374,202;    1,455;    0,136
938,028; 7137,293;   -1,636;    1,136
938,583; 6645,747;    1,818;    4,682
939,138; 6913,747;    2,091;    2,136
939,692; 6339,020;    1,636;   -1,136
940,247; 6040,475;   -0,727;   -1,045
940,801; 5595,293;   -0,636;    0,227
941,355; 5503,020;   -0,364;    2,591
941,910; 5132,384;   -0,273;   -2,136
942,464; 5266,747;   -0,818;   -0,318
943,018; 5055,020;    1,000;   -0,227
943,572; 4994,111;    2,545;   -0,682
944,126; 4394,566;    0,091;   -0,409
944,681; 4286,384;    3,091;    0,227
945,235; 4271,566;    1,000;   -0,591
945,789; 4223,747;    0,364;   -1,864
946,342; 4321,929;    0,455;   -0,591
946,896; 4105,202;   -2,273;    0,955
947,450; 3864,293;    1,545;   -0,227
948,004; 4072,384;    1,727;   -0,045
948,558; 4069,475;    0,273;   -0,864
949,111; 4004,293;   -0,273;   -0,318
949,665; 4043,111;    1,636;   -0,682
950,219; 3922,838;   -0,091;   -1,045
950,772; 4000,111;   -1,909;    1,864
951,326; 3879,384;    0,545;   -0,955
951,879; 3978,747;    0,727;   -2,318
952,433; 4015,747;    0,000;    2,227
952,986; 3848,566;    2,909;    0,682
953,539; 3797,566;   -0,273;    0,591
954,093; 3728,747;    0,545;   -1,318
954,646; 3853,475;    0,909;    1,318
955,199; 3671,929;    0,000;   -0,500
955,752; 3571,202;   -0,455;    1,773
956,305; 3525,202;   -0,091;    2,955
956,858; 3681,657;    0,818;   -0,318
957,411; 3865,657;   -0,545;    2,136
957,964; 3699,475;    1,364;    2,136
958,517; 3699,384;   -1,545;    3,136
959,070; 3500,020;   -0,455;    1,955
959,623; 3578,929;    1,091;    1,500
960,176; 3347,384;    1,727;    2,045
960,728; 3327,111;   -2,727;    0,773
961,281; 3410,111;    0,545;    0,500
961,834; 3449,657;   -0,909;    0,864
962,386; 3354,566;    1,727;    1,045
962,939; 3274,475;    0,364;   -0,318
963,491; 3415,293;    0,455;    1,136
964,043; 3294,111;    1,182;    2,409
964,596; 3412,111;   -1,000;    2,227
965,148; 3255,202;   -1,000;    1,773
965,700; 3168,293;    1,091;   -0,227
966,253; 3329,293;   -0,636;    0,318
966,805; 3164,020;   -2,273;    0,773
967,357; 3211,657;    1,091;   -1,500
967,909; 3168,838;    0,455;   -1,227
968,461; 3279,475;    0,545;    3,136
969,013; 3214,384;   -0,182;   -0,864
969,565; 3302,475;   -0,455;   -1,136
970,117; 3350,838;   -0,364;    1,045
970,669; 3173,202;    0,182;   -0,136
971,220; 3039,111;   -0,455;   -1,500
971,772; 2978,838;   -0,636;   -0,318
972,324; 3104,566;    0,091;   -0,500
972,876; 3032,020;    0,818;   -0,045
973,427; 3179,566;    1,909;   -1,045
973,979; 3127,020;   -0,727;   -2,500
974,530; 3190,202;    1,818;    1,318
975,082; 3194,747;   -0,545;    1,682
975,633; 3081,838;    1,091;    1,682
976,184; 3225,566;    0,909;    0,773
976,736; 3002,111;    0,091;    0,227
977,287; 2809,202;   -0,909;   -0,500
977,838; 2999,020;    0,909;   -0,318
978,389; 3057,475;   -1,000;   -0,500
978,940; 2926,384;    0,545;   -0,409
979,491; 2957,475;    0,091;   -0,500
980,042; 2920,202;    0,182;    3,045
980,593; 2972,929;   -2,545;    0,227
981,144; 3020,747;    2,545;   -0,500
981,695; 2984,929;    1,455;    1,500
982,246; 2954,475;   -0,273;    1,045
982,797; 3114,475;   -1,727;    0,682
983,347; 3209,384;    0,364;    0,591
983,898; 3370,202;    3,091;    0,409
984,449; 3187,111;    2,182;    0,773
984,999; 3107,475;    1,455;   -1,136
985,550; 2875,747;    0,182;   -0,318
986,100; 2922,475;   -0,455;   -0,318
986,651; 2946,566;   -0,818;    0,045
987,201; 2917,657;   -1,000;   -0,591
987,751; 2988,384;    0,818;    2,864
988,302; 2974,293;    2,636;    1,500
988,852; 3013,747;    0,455;   -1,136
989,402; 3065,747;    0,091;    0,682
989,952; 2966,929;   -2,182;    0,864
990,502; 3078,838;   -0,091;    0,682
991,052; 3059,020;   -0,727;    0,045
991,602; 2920,384;   -2,909;    1,318
992,152; 2898,020;    0,455;    0,682
992,702; 2892,566;    1,364;   -0,045
993,252; 2820,929;   -3,000;   -0,500
993,802; 2907,202;   -0,273;    1,318
994,352; 3143,566;   -1,545;    1,136
994,901; 3222,111;   -0,182;    3,227
995,451; 3128,929;   -0,182;    0,318
996,000; 3223,838;    1,636;    0,318
996,550; 2923,293;    2,273;    0,227
997,100; 2931,293;    1,273;   -0,045
997,649; 3211,929;    2,182;    0,955
998,198; 2839,475;    1,727;   -1,500
998,748; 3041,384;    1,091;   -2,318
999,297; 2941,020;   -0,818;   -0,409
999,846; 2998,838;    1,000;   -0,773
1000,395; 3047,020;   -0,818;    0,500
1000,945; 3009,657;    1,818;   -0,773
1001,494; 3121,020;    2,364;    0,682
1002,043; 3110,747;    4,636;    0,864
1002,592; 2931,384;   -1,091;    1,955
1003,141; 3082,111;   -0,455;   -0,682
1003,690; 2948,293;    1,727;    0,500
1004,238; 3026,838;    1,455;   -0,045
1004,787; 2649,475;    1,364;    1,227
1005,336; 2899,566;    0,364;    0,682
1005,885; 3046,929;    1,364;   -2,773
1006,433; 3171,202;    0,545;    0,955
1006,982; 3235,838;    0,455;    1,682
1007,531; 3124,384;   -1,818;   -0,227
1008,079; 3084,657;   -2,273;    0,500
1008,627; 3238,384;   -1,455;    0,409
1009,176; 2970,384;    0,000;   -1,955
1009,724; 3018,020;    1,091;    0,864
1010,273; 3058,566;    1,273;    0,500
1010,821; 3179,929;    0,091;    1,409
1011,369; 2915,838;   -1,364;    1,318
1011,917; 2887,657;   -1,364;   -0,591
1012,465; 3172,475;    1,273;   -1,591
1013,013; 3291,566;    2,091;   -1,682
1013,561; 3143,293;    0,455;   -0,773
1014,109; 3207,747;   -1,909;    1,682
1014,657; 3081,657;    0,364;    0,591
1015,205; 3198,566;    1,636;   -0,955
1015,753; 3230,111;   -0,545;   -1,409
1016,301; 3273,020;   -2,636;    3,045
1016,848; 3254,384;   -1,273;    0,409
1017,396; 3314,838;    2,545;    0,045
1017,944; 3449,202;    1,182;    1,864
1018,491; 3201,566;    0,273;    1,409
1019,039; 3361,384;    0,455;    0,591
1019,586; 3282,929;   -1,364;    1,682
1020,134; 3363,475;    0,455;    1,500
1020,681; 3391,111;    0,182;   -1,136
1021,228; 3415,566;    2,909;   -2,227
1021,776; 3241,202;    1,182;   -1,136
1022,323; 3454,747;    0,455;    0,773
1022,870; 3378,566;   -1,000;   -0,045
1023,417; 3271,929;    2,636;    1,864
1023,964; 3434,929;    2,636;    1,227
1024,511; 3258,838;    1,000;    0,773
1025,058; 3060,020;    3,182;   -0,045
1025,605; 3118,566;   -2,273;    3,136
1026,152; 3350,657;    1,727;   -0,591
1026,699; 3085,293;    1,818;    1,318
1027,245; 3240,475;   -0,091;    0,318
1027,792; 3432,566;   -1,000;    1,409
1028,339; 3332,111;    2,364;   -0,045
1028,885; 3171,475;    1,000;   -0,227
1029,432; 3117,566;   -0,091;    0,227
1029,978; 3174,929;   -1,000;   -1,591
1030,525; 3078,384;    1,000;    0,409
1031,071; 3313,293;   -1,364;    1,136
1031,618; 3430,475;    0,364;    1,682
1032,164; 3202,929;   -0,091;    3,045
1032,710; 3255,838;    1,636;   -1,500
1033,256; 3169,202;   -0,636;   -0,136
1033,803; 3164,202;   -0,545;    1,500
1034,349; 2879,384;   -1,364;    0,136
1034,895; 3049,838;    0,000;   -0,318
1035,441; 3023,293;   -0,818;    0,318
1035,987; 3010,384;   -2,364;   -0,682
1036,533; 3019,020;   -1,455;   -0,955
1037,078; 3230,293;    1,455;    1,682
1037,624; 3038,657;    2,455;   -0,955
1038,170; 3059,838;    0,455;   -0,318
1038,716; 2962,747;    1,636;   -0,409
1039,261; 2875,111;   -2,273;   -0,773
1039,807; 2831,293;   -0,091;    3,409
1040,352; 2895,838;   -1,909;   -0,318
1040,898; 2940,293;   -1,545;   -0,682
1041,443; 2848,384;   -1,455;   -2,591
1041,989; 2854,384;    1,091;    1,591
1042,534; 2748,202;   -0,364;    2,591
1043,079; 2868,838;    2,909;    0,955
1043,625; 2670,747;    1,818;    0,500
1044,170; 2701,111;   -1,364;    1,045
1044,715; 2964,384;    2,455;    0,955
1045,260; 2778,566;    2,182;   -0,955
1045,805; 2807,020;    1,182;   -0,591
1046,350; 2750,657;    1,364;   -0,409
1046,895; 2712,293;    2,909;    1,591
1047,440; 2658,475;    5,364;    0,409
1047,985; 2553,020;    2,818;   -0,955
1048,530; 2476,566;    1,545;    1,227
1049,074; 2544,020;    0,000;    0,318
1049,619; 2513,475;   -1,364;    1,955
1050,164; 2304,566;    0,455;    0,227
1050,708; 2358,657;   -0,455;    0,045
1051,253; 2725,747;    1,273;   -2,227
1051,797; 2437,929;    0,818;   -1,318
1052,342; 2440,657;   -1,182;    1,045
1052,886; 2446,293;    0,364;   -1,409
1053,430; 2329,020;   -1,364;    0,136
1053,975; 2323,202;   -0,818;   -0,318
1054,519; 2312,566;   -0,727;    3,227
1055,063; 2330,293;    0,909;    1,318
1055,607; 2217,293;   -0,182;    0,227
1056,151; 2236,929;    2,909;    1,682
1056,695; 2159,475;    2,273;   -1,136
1057,239; 2229,747;   -1,727;   -0,682
1057,783; 2238,293;    0,818;   -1,500
1058,327; 2189,202;    0,000;    1,409
1058,871; 2417,020;   -0,545;    1,318
1059,415; 2131,657;   -0,818;   -0,045
1059,958; 2384,929;    1,455;    2,591
1060,502; 2100,475;   -1,000;   -0,773
1061,046; 2001,566;    0,364;   -0,955
1061,589; 1981,929;   -3,000;   -1,136
1062,133; 1884,475;   -1,273;    1,864
1062,676; 1812,929;    1,182;    0,864
1063,220; 1800,293;    1,091;    0,500
1063,763; 1830,293;    0,909;    1,136
1064,306; 1923,293;   -0,909;    1,864
1064,849; 1801,566;   -0,909;    0,591
1065,393; 1795,020;    2,000;   -1,500
1065,936; 1917,747;    0,182;   -0,409
1066,479; 1803,475;   -1,455;    1,318
1067,022; 1826,111;   -0,273;   -0,227
1067,565; 1710,020;   -0,091;   -1,318
1068,108; 1736,657;    0,727;   -0,591
1068,651; 1718,566;   -0,636;    1,409
1069,194; 1639,566;   -0,455;   -1,682
1069,736; 1643,020;   -1,273;    0,955
1070,279; 1620,020;   -1,364;   -0,500
1070,822; 1677,657;   -2,000;   -0,318
1071,364; 1760,111;   -0,364;    1,318
1071,907; 1579,657;   -0,727;    3,227
1072,450; 1488,202;    0,000;   -0,045
1072,992; 1474,475;   -0,273;    3,136
1073,535; 1632,657;    2,091;    2,136
1074,077; 1421,384;   -0,727;    2,045
1074,619; 1388,747;   -1,364;    0,591
1075,161; 1424,384;   -1,091;    1,500
1075,704; 1612,929;    1,545;    1,227
1076,246; 1397,929;   -0,182;    0,682
1076,788; 1319,929;   -0,364;    1,773
1077,330; 1394,384;    1,273;    2,136
1077,872; 1358,384;    0,909;    0,955
1078,414; 1580,020;    2,727;    0,773
1078,956; 1313,566;    1,273;   -0,227
1079,498; 1577,838;    1,636;    0,318
1080,040; 1279,202;    1,909;   -1,318
1080,581; 1226,838;    1,636;   -0,318
1081,123; 1144,657;    0,091;   -0,773
1081,665; 1196,293;   -1,182;   -0,955
1082,206; 1511,657;    1,364;   -0,500
1082,748; 1361,202;    0,727;    2,045
1083,289; 1230,657;   -2,000;    1,318
1083,831; 1134,475;   -0,545;    0,227
1084,372; 1168,020;    0,000;    0,591
1084,913; 1176,384;    1,091;    0,864
1085,455; 1141,384;   -1,909;   -2,045
1085,996; 1116,747;   -2,273;    0,136
1086,537; 1137,384;   -0,091;    0,864
1087,078; 1172,202;   -0,909;   -2,136
1087,619; 1219,838;   -1,273;    0,227
1088,160; 1141,838;    0,000;    1,318
1088,701; 1120,384;   -1,091;    0,682
1089,242; 1055,657;    1,364;   -2,227
1089,783; 1151,838;   -0,273;    1,409
1090,324; 1126,020;    0,455;    0,682
1090,865;  995,384;    2,727;   -0,409
1091,405;  960,020;    0,727;    2,227
1091,946;  994,293;    0,182;   -0,955
1092,487;  917,566;    0,818;   -1,409
1093,027; 1094,202;   -1,364;   -1,500
1093,568;  950,747;   -0,364;    1,227
1094,108; 1038,657;    0,273;    1,773
1094,649;  970,566;   -1,182;    0,136
1095,189;  908,293;   -0,636;   -0,682
1095,729;  855,475;   -0,091;    0,955
1096,269;  863,020;    0,727;   -0,955
1096,810; 1193,202;   -1,364;    0,500
1097,350; 1020,384;    1,364;   -0,773
1097,890;  914,657;    0,364;    1,227
1098,430; 1163,747;    2,364;    2,864
1098,970; 1038,293;    2,182;    1,682
1099,510;  905,202;    0,545;   -2,318
1100,050;  826,566;    1,000;   -1,591
1100,589;  787,475;   -0,727;   -0,318
1101,129;  916,293;    0,818;   -0,955
1101,669; 1061,747;    1,727;    2,136
1102,209;  882,020;   -0,091;    2,227
1102,748;  837,566;    0,000;    0,955
1103,288;  824,475;    1,273;   -1,227
1103,827;  851,111;    3,091;   -2,227
1104,367;  741,202;   -0,091;   -2,409
1104,906;  705,384;    1,364;   -1,136
1105,445;  780,293;    0,636;   -1,136
1105,985;  723,475;   -0,727;    1,500
1106,524;  764,111;   -1,727;   -0,682
1107,063;  732,747;   -2,727;    1,409
1107,602;  712,838;   -1,909;   -1,500
1108,141;  636,111;   -1,909;    1,500
1108,680;  753,475;   -3,455;   -0,591
1109,219;  675,384;   -0,909;   -0,500
1109,758;  676,566;    0,455;    0,682
1110,297;  645,747;    1,000;   -0,682
1110,836;  598,747;   -0,727;    0,955
1111,375;  763,111;   -2,545;    0,409
1111,913;  779,293;   -1,000;    0,773
1112,452;  705,293;   -0,273;    0,136
1112,991;  584,475;    1,091;    1,955
1113,529;  548,838;   -0,818;   -0,045
1114,068;  619,111;   -0,273;    2,955
1114,606;  505,566;   -0,364;   -0,955
1115,144;  685,929;   -1,273;    1,045
1115,683;  625,657;   -0,727;    0,318
1116,221;  674,475;   -0,455;   -0,864
1116,759;  571,475;    0,636;   -0,864
1117,297;  781,475;    0,000;    1,864
1117,836;  586,657;   -2,182;   -1,227
1118,374;  590,566;    0,182;   -0,682
1118,912;  528,838;    0,909;    2,682
1119,450;  520,384;    1,000;    0,864
1119,988;  571,475;    1,545;    2,136
1120,525; 1023,384;    5,091;    3,318
1121,063;  718,202;    1,182;    1,864
1121,601;  527,838;   -0,909;   -1,227
1122,139;  492,293;   -0,727;   -2,045
1122,676;  691,384;   -0,727;    2,773
1123,214;  620,929;   -1,182;    4,409
1123,751;  433,020;    1,727;    2,227
1124,289;  577,838;   -0,091;   -0,409
1124,826;  433,111;    1,727;    0,227
1125,364;  347,747;    1,727;   -0,955
1125,901;  539,838;    1,182;    1,227
1126,438;  653,293;    0,818;    0,955
1126,975;  376,929;   -0,727;   -0,773
1127,513;  436,838;    0,273;    2,136
1128,050;  351,202;    1,636;   -0,682
1128,587;  462,384;    2,000;   -0,227
1129,124;  496,747;    0,091;    1,318
1129,661;  364,293;    0,273;    0,227
1130,198;  541,202;    1,636;    0,773
1130,734;  479,929;    0,182;    1,409
1131,271;  336,566;   -0,909;    0,864
1131,808;  508,929;    2,909;    3,045
1132,345;  376,202;    1,545;    0,318
1132,881;  245,838;   -1,545;   -1,864
1133,418;  398,202;    0,727;   -1,136
1133,954;  332,747;    2,455;   -2,682
1134,491;  400,566;    1,364;   -0,773
1135,027;  295,202;    2,364;    0,864
1135,564;  393,929;    0,273;    2,955
1136,100;  374,202;    0,364;    2,136
1136,636;  254,657;   -1,273;   -1,045
1137,172;  360,384;    0,000;   -1,045
1137,708;  286,384;   -1,364;   -1,045
1138,245;  283,020;    1,273;   -1,227
1138,781;  235,202;    1,091;   -3,318
1139,317;  305,657;    1,273;   -1,409
1139,852;  293,020;    3,091;    0,136
1140,388;  412,747;   -1,182;   -0,409
1140,924;  294,384;   -1,091;   -2,227
1141,460;  222,293;   -1,636;    0,136
1141,996;  157,111;   -1,364;    2,682
1142,531;  214,293;    1,364;    3,318
1143,067;  438,566;    1,182;    1,045
1143,602;  490,747;   -0,091;   -0,318
1144,138;  331,293;   -2,636;    1,045
1144,673;  190,566;   -1,455;    1,409
1145,209;  257,747;   -1,909;   -0,318
1145,744;  182,747;   -0,727;    0,864
1146,279;  323,475;    1,818;   -0,136
1146,815;  236,838;    1,545;   -2,682
1147,350;  269,384;   -1,364;    0,045
1147,885;  186,293;   -0,818;   -1,318
1148,420;  186,475;   -2,273;    0,773
1148,955;  161,566;   -1,727;    1,864
1149,490;  190,475;   -0,909;   -1,591
1150,025;  176,929;    0,455;   -1,773
1150,560;  295,475;    1,091;   -0,955
1151,094;  264,020;    1,455;   -0,591
1151,629;  265,111;    1,636;    0,864
1152,164;  189,929;    1,364;    1,318
1152,698;  153,384;   -0,182;   -0,136
1153,233;  103,475;    0,091;   -0,682
1153,767;  155,111;   -3,000;   -2,318
1154,302;  209,293;   -1,455;    1,773
1154,836;  207,293;   -0,455;   -2,136
1155,371;  262,111;   -1,364;    3,682
1155,905;  211,202;   -0,636;    1,682
1156,439;  179,202;   -0,636;   -0,500
1156,973;  212,566;    0,364;    0,318
1157,507;  150,020;   -0,364;    0,682
1158,042;  165,475;   -0,727;    1,045
1158,576;  226,111;    0,182;    1,773
1159,110;  207,838;   -0,818;    2,409
1159,643;  183,747;    0,636;   -0,045
1160,177;  122,566;   -1,545;    1,500

