
Integration time [ms]:   0,040
Averaging Nr. [scans]: 11
Smoothing Nr. [pixels]: 0
Data measured with spectrometer [name]: 7318044SP
Wave   ;Sample   ;Dark     ;Reference
[nm]   ;[counts] ;[counts] ;[counts] 

186,757;   22,040;   31,551;    1,318
187,357;   58,859;   22,551;    0,955
187,958;   37,209;   15,460;   -1,591
188,558;   81,212;    8,915;   -1,227
189,159;   38,327;    6,733;   -4,500
189,759;   12,018;    7,278;   -3,591
190,360;   13,157;    2,824;   -2,136
190,960;   51,955;    2,915;   -4,136
191,560;   64,548;    3,189;   -6,591
192,161;  321,482;    4,372;   -3,500
192,761;  156,621;    4,010;   -3,227
193,361;  107,750;    1,556;   -3,773
193,962;  164,275;    2,010;   -2,682
194,562;   78,819;    1,189;   -3,955
195,162;  118,752;   -2,448;   -2,227
195,762;  290,230;   -3,176;   -0,045
196,362;  235,739;    1,370;   -2,500
196,963;   90,574;    2,006;   -0,864
197,563;  167,490;    1,551;   -0,955
198,163;  118,133;    0,096;   -0,682
198,763;  133,452;    1,733;   -0,500
199,363;  252,707;    3,096;   -0,500
199,963;  206,577;    0,369;    0,409
200,563;  175,940;    2,823;   -1,409
201,163;  152,498;    3,277;   -0,227
201,763;  256,567;    3,732;    0,318
202,363;  188,394;    1,459;    1,500
202,963;  298,711;    1,459;    1,045
203,563;  419,784;    0,277;    0,500
204,162;  253,438;    2,096;   -1,864
204,762;  240,631;    0,550;    0,591
205,362;  214,978;    3,004;    1,955
205,962;  320,312;    3,096;    1,955
206,562;  319,333;    1,823;    2,318
207,161;  293,740;   -0,087;    0,318
207,761;  451,637;    1,277;    2,409
208,361;  329,538;   -0,268;    1,409
208,960;  422,920;    0,459;    1,500
209,560;  508,372;    1,277;    1,591
210,160;  480,764;    0,550;    1,864
210,759;  437,296;    4,186;    1,227
211,359;  442,348;    1,459;    1,045
211,958;  723,141;    1,277;    2,045
212,558;  806,750;    1,732;    1,864
213,157;  640,081;    1,822;    1,500
213,757; 1109,830;    3,822;   -0,227
214,356;  790,608;    1,277;   -0,409
214,956; 1133,810;    3,095;    0,409
215,555;  750,761;    2,095;    2,136
216,154;  684,157;   -2,723;   -0,591
216,754;  696,239;    0,277;    0,773
217,353;  837,840;   -0,268;   -1,045
217,952;  693,642;   -0,178;    0,318
218,552;  932,010;    1,368;   -0,773
219,151;  837,459;    0,277;    0,955
219,750;  829,972;    0,004;   -0,227
220,349;  970,001;   -0,451;    1,045
220,948; 1029,609;   -1,360;    1,136
221,548; 1068,620;    0,913;    1,227
222,147; 1184,084;   -0,087;   -0,409
222,746; 1468,868;   -0,451;   -0,955
223,345; 1341,982;    0,731;    0,500
223,944; 1348,683;   -0,451;    0,773
224,543; 1536,443;    1,004;   -1,409
225,142; 1659,403;    0,094;    0,136
225,741; 1563,955;   -0,814;    1,045
226,340; 1589,373;   -0,451;   -0,955
226,939; 2061,984;   -0,996;   -0,136
227,538; 2026,883;   -0,360;   -0,773
228,137; 2189,189;   -0,814;    0,864
228,735; 2354,093;   -0,541;    1,227
229,334; 2090,721;   -0,905;   -0,227
229,933; 2476,430;    0,459;    0,591
230,532; 2591,376;    1,186;   -0,409
231,131; 2645,190;    1,732;    0,318
231,729; 2819,498;   -2,450;   -2,318
232,328; 2951,816;   -0,723;   -1,500
232,927; 3040,677;    1,004;   -0,500
233,525; 3182,170;    3,640;    0,045
234,124; 3409,162;    2,368;   -1,591
234,723; 3420,380;    0,913;   -1,045
235,321; 3578,602;    2,277;    0,136
235,920; 3828,957;    1,186;   -1,227
236,518; 4097,633;    3,459;    0,318
237,117; 4294,138;    0,004;   -0,227
237,715; 4490,512;    0,640;   -0,500
238,314; 4514,571;   -0,087;   -2,318
238,912; 4611,512;   -0,723;   -1,409
239,510; 4659,130;    0,459;   -1,227
240,109; 4862,491;    0,004;    3,773
240,707; 4903,845;   -0,996;    1,227
241,305; 5307,181;    0,550;    0,136
241,904; 5534,363;   -0,178;   -2,045
242,502; 5491,376;   -0,632;   -0,227
243,100; 5434,593;   -0,087;   -0,955
243,698; 5667,967;    0,732;    1,682
244,297; 5860,271;   -0,632;    0,682
244,895; 5689,684;   -0,269;   -2,318
245,493; 6014,788;    2,186;   -0,591
246,091; 6071,011;    1,368;   -1,318
246,689; 6070,188;    1,004;    0,591
247,287; 6239,697;    0,822;   -1,136
247,885; 6520,787;   -1,451;    1,227
248,483; 6635,752;    1,822;   -0,500
249,081; 6767,658;    0,185;    1,591
249,679; 6931,218;   -0,178;    1,682
250,277; 7193,119;   -1,723;    0,864
250,875; 7196,416;   -1,087;   -1,045
251,473; 7226,810;   -1,178;    0,500
252,071; 7438,206;    1,459;    1,045
252,669; 7589,228;   -1,814;    0,318
253,267; 7826,744;   -0,087;    0,773
253,864; 7811,061;   -0,360;    0,682
254,462; 7673,228;    1,640;    1,591
255,060; 7628,387;   -0,269;    1,318
255,658; 7971,228;    0,822;   -0,136
256,255; 8369,056;    0,186;   -2,045
256,853; 8250,423;   -0,269;    1,409
257,451; 8230,415;    0,822;    1,864
258,048; 8509,029;    1,822;    1,864
258,646; 8300,405;    1,731;   -1,045
259,243; 8483,514;   -0,087;    2,227
259,841; 8520,019;   -0,814;    0,318
260,438; 8406,941;   -0,087;    0,864
261,036; 9128,580;   -1,905;    1,409
261,633; 9056,783;   -0,087;    2,227
262,231; 8775,065;    2,731;   -0,045
262,828; 8871,912;   -0,905;    1,136
263,425; 8911,656;    0,913;   -0,591
264,023; 9212,296;    0,186;    0,045
264,620; 8730,669;   -0,360;   -0,318
265,217; 9102,051;   -2,087;    3,136
265,815; 9216,104;   -1,905;    2,136
266,412; 8960,878;    0,731;    0,136
267,009; 9010,229;   -1,451;    0,773
267,606; 8939,678;    0,822;   -0,955
268,203; 8887,720;   -0,269;   -0,591
268,801; 9187,892;    1,731;    0,591
269,398; 9484,287;   -0,360;    2,500
269,995; 9507,366;    0,277;    1,591
270,592; 9240,116;   -0,632;   -0,500
271,189; 9458,682;    0,186;    0,409
271,786; 9531,511;   -0,632;    1,227
272,383; 9386,407;   -1,087;    0,227
272,980; 9592,751;    0,277;    0,318
273,577;10089,699;    0,004;    1,227
274,174; 9673,021;    0,822;    2,591
274,771; 9627,228;   -0,814;   -0,773
275,367; 9769,421;    2,277;    1,409
275,964; 9726,630;    0,731;   -0,500
276,561; 9823,787;    1,549;   -1,045
277,158;10065,581;    0,095;   -1,773
277,755;10189,295;    2,185;    0,409
278,351; 9590,492;   -0,451;   -1,500
278,948; 9899,622;   -0,815;    0,045
279,545; 9908,782;   -1,360;    2,318
280,141;10538,852;   -1,723;   -2,045
280,738;10425,401;   -0,451;   -0,136
281,334;10662,287;   -1,633;    0,591
281,931;10032,494;   -0,087;   -1,318
282,528;10126,867;    0,822;   -0,500
283,124;10859,046;   -1,087;   -0,500
283,721;10757,294;   -0,451;    1,409
284,317;10565,198;    0,185;    2,500
284,913;11111,453;   -1,360;    0,591
285,510;11304,998;    0,640;   -0,318
286,106;11340,636;   -2,269;   -0,955
286,703;10942,122;   -0,360;    1,955
287,299;11125,655;   -1,451;   -0,591
287,895;11354,519;    0,822;   -1,045
288,491;11915,741;    0,186;    2,136
289,088;11675,295;   -2,360;    2,409
289,684;11727,228;   -1,723;    1,500
290,280;11737,747;    0,368;    0,682
290,876;11803,814;    1,822;    5,500
291,472;11685,250;    1,276;    2,227
292,068;11831,826;    1,367;    0,227
292,665;11501,474;    2,095;    0,773
293,261;11118,964;    0,276;    2,136
293,857;11526,284;    2,913;    2,136
294,453;11444,425;    3,550;    0,955
295,049;11367,515;   -0,268;    1,955
295,644;11392,518;    0,095;    0,136
296,240;11250,682;   -0,905;   -0,136
296,836;11305,402;   -0,995;    0,318
297,432;11592,716;    1,096;   -0,500
298,028;11637,962;    0,732;    0,773
298,624;12052,961;    1,459;    1,864
299,220;12313,252;    2,368;    0,591
299,815;11959,824;    1,005;   -0,409
300,411;11724,878;    0,914;    1,773
301,007;11770,221;    1,368;    0,227
301,602;11826,561;   -0,541;   -2,318
302,198;11975,267;    0,732;   -0,773
302,794;12328,571;    1,187;   -0,500
303,389;12444,220;   -1,177;    1,045
303,985;12523,657;    0,550;    1,409
304,580;12486,566;    1,459;    1,591
305,176;12425,210;   -3,086;    0,136
305,771;12356,282;   -1,268;   -1,227
306,367;12204,737;    4,095;    0,136
306,962;12516,015;    0,641;    1,500
307,558;12242,224;   -0,450;    0,136
308,153;12183,124;    1,095;   -1,136
308,748;12419,701;   -0,814;    1,682
309,344;12403,768;   -0,632;   -1,318
309,939;12482,396;   -1,905;   -1,318
310,534;12755,719;   -0,086;   -1,682
311,130;12702,406;    0,459;   -2,500
311,725;12435,260;    1,004;   -0,500
312,320;12772,629;    2,459;    0,045
312,915;12608,723;    1,459;   -1,045
313,510;12674,933;    1,550;   -0,500
314,105;13186,421;    1,096;    1,409
314,700;12571,184;   -3,086;   -1,045
315,295;12199,839;   -0,904;    0,045
315,890;11756,552;    1,277;    0,864
316,485;12178,178;   -0,359;   -0,318
317,080;12259,479;   -3,086;    1,591
317,675;12843,633;    2,005;   -0,682
318,270;12219,290;    5,550;    3,318
318,865;12207,558;    3,278;    3,045
319,460;12073,984;   -0,904;    0,591
320,055;12296,213;   -0,541;   -1,227
320,650;11959,159;   -1,995;   -0,591
321,244;12011,963;   -0,177;   -1,409
321,839;12991,470;   -1,541;   -0,227
322,434;12864,265;   -1,086;   -1,591
323,029;12486,162;    1,732;    1,591
323,623;12308,974;    1,550;    0,773
324,218;12058,040;    2,368;    1,409
324,812;11964,302;    1,096;    1,591
325,407;11773,256;   -0,814;    2,045
326,002;11678,597;    0,277;   -0,409
326,596;11987,898;    0,914;    1,318
327,191;12201,302;    0,823;   -1,045
327,785;11733,171;   -0,813;   -0,227
328,379;11973,243;    1,368;    0,136
328,974;11774,093;    0,914;   -3,955
329,568;12002,520;    0,186;   -2,409
330,163;11828,930;    2,096;    1,045
330,757;12152,523;    2,459;    1,591
331,351;11487,051;    0,459;    0,682
331,945;11766,293;    0,914;    1,409
332,540;11398,147;   -1,723;   -0,591
333,134;11537,591;   -1,086;    0,773
333,728;11779,388;    0,005;    0,318
334,322;12077,902;   -1,177;   -0,864
334,916;11348,063;    0,277;    0,955
335,510;11692,801;   -0,450;   -0,136
336,105;11970,211;   -1,086;    1,591
336,699;11653,524;   -1,086;    0,591
337,293;11600,295;   -1,723;    0,318
337,887;11740,206;   -2,723;    1,955
338,481;11873,719;    0,459;    0,591
339,074;12054,150;   -0,359;    2,682
339,668;11836,368;   -1,632;    1,227
340,262;12088,900;    1,732;    3,227
340,856;11573,531;    1,822;   -0,682
341,450;10949,812;    1,004;    1,864
342,044;11838,205;    1,459;    0,136
342,637;11612,945;    0,913;   -2,136
343,231;11478,024;   -2,360;    0,682
343,825;11433,974;   -1,086;   -0,591
344,419;11370,502;   -1,995;    0,500
345,012;11147,948;    2,459;    4,045
345,606;11178,435;    4,641;    1,591
346,199;11017,590;   -1,813;   -0,227
346,793;10535,445;    1,914;    2,045
347,386;10696,357;   -0,813;   -1,136
347,980;10721,241;   -0,268;   -0,045
348,573;10536,501;    2,278;    0,409
349,167;10189,661;    5,278;    4,773
349,760;10536,975;    2,914;    2,682
350,354;10528,978;   -0,813;    1,136
350,947;10244,922;    1,096;    1,682
351,540; 9925,945;   -0,358;   -1,409
352,134; 9850,279;    1,096;    1,136
352,727; 9931,491;   -0,086;    1,136
353,320; 9738,970;    0,005;    0,591
353,913; 9582,756;   -1,995;    1,864
354,507; 9748,415;    0,823;   -1,227
355,100; 9778,388;    0,460;    0,864
355,693; 8996,858;    2,005;    2,409
356,286; 9034,366;    0,823;    2,773
356,879; 9401,802;   -0,722;    1,227
357,472; 9017,756;   -0,904;    1,500
358,065; 9235,198;   -0,722;    2,500
358,658; 9126,888;   -0,540;    2,318
359,251; 8781,352;   -1,631;   -0,591
359,844; 8252,639;   -1,904;   -1,136
360,437; 8435,274;   -2,995;    0,045
361,030; 8704,047;    1,369;   -0,682
361,623; 8270,140;    2,824;    0,318
362,215; 8332,035;   -0,086;    2,045
362,808; 8184,516;   -2,358;   -1,682
363,401; 8362,163;   -2,449;    0,136
363,994; 8081,364;   -0,631;   -1,500
364,586; 8022,174;    0,824;   -1,500
365,179; 8252,944;   -0,449;   -1,136
365,772; 7729,035;   -1,995;    2,045
366,364; 8034,111;    1,915;   -3,227
366,957; 8235,814;    2,279;   -0,045
367,549; 8235,610;    2,188;   -0,864
368,142; 7877,862;    1,825;   -1,500
368,734; 8082,851;    0,734;   -2,136
369,327; 8029,584;    1,643;   -0,500
369,919; 7935,131;   -1,538;    0,409
370,512; 7756,311;   -1,083;   -0,500
371,104; 7518,530;   -0,901;    1,591
371,696; 7672,377;    1,191;   -0,955
372,289; 7761,154;    0,373;    1,136
372,881; 7930,797;   -2,080;    1,318
373,473; 7834,743;   -2,170;    1,136
374,066; 7626,690;   -0,169;    0,500
374,658; 7479,213;    0,378;    1,136
375,250; 7839,875;    0,653;   -1,409
375,842; 7669,954;    0,473;   -0,045
376,434; 7568,779;   -0,435;   -0,409
377,026; 8156,767;    0,204;   -2,500
377,618; 8057,019;   -0,158;   -0,682
378,210; 7870,946;   -0,338;   -1,955
378,802; 7744,746;    0,754;   -0,591
379,394; 7693,009;    1,846;    0,682
379,986; 8271,083;    1,393;   -0,955
380,578; 8396,653;   -0,153;    0,773
381,170; 7733,120;   -0,972;    0,045
381,762; 7693,607;    0,755;    1,409
382,354; 7870,515;   -0,065;   -1,318
382,945; 7996,013;   -2,976;    0,318
383,537; 8136,932;   -2,705;   -1,955
384,129; 8138,114;   -2,160;   -1,136
384,721; 8348,247;   -0,252;    0,955
385,312; 8279,817;   -0,161;   -0,955
385,904; 8379,378;   -2,706;    1,591
386,496; 7732,044;   -0,979;    1,045
387,087; 7874,134;    1,022;    2,500
387,679; 7924,004;   -1,160;    0,045
388,270; 8072,628;    2,840;    2,045
388,862; 8189,095;    1,295;   -0,318
389,453; 8071,504;   -0,887;    1,045
390,045; 8332,745;   -0,705;   -2,682
390,636; 8265,865;    0,204;   -0,591
391,227; 8104,472;   -0,523;   -0,045
391,819; 8214,549;    0,204;    0,773
392,410; 8302,443;    1,022;    0,045
393,001; 8241,702;   -0,979;   -1,591
393,593; 8533,619;    1,930;   -0,045
394,184; 8368,166;    1,385;   -0,409
394,775; 8315,747;    1,839;    2,136
395,366; 8504,736;    1,385;    0,773
395,957; 8528,392;    0,113;    0,136
396,548; 8804,145;   -0,342;    2,682
397,139; 9110,784;   -2,433;    0,591
397,730; 8864,968;   -1,888;    0,955
398,321; 8917,075;   -1,252;    0,955
398,912; 8971,052;   -0,615;    0,136
399,503; 9013,075;   -3,524;   -1,409
400,094; 8441,724;    0,294;    1,682
400,685; 8305,362;   -0,433;    0,045
401,276; 8383,690;    0,930;   -0,955
401,867; 8698,320;   -0,888;    0,773
402,458; 8828,922;   -2,251;   -2,318
403,048; 8808,079;    1,112;    0,591
403,639; 8388,758;    0,840;    0,864
404,230; 8643,665;    2,476;    0,318
404,821; 8599,530;   -0,615;    0,045
405,411; 8675,915;    1,203;   -2,591
406,002; 8286,393;   -1,252;   -1,136
406,592; 8146,141;    2,294;    0,045
407,183; 8498,503;    0,566;   -1,500
407,774; 8380,958;    3,475;   -0,136
408,364; 8722,886;    0,930;    0,409
408,954; 8292,449;    0,384;    1,227
409,545; 8364,072;    1,021;    1,045
410,135; 7893,652;    1,293;    0,500
410,726; 8046,544;    1,838;    0,318
411,316; 8443,988;    0,111;    0,773
411,906; 8098,754;   -0,253;   -0,409
412,497; 7577,620;   -1,070;   -0,045
413,087; 8191,784;   -1,980;   -0,227
413,677; 8600,849;   -0,707;    3,864
414,267; 8443,981;    0,656;    1,409
414,857; 8445,463;   -2,980;    4,227
415,448; 8745,929;    0,839;    0,500
416,038; 8450,710;    0,020;   -0,591
416,628; 8430,926;   -0,889;    0,409
417,218; 7850,685;    0,565;    3,318
417,808; 8108,348;    0,202;   -0,409
418,398; 8598,112;    0,020;    2,682
418,988; 8603,466;    2,020;    0,591
419,578; 8894,935;   -0,707;    1,409
420,168; 9203,400;   -1,343;   -0,955
420,757; 8793,688;   -1,343;   -1,500
421,347; 8448,019;    0,111;   -0,227
421,937; 8628,583;    2,292;    1,409
422,527; 8600,641;    0,838;   -0,773
423,116; 8423,139;   -0,253;   -0,045
423,706; 8754,711;   -1,889;    0,318
424,296; 8764,247;    1,384;    0,682
424,885; 9206,066;   -0,071;   -3,045
425,475; 9481,315;    1,474;   -2,864
426,065; 9358,883;   -0,980;   -0,318
426,654; 8964,130;   -0,435;   -0,318
427,244; 9145,728;    0,020;    1,409
427,833; 8581,515;    1,383;   -0,500
428,423; 9046,867;   -0,526;    1,136
429,012; 9823,989;   -0,344;   -1,136
429,601; 9314,083;   -1,344;    0,136
430,191; 9566,362;    1,292;    4,318
430,780; 9196,208;   -0,344;   -0,409
431,369; 9099,451;    0,746;   -0,045
431,959; 9736,778;   -1,254;    0,500
432,548; 9540,642;   -1,163;   -0,045
433,137; 9688,605;   -1,254;   -1,318
433,726;10207,292;    0,292;    0,500
434,315; 9528,755;   -0,526;    2,409
434,905; 9628,330;   -1,254;    1,409
435,494; 9507,908;    0,746;    0,955
436,083; 9987,646;   -0,981;   -0,955
436,672; 9868,881;    0,110;    0,500
437,261; 9423,676;    0,292;   -1,955
437,850; 9552,690;    1,383;    0,682
438,439; 9545,460;    3,291;    1,955
439,027; 9380,587;    3,655;    1,773
439,616; 9724,345;    2,927;    1,227
440,205; 9608,410;    0,200;   -2,136
440,794; 9688,549;    2,109;   -0,045
441,383; 9966,175;   -1,346;   -0,591
441,971; 9818,339;   -2,436;    0,591
442,560; 9687,115;    0,563;   -1,773
443,149; 9462,503;    0,379;   -1,318
443,737; 9596,124;   -0,074;   -2,318
444,326; 9856,401;    0,018;    0,318
444,915; 9902,410;   -1,982;    0,864
445,503;10329,907;   -2,891;   -0,318
446,092; 9556,579;    0,382;    2,136
446,680;10138,555;    0,382;    0,318
447,269;10276,836;   -0,346;   -0,318
447,857;10058,926;    0,018;   -1,773
448,445;10176,717;    0,563;    1,318
449,034;10398,176;   -1,528;   -1,136
449,622;10516,908;   -1,073;    3,500
450,210; 9724,373;    2,017;    2,227
450,799;10291,041;    0,290;   -0,591
451,387;10246,473;    1,381;   -0,591
451,975; 9882,878;    2,654;    0,864
452,563; 9965,583;    3,472;    2,318
453,151;10037,168;   -0,528;   -1,227
453,739; 9966,229;   -1,347;    0,136
454,328; 9785,957;    2,381;   -2,136
454,916; 9487,879;    2,562;   -0,136
455,504; 9691,389;    1,017;    1,227
456,092; 9870,908;    0,017;   -1,591
456,679; 9852,799;    1,472;    0,682
457,267; 9766,161;    4,017;    1,045
457,855; 9918,183;    1,017;    1,409
458,443; 9700,927;   -0,165;    1,682
459,031; 9826,951;    0,108;    2,409
459,619;10301,224;   -1,801;    2,864
460,206;10494,206;    0,835;    2,045
460,794;10528,573;   -2,983;   -0,227
461,382;10768,376;   -0,529;   -0,864
461,970;10367,221;    1,198;    1,864
462,557;10408,244;   -0,711;   -0,682
463,145;10570,254;   -3,165;   -1,682
463,732;10729,670;    2,016;   -1,045
464,320;10691,537;   -0,075;   -3,045
464,907;10333,010;    2,743;   -0,773
465,495;10175,466;    0,743;   -1,227
466,082;10363,737;   -1,984;   -0,045
466,670;10306,664;   -2,529;    1,227
467,257;10713,891;   -1,711;    2,045
467,844;10833,781;   -0,075;    0,045
468,432;10884,013;    0,834;    3,500
469,019;10347,743;    0,925;   -1,773
469,606;10822,275;    0,470;    3,682
470,193;10662,132;   -1,439;    0,227
470,780;10241,516;   -2,075;    0,864
471,368;10606,265;   -1,257;   -0,773
471,955;10383,952;    1,379;   -0,682
472,542; 9986,918;    0,652;   -1,136
473,129;10247,129;   -0,166;    0,136
473,716; 9983,157;    1,470;    0,591
474,303;10187,165;    0,652;   -0,864
474,890;10489,317;   -1,439;   -0,500
475,477;10506,980;   -1,621;    0,409
476,064;10398,656;    1,106;   -1,591
476,650;10332,448;    0,288;    0,318
477,237;10177,175;   -0,258;    0,955
477,824;10325,052;   -1,076;    0,864
478,411;10351,671;   -1,894;   -0,318
478,997;10550,683;    0,560;   -0,773
479,584;10626,968;    1,196;   -0,409
480,171;11352,186;   -0,440;   -0,773
480,757;11009,430;    2,651;    0,773
481,344;11291,164;    0,469;    0,409
481,931;10800,950;    1,105;    1,045
482,517;11845,524;   -1,258;    0,318
483,104;12421,481;    1,106;    2,864
483,690;12743,676;   -1,804;    0,045
484,276;13120,716;   -0,895;    0,227
484,863;12854,476;    2,469;    1,136
485,449;13454,524;   -0,077;    0,318
486,035;13473,937;   -1,986;   -0,136
486,622;13876,843;   -0,895;    0,045
487,208;13833,147;    1,378;    1,500
487,794;13645,537;    0,741;    0,318
488,380;13761,118;    0,105;   -1,409
488,967;13840,657;   -1,168;   -0,409
489,553;13917,435;   -1,895;   -1,409
490,139;14103,685;    1,559;    0,773
490,725;13464,525;    0,741;   -0,227
491,311;13053,380;    3,287;    3,045
491,897;12399,485;   -0,986;    1,500
492,483;12163,189;    0,105;    1,227
493,069;11959,834;    3,923;    0,864
493,655;11944,861;    1,650;    0,682
494,241;11845,897;    1,377;   -0,955
494,826;12260,521;    0,287;   -1,045
495,412;11705,099;    2,559;   -0,682
495,998;11864,782;   -0,805;   -0,318
496,584;12053,028;    0,377;    1,045
497,169;12040,409;    1,014;   -0,682
497,755;12003,539;    0,650;    1,227
498,341;12544,132;    0,559;    0,318
498,926;12105,263;    1,832;    1,955
499,512;12301,558;    1,286;    2,955
500,097;12460,769;    0,195;   -0,318
500,683;12395,625;   -0,350;    2,136
501,268;12768,484;   -0,169;   -0,955
501,854;12476,051;   -0,169;    1,227
502,439;12419,268;   -0,624;   -1,773
503,024;12647,237;    0,195;    0,500
503,610;12739,255;   -0,078;   -0,682
504,195;12724,427;    0,558;    1,955
504,780;12849,865;    2,922;    1,227
505,366;12668,565;    3,013;    2,864
505,951;12406,893;    0,740;    1,045
506,536;12396,353;   -3,260;   -3,682
507,121;12366,876;    0,285;   -0,318
507,706;12944,799;    2,376;    1,045
508,291;13356,534;    2,649;    1,136
508,876;12788,904;   -0,988;    2,591
509,461;12261,991;   -0,169;   -0,773
510,046;12666,369;    0,194;    0,318
510,631;12934,565;   -0,351;   -0,773
511,216;12570,960;    2,467;   -0,500
511,801;12962,244;   -0,442;    2,591
512,386;13285,569;    0,740;    0,500
512,971;13199,422;   -2,988;    0,955
513,555;12756,396;   -0,897;   -1,500
514,140;13572,096;   -0,442;   -3,136
514,725;13565,026;   -0,715;   -1,136
515,309;13663,908;   -0,533;    0,318
515,894;13096,962;   -0,624;   -2,227
516,479;13576,098;   -0,624;   -0,955
517,063;13420,785;    0,376;    1,227
517,648;13572,348;    1,012;   -1,136
518,232;13224,327;   -0,261;   -1,409
518,817;13559,759;   -0,079;    1,682
519,401;13777,337;    2,194;    0,591
519,985;13327,574;    1,103;    1,136
520,570;13202,232;    0,830;   -1,955
521,154;13442,535;    2,102;    0,591
521,738;13614,479;   -2,352;    2,409
522,323;14211,417;   -0,170;    1,682
522,907;13949,343;    0,466;   -0,136
523,491;13686,175;    0,557;    0,955
524,075;13654,970;    2,284;    0,591
524,659;13738,562;    1,466;    0,591
525,243;13206,248;    1,739;    0,409
525,827;13457,670;    0,648;   -0,045
526,411;14296,562;   -1,989;   -0,136
526,995;14532,848;   -0,352;    1,409
527,579;14102,286;   -0,443;   -1,045
528,163;14402,844;    0,375;   -1,500
528,747;14348,186;    2,466;   -0,773
529,331;14665,286;   -0,080;   -1,409
529,915;14879,885;    1,738;    0,955
530,499;14814,126;   -0,807;    1,227
531,082;14530,095;   -0,534;    1,591
531,666;13963,447;    1,374;    0,773
532,250;14640,254;    1,284;    2,682
532,833;14977,393;    0,920;    2,773
533,417;14839,161;   -1,807;    0,864
534,001;14829,915;    1,647;   -0,318
534,584;15516,222;    0,374;    0,500
535,168;15428,213;    0,465;    1,409
535,751;15452,938;    0,647;    0,045
536,334;14873,433;   -0,898;   -0,409
536,918;15429,179;    0,011;    1,591
537,501;15528,060;   -0,899;    1,318
538,085;15575,818;   -0,444;    1,045
538,668;15758,614;    0,829;    2,409
539,251;16086,500;    1,829;    3,773
539,834;16102,573;    0,101;    0,773
540,418;15992,276;   -1,990;    4,318
541,001;16140,754;   -0,990;    1,773
541,584;16126,024;    2,101;    2,227
542,167;15799,326;    1,374;    2,955
542,750;15961,761;    1,919;   -0,773
543,333;15552,241;    0,555;    2,136
543,916;16344,720;    0,192;    2,500
544,499;16954,369;   -1,354;    0,227
545,082;16967,805;    1,374;    3,591
545,665;17088,983;    1,919;    1,500
546,248;17476,514;    1,010;   -0,318
546,830;17099,005;   -0,445;    1,955
547,413;17497,713;    1,010;   -0,773
547,996;18031,921;    0,555;    0,500
548,579;17862,329;    0,919;    0,955
549,161;17655,675;    1,828;    2,682
549,744;17449,174;   -0,809;    0,409
550,326;17924,546;   -0,809;   -1,136
550,909;17726,305;    2,737;    0,591
551,492;18135,065;   -0,263;    0,227
552,074;17910,100;   -0,173;   -1,318
552,657;18471,618;    2,373;    0,045
553,239;18204,731;   -0,173;   -0,773
553,821;18121,550;   -1,082;    1,045
554,404;17655,763;    1,282;    1,136
554,986;17970,090;    0,464;    1,045
555,568;18606,749;    1,191;   -0,955
556,151;17843,362;    1,191;   -0,227
556,733;18036,613;   -0,264;   -0,864
557,315;18528,756;    0,100;    0,500
557,897;18317,070;    0,554;   -0,500
558,479;18436,202;   -1,991;    1,318
559,061;18548,973;   -0,719;   -0,864
559,643;18863,060;   -0,264;    0,045
560,225;19252,185;    1,645;    2,864
560,807;19302,969;    0,918;    0,318
561,389;18784,782;    0,554;    2,318
561,971;19556,862;    0,463;    2,136
562,553;19385,646;   -1,628;    1,591
563,135;19479,482;   -0,537;    1,136
563,717;19114,537;    3,372;    1,136
564,298;19775,159;    3,645;   -0,045
564,880;19541,411;    0,645;   -1,409
565,462;19766,502;    0,645;    1,318
566,043;20880,931;   -0,446;    2,318
566,625;20371,745;    1,918;    1,227
567,207;20261,098;    1,099;    1,682
567,788;21392,393;   -1,264;    1,500
568,370;22252,837;    1,917;   -0,500
568,951;22077,938;    0,190;    0,227
569,533;22941,536;   -0,628;   -0,500
570,114;23403,185;   -0,446;    0,682
570,695;23898,087;   -0,174;   -1,318
571,277;24425,232;   -0,265;   -1,682
571,858;25220,037;    2,008;   -1,136
572,439;26107,129;    1,554;   -1,045
573,021;26286,580;    2,099;   -2,773
573,602;26710,522;   -1,265;    0,318
574,183;27638,730;   -2,083;    2,227
574,764;27796,776;   -1,629;    0,409
575,345;28409,280;    0,917;   -0,136
575,926;29059,531;   -0,356;    0,136
576,507;28986,608;    1,099;   -0,227
577,088;30090,485;    3,099;    1,682
577,669;30129,630;    0,735;    1,955
578,250;30862,094;    0,644;   -1,045
578,831;31490,396;   -1,356;   -2,227
579,412;31743,880;   -0,810;    0,955
579,993;32717,407;    1,008;    0,227
580,573;33040,807;   -0,629;   -0,955
581,154;31998,848;    0,735;   -0,591
581,735;32866,775;    0,644;    0,773
582,315;32369,594;   -0,629;    2,136
582,896;32682,685;   -0,174;    1,227
583,477;32076,429;    0,189;    1,227
584,057;32287,920;    0,553;    0,955
584,638;32588,225;    2,553;    2,318
585,218;32568,366;   -0,538;    2,682
585,799;32749,817;    0,281;   -0,227
586,379;32767,304;    0,372;    1,591
586,959;31494,521;    0,735;    0,318
587,540;30830,197;   -0,629;    2,227
588,120;30448,627;    1,007;   -0,045
588,700;29345,737;    2,553;    2,136
589,281;29632,470;    0,462;   -0,955
589,861;29584,438;    0,099;   -1,682
590,441;29418,298;    2,371;   -2,682
591,021;28365,130;   -0,265;   -2,591
591,601;28598,668;   -0,537;    0,500
592,181;28633,954;   -0,719;   -0,773
592,761;27913,950;    0,007;    1,409
593,341;27802,757;   -0,901;    0,045
593,921;27823,272;   -0,265;    1,591
594,501;27716,462;   -0,538;    1,318
595,081;27576,931;    0,917;   -0,318
595,661;27933,312;   -1,447;    0,955
596,240;28383,609;   -0,537;    0,136
596,820;28042,373;    0,372;    1,955
597,400;28257,058;    2,008;    0,773
597,980;28468,332;    2,008;    1,045
598,559;28479,226;    2,735;   -0,227
599,139;28180,162;   -0,174;   -1,227
599,718;28120,889;   -0,174;   -0,409
600,298;28319,076;    0,735;    0,682
600,877;28548,618;    2,917;    1,409
601,457;28846,565;    2,281;    1,136
602,036;28718,300;    0,190;    2,045
602,616;28972,236;    0,644;    1,682
603,195;29305,015;   -0,355;    3,500
603,774;28865,101;   -0,901;    2,045
604,354;28720,896;    0,826;   -0,500
604,933;28185,472;    0,463;    1,864
605,512;28307,787;    3,554;    0,591
606,091;28370,770;   -0,537;    3,773
606,671;29228,083;    0,281;    0,773
607,250;28331,728;    1,644;    3,136
607,829;28563,079;    2,372;    3,227
608,408;28380,092;    1,190;    2,591
608,987;27402,408;    1,281;    3,409
609,566;27720,589;   -1,265;   -2,500
610,145;27815,121;   -1,082;    0,682
610,723;28258,262;    4,372;    6,864
611,302;27523,004;   -0,446;    1,682
611,881;27042,040;    5,008;   11,227
612,460;27836,567;    1,645;    3,955
613,039;28270,145;   -0,082;    2,045
613,617;26955,038;    1,736;    4,773
614,196;27149,235;    1,099;    1,227
614,775;27498,286;    1,009;    2,409
615,353;27470,660;    0,736;    0,864
615,932;27191,551;    0,100;    2,409
616,510;27788,918;    0,554;    0,591
617,089;27301,987;    7,100;   17,591
617,667;27013,282;    2,372;    6,136
618,246;26894,806;   -1,537;    1,318
618,824;27028,428;   -3,355;   -0,955
619,402;26560,524;   -2,900;   -1,773
619,981;27097,102;   -0,173;   -1,045
620,559;26936,666;    0,009;    1,682
621,137;26488,661;   -0,718;    1,864
621,715;26514,711;   -1,173;   -0,682
622,293;26448,352;   -0,537;   -0,773
622,871;26841,029;   -0,718;    0,500
623,450;26424,744;    0,373;   -0,864
624,028;26329,784;    0,191;   -0,955
624,606;26018,039;   -1,718;    1,682
625,183;26376,399;   -1,536;   -1,136
625,761;25997,213;    1,009;    1,136
626,339;26301,394;    1,373;    2,591
626,917;26681,846;   -0,172;   -0,045
627,495;26720,437;   -0,354;    1,318
628,073;26137,219;   -0,263;    2,864
628,650;25826,295;    0,100;    2,136
629,228;26258,212;    0,373;    4,409
629,806;25726,577;    2,282;    1,136
630,383;25968,105;    1,464;   -0,318
630,961;25743,336;    2,555;   -0,955
631,539;25504,610;    2,464;    0,227
632,116;24825,063;   11,373;   15,409
632,694;25393,569;    2,555;    6,500
633,271;25690,912;    0,828;    2,682
633,848;25637,793;    1,828;    2,045
634,426;25679,926;   -1,081;    1,773
635,003;24780,096;    1,101;   -0,409
635,580;25156,169;    1,192;    3,682
636,158;25707,263;    3,737;    1,227
636,735;25650,125;    0,555;   -0,500
637,312;25795,056;   -0,809;   -0,682
637,889;25915,962;   -4,354;   -0,682
638,466;25347,779;   -3,990;   -0,409
639,043;25330,771;    2,101;   -1,136
639,620;25686,371;   -2,262;   -0,955
640,197;26056,684;    1,100;    1,682
640,774;26134,013;   -0,172;    1,136
641,351;26559,979;    0,737;    1,136
641,928;25992,763;   -0,627;    1,409
642,505;25635,728;    0,828;   -0,500
643,082;25744,785;   -1,718;    1,227
643,658;24729,205;   -0,718;    1,500
644,235;25507,807;    1,191;    2,500
644,812;25874,772;    1,918;    0,773
645,388;25576,010;   -0,991;    1,409
645,965;25631,249;   -0,809;    1,682
646,542;25703,305;   -1,445;   -0,227
647,118;25708,816;    1,009;   -0,955
647,695;25973,236;   -0,263;    1,136
648,271;25877,111;   -0,536;    0,500
648,848;26204,167;    0,736;    2,227
649,424;26041,314;    0,827;    1,318
650,000;25807,371;   -0,354;   -1,045
650,577;25662,518;   -0,627;   -0,955
651,153;26089,211;   -1,809;    0,955
651,729;27102,813;    1,191;    0,864
652,305;27390,324;    0,645;    2,773
652,881;32033,653;   -0,082;    1,136
653,458;39026,437;    1,100;    0,227
654,034;42791,129;    0,282;    1,591
654,610;44186,822;    0,554;    0,773
655,186;45493,515;    0,645;    3,045
655,762;45157,844;   -0,991;    0,409
656,338;45196,446;    0,100;    0,136
656,913;46162,321;   -0,082;    0,409
657,489;45347,195;    0,827;   -0,318
658,065;45277,706;   -0,173;   -1,591
658,641;45936,854;   -0,900;   -0,864
659,217;45279,274;   -0,991;    0,409
659,792;44635,876;    0,645;   -0,409
660,368;44834,023;   -2,173;   -0,682
660,944;44464,534;   -2,082;    1,227
661,519;39764,318;   -0,628;    0,409
662,095;33786,738;   -1,719;    0,591
662,670;29190,249;    1,281;   -0,136
663,246;28096,578;    1,009;   -0,409
663,821;27406,634;    0,281;    1,682
664,396;26890,509;    0,009;    1,864
664,972;27144,020;    0,009;   -0,500
665,547;27487,531;    1,372;    0,136
666,122;27551,587;   -1,082;    0,318
666,698;27780,553;   -0,173;    0,318
667,273;27117,064;   -0,173;    0,136
667,848;27944,302;    2,372;    1,500
668,423;27771,449;    2,190;    2,318
668,998;28328,051;    2,827;   -0,682
669,573;28843,017;   -3,264;   -1,500
670,148;28669,982;   -1,446;   -0,682
670,723;28507,948;   -1,810;    0,318
671,298;28902,913;    2,372;    1,045
671,873;29000,788;   -0,082;   -0,136
672,448;28994,753;    0,645;    0,136
673,023;29309,810;   -1,992;   -0,227
673,597;29601,503;    0,827;    2,318
674,172;29361,014;   -0,355;    0,318
674,747;28805,161;    0,372;   -1,045
675,321;28634,399;   -0,628;    3,318
675,896;28218,456;    0,645;    1,045
676,471;29266,785;    2,645;    1,591
677,045;29053,750;   -1,264;    0,682
677,620;29058,716;    0,190;    1,136
678,194;29348,318;   -2,628;    1,136
678,769;28909,192;   -1,083;   -0,318
679,343;29266,521;   -0,628;    1,773
679,917;29124,123;   -1,446;    1,955
680,492;29210,634;    0,826;    3,227
681,066;29316,509;    3,372;    0,409
681,640;29407,474;    1,463;   -0,318
682,214;30195,894;    0,735;    0,500
682,788;29733,405;   -1,356;   -0,773
683,363;29648,826;   -1,810;    1,682
683,937;29342,791;   -1,719;   -0,318
684,511;30119,575;    0,463;   -0,591
685,085;29818,358;   -1,356;    0,318
685,659;29599,960;   -2,538;    0,864
686,232;29845,108;   -0,356;   -0,318
686,806;29523,164;   -0,901;    0,409
687,380;30197,130;   -0,174;    0,591
687,954;30423,459;   -1,174;    1,136
688,528;30123,061;   -0,719;    1,955
689,101;30893,572;   -3,992;    1,045
689,675;30524,174;   -0,356;   -0,136
690,249;29879,866;   -0,719;    0,409
690,822;30159,195;    0,280;    0,318
691,396;30283,434;   -0,265;    1,227
691,969;29696,308;    1,280;    0,136
692,543;30150,001;   -0,447;   -1,955
693,116;29842,603;   -0,265;   -1,409
693,690;29725,296;    0,099;    0,500
694,263;30257,807;   -1,083;    2,955
694,836;30329,136;    1,371;    3,591
695,410;28955,738;   -0,265;    1,773
695,983;29408,885;    0,189;    0,591
696,556;29384,760;   -0,447;   -1,045
697,129;29744,816;   -0,356;    1,409
697,703;29366,873;   -1,629;    1,955
698,276;29424,202;    1,462;   -0,773
698,849;29273,076;    1,280;    1,409
699,422;29614,224;   -1,083;    0,591
699,995;29254,189;    0,007;    0,136
700,568;29786,791;   -0,629;    3,045
701,140;29733,484;   -2,811;    1,682
701,713;29520,631;   -0,174;    2,409
702,286;29256,233;   -0,538;    0,864
702,859;29124,471;   -0,902;   -0,591
703,432;28299,255;    0,825;    0,682
704,004;28795,857;    0,462;    0,318
704,577;28677,641;   -0,629;    0,136
705,150;29254,243;    0,189;    2,500
705,722;28987,026;   -0,356;   -3,227
706,295;28805,901;   -0,175;   -0,591
706,867;28669,775;   -0,175;    1,955
707,440;28826,832;   -1,720;   -0,409
708,012;29105,979;    0,462;    0,591
708,584;29108,854;    2,462;    0,227
709,157;29335,910;    1,825;   -0,591
709,729;28989,603;    2,280;    2,045
710,301;29833,387;    0,734;    0,045
710,874;29840,716;   -1,447;   -0,227
711,446;28693,772;    0,371;    0,864
712,018;28574,465;    0,098;    0,500
712,590;28302,794;   -1,993;    1,682
713,162;28900,760;    0,825;    1,318
713,734;29166,634;    1,825;   -2,045
714,306;29003,418;   -1,902;   -0,409
714,878;27701,565;    0,825;    0,864
715,450;28562,167;    0,643;    0,864
716,022;28763,406;    1,552;    1,318
716,593;28922,826;    0,189;    0,591
717,165;28885,064;   -3,175;   -1,227
717,737;28549,029;    0,280;    0,409
718,309;28214,904;    0,280;   -0,045
718,880;28189,779;   -0,539;   -1,409
719,452;28354,199;   -0,175;   -1,591
720,024;27953,528;    0,734;   -0,591
720,595;28528,857;   -2,902;    0,955
721,167;28101,823;    0,370;   -2,045
721,738;27652,879;   -0,812;   -1,045
722,309;27612,026;   -0,993;   -1,227
722,881;27395,810;   -1,357;    0,773
723,452;28044,594;   -2,630;    2,864
724,023;28223,014;   -0,721;    2,682
724,595;27929,161;    0,007;    0,682
725,166;27677,036;    0,007;   -0,409
725,737;27320,001;    1,734;    0,227
726,308;27412,876;   -0,266;    0,318
726,879;27871,296;   -1,630;    1,227
727,450;27739,534;    0,552;   -0,045
728,021;27742,863;    3,097;    0,682
728,592;27464,283;    0,734;    0,500
729,163;27842,340;    0,643;   -0,136
729,734;27861,578;    0,188;   -0,227
730,305;28232,907;    1,734;    0,136
730,876;28604,236;    0,188;    2,955
731,447;28266,566;    2,188;    2,682
732,017;28353,713;    1,097;    1,864
732,588;27877,860;    0,734;    1,227
733,159;28077,553;    0,643;   -1,045
733,729;27896,791;    0,006;    0,409
734,300;27157,939;    0,915;    0,864
734,870;27601,541;    3,461;    0,591
735,441;28193,142;    0,370;   -0,591
736,011;27892,562;    0,643;   -1,591
736,582;27848,437;   -0,812;    0,045
737,152;27306,584;   -1,721;   -2,045
737,722;27771,368;   -0,267;   -0,682
738,293;27480,970;   -1,358;    1,318
738,863;27356,117;    2,461;    2,318
739,433;27208,901;    5,279;    0,318
740,003;27812,048;   -0,994;   -0,682
740,573;27234,559;    2,097;   -1,591
741,143;27156,889;   -1,085;    0,318
741,713;27933,399;    1,188;   -0,500
742,283;27646,820;    0,915;    1,591
742,853;27430,240;    1,915;    1,591
743,423;26858,660;    1,733;    0,045
743,993;26994,898;   -0,358;    1,500
744,563;26425,773;    0,097;   -0,864
745,133;26348,829;   -0,812;   -0,864
745,702;26990,158;   -0,267;    1,773
746,272;26232,760;   -0,176;    0,591
746,842;26013,726;   -1,358;   -0,591
747,411;26426,873;   -0,267;   -0,318
747,981;26609,475;    0,097;    0,500
748,551;26660,168;    2,278;   -1,045
749,120;26491,224;    0,642;   -0,227
749,690;26880,099;   -0,631;    2,409
750,259;27202,882;    1,369;    2,955
750,828;27119,939;    1,551;   -1,955
751,398;27376,268;    1,278;   -0,045
751,967;26889,233;    2,187;    0,409
752,536;27113,472;   -0,813;   -0,227
753,105;27514,528;    0,096;    0,227
753,675;27288,948;    0,096;    1,773
754,244;27213,823;   -0,904;    3,591
754,813;27270,425;    0,551;    1,227
755,382;26872,845;    0,460;    0,955
755,951;27442,083;    1,551;    3,682
756,520;26922,867;   -0,085;    1,864
757,089;27539,650;    0,278;    0,500
757,658;27732,980;    1,733;    1,227
758,227;27647,945;    1,096;    0,318
758,795;28008,274;    1,187;    1,136
759,364;28188,149;   -0,086;   -0,591
759,933;27212,387;   -1,176;   -0,045
760,501;26795,080;    0,733;   -1,318
761,070;27237,409;   -2,813;   -1,409
761,639;27912,193;   -1,904;    1,318
762,207;27243,795;    1,551;   -0,955
762,776;27152,396;    0,369;    0,864
763,344;27088,726;   -0,995;    0,591
763,913;26231,964;   -0,722;    1,409
764,481;27010,475;    1,005;   -0,136
765,049;26756,440;   -1,358;    1,409
765,618;26711,224;   -0,086;    0,318
766,186;26722,462;    0,278;    0,136
766,754;26935,428;    0,005;    1,864
767,322;25916,848;   -1,995;    0,409
767,890;25972,904;   -0,722;   -1,773
768,459;26321,688;   -2,177;   -0,318
769,027;26518,199;    1,641;    3,409
769,595;25483,165;    3,278;    2,591
770,163;25910,857;    3,823;    2,955
770,730;25659,186;    0,732;   -0,136
771,298;25496,334;    0,187;   -1,409
771,866;25624,481;   -1,541;    4,955
772,434;25947,810;   -0,631;   -1,864
773,002;26169,685;    0,005;    0,682
773,569;25740,378;    0,914;    1,682
774,137;25539,343;   -0,268;   -0,045
774,705;26327,036;    0,278;   -0,136
775,272;25854,002;    0,641;    0,682
775,840;25616,785;   -0,177;    2,682
776,407;25160,387;    0,277;    1,955
776,975;24756,444;   -0,632;    0,318
777,542;25740,591;   -1,086;   -0,045
778,110;25571,011;   -1,268;   -0,045
778,677;25256,976;   -2,359;   -0,864
779,244;24999,578;    2,186;    1,045
779,812;25106,635;    1,823;    0,864
780,379;24972,600;    0,005;    1,136
780,946;25195,020;    1,005;   -0,773
781,513;25555,077;   -1,450;    0,318
782,080;24894,224;   -0,086;    2,864
782,647;25658,826;   -0,268;    3,045
783,214;25201,155;   -0,177;    3,864
783,781;24832,757;   -0,723;   -0,682
784,348;24685,995;   -0,632;    1,500
784,915;25201,779;   -3,177;    0,318
785,482;24928,745;    1,368;    2,591
786,049;25392,528;    0,186;   -0,591
786,615;25494,767;    0,277;   -0,955
787,182;25241,096;    0,186;   -0,682
787,749;24914,152;   -2,814;    1,409
788,315;24264,209;   -1,632;   -0,409
788,882;24570,629;    1,550;   -1,227
789,448;25286,958;    1,732;   -0,955
790,015;25289,469;    1,095;    3,227
790,581;24829,889;    1,459;    0,227
791,148;24704,672;    0,641;    1,045
791,714;24967,183;   -0,541;    3,136
792,280;24627,331;    0,186;    1,591
792,847;24145,569;    0,550;    2,500
793,413;24709,625;   -0,269;   -0,318
793,979;24252,318;    3,459;   -1,318
794,545;24372,557;    4,459;    2,682
795,111;23772,249;    2,186;    1,318
795,678;23961,397;    0,731;   -1,682
796,244;23585,908;    3,368;    0,136
796,810;24098,691;    1,731;    0,773
797,375;23876,748;    0,549;   -2,136
797,941;23876,713;   -0,541;    0,591
798,507;23998,133;   -0,451;   -0,955
799,073;23543,553;   -0,360;    0,591
799,639;23628,973;   -2,632;    3,136
800,205;23654,394;    0,095;    2,682
800,770;23211,905;    0,640;    1,773
801,336;23322,597;    1,368;   -0,955
801,901;23049,290;    4,549;    3,136
802,467;23614,528;   -0,542;    2,045
803,033;22900,130;   -0,087;    0,864
803,598;23110,278;    1,913;   -1,045
804,163;23146,970;    1,095;   -0,318
804,729;23134,845;   -0,178;    1,136
805,294;23551,810;    0,822;    2,227
805,859;23328,503;    0,731;   -0,409
806,425;22771,105;    1,186;    2,682
806,990;22403,343;    2,186;    4,318
807,555;22884,127;   -1,451;    2,591
808,120;22798,093;    0,822;   -0,409
808,685;22810,695;    0,185;   -2,500
809,250;22396,569;    0,004;   -0,500
809,815;22696,807;    1,913;    0,682
810,380;23235,864;   -0,269;    1,591
810,945;23758,102;   -1,087;    2,045
811,510;22916,340;    2,094;    1,591
812,075;22630,033;   -0,633;   -1,409
812,640;22636,726;    2,003;    1,409
813,204;22704,691;    0,822;   -0,227
813,769;23157,566;    2,094;   -0,045
814,334;22598,622;    0,458;    0,864
814,898;22653,497;    0,367;    0,591
815,463;22484,644;    1,276;   -0,773
816,027;22449,974;   -0,724;   -2,318
816,592;22558,939;    0,640;   -2,045
817,156;22083,723;    2,094;    1,136
817,721;21961,325;    4,276;    2,318
818,285;21926,108;    2,912;    1,500
818,849;22559,619;   -1,451;    1,682
819,414;22438,494;   -0,269;    2,955
819,978;22022,005;   -1,269;    1,773
820,542;22611,880;    2,003;    0,500
821,106;22273,754;   -0,815;    0,682
821,670;22396,447;   -0,815;    2,591
822,234;22160,958;   -0,270;    1,409
822,798;21494,196;    0,003;    0,500
823,362;21429,525;   -0,633;    4,227
823,926;20776,309;    0,094;    1,136
824,490;21031,093;   -0,997;   -0,682
825,054;21442,876;   -0,088;   -1,136
825,618;21075,478;   -1,542;   -1,500
826,181;21030,898;    0,458;   -1,318
826,745;20957,955;    1,367;   -1,045
827,309;21314,557;    1,185;    1,318
827,872;20695,249;    1,367;    0,955
828,436;21681,488;    1,185;   -0,773
828,999;21744,908;   -0,997;    1,227
829,563;20523,510;   -0,179;    1,136
830,126;20376,021;   -0,179;   -0,591
830,690;20394,077;   -1,997;    2,864
831,253;19909,406;   -0,543;    2,227
831,816;20059,554;   -1,906;    0,500
832,380;19984,974;    0,185;    0,864
832,943;20183,576;   -1,361;   -0,500
833,506;19661,177;    2,639;   -1,227
834,069;20450,325;    3,912;   -0,955
834,632;20466,472;    1,730;    1,318
835,195;20367,710;    1,003;    0,955
835,758;19546,858;   -0,997;    1,955
836,321;19408,278;    0,730;   -1,045
836,884;19521,516;   -0,725;   -0,955
837,447;19538,572;   -2,816;    1,773
838,010;19825,992;    0,366;    3,227
838,573;20112,867;   -1,179;    0,773
839,135;20065,287;   -1,361;   -0,955
839,698;19541,798;    1,275;    0,409
840,261;19065,945;    1,003;   -0,227
840,823;18892,729;   -0,543;    0,864
841,386;19212,695;   -0,452;   -2,409
841,948;19072,478;   -1,361;    1,773
842,511;18800,171;    0,912;    1,682
843,073;18979,137;    1,912;    0,227
843,636;18746,375;   -0,361;   -0,227
844,198;18683,522;    0,911;    0,591
844,760;18840,397;    1,093;    1,955
845,322;18475,090;    0,548;    1,136
845,885;18862,328;    0,730;    0,591
846,447;19313,293;   -1,998;    0,227
847,009;18903,168;    1,911;   -0,682
847,571;19232,679;    0,820;   -2,045
848,133;19352,008;   -1,089;   -1,864
848,695;19154,610;   -0,543;    1,409
849,257;18735,848;   -1,089;   -1,682
849,819;18890,814;   -0,998;   -0,409
850,381;18911,416;   -0,725;   -0,864
850,942;19270,018;    1,093;   -0,591
851,504;19292,347;    1,184;    0,227
852,066;19321,858;    1,275;   -1,591
852,628;18820,641;   -0,180;    1,955
853,189;18391,789;    1,638;    2,682
853,751;18490,663;   -0,907;    1,409
854,312;18302,356;   -0,453;   -1,682
854,874;18818,231;   -2,089;   -0,773
855,435;19344,924;   -0,907;   -1,682
855,997;19493,889;   -1,816;   -0,136
856,558;18759,400;    0,366;    1,773
857,119;18859,638;    0,820;    2,864
857,681;18552,331;    0,002;    0,318
858,242;18559,842;    1,911;   -2,136
858,803;19051,444;    0,456;   -0,773
859,364;19597,137;    0,184;   -4,773
859,925;18905,102;   -2,453;   -0,955
860,486;18818,341;   -0,453;   -0,955
861,047;18531,215;   -0,544;   -1,227
861,608;18374,090;   -1,089;   -0,773
862,169;18475,873;    0,638;   -0,045
862,730;18237,748;    0,456;    1,409
863,291;18501,714;   -0,635;   -0,500
863,852;18849,588;   -0,635;    1,955
864,412;18281,099;   -0,271;   -0,864
864,973;16861,156;   -0,089;    0,500
865,534;16751,758;   -1,726;    0,227
866,094;18273,178;    1,820;    0,227
866,655;17898,870;    1,274;    3,318
867,215;18186,109;    0,274;    0,136
867,776;18066,438;    0,547;   -0,136
868,336;18149,585;   -1,453;    0,136
868,897;17622,096;    2,638;    1,682
869,457;17312,334;    1,365;    0,318
870,017;17549,936;    0,547;   -1,227
870,578;18090,265;   -0,817;    0,773
871,138;17785,867;   -2,089;   -0,955
871,698;17313,924;   -0,817;   -1,318
872,258;17216,616;   -0,453;   -2,864
872,818;17583,582;    2,729;    0,045
873,378;17535,911;    0,638;    1,045
873,938;17050,422;    0,547;    0,500
874,498;17382,569;    0,274;   -1,955
875,058;17301,080;    2,183;    1,773
875,618;17120,410;    1,910;   -2,682
876,177;17089,739;    1,274;    0,136
876,737;16708,886;   -0,090;    1,955
877,297;16771,761;    0,183;    1,955
877,856;16774,999;   -0,362;    0,318
878,416;16717,964;    1,183;   -0,136
878,976;16894,566;   -1,817;    0,409
879,535;17063,623;    0,092;    3,136
880,095;16798,043;   -0,544;    0,045
880,654;16915,281;   -1,090;    1,318
881,213;17006,792;    2,456;    1,500
881,773;16659,485;    2,637;    2,682
882,332;17050,632;    3,365;    5,136
882,891;16900,416;    3,092;    2,136
883,451;17347,291;   -1,272;    1,682
884,010;16751,620;   -2,908;   -0,409
884,569;16862,494;   -0,999;   -0,045
885,128;17015,187;    2,819;   -1,864
885,687;17088,062;    4,455;    0,682
886,246;16769,391;    1,455;    2,136
886,805;16594,720;    2,455;    2,045
887,364;16853,413;   -0,999;   -0,500
887,922;17198,924;   -1,181;    0,045
888,481;16716,798;   -1,545;    0,591
889,040;17017,037;    1,183;    2,136
889,599;17702,729;    2,455;    1,409
890,157;17771,968;    1,455;    2,409
890,716;17388,479;   -0,090;    0,227
891,274;17265,899;    0,092;   -1,136
891,833;17662,592;    1,546;    0,864
892,391;17509,557;   -0,454;    0,500
892,950;17621,886;    1,819;   -0,773
893,508;18008,670;    0,455;   -0,409
894,067;17318,454;    0,637;    0,136
894,625;17223,783;   -0,636;   -1,500
895,183;17438,476;   -0,363;   -0,682
895,741;17376,896;    1,728;   -1,773
896,299;17195,134;   -0,545;   -2,409
896,858;17355,463;    0,819;   -1,591
897,416;17480,247;    2,728;   -1,318
897,974;17250,030;    1,819;    0,318
898,532;17396,632;    6,091;    2,682
899,089;17263,871;    2,091;   -0,682
899,647;17308,472;   -1,454;    1,318
900,205;17043,074;    1,182;    1,045
900,763;17227,676;   -0,454;    0,227
901,321;17275,005;    2,364;   -1,409
901,878;16660,789;   -1,000;   -0,773
902,436;16519,573;   -1,363;    1,318
902,994;16925,993;    4,728;    3,682
903,551;16410,231;    0,728;    0,409
904,109;16776,197;    0,182;   -1,409
904,666;16387,708;    2,455;    1,045
905,224;16229,582;    0,182;   -0,409
905,781;15951,548;    0,727;   -0,318
906,338;16031,059;   -1,363;    1,045
906,895;15995,933;    0,637;    2,045
907,453;15891,535;    1,727;    1,136
908,010;15916,410;   -0,909;    0,409
908,567;15554,193;    1,273;    0,591
909,124;15057,614;    0,364;   -1,500
909,681;15133,125;   -2,909;    0,682
910,238;15267,363;    0,636;   -1,318
910,795;15581,874;   -0,273;   -1,136
911,352;15186,419;   -2,909;   -2,682
911,909;14602,874;   -1,364;   -0,864
912,466;15151,419;   -3,182;    1,500
913,022;14669,965;   -1,636;    0,500
913,579;15033,146;   -0,909;    2,045
914,136;14723,783;    1,636;    0,955
914,692;15025,237;    0,091;   -1,227
915,249;14640,601;    1,455;    0,409
915,806;14891,692;    0,182;    1,955
916,362;14606,237;    1,909;    1,864
916,918;14191,692;    2,000;    1,045
917,475;14178,419;   -1,182;    0,955
918,031;14227,328;    3,364;   -0,045
918,587;13703,965;   -0,909;   -0,318
919,144;13963,692;   -2,273;    0,227
919,700;14239,874;    1,727;    0,773
920,256;13816,874;    0,727;    0,045
920,812;13472,146;   -0,727;   -1,045
921,368;13452,874;   -1,727;   -1,045
921,924;13056,237;    0,182;   -0,136
922,480;12632,237;   -0,545;    1,227
923,036;13227,146;    1,273;    1,955
923,592;13181,056;    0,455;    0,318
924,148;13098,692;    0,455;   -0,955
924,704;12415,328;   -1,364;   -0,409
925,259;12680,146;   -0,273;    0,591
925,815;12470,601;    1,455;    0,500
926,371;11957,419;    2,909;    1,409
926,926;11855,237;    2,091;    0,591
927,482;11493,965;   -1,364;    0,773
928,037;11402,146;    0,909;    2,045
928,593;11646,874;    1,636;    1,045
929,148;11491,783;   -1,818;   -1,500
929,704;10975,874;   -1,455;   -0,500
930,259;11198,692;    0,091;   -0,136
930,814;10250,965;   -0,818;    1,955
931,369; 9956,146;    1,091;   -0,773
931,925; 9808,419;   -0,091;    0,136
932,480; 9732,056;   -2,818;   -2,591
933,035; 9601,419;    0,545;   -0,318
933,590; 9351,146;    0,364;   -1,773
934,145; 9004,056;   -1,364;   -0,318
934,700; 9379,965;    0,455;   -0,591
935,255; 9136,237;   -0,091;    0,045
935,809; 8411,146;    3,182;    0,864
936,364; 7542,692;   -0,455;   -0,136
936,919; 7501,783;    0,455;   -1,773
937,474; 7375,510;    1,455;    0,136
938,028; 7157,965;   -1,636;    1,136
938,583; 6628,146;    1,818;    4,682
939,138; 6911,419;    2,091;    2,136
939,692; 6327,237;    1,636;   -1,136
940,247; 6060,692;   -0,727;   -1,045
940,801; 5597,783;   -0,636;    0,227
941,355; 5462,146;   -0,364;    2,591
941,910; 5135,510;   -0,273;   -2,136
942,464; 5261,419;   -0,818;   -0,318
943,018; 5040,419;    1,000;   -0,227
943,572; 4962,692;    2,545;   -0,682
944,126; 4390,146;    0,091;   -0,409
944,681; 4287,783;    3,091;    0,227
945,235; 4270,965;    1,000;   -0,591
945,789; 4214,601;    0,364;   -1,864
946,342; 4328,419;    0,455;   -0,591
946,896; 4110,601;   -2,273;    0,955
947,450; 3867,056;    1,545;   -0,227
948,004; 4069,692;    1,727;   -0,045
948,558; 4081,056;    0,273;   -0,864
949,111; 4008,328;   -0,273;   -0,318
949,665; 4022,056;    1,636;   -0,682
950,219; 3902,692;   -0,091;   -1,045
950,772; 3991,783;   -1,909;    1,864
951,326; 3873,874;    0,545;   -0,955
951,879; 3974,965;    0,727;   -2,318
952,433; 4009,692;    0,000;    2,227
952,986; 3841,601;    2,909;    0,682
953,539; 3800,056;   -0,273;    0,591
954,093; 3735,328;    0,545;   -1,318
954,646; 3853,601;    0,909;    1,318
955,199; 3686,783;    0,000;   -0,500
955,752; 3567,510;   -0,455;    1,773
956,305; 3535,510;   -0,091;    2,955
956,858; 3707,692;    0,818;   -0,318
957,411; 3843,965;   -0,545;    2,136
957,964; 3687,146;    1,364;    2,136
958,517; 3695,510;   -1,545;    3,136
959,070; 3500,965;   -0,455;    1,955
959,623; 3576,237;    1,091;    1,500
960,176; 3350,874;    1,727;    2,045
960,728; 3313,965;   -2,727;    0,773
961,281; 3398,056;    0,545;    0,500
961,834; 3435,692;   -0,909;    0,864
962,386; 3354,783;    1,727;    1,045
962,939; 3283,237;    0,364;   -0,318
963,491; 3427,328;    0,455;    1,136
964,043; 3295,965;    1,182;    2,409
964,596; 3413,146;   -1,000;    2,227
965,148; 3259,601;   -1,000;    1,773
965,700; 3178,783;    1,091;   -0,227
966,253; 3329,146;   -0,636;    0,318
966,805; 3142,692;   -2,273;    0,773
967,357; 3198,965;    1,091;   -1,500
967,909; 3175,510;    0,455;   -1,227
968,461; 3300,419;    0,545;    3,136
969,013; 3209,146;   -0,182;   -0,864
969,565; 3295,237;   -0,455;   -1,136
970,117; 3345,510;   -0,364;    1,045
970,669; 3181,965;    0,182;   -0,136
971,220; 3039,056;   -0,455;   -1,500
971,772; 2986,510;   -0,636;   -0,318
972,324; 3099,601;    0,091;   -0,500
972,876; 3038,874;    0,818;   -0,045
973,427; 3177,328;    1,909;   -1,045
973,979; 3133,965;   -0,727;   -2,500
974,530; 3172,965;    1,818;    1,318
975,082; 3190,237;   -0,545;    1,682
975,633; 3072,237;    1,091;    1,682
976,184; 3218,237;    0,909;    0,773
976,736; 3017,965;    0,091;    0,227
977,287; 2820,692;   -0,909;   -0,500
977,838; 2997,692;    0,909;   -0,318
978,389; 3059,601;   -1,000;   -0,500
978,940; 2933,783;    0,545;   -0,409
979,491; 2934,056;    0,091;   -0,500
980,042; 2915,419;    0,182;    3,045
980,593; 2974,783;   -2,545;    0,227
981,144; 3015,056;    2,545;   -0,500
981,695; 2962,146;    1,455;    1,500
982,246; 2946,056;   -0,273;    1,045
982,797; 3096,146;   -1,727;    0,682
983,347; 3210,510;    0,364;    0,591
983,898; 3384,328;    3,091;    0,409
984,449; 3189,874;    2,182;    0,773
984,999; 3098,419;    1,455;   -1,136
985,550; 2894,510;    0,182;   -0,318
986,100; 2913,874;   -0,455;   -0,318
986,651; 2945,692;   -0,818;    0,045
987,201; 2924,237;   -1,000;   -0,591
987,751; 3004,056;    0,818;    2,864
988,302; 2983,510;    2,636;    1,500
988,852; 3010,510;    0,455;   -1,136
989,402; 3073,783;    0,091;    0,682
989,952; 2977,601;   -2,182;    0,864
990,502; 3056,601;   -0,091;    0,682
991,052; 3014,601;   -0,727;    0,045
991,602; 2901,510;   -2,909;    1,318
992,152; 2902,965;    0,455;    0,682
992,702; 2875,419;    1,364;   -0,045
993,252; 2812,146;   -3,000;   -0,500
993,802; 2904,510;   -0,273;    1,318
994,352; 3136,965;   -1,545;    1,136
994,901; 3217,146;   -0,182;    3,227
995,451; 3128,783;   -0,182;    0,318
996,000; 3214,056;    1,636;    0,318
996,550; 2945,328;    2,273;    0,227
997,100; 2928,874;    1,273;   -0,045
997,649; 3208,601;    2,182;    0,955
998,198; 2830,146;    1,727;   -1,500
998,748; 3025,601;    1,091;   -2,318
999,297; 2957,146;   -0,818;   -0,409
999,846; 2990,056;    1,000;   -0,773
1000,395; 3038,965;   -0,818;    0,500
1000,945; 3013,056;    1,818;   -0,773
1001,494; 3100,237;    2,364;    0,682
1002,043; 3092,419;    4,636;    0,864
1002,592; 2927,965;   -1,091;    1,955
1003,141; 3072,146;   -0,455;   -0,682
1003,690; 2929,965;    1,727;    0,500
1004,238; 3006,783;    1,455;   -0,045
1004,787; 2661,328;    1,364;    1,227
1005,336; 2884,965;    0,364;    0,682
1005,885; 3032,419;    1,364;   -2,773
1006,433; 3184,601;    0,545;    0,955
1006,982; 3217,328;    0,455;    1,682
1007,531; 3110,510;   -1,818;   -0,227
1008,079; 3065,056;   -2,273;    0,500
1008,627; 3207,146;   -1,455;    0,409
1009,176; 2944,328;    0,000;   -1,955
1009,724; 3000,419;    1,091;    0,864
1010,273; 3050,601;    1,273;    0,500
1010,821; 3163,328;    0,091;    1,409
1011,369; 2928,328;   -1,364;    1,318
1011,917; 2895,601;   -1,364;   -0,591
1012,465; 3168,510;    1,273;   -1,591
1013,013; 3288,965;    2,091;   -1,682
1013,561; 3147,874;    0,455;   -0,773
1014,109; 3202,874;   -1,909;    1,682
1014,657; 3072,237;    0,364;    0,591
1015,205; 3202,510;    1,636;   -0,955
1015,753; 3230,510;   -0,545;   -1,409
1016,301; 3277,237;   -2,636;    3,045
1016,848; 3265,237;   -1,273;    0,409
1017,396; 3345,328;    2,545;    0,045
1017,944; 3467,419;    1,182;    1,864
1018,491; 3217,056;    0,273;    1,409
1019,039; 3354,874;    0,455;    0,591
1019,586; 3270,419;   -1,364;    1,682
1020,134; 3352,328;    0,455;    1,500
1020,681; 3403,601;    0,182;   -1,136
1021,228; 3411,328;    2,909;   -2,227
1021,776; 3240,146;    1,182;   -1,136
1022,323; 3460,056;    0,455;    0,773
1022,870; 3386,601;   -1,000;   -0,045
1023,417; 3274,056;    2,636;    1,864
1023,964; 3439,783;    2,636;    1,227
1024,511; 3262,965;    1,000;    0,773
1025,058; 3067,419;    3,182;   -0,045
1025,605; 3121,328;   -2,273;    3,136
1026,152; 3336,237;    1,727;   -0,591
1026,699; 3068,965;    1,818;    1,318
1027,245; 3234,692;   -0,091;    0,318
1027,792; 3441,146;   -1,000;    1,409
1028,339; 3333,965;    2,364;   -0,045
1028,885; 3194,146;    1,000;   -0,227
1029,432; 3102,965;   -0,091;    0,227
1029,978; 3167,146;   -1,000;   -1,591
1030,525; 3098,056;    1,000;    0,409
1031,071; 3327,692;   -1,364;    1,136
1031,618; 3420,510;    0,364;    1,682
1032,164; 3204,237;   -0,091;    3,045
1032,710; 3250,328;    1,636;   -1,500
1033,256; 3162,692;   -0,636;   -0,136
1033,803; 3148,601;   -0,545;    1,500
1034,349; 2871,601;   -1,364;    0,136
1034,895; 3045,874;    0,000;   -0,318
1035,441; 3015,328;   -0,818;    0,318
1035,987; 3025,874;   -2,364;   -0,682
1036,533; 3016,056;   -1,455;   -0,955
1037,078; 3235,783;    1,455;    1,682
1037,624; 3041,237;    2,455;   -0,955
1038,170; 3059,510;    0,455;   -0,318
1038,716; 2964,692;    1,636;   -0,409
1039,261; 2879,146;   -2,273;   -0,773
1039,807; 2821,510;   -0,091;    3,409
1040,352; 2897,965;   -1,909;   -0,318
1040,898; 2933,419;   -1,545;   -0,682
1041,443; 2838,965;   -1,455;   -2,591
1041,989; 2864,965;    1,091;    1,591
1042,534; 2734,146;   -0,364;    2,591
1043,079; 2866,874;    2,909;    0,955
1043,625; 2646,056;    1,818;    0,500
1044,170; 2704,601;   -1,364;    1,045
1044,715; 2956,692;    2,455;    0,955
1045,260; 2753,965;    2,182;   -0,955
1045,805; 2801,510;    1,182;   -0,591
1046,350; 2743,419;    1,364;   -0,409
1046,895; 2700,056;    2,909;    1,591
1047,440; 2663,056;    5,364;    0,409
1047,985; 2542,965;    2,818;   -0,955
1048,530; 2470,510;    1,545;    1,227
1049,074; 2530,510;    0,000;    0,318
1049,619; 2512,328;   -1,364;    1,955
1050,164; 2308,419;    0,455;    0,227
1050,708; 2350,783;   -0,455;    0,045
1051,253; 2722,965;    1,273;   -2,227
1051,797; 2415,146;    0,818;   -1,318
1052,342; 2435,419;   -1,182;    1,045
1052,886; 2440,146;    0,364;   -1,409
1053,430; 2312,692;   -1,364;    0,136
1053,975; 2338,328;   -0,818;   -0,318
1054,519; 2323,237;   -0,727;    3,227
1055,063; 2332,237;    0,909;    1,318
1055,607; 2222,510;   -0,182;    0,227
1056,151; 2240,783;    2,909;    1,682
1056,695; 2152,692;    2,273;   -1,136
1057,239; 2213,056;   -1,727;   -0,682
1057,783; 2223,419;    0,818;   -1,500
1058,327; 2157,965;    0,000;    1,409
1058,871; 2393,328;   -0,545;    1,318
1059,415; 2110,601;   -0,818;   -0,045
1059,958; 2394,056;    1,455;    2,591
1060,502; 2092,056;   -1,000;   -0,773
1061,046; 2005,237;    0,364;   -0,955
1061,589; 1975,510;   -3,000;   -1,136
1062,133; 1872,419;   -1,273;    1,864
1062,676; 1804,965;    1,182;    0,864
1063,220; 1804,783;    1,091;    0,500
1063,763; 1826,328;    0,909;    1,136
1064,306; 1901,965;   -0,909;    1,864
1064,849; 1797,237;   -0,909;    0,591
1065,393; 1804,965;    2,000;   -1,500
1065,936; 1911,601;    0,182;   -0,409
1066,479; 1796,056;   -1,455;    1,318
1067,022; 1822,237;   -0,273;   -0,227
1067,565; 1717,419;   -0,091;   -1,318
1068,108; 1756,692;    0,727;   -0,591
1068,651; 1725,965;   -0,636;    1,409
1069,194; 1659,783;   -0,455;   -1,682
1069,736; 1661,965;   -1,273;    0,955
1070,279; 1635,056;   -1,364;   -0,500
1070,822; 1680,237;   -2,000;   -0,318
1071,364; 1762,510;   -0,364;    1,318
1071,907; 1586,056;   -0,727;    3,227
1072,450; 1489,692;    0,000;   -0,045
1072,992; 1483,692;   -0,273;    3,136
1073,535; 1628,237;    2,091;    2,136
1074,077; 1416,965;   -0,727;    2,045
1074,619; 1381,328;   -1,364;    0,591
1075,161; 1415,237;   -1,091;    1,500
1075,704; 1596,056;    1,545;    1,227
1076,246; 1391,419;   -0,182;    0,682
1076,788; 1328,783;   -0,364;    1,773
1077,330; 1409,692;    1,273;    2,136
1077,872; 1368,692;    0,909;    0,955
1078,414; 1575,874;    2,727;    0,773
1078,956; 1321,510;    1,273;   -0,227
1079,498; 1594,601;    1,636;    0,318
1080,040; 1283,056;    1,909;   -1,318
1080,581; 1219,237;    1,636;   -0,318
1081,123; 1152,965;    0,091;   -0,773
1081,665; 1202,874;   -1,182;   -0,955
1082,206; 1500,692;    1,364;   -0,500
1082,748; 1355,874;    0,727;    2,045
1083,289; 1232,783;   -2,000;    1,318
1083,831; 1130,874;   -0,545;    0,227
1084,372; 1185,874;    0,000;    0,591
1084,913; 1187,783;    1,091;    0,864
1085,455; 1150,419;   -1,909;   -2,045
1085,996; 1123,601;   -2,273;    0,136
1086,537; 1134,146;   -0,091;    0,864
1087,078; 1170,692;   -0,909;   -2,136
1087,619; 1216,510;   -1,273;    0,227
1088,160; 1137,237;    0,000;    1,318
1088,701; 1120,965;   -1,091;    0,682
1089,242; 1063,237;    1,364;   -2,227
1089,783; 1162,601;   -0,273;    1,409
1090,324; 1119,510;    0,455;    0,682
1090,865;  995,419;    2,727;   -0,409
1091,405;  957,510;    0,727;    2,227
1091,946;  999,328;    0,182;   -0,955
1092,487;  919,965;    0,818;   -1,409
1093,027; 1089,965;   -1,364;   -1,500
1093,568;  940,328;   -0,364;    1,227
1094,108; 1035,056;    0,273;    1,773
1094,649;  979,056;   -1,182;    0,136
1095,189;  911,146;   -0,636;   -0,682
1095,729;  865,328;   -0,091;    0,955
1096,269;  858,692;    0,727;   -0,955
1096,810; 1181,510;   -1,364;    0,500
1097,350; 1003,601;    1,364;   -0,773
1097,890;  911,056;    0,364;    1,227
1098,430; 1166,965;    2,364;    2,864
1098,970; 1041,965;    2,182;    1,682
1099,510;  888,783;    0,545;   -2,318
1100,050;  824,601;    1,000;   -1,591
1100,589;  793,328;   -0,727;   -0,318
1101,129;  922,419;    0,818;   -0,955
1101,669; 1070,601;    1,727;    2,136
1102,209;  901,056;   -0,091;    2,227
1102,748;  853,510;    0,000;    0,955
1103,288;  825,237;    1,273;   -1,227
1103,827;  858,146;    3,091;   -2,227
1104,367;  727,237;   -0,091;   -2,409
1104,906;  698,146;    1,364;   -1,136
1105,445;  773,510;    0,636;   -1,136
1105,985;  726,783;   -0,727;    1,500
1106,524;  770,783;   -1,727;   -0,682
1107,063;  741,419;   -2,727;    1,409
1107,602;  716,601;   -1,909;   -1,500
1108,141;  633,056;   -1,909;    1,500
1108,680;  744,419;   -3,455;   -0,591
1109,219;  676,965;   -0,909;   -0,500
1109,758;  682,874;    0,455;    0,682
1110,297;  651,056;    1,000;   -0,682
1110,836;  599,146;   -0,727;    0,955
1111,375;  761,056;   -2,545;    0,409
1111,913;  786,056;   -1,000;    0,773
1112,452;  707,965;   -0,273;    0,136
1112,991;  590,601;    1,091;    1,955
1113,529;  550,328;   -0,818;   -0,045
1114,068;  626,783;   -0,273;    2,955
1114,606;  514,783;   -0,364;   -0,955
1115,144;  680,692;   -1,273;    1,045
1115,683;  619,510;   -0,727;    0,318
1116,221;  665,510;   -0,455;   -0,864
1116,759;  576,056;    0,636;   -0,864
1117,297;  794,146;    0,000;    1,864
1117,836;  582,146;   -2,182;   -1,227
1118,374;  592,601;    0,182;   -0,682
1118,912;  535,056;    0,909;    2,682
1119,450;  515,237;    1,000;    0,864
1119,988;  573,965;    1,545;    2,136
1120,525; 1027,237;    5,091;    3,318
1121,063;  727,874;    1,182;    1,864
1121,601;  540,601;   -0,909;   -1,227
1122,139;  497,237;   -0,727;   -2,045
1122,676;  690,237;   -0,727;    2,773
1123,214;  620,146;   -1,182;    4,409
1123,751;  423,328;    1,727;    2,227
1124,289;  564,601;   -0,091;   -0,409
1124,826;  422,237;    1,727;    0,227
1125,364;  348,419;    1,727;   -0,955
1125,901;  535,056;    1,182;    1,227
1126,438;  666,510;    0,818;    0,955
1126,975;  383,510;   -0,727;   -0,773
1127,513;  450,146;    0,273;    2,136
1128,050;  356,328;    1,636;   -0,682
1128,587;  455,965;    2,000;   -0,227
1129,124;  497,419;    0,091;    1,318
1129,661;  354,328;    0,273;    0,227
1130,198;  526,692;    1,636;    0,773
1130,734;  479,146;    0,182;    1,409
1131,271;  339,510;   -0,909;    0,864
1131,808;  502,419;    2,909;    3,045
1132,345;  380,237;    1,545;    0,318
1132,881;  240,419;   -1,545;   -1,864
1133,418;  390,056;    0,727;   -1,136
1133,954;  326,965;    2,455;   -2,682
1134,491;  408,056;    1,364;   -0,773
1135,027;  295,965;    2,364;    0,864
1135,564;  397,056;    0,273;    2,955
1136,100;  380,965;    0,364;    2,136
1136,636;  263,874;   -1,273;   -1,045
1137,172;  360,601;    0,000;   -1,045
1137,708;  282,783;   -1,364;   -1,045
1138,245;  284,965;    1,273;   -1,227
1138,781;  231,783;    1,091;   -3,318
1139,317;  299,692;    1,273;   -1,409
1139,852;  290,146;    3,091;    0,136
1140,388;  412,056;   -1,182;   -0,409
1140,924;  294,237;   -1,091;   -2,227
1141,460;  235,419;   -1,636;    0,136
1141,996;  166,510;   -1,364;    2,682
1142,531;  210,965;    1,364;    3,318
1143,067;  432,237;    1,182;    1,045
1143,602;  488,783;   -0,091;   -0,318
1144,138;  330,419;   -2,636;    1,045
1144,673;  191,783;   -1,455;    1,409
1145,209;  269,056;   -1,909;   -0,318
1145,744;  193,056;   -0,727;    0,864
1146,279;  332,510;    1,818;   -0,136
1146,815;  238,601;    1,545;   -2,682
1147,350;  286,510;   -1,364;    0,045
1147,885;  188,328;   -0,818;   -1,318
1148,420;  190,965;   -2,273;    0,773
1148,955;  169,783;   -1,727;    1,864
1149,490;  193,692;   -0,909;   -1,591
1150,025;  181,510;    0,455;   -1,773
1150,560;  297,965;    1,091;   -0,955
1151,094;  265,419;    1,455;   -0,591
1151,629;  267,510;    1,636;    0,864
1152,164;  190,783;    1,364;    1,318
1152,698;  152,056;   -0,182;   -0,136
1153,233;  111,146;    0,091;   -0,682
1153,767;  152,146;   -3,000;   -2,318
1154,302;  202,056;   -1,455;    1,773
1154,836;  208,328;   -0,455;   -2,136
1155,371;  264,419;   -1,364;    3,682
1155,905;  207,601;   -0,636;    1,682
1156,439;  173,692;   -0,636;   -0,500
1156,973;  203,601;    0,364;    0,318
1157,507;  138,783;   -0,364;    0,682
1158,042;  169,510;   -0,727;    1,045
1158,576;  221,783;    0,182;    1,773
1159,110;  210,874;   -0,818;    2,409
1159,643;  179,510;    0,636;   -0,045
1160,177;  121,056;   -1,545;    1,500

