
Integration time [ms]:   0,040
Averaging Nr. [scans]: 11
Smoothing Nr. [pixels]: 0
Data measured with spectrometer [name]: 7318044SP
Wave   ;Sample   ;Dark     ;Reference
[nm]   ;[counts] ;[counts] ;[counts] 

186,757;    5,791;   31,551;    1,318
187,357;   27,375;   22,551;    0,955
187,958;   -1,632;   15,460;   -1,591
188,558;   44,687;    8,915;   -1,227
189,159;   13,576;    6,733;   -4,500
189,759;   -0,281;    7,278;   -3,591
190,360;   -6,866;    2,824;   -2,136
190,960;   17,659;    2,915;   -4,136
191,560;   22,145;    3,189;   -6,591
192,161;  228,033;    4,372;   -3,500
192,761;   88,147;    4,010;   -3,227
193,361;   43,420;    1,556;   -3,773
193,962;   80,259;    2,010;   -2,682
194,562;    6,593;    1,189;   -3,955
195,162;   16,964;   -2,448;   -2,227
195,762;  136,290;   -3,176;   -0,045
196,362;   90,641;    1,370;   -2,500
196,963;    0,147;    2,006;   -0,864
197,563;   45,602;    1,551;   -0,955
198,163;   -2,047;    0,096;   -0,682
198,763;    6,693;    1,733;   -0,500
199,363;   54,499;    3,096;   -0,500
199,963;   27,070;    0,369;    0,409
200,563;   19,006;    2,823;   -1,409
201,163;   -3,131;    3,277;   -0,227
201,763;   35,564;    3,732;    0,318
202,363;    4,045;    1,459;    1,500
202,963;   38,577;    1,459;    1,045
203,563;   87,266;    0,277;    0,500
204,162;   18,292;    2,096;   -1,864
204,762;    8,026;    0,550;    0,591
205,362;   -5,026;    3,004;    1,955
205,962;   18,772;    3,096;    1,955
206,562;   13,857;    1,823;    2,318
207,161;   -0,480;   -0,087;    0,318
207,761;   68,526;    1,277;    2,409
208,361;    5,305;   -0,268;    1,409
208,960;   25,707;    0,459;    1,500
209,560;   19,318;    1,277;    1,591
210,160;   31,045;    0,550;    1,864
210,759;   11,376;    4,186;    1,227
211,359;   -3,766;    1,459;    1,045
211,958;  108,701;    1,277;    2,045
212,558;  119,844;    1,732;    1,864
213,157;   42,747;    1,822;    1,500
213,757;  177,091;    3,822;   -0,227
214,356;   64,474;    1,277;   -0,409
214,956;  153,526;    3,095;    0,409
215,555;   40,305;    2,095;    2,136
216,154;    7,792;   -2,723;   -0,591
216,754;    4,416;    0,277;    0,773
217,353;   22,338;   -0,268;   -1,045
217,952;  -25,227;   -0,178;    0,318
218,552;   45,325;    1,368;   -0,773
219,151;   12,254;    0,277;    0,955
219,750;   -0,376;    0,004;   -0,227
220,349;   -7,311;   -0,451;    1,045
220,948;   47,416;   -1,360;    1,136
221,548;    0,650;    0,913;    1,227
222,147;   18,013;   -0,087;   -0,409
222,746;   82,215;   -0,451;   -0,955
223,345;   30,702;    0,731;    0,500
223,944;   41,637;   -0,451;    0,773
224,543;   39,007;    1,004;   -1,409
225,142;   19,891;    0,094;    0,136
225,741;   22,286;   -0,814;    1,045
226,340;   14,897;   -0,451;   -0,955
226,939;   61,000;   -0,996;   -0,136
227,538;   13,845;   -0,360;   -0,773
228,137;   72,461;   -0,814;    0,864
228,735;   50,091;   -0,541;    1,227
229,334;  -11,285;   -0,905;   -0,227
229,933;   81,429;    0,459;    0,591
230,532;   80,442;    1,186;   -0,409
231,131;  109,422;    1,732;    0,318
231,729;   46,851;   -2,450;   -2,318
232,328;   12,526;   -0,723;   -1,500
232,927;   26,532;    1,004;   -0,500
233,525;    9,838;    3,640;    0,045
234,124;   33,409;    2,368;   -1,591
234,723;    8,370;    0,913;   -1,045
235,321;   -3,013;    2,277;    0,136
235,920;    8,948;    1,186;   -1,227
236,518;   82,929;    3,459;    0,318
237,117;    7,260;    0,004;   -0,227
237,715;   20,234;    0,640;   -0,500
238,314;   24,098;   -0,087;   -2,318
238,912;   84,585;   -0,723;   -1,409
239,510;   43,831;    0,459;   -1,227
240,109;   91,695;    0,004;    3,773
240,707;   72,149;   -0,996;    1,227
241,305;    3,773;    0,550;    0,136
241,904;   42,773;   -0,178;   -2,045
242,502;  106,429;   -0,632;   -0,227
243,100;   51,312;   -0,087;   -0,955
243,698;    2,104;    0,732;    1,682
244,297;   29,539;   -0,632;    0,682
244,895;   18,702;   -0,269;   -2,318
245,493;   88,643;    2,186;   -0,591
246,091;   91,858;    1,368;   -1,318
246,689;   52,033;    1,004;    0,591
247,287;   43,085;    0,822;   -1,136
247,885;   27,397;   -1,451;    1,227
248,483;    9,773;    1,822;   -0,500
249,081;   54,942;    0,185;    1,591
249,679;   59,585;   -0,178;    1,682
250,277;    4,988;   -1,723;    0,864
250,875;   50,409;   -1,087;   -1,045
251,473;   12,663;   -1,178;    0,500
252,071;   48,500;    1,459;    1,045
252,669;   17,910;   -1,814;    0,318
253,267;    0,313;   -0,087;    0,773
253,864;   23,176;   -0,360;    0,682
254,462;   65,377;    1,640;    1,591
255,060;   -1,019;   -0,269;    1,318
255,658;    3,091;    0,822;   -0,136
256,255;   15,624;    0,186;   -2,045
256,853;   40,033;   -0,269;    1,409
257,451;    9,267;    0,822;    1,864
258,048;  183,234;    1,822;    1,864
258,646;   71,825;    1,731;   -1,045
259,243;  103,397;   -0,087;    2,227
259,841;   55,338;   -0,814;    0,318
260,438;    7,371;   -0,087;    0,864
261,036;   44,033;   -1,905;    1,409
261,633;   13,014;   -0,087;    2,227
262,231;   -6,714;    2,731;   -0,045
262,828;  -14,740;   -0,905;    1,136
263,425;   -5,779;    0,913;   -0,591
264,023;   -4,201;    0,186;    0,045
264,620;   55,630;   -0,360;   -0,318
265,217;   99,916;   -2,087;    3,136
265,815;   22,020;   -1,905;    2,136
266,412;   40,747;    0,731;    0,136
267,009;   40,897;   -1,451;    0,773
267,606;   79,189;    0,822;   -0,955
268,203;   24,637;   -0,269;   -0,591
268,801;   21,390;    1,731;    0,591
269,398;   -5,188;   -0,360;    2,500
269,995;   36,805;    0,277;    1,591
270,592;   21,292;   -0,632;   -0,500
271,189;  -14,701;    0,186;    0,409
271,786;  -21,649;   -0,632;    1,227
272,383;   49,409;   -1,087;    0,227
272,980;   11,968;    0,277;    0,318
273,577;   -0,422;    0,004;    1,227
274,174;   -2,818;    0,822;    2,591
274,771;   43,728;   -0,814;   -0,773
275,367;  196,481;    2,277;    1,409
275,964;   89,896;    0,731;   -0,500
276,561;   28,929;    1,549;   -1,045
277,158;  -14,960;    0,095;   -1,773
277,755;   77,306;    2,185;    0,409
278,351;   44,092;   -0,451;   -1,500
278,948;   62,085;   -0,815;    0,045
279,545;   38,676;   -1,360;    2,318
280,141;   78,513;   -1,723;   -2,045
280,738;   86,897;   -0,451;   -0,136
281,334;   19,176;   -1,633;    0,591
281,931;   11,722;   -0,087;   -1,318
282,528;   64,358;    0,822;   -0,500
283,124;   83,377;   -1,087;   -0,500
283,721;   81,332;   -0,451;    1,409
284,317;   27,884;    0,185;    2,500
284,913;   78,495;   -1,360;    0,591
285,510;  135,949;    0,640;   -0,318
286,106;   86,559;   -2,269;   -0,955
286,703;   39,670;   -0,360;    1,955
287,299;   14,247;   -1,451;   -0,591
287,895;   15,299;    0,822;   -1,045
288,491;    5,449;    0,186;    2,136
289,088;   38,929;   -2,360;    2,409
289,684;   43,091;   -1,723;    1,500
290,280;  104,039;    0,368;    0,682
290,876;   73,773;    1,822;    5,500
291,472;   64,890;    1,276;    2,227
292,068;   65,209;    1,367;    0,227
292,665;   30,702;    2,095;    0,773
293,261;    0,858;    0,276;    2,136
293,857;   60,390;    2,913;    2,136
294,453;   27,604;    3,550;    0,955
295,049;  106,220;   -0,268;    1,955
295,644;   52,825;    0,095;    0,136
296,240;    3,409;   -0,905;   -0,136
296,836;   34,357;   -0,995;    0,318
297,432;   76,727;    1,096;   -0,500
298,028;   77,610;    0,732;    0,773
298,624;   39,922;    1,459;    1,864
299,220;   36,558;    2,368;    0,591
299,815;   32,337;    1,005;   -0,409
300,411;   74,584;    0,914;    1,773
301,007;   99,136;    1,368;    0,227
301,602;   29,337;   -0,541;   -2,318
302,198;   95,434;    0,732;   -0,773
302,794;   45,960;    1,187;   -0,500
303,389;   10,980;   -1,177;    1,045
303,985;   21,240;    0,550;    1,409
304,580;   88,590;    1,459;    1,591
305,176;   49,733;   -3,086;    0,136
305,771;  -18,812;   -1,268;   -1,227
306,367;  170,110;    4,095;    0,136
306,962;   68,610;    0,641;    1,500
307,558;   91,363;   -0,450;    0,136
308,153;   82,467;    1,095;   -1,136
308,748;   12,850;   -0,814;    1,682
309,344;  172,688;   -0,632;   -1,318
309,939;  157,208;   -1,905;   -1,318
310,534;   48,266;   -0,086;   -1,682
311,130;   35,922;    0,459;   -2,500
311,725;   22,974;    1,004;   -0,500
312,320;   38,409;    2,459;    0,045
312,915;   71,909;    1,459;   -1,045
313,510;  163,104;    1,550;   -0,500
314,105;   39,525;    1,096;    1,409
314,700;   -3,514;   -3,086;   -1,045
315,295;   26,499;   -0,904;    0,045
315,890;    6,233;    1,277;    0,864
316,485;   44,987;   -0,359;   -0,318
317,080;    6,805;   -3,086;    1,591
317,675;  145,688;    2,005;   -0,682
318,270;  248,830;    5,550;    3,318
318,865;  177,824;    3,278;    3,045
319,460;  102,941;   -0,904;    0,591
320,055;   22,097;   -0,541;   -1,227
320,650;   25,668;   -1,995;   -0,591
321,244;   22,129;   -0,177;   -1,409
321,839;   14,870;   -1,541;   -0,227
322,434;   35,681;   -1,086;   -1,591
323,029;   13,168;    1,732;    1,591
323,623;    5,941;    1,550;    0,773
324,218;   93,123;    2,368;    1,409
324,812;   62,058;    1,096;    1,591
325,407;   48,759;   -0,814;    2,045
326,002;  123,558;    0,277;   -0,409
326,596;   89,285;    0,914;    1,318
327,191;   30,980;    0,823;   -1,045
327,785;   32,921;   -0,813;   -0,227
328,379;   13,103;    1,368;    0,136
328,974;   30,136;    0,914;   -3,955
329,568;   56,370;    0,186;   -2,409
330,163;   97,123;    2,096;    1,045
330,757;   25,883;    2,459;    1,591
331,351;    0,298;    0,459;    0,682
331,945;   -0,410;    0,914;    1,409
332,540;   55,214;   -1,723;   -0,591
333,134;   56,500;   -1,086;    0,773
333,728;   65,545;    0,005;    0,318
334,322;   15,032;   -1,177;   -0,864
334,916;   13,993;    0,277;    0,955
335,510;   95,409;   -0,450;   -0,136
336,105;   87,525;   -1,086;    1,591
336,699;   36,052;   -1,086;    0,591
337,293;   70,312;   -1,723;    0,318
337,887;   52,714;   -2,723;    1,955
338,481;  128,876;    0,459;    0,591
339,074;  197,169;   -0,359;    2,682
339,668;  194,831;   -1,632;    1,227
340,262;  599,266;    1,732;    3,227
340,856;  334,571;    1,822;   -0,682
341,450;  140,688;    1,004;    1,864
342,044;  188,221;    1,459;    0,136
342,637;  295,786;    0,913;   -2,136
343,231;  289,332;   -2,360;    0,682
343,825;  236,772;   -1,086;   -0,591
344,419;  236,357;   -1,995;    0,500
345,012;  730,694;    2,459;    4,045
345,606;  572,714;    4,641;    1,591
346,199;  308,025;   -1,813;   -0,227
346,793;  453,142;    1,914;    2,045
347,386;  280,019;   -0,813;   -1,136
347,980;  208,278;   -0,268;   -0,045
348,573;  330,596;    2,278;    0,409
349,167;  650,810;    5,278;    4,773
349,760;  555,128;    2,914;    2,682
350,354;  519,673;   -0,813;    1,136
350,947;  588,115;    1,096;    1,682
351,540;  460,862;   -0,358;   -1,409
352,134;  325,343;    1,096;    1,136
352,727;  375,064;   -0,086;    1,136
353,320;  416,590;    0,005;    0,591
353,913;  363,297;   -1,995;    1,864
354,507;  596,966;    0,823;   -1,227
355,100;  448,836;    0,460;    0,864
355,693;  907,050;    2,005;    2,409
356,286;  650,427;    0,823;    2,773
356,879;  480,505;   -0,722;    1,227
357,472;  461,648;   -0,904;    1,500
358,065;  525,057;   -0,722;    2,500
358,658;  360,044;   -0,540;    2,318
359,251;  321,512;   -1,631;   -0,591
359,844;  533,856;   -1,904;   -1,136
360,437;  617,271;   -2,995;    0,045
361,030;  435,661;    1,369;   -0,682
361,623;  428,427;    2,824;    0,318
362,215;  688,888;   -0,086;    2,045
362,808;  513,927;   -2,358;   -1,682
363,401;  415,615;   -2,449;    0,136
363,994;  652,342;   -0,631;   -1,500
364,586;  414,368;    0,824;   -1,500
365,179;  352,556;   -0,449;   -1,136
365,772;  195,966;   -1,995;    2,045
366,364;  352,472;    1,915;   -3,227
366,957;  422,718;    2,279;   -0,045
367,549;  342,036;    2,188;   -0,864
368,142;  355,237;    1,825;   -1,500
368,734;  301,126;    0,734;   -2,136
369,327;  220,093;    1,643;   -0,500
369,919;  270,846;   -1,538;    0,409
370,512;  289,385;   -1,083;   -0,500
371,104;  561,884;   -0,901;    1,591
371,696;  574,253;    1,191;   -0,955
372,289;  423,901;    0,373;    1,136
372,881;  375,043;   -2,080;    1,318
373,473;  234,620;   -2,170;    1,136
374,066;  338,033;   -0,169;    0,500
374,658;  294,550;    0,378;    1,136
375,250;  205,229;    0,653;   -1,409
375,842;  253,993;    0,473;   -0,045
376,434;  213,517;   -0,435;   -0,409
377,026;  184,332;    0,204;   -2,500
377,618;  224,069;   -0,158;   -0,682
378,210;  136,904;   -0,338;   -1,955
378,802;  114,383;    0,754;   -0,591
379,394;  555,472;    1,846;    0,682
379,986;  273,257;    1,393;   -0,955
380,578;  171,588;   -0,153;    0,773
381,170;  455,706;   -0,972;    0,045
381,762;  347,272;    0,755;    1,409
382,354;  306,638;   -0,065;   -1,318
382,945;  207,419;   -2,976;    0,318
383,537;  160,025;   -2,705;   -1,955
384,129;  161,261;   -2,160;   -1,136
384,721;  291,236;   -0,252;    0,955
385,312;  211,431;   -0,161;   -0,955
385,904;  311,294;   -2,706;    1,591
386,496;  208,800;   -0,979;    1,045
387,087;  363,404;    1,022;    2,500
387,679;  291,669;   -1,160;    0,045
388,270;  264,065;    2,840;    2,045
388,862;  228,293;    1,295;   -0,318
389,453;  209,137;   -0,887;    1,045
390,045;  220,559;   -0,705;   -2,682
390,636;  100,078;    0,204;   -0,591
391,227;  166,572;   -0,523;   -0,045
391,819;  146,773;    0,204;    0,773
392,410;  438,352;    1,022;    0,045
393,001;  223,573;   -0,979;   -1,591
393,593;  309,340;    1,930;   -0,045
394,184;  361,950;    1,385;   -0,409
394,775;  210,352;    1,839;    2,136
395,366;  122,904;    1,385;    0,773
395,957;  341,215;    0,113;    0,136
396,548;  210,566;   -0,342;    2,682
397,139;  343,670;   -2,433;    0,591
397,730;  251,677;   -1,888;    0,955
398,321;  252,651;   -1,252;    0,955
398,912;  193,554;   -0,615;    0,136
399,503;  178,573;   -3,524;   -1,409
400,094;  239,073;    0,294;    1,682
400,685;  221,839;   -0,433;    0,045
401,276;  157,878;    0,930;   -0,955
401,867;  137,274;   -0,888;    0,773
402,458;   86,378;   -2,251;   -2,318
403,048;  260,684;    1,112;    0,591
403,639;  189,027;    0,840;    0,864
404,230;  322,365;    2,476;    0,318
404,821;  386,846;   -0,615;    0,045
405,411;  274,268;    1,203;   -2,591
406,002;  157,911;   -1,252;   -1,136
406,592;  409,528;    2,294;    0,045
407,183;  245,230;    0,566;   -1,500
407,774;  211,113;    3,475;   -0,136
408,364;  159,385;    0,930;    0,409
408,954;  293,334;    0,384;    1,227
409,545;  278,950;    1,021;    1,045
410,135;  224,314;    1,293;    0,500
410,726;  163,854;    1,838;    0,318
411,316;  358,405;    0,111;    0,773
411,906;  170,490;   -0,253;   -0,409
412,497;  169,100;   -1,070;   -0,045
413,087;  112,087;   -1,980;   -0,227
413,677;   29,068;   -0,707;    3,864
414,267;   19,192;    0,656;    1,409
414,857;  -10,497;   -2,980;    4,227
415,448;  -12,757;    0,839;    0,500
416,038;   17,672;    0,020;   -0,591
416,628;   59,958;   -0,889;    0,409
417,218;  108,744;    0,565;    3,318
417,808;  267,237;    0,202;   -0,409
418,398;  130,913;    0,020;    2,682
418,988;    4,276;    2,020;    0,591
419,578;   92,802;   -0,707;    1,409
420,168;   17,958;   -1,343;   -0,955
420,757;  155,366;   -1,343;   -1,500
421,347;   51,238;    0,111;   -0,227
421,937;   18,523;    2,292;    1,409
422,527;  150,790;    0,838;   -0,773
423,116;  278,666;   -0,253;   -0,045
423,706;    9,718;   -1,889;    0,318
424,296;  -26,295;    1,384;    0,682
424,885;   91,887;   -0,071;   -3,045
425,475;   58,348;    1,474;   -2,864
426,065;  -49,633;   -0,980;   -0,318
426,654;  -60,483;   -0,435;   -0,318
427,244;  192,043;    0,020;    1,409
427,833;  159,179;    1,383;   -0,500
428,423;   34,050;   -0,526;    1,136
429,012;   33,043;   -0,344;   -1,136
429,601;  154,076;   -1,344;    0,136
430,191;   50,667;    1,292;    4,318
430,780;  -39,788;   -0,344;   -0,409
431,369;  134,901;    0,746;   -0,045
431,959;   19,420;   -1,254;    0,500
432,548;  -35,528;   -1,163;   -0,045
433,137;  -84,268;   -1,254;   -1,318
433,726;  -24,599;    0,292;    0,500
434,315;   -4,664;   -0,526;    2,409
434,905;  108,356;   -1,254;    1,409
435,494;  100,076;    0,746;    0,955
436,083;  -20,054;   -0,981;   -0,955
436,672;   69,843;    0,110;    0,500
437,261;   16,226;    0,292;   -1,955
437,850;  230,310;    1,383;    0,682
438,439;  281,155;    3,291;    1,955
439,027;  386,843;    3,655;    1,773
439,616;  311,278;    2,927;    1,227
440,205;   94,577;    0,200;   -2,136
440,794;   47,402;    2,109;   -0,045
441,383;  -15,104;   -1,346;   -0,591
441,971;  -46,221;   -2,436;    0,591
442,560;  -36,033;    0,563;   -1,773
443,149; -113,984;    0,379;   -1,318
443,737;  -77,779;   -0,074;   -2,318
444,326;  -50,195;    0,018;    0,318
444,915;   -2,377;   -1,982;    0,864
445,503;    7,006;   -2,891;   -0,318
446,092;  258,240;    0,382;    2,136
446,680;  192,610;    0,382;    0,318
447,269;   95,091;   -0,346;   -0,318
447,857;   90,948;    0,018;   -1,773
448,445;   43,935;    0,563;    1,318
449,034;  -19,708;   -1,528;   -1,136
449,622;   -3,519;   -1,073;    3,500
450,210;  250,761;    2,017;    2,227
450,799;  170,897;    0,290;   -0,591
451,387;  131,072;    1,381;   -0,591
451,975;  126,183;    2,654;    0,864
452,563;  200,579;    3,472;    2,318
453,151;   32,222;   -0,528;   -1,227
453,739;   71,729;   -1,347;    0,136
454,328;  175,975;    2,381;   -2,136
454,916;  101,021;    2,562;   -0,136
455,504;  121,592;    1,017;    1,227
456,092;   13,631;    0,017;   -1,591
456,679;  -11,836;    1,472;    0,682
457,267;  376,930;    4,017;    1,045
457,855;   72,794;    1,017;    1,409
458,443;  -63,232;   -0,165;    1,682
459,031;   86,580;    0,108;    2,409
459,619;   51,735;   -1,801;    2,864
460,206;  -44,174;    0,835;    2,045
460,794;  -41,232;   -2,983;   -0,227
461,382;    8,632;   -0,529;   -0,864
461,970;    9,658;    1,198;    1,864
462,557;  -57,413;   -0,711;   -0,682
463,145;   55,392;   -3,165;   -1,682
463,732;  300,054;    2,016;   -1,045
464,320;   76,334;   -0,075;   -3,045
464,907;  209,334;    2,743;   -0,773
465,495;  124,068;    0,743;   -1,227
466,082;   39,801;   -1,984;   -0,045
466,670;   60,464;   -2,529;    1,227
467,257;  -38,108;   -1,711;    2,045
467,844;   58,256;   -0,075;    0,045
468,432;   36,496;    0,834;    3,500
469,019;    2,373;    0,925;   -1,773
469,606;   80,509;    0,470;    3,682
470,193;  107,620;   -1,439;    0,227
470,780;   71,763;   -2,075;    0,864
471,368;    0,821;   -1,257;   -0,773
471,955;  109,945;    1,379;   -0,682
472,542;   61,874;    0,652;   -1,136
473,129;  -41,140;   -0,166;    0,136
473,716;  -38,127;    1,470;    0,591
474,303;    2,159;    0,652;   -0,864
474,890;    7,861;   -1,439;   -0,500
475,477;   95,004;   -1,621;    0,409
476,064;    5,465;    1,106;   -1,591
476,650;  127,023;    0,288;    0,318
477,237;   40,114;   -0,258;    0,955
477,824;   16,459;   -1,076;    0,864
478,411;  -58,840;   -1,894;   -0,318
478,997;  -71,782;    0,560;   -0,773
479,584; -117,619;    1,196;   -0,409
480,171;   47,758;   -0,440;   -0,773
480,757;  106,057;    2,651;    0,773
481,344;    5,284;    0,469;    0,409
481,931;  -85,404;    1,105;    1,045
482,517;   47,284;   -1,258;    0,318
483,104;  126,076;    1,106;    2,864
483,690;    1,641;   -1,804;    0,045
484,276;  -21,820;   -0,895;    0,227
484,863;  180,277;    2,469;    1,136
485,449;   28,934;   -0,077;    0,318
486,035;  -10,008;   -1,986;   -0,136
486,622;   82,219;   -0,895;    0,045
487,208;   -2,995;    1,378;    1,500
487,794;  -75,566;    0,741;    0,318
488,380;  -77,060;    0,105;   -1,409
488,967;  -79,533;   -1,168;   -0,409
489,553;  -57,787;   -1,895;   -1,409
490,139;   22,558;    1,559;    0,773
490,725;  -56,137;    0,741;   -0,227
491,311;   -6,929;    3,287;    3,045
491,897;  -28,001;   -0,986;    1,500
492,483;  -15,007;    0,105;    1,227
493,069;  416,720;    3,923;    0,864
493,655;  143,512;    1,650;    0,682
494,241;   11,175;    1,377;   -0,955
494,826;   20,025;    0,287;   -1,045
495,412;   78,603;    2,559;   -0,682
495,998;   -5,974;   -0,805;   -0,318
496,584;   52,883;    0,377;    1,045
497,169;   54,922;    1,014;   -0,682
497,755;   -0,967;    0,650;    1,227
498,341;  126,188;    0,559;    0,318
498,926;  247,805;    1,832;    1,955
499,512;   -5,740;    1,286;    2,955
500,097;   -2,506;    0,195;   -0,318
500,683;   19,598;   -0,350;    2,136
501,268;  -28,902;   -0,169;   -0,955
501,854;   -7,766;   -0,169;    1,227
502,439;  -15,038;   -0,624;   -1,773
503,024;    1,254;    0,195;    0,500
503,610;   30,448;   -0,078;   -0,682
504,195;  -24,811;    0,558;    1,955
504,780;   64,396;    2,922;    1,227
505,366;  150,448;    3,013;    2,864
505,951;   83,001;    0,740;    1,045
506,536;   11,085;   -3,260;   -3,682
507,121;   56,949;    0,285;   -0,318
507,706;   19,241;    2,376;    1,045
508,291;  -30,356;    2,649;    1,136
508,876;  -33,784;   -0,988;    2,591
509,461;   15,352;   -0,169;   -0,773
510,046;   56,449;    0,194;    0,318
510,631;   56,702;   -0,351;   -0,773
511,216;  -21,512;    2,467;   -0,500
511,801;   35,891;   -0,442;    2,591
512,386;   57,813;    0,740;    0,500
512,971;   64,995;   -2,988;    0,955
513,555;   93,657;   -0,897;   -1,500
514,140;   62,372;   -0,442;   -3,136
514,725;  184,820;   -0,715;   -1,136
515,309;  101,145;   -0,533;    0,318
515,894;   29,833;   -0,624;   -2,227
516,479;   72,080;   -0,624;   -0,955
517,063;   91,385;    0,376;    1,227
517,648;   66,320;    1,012;   -1,136
518,232;   76,126;   -0,261;   -1,409
518,817;  208,561;   -0,079;    1,682
519,401;  409,035;    2,194;    0,591
519,985;  415,165;    1,103;    1,136
520,570;  302,314;    0,830;   -1,955
521,154;  545,554;    2,102;    0,591
521,738;  899,646;   -2,352;    2,409
522,323;  809,515;   -0,170;    1,682
522,907;  892,685;    0,466;   -0,136
523,491;  943,795;    0,557;    0,955
524,075; 1090,867;    2,284;    0,591
524,659; 1507,334;    1,466;    0,591
525,243; 1609,574;    1,739;    0,409
525,827; 1850,386;    0,648;   -0,045
526,411; 2350,788;   -1,989;   -0,136
526,995; 2903,730;   -0,352;    1,409
527,579; 3154,153;   -0,443;   -1,045
528,163; 3627,471;    0,375;   -1,500
528,747; 4150,529;    2,466;   -0,773
529,331; 4686,893;   -0,080;   -1,409
529,915; 5144,153;    1,738;    0,955
530,499; 5635,938;   -0,807;    1,227
531,082; 5925,321;   -0,534;    1,591
531,666; 6113,127;    1,374;    0,773
532,250; 6964,601;    1,284;    2,682
532,833; 7612,880;    0,920;    2,773
533,417; 7946,198;   -1,807;    0,864
534,001; 8298,355;    1,647;   -0,318
534,584; 9263,069;    0,374;    0,500
535,168; 9534,511;    0,465;    1,409
535,751; 9953,530;    0,647;    0,045
536,334; 9784,861;   -0,898;   -0,409
536,918;10661,056;    0,011;    1,591
537,501;11049,147;   -0,899;    1,318
538,085;11360,647;   -0,444;    1,045
538,668;11766,537;    0,829;    2,409
539,251;12338,699;    1,829;    3,773
539,834;12651,673;    0,101;    0,773
540,418;12827,160;   -1,990;    4,318
541,001;13110,439;   -0,990;    1,773
541,584;13315,803;    2,101;    2,227
542,167;13205,310;    1,374;    2,955
542,750;13510,946;    1,919;   -0,773
543,333;13247,674;    0,555;    2,136
543,916;14145,109;    0,192;    2,500
544,499;14853,232;   -1,354;    0,227
545,082;14993,765;    1,374;    3,591
545,665;15256,836;    1,919;    1,500
546,248;15708,310;    1,010;   -0,318
546,830;15486,700;   -0,445;    1,955
547,413;15976,089;    1,010;   -0,773
547,996;16633,869;    0,555;    0,500
548,579;16504,402;    0,919;    0,955
549,161;16349,389;    1,828;    2,682
549,744;16200,012;   -0,809;    0,409
550,326;16773,843;   -0,809;   -1,136
550,909;16641,356;    2,737;    0,591
551,492;17061,259;   -0,263;    0,227
552,074;16945,077;   -0,173;   -1,318
552,657;17571,142;    2,373;    0,045
553,239;17376,357;   -0,173;   -0,773
553,821;17319,136;   -1,082;    1,045
554,404;16871,103;    1,282;    1,136
554,986;17291,818;    0,464;    1,045
555,568;17924,032;    1,191;   -0,955
556,151;17179,104;    1,191;   -0,227
556,733;17417,240;   -0,264;   -0,864
557,315;17949,993;    0,100;    0,500
557,897;17763,480;    0,554;   -0,500
558,479;17903,526;   -1,991;    1,318
559,061;18077,085;   -0,719;   -0,864
559,643;18426,870;   -0,264;    0,045
560,225;18793,565;    1,645;    2,864
560,807;18871,961;    0,918;    0,318
561,389;18388,422;    0,554;    2,318
561,971;19136,124;    0,463;    2,136
562,553;18967,760;   -1,628;    1,591
563,135;19138,227;   -0,537;    1,136
563,717;18755,279;    3,372;    1,136
564,298;19463,468;    3,645;   -0,045
564,880;19223,624;    0,645;   -1,409
565,462;19418,351;    0,645;    1,318
566,043;20610,442;   -0,446;    2,318
566,625;20128,526;    1,918;    1,227
567,207;20020,098;    1,099;    1,682
567,788;21172,040;   -1,264;    1,500
568,370;22002,715;    1,917;   -0,500
568,951;21838,598;    0,190;    0,227
569,533;22757,897;   -0,628;   -0,500
570,114;23153,533;   -0,446;    0,682
570,695;23722,605;   -0,174;   -1,318
571,277;24245,956;   -0,265;   -1,682
571,858;24989,650;    2,008;   -1,136
572,439;25897,533;    1,554;   -1,045
573,021;26058,729;    2,099;   -2,773
573,602;26585,371;   -1,265;    0,318
574,183;27522,787;   -2,083;    2,227
574,764;27695,917;   -1,629;    0,409
575,345;28229,352;    0,917;   -0,136
575,926;28865,735;   -0,356;    0,136
576,507;28801,183;    1,099;   -0,227
577,088;29957,060;    3,099;    1,682
577,669;29956,060;    0,735;    1,955
578,250;30748,605;    0,644;   -1,045
578,831;31487,521;   -1,356;   -2,227
579,412;31754,768;   -0,810;    0,955
579,993;32635,300;    1,008;    0,227
580,573;32946,703;   -0,629;   -0,955
581,154;31925,281;    0,735;   -0,591
581,735;32868,203;    0,644;    0,773
582,315;32372,930;   -0,629;    2,136
582,896;32664,735;   -0,174;    1,227
583,477;32122,437;    0,189;    1,227
584,057;32294,268;    0,553;    0,955
584,638;32610,755;    2,553;    2,318
585,218;32591,891;   -0,538;    2,682
585,799;32823,417;    0,281;   -0,227
586,379;32774,332;    0,372;    1,591
586,959;31558,852;    0,735;    0,318
587,540;30886,132;   -0,629;    2,227
588,120;30417,801;    1,007;   -0,045
588,700;29438,411;    2,553;    2,136
589,281;29777,638;    0,462;   -0,955
589,861;29693,982;    0,099;   -1,682
590,441;29491,833;    2,371;   -2,682
591,021;28466,476;   -0,265;   -2,591
591,601;28763,956;   -0,537;    0,500
592,181;28760,780;   -0,719;   -0,773
592,761;28043,366;    0,007;    1,409
593,341;27924,904;   -0,901;    0,045
593,921;27964,664;   -0,265;    1,591
594,501;27880,248;   -0,538;    1,318
595,081;27744,410;    0,917;   -0,318
595,661;28049,177;   -1,447;    0,955
596,240;28626,079;   -0,537;    0,136
596,820;28295,170;    0,372;    1,955
597,400;28493,008;    2,008;    0,773
597,980;28745,696;    2,008;    1,045
598,559;28731,079;    2,735;   -0,227
599,139;28422,846;   -0,174;   -1,227
599,718;28328,027;   -0,174;   -0,409
600,298;28562,021;    0,735;    0,682
600,877;28799,806;    2,917;    1,409
601,457;29107,352;    2,281;    1,136
602,036;29013,313;    0,190;    2,045
602,616;29264,780;    0,644;    1,682
603,195;29571,436;   -0,355;    3,500
603,774;29139,715;   -0,901;    2,045
604,354;29005,514;    0,826;   -0,500
604,933;28515,664;    0,463;    1,864
605,512;28678,592;    3,554;    0,591
606,091;28670,631;   -0,537;    3,773
606,671;29531,598;    0,281;    0,773
607,250;28638,339;    1,644;    3,136
607,829;28852,371;    2,372;    3,227
608,408;28741,585;    1,190;    2,591
608,987;27801,929;    1,281;    3,409
609,566;28089,910;   -1,265;   -2,500
610,145;28171,650;   -1,082;    0,682
610,723;28586,072;    4,372;    6,864
611,302;27804,416;   -0,446;    1,682
611,881;27332,377;    5,008;   11,227
612,460;28187,455;    1,645;    3,955
613,039;28607,085;   -0,082;    2,045
613,617;27354,247;    1,736;    4,773
614,196;27567,851;    1,099;    1,227
614,775;27922,130;    1,009;    2,409
615,353;27862,390;    0,736;    0,864
615,932;27618,831;    0,100;    2,409
616,510;28170,305;    0,554;    0,591
617,089;27668,273;    7,100;   17,591
617,667;27459,838;    2,372;    6,136
618,246;27328,792;   -1,537;    1,318
618,824;27506,695;   -3,355;   -0,955
619,402;27054,338;   -2,900;   -1,773
619,981;27526,799;   -0,173;   -1,045
620,559;27418,344;    0,009;    1,682
621,137;26893,260;   -0,718;    1,864
621,715;26896,864;   -1,173;   -0,682
622,293;26799,312;   -0,537;   -0,773
622,871;27314,175;   -0,718;    0,500
623,450;26902,389;    0,373;   -0,864
624,028;26751,643;    0,191;   -0,955
624,606;26422,785;   -1,718;    1,682
625,183;26820,753;   -1,536;   -1,136
625,761;26439,019;    1,009;    1,136
626,339;26732,422;    1,373;    2,591
626,917;27113,246;   -0,172;   -0,045
627,495;27151,662;   -0,354;    1,318
628,073;26589,869;   -0,263;    2,864
628,650;26309,720;    0,100;    2,136
629,228;26753,214;    0,373;    4,409
629,806;26120,642;    2,282;    1,136
630,383;26423,681;    1,464;   -0,318
630,961;26219,766;    2,555;   -0,955
631,539;25961,817;    2,464;    0,227
632,116;25318,947;   11,373;   15,409
632,694;25893,967;    2,555;    6,500
633,271;26217,246;    0,828;    2,682
633,848;26104,428;    1,828;    2,045
634,426;26142,784;   -1,081;    1,773
635,003;25255,791;    1,101;   -0,409
635,580;25612,401;    1,192;    3,682
636,158;26209,914;    3,737;    1,227
636,735;26145,551;    0,555;   -0,500
637,312;26333,337;   -0,809;   -0,682
637,889;26401,174;   -4,354;   -0,682
638,466;25863,180;   -3,990;   -0,409
639,043;25844,387;    2,101;   -1,136
639,620;26172,167;   -2,262;   -0,955
640,197;26517,400;    1,100;    1,682
640,774;26639,734;   -0,172;    1,136
641,351;27057,523;    0,737;    1,136
641,928;26460,403;   -0,627;    1,409
642,505;26138,010;    0,828;   -0,500
643,082;26282,889;   -1,718;    1,227
643,658;25240,951;   -0,718;    1,500
644,235;25973,467;    1,191;    2,500
644,812;26334,437;    1,918;    0,773
645,388;26059,317;   -0,991;    1,409
645,965;26170,651;   -0,809;    1,682
646,542;26192,622;   -1,445;   -0,227
647,118;26163,683;    1,009;   -0,955
647,695;26520,018;   -0,263;    1,136
648,271;26464,352;   -0,536;    0,500
648,848;26771,322;    0,736;    2,227
649,424;26578,111;    0,827;    1,318
650,000;26365,991;   -0,354;   -1,045
650,577;26172,052;   -0,627;   -0,955
651,153;26620,750;   -1,809;    0,955
651,729;27655,721;    1,191;    0,864
652,305;27974,509;    0,645;    2,773
652,881;32675,116;   -0,082;    1,136
653,458;39718,360;    1,100;    0,227
654,034;43511,148;    0,282;    1,591
654,610;44971,846;    0,554;    0,773
655,186;46247,817;    0,645;    3,045
655,762;45883,605;   -0,991;    0,409
656,338;45875,576;    0,100;    0,136
656,913;46846,819;   -0,082;    0,409
657,489;46027,881;    0,827;   -0,318
658,065;45974,033;   -0,173;   -1,591
658,641;46670,004;   -0,900;   -0,864
659,217;45959,611;   -0,991;    0,409
659,792;45361,945;    0,645;   -0,409
660,368;45568,461;   -2,173;   -0,682
660,944;45127,250;   -2,082;    1,227
661,519;40331,584;   -0,628;    0,409
662,095;34257,645;   -1,719;    0,591
662,670;29752,343;    1,281;   -0,136
663,246;28637,859;    1,009;   -0,409
663,821;27938,284;    0,281;    1,682
664,396;27416,255;    0,009;    1,864
664,972;27686,044;    0,009;   -0,500
665,547;28058,378;    1,372;    0,136
666,122;28107,257;   -1,082;    0,318
666,698;28399,137;   -0,173;    0,318
667,273;27702,017;   -0,173;    0,136
667,848;28520,442;    2,372;    1,500
668,423;28343,594;    2,190;    2,318
668,998;28897,110;    2,827;   -0,682
669,573;29451,535;   -3,264;   -1,500
670,148;29287,869;   -1,446;   -0,682
670,723;29093,840;   -1,810;    0,318
671,298;29512,083;    2,372;    1,045
671,873;29638,054;   -0,082;   -0,136
672,448;29545,297;    0,645;    0,136
673,023;29883,904;   -1,992;   -0,227
673,597;30246,602;    0,827;    2,318
674,172;30035,663;   -0,355;    0,318
674,747;29475,089;    0,372;   -1,045
675,321;29333,514;   -0,628;    3,318
675,896;28877,030;    0,645;    1,045
676,471;29896,909;    2,645;    1,591
677,045;29646,789;   -1,264;    0,682
677,620;29770,941;    0,190;    1,136
678,194;30055,276;   -2,628;    1,136
678,769;29597,428;   -1,083;   -0,318
679,343;29894,489;   -0,628;    1,773
679,917;29776,642;   -1,446;    1,955
680,492;29829,249;    0,826;    3,227
681,066;29950,310;    3,372;    0,409
681,640;29983,917;    1,463;   -0,318
682,214;30850,160;    0,735;    0,500
682,788;30384,495;   -1,356;   -0,773
683,363;30360,738;   -1,810;    1,682
683,937;30048,527;   -1,719;   -0,318
684,511;30786,406;    0,463;   -0,591
685,085;30465,831;   -1,356;    0,318
685,659;30262,529;   -2,538;    0,864
686,232;30482,227;   -0,356;   -0,318
686,806;30187,289;   -0,901;    0,409
687,380;30857,714;   -0,174;    0,591
687,954;31056,502;   -1,174;    1,136
688,528;30729,473;   -0,719;    1,955
689,101;31506,262;   -3,992;    1,045
689,675;31112,232;   -0,356;   -0,136
690,249;30495,748;   -0,719;    0,409
690,822;30810,355;    0,280;    0,318
691,396;30948,598;   -0,265;    1,227
691,969;30350,478;    1,280;    0,136
692,543;30775,449;   -0,447;   -1,955
693,116;30490,965;   -0,265;   -1,409
693,690;30386,935;    0,099;    0,500
694,263;30898,360;   -1,083;    2,955
694,836;30941,604;    1,371;    3,591
695,410;29532,756;   -0,265;    1,773
695,983;30009,272;    0,189;    0,591
696,556;29964,243;   -0,447;   -1,045
697,129;30385,395;   -0,356;    1,409
697,703;30014,275;   -1,629;    1,955
698,276;29979,063;    1,462;   -0,773
698,849;29812,943;    1,280;    1,409
699,422;30178,277;   -1,083;    0,591
699,995;29893,430;    0,007;    0,136
700,568;30399,127;   -0,629;    3,045
701,140;30409,553;   -2,811;    1,682
701,713;30126,069;   -0,174;    2,409
702,286;29860,039;   -0,538;    0,864
702,859;29778,373;   -0,902;   -0,591
703,432;28937,617;    0,825;    0,682
704,004;29416,315;    0,462;    0,318
704,577;29297,921;   -0,629;    0,136
705,150;29907,710;    0,189;    2,500
705,722;29717,226;   -0,356;   -3,227
706,295;29459,560;   -0,175;   -0,591
706,867;29287,076;   -0,175;    1,955
707,440;29517,683;   -1,720;   -0,409
708,012;29819,563;    0,462;    0,591
708,584;29694,897;    2,462;    0,227
709,157;29978,231;    1,825;   -0,591
709,729;29587,838;    2,280;    2,045
710,301;30464,718;    0,734;    0,045
710,874;30461,052;   -1,447;   -0,227
711,446;29408,659;    0,371;    0,864
712,018;29224,448;    0,098;    0,500
712,590;28909,418;   -1,993;    1,682
713,162;29506,934;    0,825;    1,318
713,734;29743,450;    1,825;   -2,045
714,306;29631,148;   -1,902;   -0,409
714,878;28358,392;    0,825;    0,864
715,450;29224,817;    0,643;    0,864
716,022;29363,333;    1,552;    1,318
716,593;29511,667;    0,189;    0,591
717,165;29464,183;   -3,175;   -1,227
717,737;29181,608;    0,280;    0,409
718,309;28839,669;    0,280;   -0,045
718,880;28753,913;   -0,539;   -1,409
719,452;29034,065;   -0,175;   -1,591
720,024;28633,308;    0,734;   -0,591
720,595;29199,824;   -2,902;    0,955
721,167;28749,977;    0,370;   -2,045
721,738;28286,129;   -0,812;   -1,045
722,309;28289,009;   -0,993;   -1,227
722,881;28036,707;   -1,357;    0,773
723,452;28671,950;   -2,630;    2,864
724,023;28821,830;   -0,721;    2,682
724,595;28550,527;    0,007;    0,682
725,166;28291,044;    0,007;   -0,409
725,737;27948,287;    1,734;    0,227
726,308;27994,985;   -0,266;    0,318
726,879;28529,773;   -1,630;    1,227
727,450;28325,744;    0,552;   -0,045
728,021;28323,260;    3,097;    0,682
728,592;28100,867;    0,734;    0,500
729,163;28415,928;    0,643;   -0,136
729,734;28452,081;    0,188;   -0,227
730,305;28785,324;    1,734;    0,136
730,876;29136,295;    0,188;    2,955
731,447;28866,992;    2,188;    2,682
732,017;28978,963;    1,097;    1,864
732,588;28429,843;    0,734;    1,227
733,159;28630,722;    0,643;   -1,045
733,729;28467,147;    0,006;    0,409
734,300;27711,573;    0,915;    0,864
734,870;28167,998;    3,461;    0,591
735,441;28709,695;    0,370;   -0,591
736,011;28459,030;    0,643;   -1,591
736,582;28452,637;   -0,812;    0,045
737,152;27918,607;   -1,721;   -2,045
737,722;28351,669;   -0,267;   -0,682
738,293;28083,639;   -1,358;    1,318
738,863;28002,973;    2,461;    2,318
739,433;27761,398;    5,279;    0,318
740,003;28401,187;   -0,994;   -0,682
740,573;27784,885;    2,097;   -1,591
741,143;27757,401;   -1,085;    0,318
741,713;28523,917;    1,188;   -0,500
742,283;28164,069;    0,915;    1,591
742,853;27989,858;    1,915;    1,591
743,423;27466,556;    1,733;    0,045
743,993;27571,890;   -0,358;    1,500
744,563;26957,406;    0,097;   -0,864
745,133;26918,650;   -0,812;   -0,864
745,702;27553,438;   -0,267;    1,773
746,272;26805,318;   -0,176;    0,591
746,842;26570,652;   -1,358;   -0,591
747,411;26986,168;   -0,267;   -0,318
747,981;27163,139;    0,097;    0,500
748,551;27200,927;    2,278;   -1,045
749,120;26991,716;    0,642;   -0,227
749,690;27366,960;   -0,631;    2,409
750,259;27755,748;    1,369;    2,955
750,828;27676,992;    1,551;   -1,955
751,398;27940,871;    1,278;   -0,045
751,967;27479,569;    2,187;    0,409
752,536;27701,903;   -0,813;   -0,227
753,105;28082,965;    0,096;    0,227
753,675;27903,208;    0,096;    1,773
754,244;27825,633;   -0,904;    3,591
754,813;27829,422;    0,551;    1,227
755,382;27423,574;    0,460;    0,955
755,951;27975,545;    1,551;    3,682
756,520;27539,697;   -0,085;    1,864
757,089;28107,577;    0,278;    0,500
757,658;28260,002;    1,733;    1,227
758,227;28248,245;    1,096;    0,318
758,795;28587,761;    1,187;    1,136
759,364;28833,095;   -0,086;   -0,591
759,933;27816,066;   -1,176;   -0,045
760,501;27339,218;    0,733;   -1,318
761,070;27776,007;   -2,813;   -1,409
761,639;28502,978;   -1,904;    1,318
762,207;27823,039;    1,551;   -0,955
762,776;27726,464;    0,369;    0,864
763,344;27767,435;   -0,995;    0,591
763,913;26839,496;   -0,722;    1,409
764,481;27612,467;    1,005;   -0,136
765,049;27366,892;   -1,358;    1,409
765,618;27218,590;   -0,086;    0,318
766,186;27282,833;    0,278;    0,136
766,754;27485,440;    0,005;    1,864
767,322;26453,865;   -1,995;    0,409
767,890;26508,381;   -0,722;   -1,773
768,459;26885,534;   -2,177;   -0,318
769,027;27039,140;    1,641;    3,409
769,595;26013,929;    3,278;    2,591
770,163;26448,445;    3,823;    2,955
770,730;26161,689;    0,732;   -0,136
771,298;26004,386;    0,187;   -1,409
771,866;26160,084;   -1,541;    4,955
772,434;26465,146;   -0,631;   -1,864
773,002;26637,934;    0,005;    0,682
773,569;26298,905;    0,914;    1,682
774,137;26112,603;   -0,268;   -0,045
774,705;26913,119;    0,278;   -0,136
775,272;26422,998;    0,641;    0,682
775,840;26137,242;   -0,177;    2,682
776,407;25669,485;    0,277;    1,955
776,975;25273,456;   -0,632;    0,318
777,542;26291,699;   -1,086;   -0,045
778,110;26161,124;   -1,268;   -0,045
778,677;25789,004;   -2,359;   -0,864
779,244;25536,701;    2,186;    1,045
779,812;25700,490;    1,823;    0,864
780,379;25540,097;    0,005;    1,136
780,946;25778,977;    1,005;   -0,773
781,513;26096,856;   -1,450;    0,318
782,080;25442,827;   -0,086;    2,864
782,647;26163,525;   -0,268;    3,045
783,214;25749,495;   -0,177;    3,864
783,781;25385,375;   -0,723;   -0,682
784,348;25197,982;   -0,632;    1,500
784,915;25725,498;   -3,177;    0,318
785,482;25519,650;    1,368;    2,591
786,049;25920,439;    0,186;   -0,591
786,615;26018,501;    0,277;   -0,955
787,182;25782,471;    0,186;   -0,682
787,749;25448,987;   -2,814;    1,409
788,315;24784,503;   -1,632;   -0,409
788,882;25066,747;    1,550;   -1,227
789,448;25771,990;    1,732;   -0,955
790,015;25787,324;    1,095;    3,227
790,581;25366,295;    1,459;    0,227
791,148;25268,538;    0,641;    1,045
791,714;25455,417;   -0,541;    3,136
792,280;25146,934;    0,186;    1,591
792,847;24652,722;    0,550;    2,500
793,413;25274,056;   -0,269;   -0,318
793,979;24790,027;    3,459;   -1,318
794,545;24934,816;    4,459;    2,682
795,111;24292,423;    2,186;    1,318
795,678;24464,939;    0,731;   -1,682
796,244;24105,273;    3,368;    0,136
796,810;24699,789;    1,731;    0,773
797,375;24428,850;    0,549;   -2,136
797,941;24404,730;   -0,541;    0,591
798,507;24565,428;   -0,451;   -0,955
799,073;24091,217;   -0,360;    0,591
799,639;24151,914;   -2,632;    3,136
800,205;24173,521;    0,095;    2,682
800,770;23717,674;    0,640;    1,773
801,336;23800,463;    1,368;   -0,955
801,901;23520,706;    4,549;    3,136
802,467;24073,949;   -0,542;    2,045
803,033;23352,647;   -0,087;    0,864
803,598;23604,981;    1,913;   -1,045
804,163;23622,497;    1,095;   -0,318
804,729;23570,377;   -0,178;    1,136
805,294;23982,893;    0,822;    2,227
805,859;23796,045;    0,731;   -0,409
806,425;23219,743;    1,186;    2,682
806,990;22900,623;    2,186;    4,318
807,555;23421,321;   -1,451;    2,591
808,120;23280,382;    0,822;   -0,409
808,685;23356,262;    0,185;   -2,500
809,250;22877,596;    0,004;   -0,500
809,815;23155,657;    1,913;    0,682
810,380;23675,173;   -0,269;    1,591
810,945;24265,780;   -1,087;    2,045
811,510;23360,660;    2,094;    1,591
812,075;23082,267;   -0,633;   -1,409
812,640;23140,965;    2,003;    1,409
813,204;23180,026;    0,822;   -0,227
813,769;23670,360;    2,094;   -0,045
814,334;23079,422;    0,458;    0,864
814,898;23135,029;    0,367;    0,591
815,463;22991,545;    1,276;   -0,773
816,027;22959,606;   -0,724;   -2,318
816,592;23081,486;    0,640;   -2,045
817,156;22595,184;    2,094;    1,136
817,721;22448,972;    4,276;    2,318
818,285;22361,398;    2,912;    1,500
818,849;23026,914;   -1,451;    1,682
819,414;22920,339;   -0,269;    2,955
819,978;22500,946;   -1,269;    1,773
820,542;23105,007;    2,003;    0,500
821,106;22817,614;   -0,815;    0,682
821,670;22935,585;   -0,815;    2,591
822,234;22628,282;   -0,270;    1,409
822,798;22005,435;    0,003;    0,500
823,362;21947,042;   -0,633;    4,227
823,926;21250,285;    0,094;    1,136
824,490;21505,437;   -0,997;   -0,682
825,054;21926,499;   -0,088;   -1,136
825,618;21518,742;   -1,542;   -1,500
826,181;21508,076;    0,458;   -1,318
826,745;21419,592;    1,367;   -1,045
827,309;21770,290;    1,185;    1,318
827,872;21096,806;    1,367;    0,955
828,436;22159,050;    1,185;   -0,773
828,999;22184,747;   -0,997;    1,227
829,563;20929,082;   -0,179;    1,136
830,126;20819,325;   -0,179;   -0,591
830,690;20846,841;   -1,997;    2,864
831,253;20368,175;   -0,543;    2,227
831,816;20477,509;   -1,906;    0,500
832,380;20399,934;    0,185;    0,864
832,943;20641,632;   -1,361;   -0,500
833,506;20136,239;    2,639;   -1,227
834,069;20909,664;    3,912;   -0,955
834,632;20975,726;    1,730;    1,318
835,195;20884,424;    1,003;    0,955
835,758;19965,940;   -0,997;    1,955
836,321;19856,365;    0,730;   -1,045
836,884;19972,063;   -0,725;   -0,955
837,447;20036,488;   -2,816;    1,773
838,010;20277,276;    0,366;    3,227
838,573;20534,338;   -1,179;    0,773
839,135;20477,945;   -1,361;   -0,955
839,698;19919,552;    1,275;    0,409
840,261;19450,613;    1,003;   -0,227
840,823;19311,220;   -0,543;    0,864
841,386;19582,282;   -0,452;   -2,409
841,948;19487,616;   -1,361;    1,773
842,511;19252,768;    0,912;    1,682
843,073;19384,284;    1,912;    0,227
843,636;19177,437;   -0,361;   -0,227
844,198;19160,134;    0,911;    0,591
844,760;19224,923;    1,093;    1,955
845,322;18877,530;    0,548;    1,136
845,885;19292,864;    0,730;    0,591
846,447;19716,198;   -1,998;    0,227
847,009;19328,714;    1,911;   -0,682
847,571;19647,412;    0,820;   -2,045
848,133;19774,019;   -1,089;   -1,864
848,695;19578,899;   -0,543;    1,409
849,257;19093,324;   -1,089;   -1,682
849,819;19294,385;   -0,998;   -0,409
850,381;19295,811;   -0,725;   -0,864
850,942;19696,963;    1,093;   -0,591
851,504;19677,479;    1,184;    0,227
852,066;19652,359;    1,275;   -1,591
852,628;19183,511;   -0,180;    1,955
853,189;18750,300;    1,638;    2,682
853,751;18836,452;   -0,907;    1,409
854,312;18654,786;   -0,453;   -1,682
854,874;19159,211;   -2,089;   -0,773
855,435;19747,091;   -0,907;   -1,682
855,997;19862,971;   -1,816;   -0,136
856,558;19164,941;    0,366;    1,773
857,119;19271,548;    0,820;    2,864
857,681;18918,701;    0,002;    0,318
858,242;19000,580;    1,911;   -2,136
858,803;19455,369;    0,456;   -0,773
859,364;20017,067;    0,184;   -4,773
859,925;19319,674;   -2,453;   -0,955
860,486;19233,008;   -0,453;   -0,955
861,047;18925,706;   -0,544;   -1,227
861,608;18727,676;   -1,089;   -0,773
862,169;18881,920;    0,638;   -0,045
862,730;18657,708;    0,456;    1,409
863,291;18854,770;   -0,635;   -0,500
863,852;19280,286;   -0,635;    1,955
864,412;18732,984;   -0,271;   -0,864
864,973;17257,591;   -0,089;    0,500
865,534;17142,198;   -1,726;    0,227
866,094;18667,804;    1,820;    0,227
866,655;18355,684;    1,274;    3,318
867,215;18559,109;    0,274;    0,136
867,776;18461,443;    0,547;   -0,136
868,336;18557,141;   -1,453;    0,136
868,897;18015,657;    2,638;    1,682
869,457;17679,901;    1,365;    0,318
870,017;17968,417;    0,547;   -1,227
870,578;18501,751;   -0,817;    0,773
871,138;18171,176;   -2,089;   -0,955
871,698;17731,783;   -0,817;   -1,318
872,258;17606,299;   -0,453;   -2,864
872,818;17954,360;    2,729;    0,045
873,378;17896,513;    0,638;    1,045
873,938;17453,938;    0,547;    0,500
874,498;17803,181;    0,274;   -1,955
875,058;17710,879;    2,183;    1,773
875,618;17534,486;    1,910;   -2,682
876,177;17497,184;    1,274;    0,136
876,737;17055,154;   -0,090;    1,955
877,297;17095,488;    0,183;    1,955
877,856;17108,823;   -0,362;    0,318
878,416;17052,611;    1,183;   -0,136
878,976;17278,218;   -1,817;    0,409
879,535;17440,734;    0,092;    3,136
880,095;17179,432;   -0,544;    0,045
880,654;17302,312;   -1,090;    1,318
881,213;17421,919;    2,456;    1,500
881,773;17030,980;    2,637;    2,682
882,332;17398,133;    3,365;    5,136
882,891;17247,740;    3,092;    2,136
883,451;17742,528;   -1,272;    1,682
884,010;17170,499;   -2,908;   -0,409
884,569;17253,197;   -0,999;   -0,045
885,128;17385,713;    2,819;   -1,864
885,687;17446,320;    4,455;    0,682
886,246;17117,563;    1,455;    2,136
886,805;16931,988;    2,455;    2,045
887,364;17254,231;   -0,999;   -0,500
887,922;17591,656;   -1,181;    0,045
888,481;17072,536;   -1,545;    0,591
889,040;17385,325;    1,183;    2,136
889,599;18045,750;    2,455;    1,409
890,157;18109,993;    1,455;    2,409
890,716;17806,237;   -0,090;    0,227
891,274;17602,843;    0,092;   -1,136
891,833;18033,541;    1,546;    0,864
892,391;17908,057;   -0,454;    0,500
892,950;17998,755;    1,819;   -0,773
893,508;18350,362;    0,455;   -0,409
894,067;17705,605;    0,637;    0,136
894,625;17633,576;   -0,636;   -1,500
895,183;17876,092;   -0,363;   -0,682
895,741;17731,699;    1,728;   -1,773
896,299;17557,397;   -0,545;   -2,409
896,858;17747,640;    0,819;   -1,591
897,416;17887,156;    2,728;   -1,318
897,974;17612,217;    1,819;    0,318
898,532;17756,461;    6,091;    2,682
899,089;17677,977;    2,091;   -0,682
899,647;17701,129;   -1,454;    1,318
900,205;17413,463;    1,182;    1,045
900,763;17631,434;   -0,454;    0,227
901,321;17642,223;    2,364;   -1,409
901,878;17027,102;   -1,000;   -0,773
902,436;16896,346;   -1,363;    1,318
902,994;17287,407;    4,728;    3,682
903,551;16711,378;    0,728;    0,409
904,109;17106,439;    0,182;   -1,409
904,666;16679,955;    2,455;    1,045
905,224;16524,380;    0,182;   -0,409
905,781;16250,169;    0,727;   -0,318
906,338;16344,958;   -1,363;    1,045
906,895;16271,565;    0,637;    2,045
907,453;16204,717;    1,727;    1,136
908,010;16257,688;   -0,909;    0,409
908,567;15896,931;    1,273;    0,591
909,124;15363,083;    0,364;   -1,500
909,681;15428,054;   -2,909;    0,682
910,238;15569,933;    0,636;   -1,318
910,795;15898,631;   -0,273;   -1,136
911,352;15513,904;   -2,909;   -2,682
911,909;14954,813;   -1,364;   -0,864
912,466;15471,449;   -3,182;    1,500
913,022;15010,904;   -1,636;    0,500
913,579;15337,722;   -0,909;    2,045
914,136;15041,995;    1,636;    0,955
914,692;15361,359;    0,091;   -1,227
915,249;14956,904;    1,455;    0,409
915,806;15183,449;    0,182;    1,955
916,362;14934,177;    1,909;    1,864
916,918;14507,540;    2,000;    1,045
917,475;14491,631;   -1,182;    0,955
918,031;14536,813;    3,364;   -0,045
918,587;13967,359;   -0,909;   -0,318
919,144;14180,540;   -2,273;    0,227
919,700;14519,359;    1,727;    0,773
920,256;14090,631;    0,727;    0,045
920,812;13708,268;   -0,727;   -1,045
921,368;13714,268;   -1,727;   -1,045
921,924;13340,086;    0,182;   -0,136
922,480;12923,904;   -0,545;    1,227
923,036;13555,540;    1,273;    1,955
923,592;13488,904;    0,455;    0,318
924,148;13362,722;    0,455;   -0,955
924,704;12671,540;   -1,364;   -0,409
925,259;12978,904;   -0,273;    0,591
925,815;12736,722;    1,455;    0,500
926,371;12277,086;    2,909;    1,409
926,926;12123,268;    2,091;    0,591
927,482;11740,813;   -1,364;    0,773
928,037;11603,540;    0,909;    2,045
928,593;11858,449;    1,636;    1,045
929,148;11729,904;   -1,818;   -1,500
929,704;11232,359;   -1,455;   -0,500
930,259;11432,631;    0,091;   -0,136
930,814;10488,995;   -0,818;    1,955
931,369;10117,995;    1,091;   -0,773
931,925;10036,631;   -0,091;    0,136
932,480; 9925,540;   -2,818;   -2,591
933,035; 9798,813;    0,545;   -0,318
933,590; 9590,449;    0,364;   -1,773
934,145; 9180,449;   -1,364;   -0,318
934,700; 9541,904;    0,455;   -0,591
935,255; 9349,722;   -0,091;    0,045
935,809; 8613,177;    3,182;    0,864
936,364; 7721,631;   -0,455;   -0,136
936,919; 7677,359;    0,455;   -1,773
937,474; 7586,268;    1,455;    0,136
938,028; 7337,268;   -1,636;    1,136
938,583; 6795,904;    1,818;    4,682
939,138; 7074,722;    2,091;    2,136
939,692; 6485,904;    1,636;   -1,136
940,247; 6191,359;   -0,727;   -1,045
940,801; 5719,631;   -0,636;    0,227
941,355; 5592,359;   -0,364;    2,591
941,910; 5241,995;   -0,273;   -2,136
942,464; 5368,449;   -0,818;   -0,318
943,018; 5131,813;    1,000;   -0,227
943,572; 5077,177;    2,545;   -0,682
944,126; 4476,449;    0,091;   -0,409
944,681; 4382,268;    3,091;    0,227
945,235; 4349,722;    1,000;   -0,591
945,789; 4319,540;    0,364;   -1,864
946,342; 4399,722;    0,455;   -0,591
946,896; 4210,813;   -2,273;    0,955
947,450; 3954,540;    1,545;   -0,227
948,004; 4146,722;    1,727;   -0,045
948,558; 4162,086;    0,273;   -0,864
949,111; 4079,631;   -0,273;   -0,318
949,665; 4103,722;    1,636;   -0,682
950,219; 3975,449;   -0,091;   -1,045
950,772; 4067,359;   -1,909;    1,864
951,326; 3959,449;    0,545;   -0,955
951,879; 4061,449;    0,727;   -2,318
952,433; 4064,086;    0,000;    2,227
952,986; 3921,995;    2,909;    0,682
953,539; 3898,904;   -0,273;    0,591
954,093; 3835,359;    0,545;   -1,318
954,646; 3954,722;    0,909;    1,318
955,199; 3764,177;    0,000;   -0,500
955,752; 3647,449;   -0,455;    1,773
956,305; 3596,268;   -0,091;    2,955
956,858; 3763,086;    0,818;   -0,318
957,411; 3932,995;   -0,545;    2,136
957,964; 3754,995;    1,364;    2,136
958,517; 3756,086;   -1,545;    3,136
959,070; 3585,540;   -0,455;    1,955
959,623; 3651,904;    1,091;    1,500
960,176; 3405,813;    1,727;    2,045
960,728; 3384,449;   -2,727;    0,773
961,281; 3459,722;    0,545;    0,500
961,834; 3504,359;   -0,909;    0,864
962,386; 3403,813;    1,727;    1,045
962,939; 3320,813;    0,364;   -0,318
963,491; 3486,540;    0,455;    1,136
964,043; 3349,177;    1,182;    2,409
964,596; 3462,995;   -1,000;    2,227
965,148; 3312,177;   -1,000;    1,773
965,700; 3224,722;    1,091;   -0,227
966,253; 3378,359;   -0,636;    0,318
966,805; 3202,177;   -2,273;    0,773
967,357; 3261,359;    1,091;   -1,500
967,909; 3230,268;    0,455;   -1,227
968,461; 3334,631;    0,545;    3,136
969,013; 3266,268;   -0,182;   -0,864
969,565; 3349,722;   -0,455;   -1,136
970,117; 3393,449;   -0,364;    1,045
970,669; 3220,359;    0,182;   -0,136
971,220; 3089,540;   -0,455;   -1,500
971,772; 3027,631;   -0,636;   -0,318
972,324; 3148,086;    0,091;   -0,500
972,876; 3082,813;    0,818;   -0,045
973,427; 3224,540;    1,909;   -1,045
973,979; 3185,268;   -0,727;   -2,500
974,530; 3236,268;    1,818;    1,318
975,082; 3253,359;   -0,545;    1,682
975,633; 3148,995;    1,091;    1,682
976,184; 3285,722;    0,909;    0,773
976,736; 3063,359;    0,091;    0,227
977,287; 2881,995;   -0,909;   -0,500
977,838; 3061,086;    0,909;   -0,318
978,389; 3091,995;   -1,000;   -0,500
978,940; 2964,631;    0,545;   -0,409
979,491; 3017,722;    0,091;   -0,500
980,042; 2966,904;    0,182;    3,045
980,593; 3033,904;   -2,545;    0,227
981,144; 3076,995;    2,545;   -0,500
981,695; 3028,086;    1,455;    1,500
982,246; 2997,631;   -0,273;    1,045
982,797; 3175,268;   -1,727;    0,682
983,347; 3279,904;    0,364;    0,591
983,898; 3411,086;    3,091;    0,409
984,449; 3231,722;    2,182;    0,773
984,999; 3152,631;    1,455;   -1,136
985,550; 2926,540;    0,182;   -0,318
986,100; 2966,540;   -0,455;   -0,318
986,651; 2992,268;   -0,818;    0,045
987,201; 2954,722;   -1,000;   -0,591
987,751; 3054,631;    0,818;    2,864
988,302; 3040,813;    2,636;    1,500
988,852; 3064,359;    0,455;   -1,136
989,402; 3117,904;    0,091;    0,682
989,952; 3015,268;   -2,182;    0,864
990,502; 3110,449;   -0,091;    0,682
991,052; 3101,995;   -0,727;    0,045
991,602; 2971,540;   -2,909;    1,318
992,152; 2959,086;    0,455;    0,682
992,702; 2932,995;    1,364;   -0,045
993,252; 2857,540;   -3,000;   -0,500
993,802; 2947,631;   -0,273;    1,318
994,352; 3175,177;   -1,545;    1,136
994,901; 3267,813;   -0,182;    3,227
995,451; 3181,904;   -0,182;    0,318
996,000; 3288,813;    1,636;    0,318
996,550; 2992,540;    2,273;    0,227
997,100; 2984,268;    1,273;   -0,045
997,649; 3264,995;    2,182;    0,955
998,198; 2884,449;    1,727;   -1,500
998,748; 3102,268;    1,091;   -2,318
999,297; 3012,722;   -0,818;   -0,409
999,846; 3079,086;    1,000;   -0,773
1000,395; 3105,086;   -0,818;    0,500
1000,945; 3059,177;    1,818;   -0,773
1001,494; 3163,722;    2,364;    0,682
1002,043; 3147,995;    4,636;    0,864
1002,592; 2989,631;   -1,091;    1,955
1003,141; 3143,540;   -0,455;   -0,682
1003,690; 2986,359;    1,727;    0,500
1004,238; 3082,177;    1,455;   -0,045
1004,787; 2719,359;    1,364;    1,227
1005,336; 2936,086;    0,364;    0,682
1005,885; 3091,449;    1,364;   -2,773
1006,433; 3246,540;    0,545;    0,955
1006,982; 3272,631;    0,455;    1,682
1007,531; 3186,359;   -1,818;   -0,227
1008,079; 3138,813;   -2,273;    0,500
1008,627; 3285,631;   -1,455;    0,409
1009,176; 3021,177;    0,000;   -1,955
1009,724; 3085,086;    1,091;    0,864
1010,273; 3136,086;    1,273;    0,500
1010,821; 3238,631;    0,091;    1,409
1011,369; 2963,904;   -1,364;    1,318
1011,917; 2945,177;   -1,364;   -0,591
1012,465; 3240,359;    1,273;   -1,591
1013,013; 3337,722;    2,091;   -1,682
1013,561; 3202,177;    0,455;   -0,773
1014,109; 3256,631;   -1,909;    1,682
1014,657; 3144,904;    0,364;    0,591
1015,205; 3279,631;    1,636;   -0,955
1015,753; 3324,904;   -0,545;   -1,409
1016,301; 3356,722;   -2,636;    3,045
1016,848; 3320,631;   -1,273;    0,409
1017,396; 3376,449;    2,545;    0,045
1017,944; 3511,268;    1,182;    1,864
1018,491; 3277,177;    0,273;    1,409
1019,039; 3416,631;    0,455;    0,591
1019,586; 3338,449;   -1,364;    1,682
1020,134; 3459,722;    0,455;    1,500
1020,681; 3473,995;    0,182;   -1,136
1021,228; 3476,268;    2,909;   -2,227
1021,776; 3284,722;    1,182;   -1,136
1022,323; 3505,904;    0,455;    0,773
1022,870; 3432,359;   -1,000;   -0,045
1023,417; 3324,631;    2,636;    1,864
1023,964; 3482,631;    2,636;    1,227
1024,511; 3332,359;    1,000;    0,773
1025,058; 3109,995;    3,182;   -0,045
1025,605; 3178,631;   -2,273;    3,136
1026,152; 3400,813;    1,727;   -0,591
1026,699; 3137,359;    1,818;    1,318
1027,245; 3308,813;   -0,091;    0,318
1027,792; 3504,631;   -1,000;    1,409
1028,339; 3379,813;    2,364;   -0,045
1028,885; 3238,995;    1,000;   -0,227
1029,432; 3184,268;   -0,091;    0,227
1029,978; 3239,813;   -1,000;   -1,591
1030,525; 3145,904;    1,000;    0,409
1031,071; 3389,359;   -1,364;    1,136
1031,618; 3487,540;    0,364;    1,682
1032,164; 3276,177;   -0,091;    3,045
1032,710; 3318,540;    1,636;   -1,500
1033,256; 3232,449;   -0,636;   -0,136
1033,803; 3238,813;   -0,545;    1,500
1034,349; 2940,268;   -1,364;    0,136
1034,895; 3092,449;    0,000;   -0,318
1035,441; 3071,722;   -0,818;    0,318
1035,987; 3074,904;   -2,364;   -0,682
1036,533; 3065,359;   -1,455;   -0,955
1037,078; 3269,722;    1,455;    1,682
1037,624; 3097,359;    2,455;   -0,955
1038,170; 3123,722;    0,455;   -0,318
1038,716; 3037,359;    1,636;   -0,409
1039,261; 2935,540;   -2,273;   -0,773
1039,807; 2890,631;   -0,091;    3,409
1040,352; 2944,449;   -1,909;   -0,318
1040,898; 2991,540;   -1,545;   -0,682
1041,443; 2910,631;   -1,455;   -2,591
1041,989; 2905,995;    1,091;    1,591
1042,534; 2792,177;   -0,364;    2,591
1043,079; 2892,813;    2,909;    0,955
1043,625; 2693,449;    1,818;    0,500
1044,170; 2736,813;   -1,364;    1,045
1044,715; 2988,722;    2,455;    0,955
1045,260; 2804,904;    2,182;   -0,955
1045,805; 2871,449;    1,182;   -0,591
1046,350; 2786,904;    1,364;   -0,409
1046,895; 2744,086;    2,909;    1,591
1047,440; 2702,177;    5,364;    0,409
1047,985; 2599,631;    2,818;   -0,955
1048,530; 2515,449;    1,545;    1,227
1049,074; 2582,359;    0,000;    0,318
1049,619; 2578,813;   -1,364;    1,955
1050,164; 2358,359;    0,455;    0,227
1050,708; 2391,268;   -0,455;    0,045
1051,253; 2766,540;    1,273;   -2,227
1051,797; 2479,268;    0,818;   -1,318
1052,342; 2485,268;   -1,182;    1,045
1052,886; 2493,904;    0,364;   -1,409
1053,430; 2370,268;   -1,364;    0,136
1053,975; 2400,177;   -0,818;   -0,318
1054,519; 2360,540;   -0,727;    3,227
1055,063; 2351,722;    0,909;    1,318
1055,607; 2242,813;   -0,182;    0,227
1056,151; 2276,904;    2,909;    1,682
1056,695; 2187,177;    2,273;   -1,136
1057,239; 2275,813;   -1,727;   -0,682
1057,783; 2267,904;    0,818;   -1,500
1058,327; 2215,359;    0,000;    1,409
1058,871; 2452,086;   -0,545;    1,318
1059,415; 2152,359;   -0,818;   -0,045
1059,958; 2425,086;    1,455;    2,591
1060,502; 2129,722;   -1,000;   -0,773
1061,046; 2022,813;    0,364;   -0,955
1061,589; 2004,813;   -3,000;   -1,136
1062,133; 1893,449;   -1,273;    1,864
1062,676; 1828,813;    1,182;    0,864
1063,220; 1841,177;    1,091;    0,500
1063,763; 1863,813;    0,909;    1,136
1064,306; 1940,631;   -0,909;    1,864
1064,849; 1818,995;   -0,909;    0,591
1065,393; 1827,540;    2,000;   -1,500
1065,936; 1937,540;    0,182;   -0,409
1066,479; 1818,813;   -1,455;    1,318
1067,022; 1835,359;   -0,273;   -0,227
1067,565; 1739,995;   -0,091;   -1,318
1068,108; 1770,177;    0,727;   -0,591
1068,651; 1761,268;   -0,636;    1,409
1069,194; 1666,086;   -0,455;   -1,682
1069,736; 1674,722;   -1,273;    0,955
1070,279; 1653,268;   -1,364;   -0,500
1070,822; 1697,177;   -2,000;   -0,318
1071,364; 1788,359;   -0,364;    1,318
1071,907; 1612,086;   -0,727;    3,227
1072,450; 1508,086;    0,000;   -0,045
1072,992; 1495,268;   -0,273;    3,136
1073,535; 1643,086;    2,091;    2,136
1074,077; 1430,813;   -0,727;    2,045
1074,619; 1385,631;   -1,364;    0,591
1075,161; 1435,904;   -1,091;    1,500
1075,704; 1619,995;    1,545;    1,227
1076,246; 1418,995;   -0,182;    0,682
1076,788; 1348,722;   -0,364;    1,773
1077,330; 1418,813;    1,273;    2,136
1077,872; 1374,268;    0,909;    0,955
1078,414; 1593,359;    2,727;    0,773
1078,956; 1333,359;    1,273;   -0,227
1079,498; 1588,631;    1,636;    0,318
1080,040; 1311,268;    1,909;   -1,318
1080,581; 1240,177;    1,636;   -0,318
1081,123; 1162,177;    0,091;   -0,773
1081,665; 1221,904;   -1,182;   -0,955
1082,206; 1521,177;    1,364;   -0,500
1082,748; 1358,631;    0,727;    2,045
1083,289; 1253,540;   -2,000;    1,318
1083,831; 1157,359;   -0,545;    0,227
1084,372; 1195,359;    0,000;    0,591
1084,913; 1205,904;    1,091;    0,864
1085,455; 1171,086;   -1,909;   -2,045
1085,996; 1140,813;   -2,273;    0,136
1086,537; 1154,540;   -0,091;    0,864
1087,078; 1196,177;   -0,909;   -2,136
1087,619; 1241,631;   -1,273;    0,227
1088,160; 1147,813;    0,000;    1,318
1088,701; 1136,631;   -1,091;    0,682
1089,242; 1066,449;    1,364;   -2,227
1089,783; 1163,631;   -0,273;    1,409
1090,324; 1138,722;    0,455;    0,682
1090,865; 1012,995;    2,727;   -0,409
1091,405;  972,086;    0,727;    2,227
1091,946; 1010,995;    0,182;   -0,955
1092,487;  936,631;    0,818;   -1,409
1093,027; 1107,268;   -1,364;   -1,500
1093,568;  957,631;   -0,364;    1,227
1094,108; 1062,722;    0,273;    1,773
1094,649;  990,177;   -1,182;    0,136
1095,189;  921,359;   -0,636;   -0,682
1095,729;  875,995;   -0,091;    0,955
1096,269;  879,359;    0,727;   -0,955
1096,810; 1200,086;   -1,364;    0,500
1097,350; 1011,722;    1,364;   -0,773
1097,890;  921,359;    0,364;    1,227
1098,430; 1177,813;    2,364;    2,864
1098,970; 1053,177;    2,182;    1,682
1099,510;  908,359;    0,545;   -2,318
1100,050;  827,813;    1,000;   -1,591
1100,589;  795,086;   -0,727;   -0,318
1101,129;  929,177;    0,818;   -0,955
1101,669; 1080,540;    1,727;    2,136
1102,209;  893,086;   -0,091;    2,227
1102,748;  850,904;    0,000;    0,955
1103,288;  852,540;    1,273;   -1,227
1103,827;  874,904;    3,091;   -2,227
1104,367;  751,722;   -0,091;   -2,409
1104,906;  706,449;    1,364;   -1,136
1105,445;  777,177;    0,636;   -1,136
1105,985;  731,449;   -0,727;    1,500
1106,524;  778,995;   -1,727;   -0,682
1107,063;  751,177;   -2,727;    1,409
1107,602;  723,813;   -1,909;   -1,500
1108,141;  638,540;   -1,909;    1,500
1108,680;  750,177;   -3,455;   -0,591
1109,219;  685,995;   -0,909;   -0,500
1109,758;  697,813;    0,455;    0,682
1110,297;  650,631;    1,000;   -0,682
1110,836;  599,449;   -0,727;    0,955
1111,375;  775,540;   -2,545;    0,409
1111,913;  781,449;   -1,000;    0,773
1112,452;  717,722;   -0,273;    0,136
1112,991;  596,540;    1,091;    1,955
1113,529;  557,268;   -0,818;   -0,045
1114,068;  624,086;   -0,273;    2,955
1114,606;  525,086;   -0,364;   -0,955
1115,144;  691,995;   -1,273;    1,045
1115,683;  627,722;   -0,727;    0,318
1116,221;  675,177;   -0,455;   -0,864
1116,759;  574,359;    0,636;   -0,864
1117,297;  775,631;    0,000;    1,864
1117,836;  580,813;   -2,182;   -1,227
1118,374;  596,268;    0,182;   -0,682
1118,912;  531,268;    0,909;    2,682
1119,450;  526,359;    1,000;    0,864
1119,988;  570,631;    1,545;    2,136
1120,525; 1037,995;    5,091;    3,318
1121,063;  735,177;    1,182;    1,864
1121,601;  543,449;   -0,909;   -1,227
1122,139;  482,813;   -0,727;   -2,045
1122,676;  692,631;   -0,727;    2,773
1123,214;  617,359;   -1,182;    4,409
1123,751;  428,268;    1,727;    2,227
1124,289;  567,268;   -0,091;   -0,409
1124,826;  427,449;    1,727;    0,227
1125,364;  350,359;    1,727;   -0,955
1125,901;  560,268;    1,182;    1,227
1126,438;  679,904;    0,818;    0,955
1126,975;  385,722;   -0,727;   -0,773
1127,513;  455,722;    0,273;    2,136
1128,050;  355,177;    1,636;   -0,682
1128,587;  460,540;    2,000;   -0,227
1129,124;  501,086;    0,091;    1,318
1129,661;  370,086;    0,273;    0,227
1130,198;  544,904;    1,636;    0,773
1130,734;  490,268;    0,182;    1,409
1131,271;  336,177;   -0,909;    0,864
1131,808;  509,813;    2,909;    3,045
1132,345;  382,722;    1,545;    0,318
1132,881;  253,813;   -1,545;   -1,864
1133,418;  401,086;    0,727;   -1,136
1133,954;  329,813;    2,455;   -2,682
1134,491;  410,086;    1,364;   -0,773
1135,027;  308,268;    2,364;    0,864
1135,564;  399,177;    0,273;    2,955
1136,100;  384,631;    0,364;    2,136
1136,636;  255,722;   -1,273;   -1,045
1137,172;  356,631;    0,000;   -1,045
1137,708;  281,449;   -1,364;   -1,045
1138,245;  284,904;    1,273;   -1,227
1138,781;  236,177;    1,091;   -3,318
1139,317;  308,631;    1,273;   -1,409
1139,852;  290,995;    3,091;    0,136
1140,388;  419,268;   -1,182;   -0,409
1140,924;  295,449;   -1,091;   -2,227
1141,460;  229,359;   -1,636;    0,136
1141,996;  163,904;   -1,364;    2,682
1142,531;  211,359;    1,364;    3,318
1143,067;  433,177;    1,182;    1,045
1143,602;  493,722;   -0,091;   -0,318
1144,138;  336,449;   -2,636;    1,045
1144,673;  196,540;   -1,455;    1,409
1145,209;  271,177;   -1,909;   -0,318
1145,744;  187,722;   -0,727;    0,864
1146,279;  318,086;    1,818;   -0,136
1146,815;  232,995;    1,545;   -2,682
1147,350;  283,086;   -1,364;    0,045
1147,885;  190,631;   -0,818;   -1,318
1148,420;  192,177;   -2,273;    0,773
1148,955;  167,722;   -1,727;    1,864
1149,490;  198,995;   -0,909;   -1,591
1150,025;  180,904;    0,455;   -1,773
1150,560;  301,268;    1,091;   -0,955
1151,094;  265,177;    1,455;   -0,591
1151,629;  266,995;    1,636;    0,864
1152,164;  185,904;    1,364;    1,318
1152,698;  149,904;   -0,182;   -0,136
1153,233;  107,177;    0,091;   -0,682
1153,767;  160,086;   -3,000;   -2,318
1154,302;  198,449;   -1,455;    1,773
1154,836;  203,268;   -0,455;   -2,136
1155,371;  267,722;   -1,364;    3,682
1155,905;  212,631;   -0,636;    1,682
1156,439;  176,813;   -0,636;   -0,500
1156,973;  204,813;    0,364;    0,318
1157,507;  133,268;   -0,364;    0,682
1158,042;  175,449;   -0,727;    1,045
1158,576;  223,449;    0,182;    1,773
1159,110;  212,722;   -0,818;    2,409
1159,643;  187,995;    0,636;   -0,045
1160,177;  120,722;   -1,545;    1,500

