
Integration time [ms]:   0,040
Averaging Nr. [scans]: 11
Smoothing Nr. [pixels]: 0
Data measured with spectrometer [name]: 7318044SP
Wave   ;Sample   ;Dark     ;Reference
[nm]   ;[counts] ;[counts] ;[counts] 

186,757;   23,228;   31,551;    1,318
187,357;   55,230;   22,551;    0,955
187,958;   25,307;   15,460;   -1,591
188,558;   73,310;    8,915;   -1,227
189,159;   30,516;    6,733;   -4,500
189,759;    4,298;    7,278;   -3,591
190,360;    8,074;    2,824;   -2,136
190,960;   47,601;    2,915;   -4,136
191,560;   65,468;    3,189;   -6,591
192,161;  300,862;    4,372;   -3,500
192,761;  143,824;    4,010;   -3,227
193,361;   84,589;    1,556;   -3,773
193,962;  127,748;    2,010;   -2,682
194,562;   51,013;    1,189;   -3,955
195,162;   76,125;   -2,448;   -2,227
195,762;  232,056;   -3,176;   -0,045
196,362;  171,746;    1,370;   -2,500
196,963;   51,945;    2,006;   -0,864
197,563;  109,405;    1,551;   -0,955
198,163;   57,684;    0,096;   -0,682
198,763;   82,458;    1,733;   -0,500
199,363;  167,167;    3,096;   -0,500
199,963;  124,946;    0,369;    0,409
200,563;  107,127;    2,823;   -1,409
201,163;   85,139;    3,277;   -0,227
201,763;  162,117;    3,732;    0,318
202,363;  100,307;    1,459;    1,500
202,963;  189,442;    1,459;    1,045
203,563;  283,606;    0,277;    0,500
204,162;  163,170;    2,096;   -1,864
204,762;  145,361;    0,550;    0,591
205,362;  110,708;    3,004;    1,955
205,962;  199,498;    3,096;    1,955
206,562;  197,791;    1,823;    2,318
207,161;  170,561;   -0,087;    0,318
207,761;  316,823;    1,277;    2,409
208,361;  200,815;   -0,268;    1,409
208,960;  282,105;    0,459;    1,500
209,560;  332,648;    1,277;    1,591
210,160;  325,676;    0,550;    1,864
210,759;  288,572;    4,186;    1,227
211,359;  292,896;    1,459;    1,045
211,958;  534,144;    1,277;    2,045
212,558;  599,117;    1,732;    1,864
213,157;  436,175;    1,822;    1,500
213,757;  832,650;    3,822;   -0,227
214,356;  557,156;    1,277;   -0,409
214,956;  863,995;    3,095;    0,409
215,555;  507,036;    2,095;    2,136
216,154;  448,523;   -2,723;   -0,591
216,754;  450,059;    0,277;    0,773
217,353;  559,752;   -0,268;   -1,045
217,952;  416,280;   -0,178;    0,318
218,552;  650,739;    1,368;   -0,773
219,151;  541,097;    0,277;    0,955
219,750;  535,791;    0,004;   -0,227
220,349;  569,820;   -0,451;    1,045
220,948;  695,065;   -1,360;    1,136
221,548;  644,803;    0,913;    1,227
222,147;  739,540;   -0,087;   -0,409
222,746; 1001,960;   -0,451;   -0,955
223,345;  854,437;    0,731;    0,500
223,944;  845,775;   -0,451;    0,773
224,543;  962,445;    1,004;   -1,409
225,142; 1073,313;    0,094;    0,136
225,741;  959,502;   -0,814;    1,045
226,340;  959,283;   -0,451;   -0,955
226,939; 1311,986;   -0,996;   -0,136
227,538; 1120,157;   -0,360;   -0,773
228,137; 1319,645;   -0,814;    0,864
228,735; 1308,186;   -0,541;    1,227
229,334; 1091,359;   -0,905;   -0,227
229,933; 1448,886;    0,459;    0,591
230,532; 1530,378;    1,186;   -0,409
231,131; 1598,829;    1,732;    0,318
231,729; 1544,864;   -2,450;   -2,318
232,328; 1481,273;   -0,723;   -1,500
232,927; 1489,316;    1,004;   -0,500
233,525; 1519,808;    3,640;    0,045
234,124; 1656,983;    2,368;   -1,591
234,723; 1593,746;    0,913;   -1,045
235,321; 1665,967;    2,277;    0,136
235,920; 1746,596;    1,186;   -1,227
236,518; 2003,635;    3,459;    0,318
237,117; 1962,230;    0,004;   -0,227
237,715; 2044,059;    0,640;   -0,500
238,314; 2090,664;   -0,087;   -2,318
238,912; 2261,242;   -0,723;   -1,409
239,510; 2180,951;    0,459;   -1,227
240,109; 2366,221;    0,004;    3,773
240,707; 2356,121;   -0,996;    1,227
241,305; 2481,274;    0,550;    0,136
241,904; 2698,093;   -0,178;   -2,045
242,502; 2759,015;   -0,632;   -0,227
243,100; 2691,505;   -0,087;   -0,955
243,698; 2895,334;    0,732;    1,682
244,297; 3029,273;   -0,632;    0,682
244,895; 3013,231;   -0,269;   -2,318
245,493; 3334,244;    2,186;   -0,591
246,091; 3347,194;    1,368;   -1,318
246,689; 3349,917;    1,004;    0,591
247,287; 3520,972;    0,822;   -1,136
247,885; 3799,152;   -1,451;    1,227
248,483; 3917,026;    1,822;   -0,500
249,081; 4057,568;    0,185;    1,591
249,679; 4232,219;   -0,178;    1,682
250,277; 4475,302;   -1,723;    0,864
250,875; 4492,873;   -1,087;   -1,045
251,473; 4556,448;   -1,178;    0,500
252,071; 4761,117;    1,459;    1,045
252,669; 4908,412;   -1,814;    0,318
253,267; 5141,200;   -0,087;    0,773
253,864; 5116,517;   -0,360;    0,682
254,462; 5120,138;    1,640;    1,591
255,060; 5050,207;   -0,269;    1,318
255,658; 5322,684;    0,822;   -0,136
256,255; 5714,149;    0,186;   -2,045
256,853; 5652,970;   -0,269;    1,409
257,451; 5656,144;    0,822;    1,864
258,048; 5993,576;    1,822;    1,864
258,646; 5735,407;    1,731;   -1,045
259,243; 5923,424;   -0,087;    2,227
259,841; 5962,566;   -0,814;    0,318
260,438; 5917,943;   -0,087;    0,864
261,036; 6524,582;   -1,905;    1,409
261,633; 6487,239;   -0,087;    2,227
262,231; 6311,157;    2,731;   -0,045
262,828; 6369,914;   -0,905;    1,136
263,425; 6435,749;    0,913;   -0,591
264,023; 6693,116;    0,186;    0,045
264,620; 6295,034;   -0,360;   -0,318
265,217; 6647,689;   -2,087;    3,136
265,815; 6732,105;   -1,905;    2,136
266,412; 6591,789;    0,731;    0,136
267,009; 6651,958;   -1,451;    0,773
267,606; 6617,043;    0,822;   -0,955
268,203; 6586,086;   -0,269;   -0,591
268,801; 6820,984;    1,731;    0,591
269,398; 7079,651;   -0,360;    2,500
269,995; 7082,914;    0,277;    1,591
270,592; 6920,391;   -0,632;   -0,500
271,189; 7086,229;    0,186;    0,409
271,786; 7171,422;   -0,632;    1,227
272,383; 7075,045;   -1,087;    0,227
272,980; 7221,480;    0,277;    0,318
273,577; 7626,065;    0,004;    1,227
274,174; 7219,114;    0,822;    2,591
274,771; 7205,412;   -0,814;   -0,773
275,367; 7378,060;    2,277;    1,409
275,964; 7318,905;    0,731;   -0,500
276,561; 7373,880;    1,549;   -1,045
277,158; 7557,673;    0,095;   -1,773
277,755; 7726,387;    2,185;    0,409
278,351; 7170,402;   -0,451;   -1,500
278,948; 7446,896;   -0,815;    0,045
279,545; 7469,419;   -1,360;    2,318
280,141; 8073,217;   -1,723;   -2,045
280,738; 7947,039;   -0,451;   -0,136
281,334; 8113,106;   -1,633;    0,591
281,931; 7563,585;   -0,087;   -1,318
282,528; 7699,958;    0,822;   -0,500
283,124; 8364,593;   -1,087;   -0,500
283,721; 8275,567;   -0,451;    1,409
284,317; 8104,471;    0,185;    2,500
284,913; 8636,363;   -1,360;    0,591
285,510; 8857,272;    0,640;   -0,318
286,106; 8914,818;   -2,269;   -0,955
286,703; 8505,123;   -0,360;    1,955
287,299; 8753,203;   -1,451;   -0,591
287,895; 8987,066;    0,822;   -1,045
288,491; 9522,288;    0,186;    2,136
289,088; 9307,205;   -2,360;    2,409
289,684; 9413,957;   -1,723;    1,500
290,280; 9458,567;    0,368;    0,682
290,876; 9588,180;    1,822;    5,500
291,472; 9505,523;    1,276;    2,227
292,068; 9649,373;    1,367;    0,227
292,665; 9381,748;    2,095;    0,773
293,261; 9121,692;    0,276;    2,136
293,857; 9515,740;    2,913;    2,136
294,453; 9515,700;    3,550;    0,955
295,049; 9463,609;   -0,268;    1,955
295,644; 9499,702;    0,095;    0,136
296,240; 9455,685;   -0,905;   -0,136
296,836; 9534,769;   -0,995;    0,318
297,432; 9822,357;    1,096;   -0,500
298,028; 9915,148;    0,732;    0,773
298,624;10344,055;    1,459;    1,864
299,220;10597,438;    2,368;    0,591
299,815;10276,373;    1,005;   -0,409
300,411;10101,973;    0,914;    1,773
301,007;10130,953;    1,368;    0,227
301,602;10208,837;   -0,541;   -2,318
302,198;10411,635;    0,732;   -0,773
302,794;10746,029;    1,187;   -0,500
303,389;10862,224;   -1,177;    1,045
303,985;10950,842;    0,550;    1,409
304,580;10956,297;    1,459;    1,591
305,176;10913,486;   -3,086;    0,136
305,771;10854,649;   -1,268;   -1,227
306,367;10736,467;    4,095;    0,136
306,962;11043,474;    0,641;    1,500
307,558;10777,865;   -0,450;    0,136
308,153;10702,491;    1,095;   -1,136
308,748;10922,978;   -0,814;    1,682
309,344;10875,680;   -0,632;   -1,318
309,939;10969,218;   -1,905;   -1,318
310,534;11205,085;   -0,086;   -1,682
311,130;11163,046;    0,459;   -2,500
311,725;10882,900;    1,004;   -0,500
312,320;11176,905;    2,459;    0,045
312,915;11000,999;    1,459;   -1,045
313,510;11103,754;    1,550;   -0,500
314,105;11568,425;    1,096;    1,409
314,700;10932,461;   -3,086;   -1,045
315,295;10552,934;   -0,904;    0,045
315,890;10149,010;    1,277;    0,864
316,485;10491,363;   -0,359;   -0,318
317,080;10561,392;   -3,086;    1,591
317,675;11095,728;    2,005;   -0,682
318,270;10551,658;    5,550;    3,318
318,865;10521,199;    3,278;    3,045
319,460;10363,442;   -0,904;    0,591
320,055;10562,218;   -0,541;   -1,227
320,650;10216,527;   -1,995;   -0,591
321,244;10267,694;   -0,177;   -1,409
321,839;11169,201;   -1,541;   -0,227
322,434;11020,633;   -1,086;   -1,591
323,029;10697,075;    1,732;    1,591
323,623;10524,250;    1,550;    0,773
324,218;10297,317;    2,368;    1,409
324,812;10214,943;    1,096;    1,591
325,407;10062,714;   -0,814;    2,045
326,002; 9987,873;    0,277;   -0,409
326,596;10301,993;    0,914;    1,318
327,191;10470,124;    0,823;   -1,045
327,785;10107,356;   -0,813;   -0,227
328,379;10316,428;    1,368;    0,136
328,974;10144,187;    0,914;   -3,955
329,568;10392,342;    0,186;   -2,409
330,163;10270,389;    2,096;    1,045
330,757;10587,799;    2,459;    1,591
331,351; 9951,964;    0,459;    0,682
331,945;10304,206;    0,914;    1,409
332,540; 9993,605;   -1,723;   -0,591
333,134;10153,140;   -1,086;    0,773
333,728;10421,755;    0,005;    0,318
334,322;10744,088;   -1,177;   -0,864
334,916;10070,703;    0,277;    0,955
335,510;10446,714;   -0,450;   -0,136
336,105;10690,942;   -1,086;    1,591
336,699;10437,982;   -1,086;    0,591
337,293;10387,662;   -1,723;    0,318
337,887;10553,755;   -2,723;    1,955
338,481;10706,541;    0,459;    0,591
339,074;10913,062;   -0,359;    2,682
339,668;10732,462;   -1,632;    1,227
340,262;11017,722;    1,732;    3,227
340,856;10557,625;    1,822;   -0,682
341,450; 9926,633;    1,004;    1,864
342,044;10838,298;    1,459;    0,136
342,637;10656,039;    0,913;   -2,136
343,231;10556,389;   -2,360;    0,682
343,825;10516,977;   -1,086;   -0,591
344,419;10511,506;   -1,995;    0,500
345,012;10333,679;    2,459;    4,045
345,606;10349,166;    4,641;    1,591
346,199;10215,504;   -1,813;   -0,227
346,793; 9785,631;    1,914;    2,045
347,386; 9989,815;   -0,813;   -1,136
347,980; 9980,519;   -0,268;   -0,045
348,573; 9785,143;    2,278;    0,409
349,167; 9518,303;    5,278;    4,773
349,760; 9848,890;    2,914;    2,682
350,354; 9848,984;   -0,813;    1,136
350,947; 9604,564;    1,096;    1,682
351,540; 9269,405;   -0,358;   -1,409
352,134; 9218,012;    1,096;    1,136
352,727; 9310,678;   -0,086;    1,136
353,320; 9105,612;    0,005;    0,591
353,913; 8987,307;   -1,995;    1,864
354,507; 9180,784;    0,823;   -1,227
355,100; 9160,030;    0,460;    0,864
355,693; 8458,319;    2,005;    2,409
356,286; 8478,281;    0,823;    2,773
356,879; 8798,171;   -0,722;    1,227
357,472; 8399,853;   -0,904;    1,500
358,065; 8613,386;   -0,722;    2,500
358,658; 8523,167;   -0,540;    2,318
359,251; 8173,903;   -1,631;   -0,591
359,844; 7690,373;   -1,904;   -1,136
360,437; 7845,825;   -2,995;    0,045
361,030; 8107,780;    1,369;   -0,682
361,623; 7712,055;    2,824;    0,318
362,215; 7780,223;   -0,086;    2,045
362,808; 7589,340;   -2,358;   -1,682
363,401; 7785,897;   -2,449;    0,136
363,994; 7565,461;   -0,631;   -1,500
364,586; 7449,273;    0,824;   -1,500
365,179; 7648,770;   -0,449;   -1,136
365,772; 7146,405;   -1,995;    2,045
366,364; 7438,028;    1,915;   -3,227
366,957; 7609,459;    2,279;   -0,045
367,549; 7622,892;    2,188;   -0,864
368,142; 7297,962;    1,825;   -1,500
368,734; 7471,316;    0,734;   -2,136
369,327; 7452,050;    1,643;   -0,500
369,919; 7353,961;   -1,538;    0,409
370,512; 7147,688;   -1,083;   -0,500
371,104; 6943,636;   -0,901;    1,591
371,696; 7086,213;    1,191;   -0,955
372,289; 7167,627;    0,373;    1,136
372,881; 7330,000;   -2,080;    1,318
373,473; 7231,404;   -2,170;    1,136
374,066; 7046,809;   -0,169;    0,500
374,658; 6885,519;    0,378;    1,136
375,250; 7218,551;    0,653;   -1,409
375,842; 7080,089;    0,473;   -0,045
376,434; 6949,556;   -0,435;   -0,409
377,026; 7498,732;    0,204;   -2,500
377,618; 7366,263;   -0,158;   -0,682
378,210; 7222,104;   -0,338;   -1,955
378,802; 7080,636;    0,754;   -0,591
379,394; 7050,719;    1,846;    0,682
379,986; 7596,705;    1,393;   -0,955
380,578; 7704,003;   -0,153;    0,773
381,170; 7061,285;   -0,972;    0,045
381,762; 7005,316;    0,755;    1,409
382,354; 7186,128;   -0,065;   -1,318
382,945; 7286,894;   -2,976;    0,318
383,537; 7430,809;   -2,705;   -1,955
384,129; 7472,986;   -2,160;   -1,136
384,721; 7632,300;   -0,252;    0,955
385,312; 7584,324;   -0,161;   -0,955
385,904; 7680,976;   -2,706;    1,591
386,496; 7039,370;   -0,979;    1,045
387,087; 7208,098;    1,022;    2,500
387,679; 7251,332;   -1,160;    0,045
388,270; 7357,138;    2,840;    2,045
388,862; 7468,969;    1,295;   -0,318
389,453; 7359,288;   -0,887;    1,045
390,045; 7630,256;   -0,705;   -2,682
390,636; 7554,831;    0,204;   -0,591
391,227; 7407,892;   -0,523;   -0,045
391,819; 7505,513;    0,204;    0,773
392,410; 7572,588;    1,022;    0,045
393,001; 7505,483;   -0,979;   -1,591
393,593; 7792,308;    1,930;   -0,045
394,184; 7653,491;    1,385;   -0,409
394,775; 7588,800;    1,839;    2,136
395,366; 7779,153;    1,385;    0,773
395,957; 7756,266;    0,113;    0,136
396,548; 8022,291;   -0,342;    2,682
397,139; 8346,385;   -2,433;    0,591
397,730; 8097,476;   -1,888;    0,955
398,321; 8156,038;   -1,252;    0,955
398,912; 8173,742;   -0,615;    0,136
399,503; 8262,856;   -3,524;   -1,409
400,094; 7697,777;    0,294;    1,682
400,685; 7585,143;   -0,433;    0,045
401,276; 7627,653;    0,930;   -0,955
401,867; 7915,828;   -0,888;    0,773
402,458; 8016,612;   -2,251;   -2,318
403,048; 8001,769;    1,112;    0,591
403,639; 7627,903;    0,840;    0,864
404,230; 7874,809;    2,476;    0,318
404,821; 7806,037;   -0,615;    0,045
405,411; 7915,695;    1,203;   -2,591
406,002; 7500,991;   -1,252;   -1,136
406,592; 7364,012;    2,294;    0,045
407,183; 7649,554;    0,566;   -1,500
407,774; 7552,828;    3,475;   -0,136
408,364; 7859,938;    0,930;    0,409
408,954; 7480,774;    0,384;    1,227
409,545; 7525,669;    1,021;    1,045
410,135; 7046,885;    1,293;    0,500
410,726; 7206,958;    1,838;    0,318
411,316; 7564,220;    0,111;    0,773
411,906; 7216,532;   -0,253;   -0,409
412,497; 6725,944;   -1,070;   -0,045
413,087; 7287,926;   -1,980;   -0,227
413,677; 7630,263;   -0,707;    3,864
414,267; 7459,122;    0,656;    1,409
414,857; 7453,422;   -2,980;    4,227
415,448; 7711,707;    0,839;    0,500
416,038; 7391,125;    0,020;   -0,591
416,628; 7307,977;   -0,889;    0,409
417,218; 6804,735;    0,565;    3,318
417,808; 7058,307;    0,202;   -0,409
418,398; 7471,525;    0,020;    2,682
418,988; 7429,334;    2,020;    0,591
419,578; 7603,803;   -0,707;    1,409
420,168; 7908,450;   -1,343;   -0,955
420,757; 7491,194;   -1,343;   -1,500
421,347; 7154,977;    0,111;   -0,227
421,937; 7273,723;    2,292;    1,409
422,527; 7234,145;    0,838;   -0,773
423,116; 7039,098;   -0,253;   -0,045
423,706; 7285,760;   -1,889;    0,318
424,296; 7217,660;    1,384;    0,682
424,885; 7607,751;   -0,071;   -3,045
425,475; 7837,455;    1,474;   -2,864
426,065; 7723,932;   -0,980;   -0,318
426,654; 7336,724;   -0,435;   -0,318
427,244; 7453,050;    0,020;    1,409
427,833; 6900,109;    1,383;   -0,500
428,423; 7288,461;   -0,526;    1,136
429,012; 7948,764;   -0,344;   -1,136
429,601; 7457,949;   -1,344;    0,136
430,191; 7626,228;    1,292;    4,318
430,780; 7250,439;   -0,344;   -0,409
431,369; 7194,408;    0,746;   -0,045
431,959; 7711,826;   -1,254;    0,500
432,548; 7448,962;   -1,163;   -0,045
433,137; 7501,924;   -1,254;   -1,318
433,726; 7937,975;    0,292;    0,500
434,315; 7356,802;   -0,526;    2,409
434,905; 7420,648;   -1,254;    1,409
435,494; 7309,045;    0,746;    0,955
436,083; 7658,784;   -0,981;   -0,955
436,672; 7481,383;    0,110;    0,500
437,261; 7082,722;    0,292;   -1,955
437,850; 7167,009;    1,383;    0,682
438,439; 7105,415;    3,291;    1,955
439,027; 6913,087;    3,655;    1,773
439,616; 7173,572;    2,927;    1,227
440,205; 6945,273;    0,200;   -2,136
440,794; 6912,503;    2,109;   -0,045
441,383; 7072,947;   -1,346;   -0,591
441,971; 6885,929;   -2,436;    0,591
442,560; 6658,886;    0,563;   -1,773
443,149; 6400,721;    0,379;   -1,318
443,737; 6479,439;   -0,074;   -2,318
444,326; 6644,536;    0,018;    0,318
444,915; 6598,909;   -1,982;    0,864
445,503; 6847,314;   -2,891;   -0,318
446,092; 6223,259;    0,382;    2,136
446,680; 6602,962;    0,382;    0,318
447,269; 6658,516;   -0,346;   -0,318
447,857; 6425,242;    0,018;   -1,773
448,445; 6444,123;    0,563;    1,318
449,034; 6550,492;   -1,528;   -1,136
449,622; 6504,223;   -1,073;    3,500
450,210; 6003,961;    2,017;    2,227
450,799; 6363,174;    0,290;   -0,591
451,387; 6196,150;    1,381;   -0,591
451,975; 5879,283;    2,654;    0,864
452,563; 5964,625;    3,472;    2,318
453,151; 5855,482;   -0,528;   -1,227
453,739; 5731,997;   -1,347;    0,136
454,328; 5632,453;    2,381;   -2,136
454,916; 5363,374;    2,562;   -0,136
455,504; 5441,793;    1,017;    1,227
456,092; 5502,676;    0,017;   -1,591
456,679; 5379,385;    1,472;    0,682
457,267; 5497,565;    4,017;    1,045
457,855; 5416,678;    1,017;    1,409
458,443; 5082,330;   -0,165;    1,682
459,031; 5269,627;    0,108;    2,409
459,619; 5519,083;   -1,801;    2,864
460,206; 5473,700;    0,835;    2,045
460,794; 5505,340;   -2,983;   -0,227
461,382; 5621,506;   -0,529;   -0,864
461,970; 5290,806;    1,198;    1,864
462,557; 5286,919;   -0,711;   -0,682
463,145; 5394,293;   -3,165;   -1,682
463,732; 5498,618;    2,016;   -1,045
464,320; 5304,847;   -0,075;   -3,045
464,907; 5102,503;    2,743;   -0,773
465,495; 4945,140;    0,743;   -1,227
466,082; 4988,048;   -1,984;   -0,045
466,670; 4827,702;   -2,529;    1,227
467,257; 5119,019;   -1,711;    2,045
467,844; 5232,728;   -0,075;    0,045
468,432; 5196,050;    0,834;    3,500
469,019; 4838,507;    0,925;   -1,773
469,606; 5051,949;    0,470;    3,682
470,193; 4931,169;   -1,439;    0,227
470,780; 4673,098;   -2,075;    0,864
471,368; 4789,301;   -1,257;   -0,773
471,955; 4583,079;    1,379;   -0,682
472,542; 4282,318;    0,652;   -1,136
473,129; 4340,347;   -0,166;    0,136
473,716; 4135,557;    1,470;    0,591
474,303; 4156,384;    0,652;   -0,864
474,890; 4250,080;   -1,439;   -0,500
475,477; 4283,288;   -1,621;    0,409
476,064; 4112,327;    1,106;   -1,591
476,650; 3937,301;    0,288;    0,318
477,237; 3754,029;   -0,258;    0,955
477,824; 3770,724;   -1,076;    0,864
478,411; 3625,342;   -1,894;   -0,318
478,997; 3660,172;    0,560;   -0,773
479,584; 3554,910;    1,196;   -0,409
480,171; 3935,130;   -0,440;   -0,773
480,757; 3772,009;    2,651;    0,773
481,344; 3700,289;    0,469;    0,409
481,931; 3308,527;    1,105;    1,045
482,517; 3729,648;   -1,258;    0,318
483,104; 3828,242;    1,106;    2,864
483,690; 3785,165;   -1,804;    0,045
484,276; 3751,658;   -0,895;    0,227
484,863; 3726,964;    2,469;    1,136
485,449; 3758,648;   -0,077;    0,318
486,035; 3619,516;   -1,986;   -0,136
486,622; 3848,695;   -0,895;    0,045
487,208; 3690,180;    1,378;    1,500
487,794; 3584,387;    0,741;    0,318
488,380; 3615,787;    0,105;   -1,409
488,967; 3577,961;   -1,168;   -0,409
489,553; 3598,012;   -1,895;   -1,409
490,139; 3736,989;    1,559;    0,773
490,725; 3512,011;    0,741;   -0,227
491,311; 3365,321;    3,287;    3,045
491,897; 3119,607;   -0,986;    1,500
492,483; 3202,038;    0,105;    1,227
493,069; 3724,957;    3,923;    0,864
493,655; 3400,892;    1,650;    0,682
494,241; 3358,928;    1,377;   -0,955
494,826; 3616,917;    0,287;   -1,045
495,412; 3442,039;    2,559;   -0,682
495,998; 3594,540;   -0,805;   -0,318
496,584; 3667,695;    0,377;    1,045
497,169; 3712,349;    1,014;   -0,682
497,755; 3841,114;    0,650;    1,227
498,341; 4427,981;    0,559;    0,318
498,926; 4388,839;    1,832;    1,955
499,512; 4542,405;    1,286;    2,955
500,097; 4684,253;    0,195;   -0,318
500,683; 4902,199;   -0,350;    2,136
501,268; 5345,149;   -0,169;   -0,955
501,854; 5431,080;   -0,169;    1,227
502,439; 5592,023;   -0,624;   -1,773
503,024; 5933,993;    0,195;    0,500
503,610; 6213,648;   -0,078;   -0,682
504,195; 6438,274;    0,558;    1,955
504,780; 6833,622;    2,922;    1,227
505,366; 7032,504;    3,013;    2,864
505,951; 7083,467;    0,740;    1,045
506,536; 7373,563;   -3,260;   -3,682
507,121; 7595,814;    0,285;   -0,318
507,706; 8277,009;    2,376;    1,045
508,291; 8844,471;    2,649;    1,136
508,876; 8641,566;   -0,988;    2,591
509,461; 8468,745;   -0,169;   -0,773
510,046; 9075,123;    0,194;    0,318
510,631; 9567,320;   -0,351;   -0,773
511,216; 9488,987;    2,467;   -0,500
511,801;10027,817;   -0,442;    2,591
512,386;10499,233;    0,740;    0,500
512,971;10627,631;   -2,988;    0,955
513,555;10419,241;   -0,897;   -1,500
514,140;11377,577;   -0,442;   -3,136
514,725;11545,597;   -0,715;   -1,136
515,309;11797,479;   -0,533;    0,318
515,894;11461,352;   -0,624;   -2,227
516,479;12064,306;   -0,624;   -0,955
517,063;12001,629;    0,376;    1,227
517,648;12254,102;    1,012;   -1,136
518,232;12019,989;   -0,261;   -1,409
518,817;12473,966;   -0,079;    1,682
519,401;12775,816;    2,194;    0,591
519,985;12359,417;    1,103;    1,136
520,570;12307,438;    0,830;   -1,955
521,154;12705,833;    2,102;    0,591
521,738;12943,139;   -2,352;    2,409
522,323;13541,078;   -0,170;    1,682
522,907;13363,185;    0,466;   -0,136
523,491;13128,198;    0,557;    0,955
524,075;13182,448;    2,284;    0,591
524,659;13285,495;    1,466;    0,591
525,243;12774,272;    1,739;    0,409
525,827;13075,512;    0,648;   -0,045
526,411;13977,313;   -1,989;   -0,136
526,995;14212,326;   -0,352;    1,409
527,579;13824,855;   -0,443;   -1,045
528,163;14149,867;    0,375;   -1,500
528,747;14106,208;    2,466;   -0,773
529,331;14425,127;   -0,080;   -1,409
529,915;14654,090;    1,738;    0,955
530,499;14628,694;   -0,807;    1,227
531,082;14329,664;   -0,534;    1,591
531,666;13793,833;    1,374;    0,773
532,250;14459,731;    1,284;    2,682
532,833;14853,597;    0,920;    2,773
533,417;14687,274;   -1,807;    0,864
534,001;14718,845;    1,647;   -0,318
534,584;15427,516;    0,374;    0,500
535,168;15242,871;    0,465;    1,409
535,751;15336,869;    0,647;    0,045
536,334;14768,909;   -0,898;   -0,409
536,918;15349,746;    0,011;    1,591
537,501;15507,899;   -0,899;    1,318
538,085;15523,749;   -0,444;    1,045
538,668;15652,181;    0,829;    2,409
539,251;15977,249;    1,829;    3,773
539,834;15982,958;    0,101;    0,773
540,418;15939,024;   -1,990;    4,318
541,001;16050,229;   -0,990;    1,773
541,584;16058,316;    2,101;    2,227
542,167;15776,710;    1,374;    2,955
542,750;15919,873;    1,919;   -0,773
543,333;15486,170;    0,555;    2,136
543,916;16280,195;    0,192;    2,500
544,499;16910,662;   -1,354;    0,227
545,082;16894,098;    1,374;    3,591
545,665;17052,912;    1,919;    1,500
546,248;17439,625;    1,010;   -0,318
546,830;17078,752;   -0,445;    1,955
547,413;17509,005;    1,010;   -0,773
547,996;18041,031;    0,555;    0,500
548,579;17753,893;    0,919;    0,955
549,161;17626,057;    1,828;    2,682
549,744;17381,919;   -0,809;    0,409
550,326;17884,928;   -0,809;   -1,136
550,909;17691,504;    2,737;    0,591
551,492;18090,992;   -0,263;    0,227
552,074;17886,572;   -0,173;   -1,318
552,657;18426,544;    2,373;    0,045
553,239;18168,385;   -0,173;   -0,773
553,821;18073,750;   -1,082;    1,045
554,404;17607,781;    1,282;    1,136
554,986;17998,834;    0,464;    1,045
555,568;18603,947;    1,191;   -0,955
556,151;17830,016;    1,191;   -0,227
556,733;18043,085;   -0,264;   -0,864
557,315;18469,046;    0,100;    0,500
557,897;18269,178;    0,554;   -0,500
558,479;18386,855;   -1,991;    1,318
559,061;18517,989;   -0,719;   -0,864
559,643;18840,349;   -0,264;    0,045
560,225;19295,656;    1,645;    2,864
560,807;19291,894;    0,918;    0,318
561,389;18755,799;    0,554;    2,318
561,971;19521,786;    0,463;    2,136
562,553;19326,116;   -1,628;    1,591
563,135;19442,043;   -0,537;    1,136
563,717;19048,098;    3,372;    1,136
564,298;19783,538;    3,645;   -0,045
564,880;19531,698;    0,645;   -1,409
565,462;19708,971;    0,645;    1,318
566,043;20857,765;   -0,446;    2,318
566,625;20352,578;    1,918;    1,227
567,207;20189,659;    1,099;    1,682
567,788;21344,317;   -1,264;    1,500
568,370;22188,215;    1,917;   -0,500
568,951;21997,771;    0,190;    0,227
569,533;22908,369;   -0,628;   -0,500
570,114;23340,927;   -0,446;    0,682
570,695;23849,101;   -0,174;   -1,318
571,277;24353,428;   -0,265;   -1,682
571,858;25096,142;    2,008;   -1,136
572,439;26073,689;    1,554;   -1,045
573,021;26266,502;    2,099;   -2,773
573,602;26722,444;   -1,265;    0,318
574,183;27660,652;   -2,083;    2,227
574,764;27767,425;   -1,629;    0,409
575,345;28335,475;    0,917;   -0,136
575,926;28937,363;   -0,356;    0,136
576,507;28936,076;    1,099;   -0,227
577,088;30083,408;    3,099;    1,682
577,669;30066,279;    0,735;    1,955
578,250;30836,016;    0,644;   -1,045
578,831;31498,863;   -1,356;   -2,227
579,412;31801,256;   -0,810;    0,955
579,993;32680,238;    1,008;    0,227
580,573;33059,002;   -0,629;   -0,955
581,154;31985,588;    0,735;   -0,591
581,735;32853,698;    0,644;    0,773
582,315;32363,516;   -0,629;    2,136
582,896;32627,880;   -0,174;    1,227
583,477;32081,714;    0,189;    1,227
584,057;32367,570;    0,553;    0,955
584,638;32608,329;    2,553;    2,318
585,218;32618,925;   -0,538;    2,682
585,799;32752,284;    0,281;   -0,227
586,379;32701,317;    0,372;    1,591
586,959;31449,352;    0,735;    0,318
587,540;30782,936;   -0,629;    2,227
588,120;30359,729;    1,007;   -0,045
588,700;29312,022;    2,553;    2,136
589,281;29613,211;    0,462;   -0,955
589,861;29502,269;    0,099;   -1,682
590,441;29372,311;    2,371;   -2,682
591,021;28390,234;   -0,265;   -2,591
591,601;28591,409;   -0,537;    0,500
592,181;28564,241;   -0,719;   -0,773
592,761;27852,872;    0,007;    1,409
593,341;27786,043;   -0,901;    0,045
593,921;27787,467;   -0,265;    1,591
594,501;27709,839;   -0,538;    1,318
595,081;27525,672;    0,917;   -0,318
595,661;27861,962;   -1,447;    0,955
596,240;28423,531;   -0,537;    0,136
596,820;28056,842;    0,372;    1,955
597,400;28221,435;    2,008;    0,773
597,980;28430,255;    2,008;    1,045
598,559;28462,512;    2,735;   -0,227
599,139;28160,267;   -0,174;   -1,227
599,718;28012,994;   -0,174;   -0,409
600,298;28329,726;    0,735;    0,682
600,877;28579,177;    2,917;    1,409
601,457;28827,670;    2,281;    1,136
602,036;28733,041;    0,190;    2,045
602,616;28969,523;    0,644;    1,682
603,195;29256,393;   -0,355;    3,500
603,774;28858,024;   -0,901;    2,045
604,354;28715,910;    0,826;   -0,500
604,933;28203,941;    0,463;    1,864
605,512;28290,892;    3,554;    0,591
606,091;28346,693;   -0,537;    3,773
606,671;29175,824;    0,281;    0,773
607,250;28276,015;    1,644;    3,136
607,829;28545,094;    2,372;    3,227
608,408;28419,198;    1,190;    2,591
608,987;27427,241;    1,281;    3,409
609,566;27667,694;   -1,265;   -2,500
610,145;27827,137;   -1,082;    0,682
610,723;28241,732;    4,372;    6,864
611,302;27516,656;   -0,446;    1,682
611,881;26969,873;    5,008;   11,227
612,460;27772,400;    1,645;    3,955
613,039;28264,979;   -0,082;    2,045
613,617;26950,507;    1,736;    4,773
614,196;27199,250;    1,099;    1,227
614,775;27527,575;    1,009;    2,409
615,353;27464,858;    0,736;    0,864
615,932;27189,112;    0,100;    2,409
616,510;27749,116;    0,554;    0,591
617,089;27283,366;    7,100;   17,591
617,667;27029,480;    2,372;    6,136
618,246;26880,277;   -1,537;    1,318
618,824;27005,081;   -3,355;   -0,955
619,402;26565,085;   -2,900;   -1,773
619,981;27133,664;   -0,173;   -1,045
620,559;26974,410;    0,009;    1,682
621,137;26477,314;   -0,718;    1,864
621,715;26513,364;   -1,173;   -0,682
622,293;26407,550;   -0,537;   -0,773
622,871;26850,318;   -0,718;    0,500
623,450;26440,034;    0,373;   -0,864
624,028;26316,619;    0,191;   -0,955
624,606;25999,238;   -1,718;    1,682
625,183;26416,417;   -1,536;   -1,136
625,761;26010,594;    1,009;    1,136
626,339;26303,683;    1,373;    2,591
626,917;26669,864;   -0,172;   -0,045
627,495;26712,273;   -0,354;    1,318
628,073;26094,965;   -0,263;    2,864
628,650;25853,858;    0,100;    2,136
629,228;26268,684;    0,373;    4,409
629,806;25650,685;    2,282;    1,136
630,383;25931,487;    1,464;   -0,318
630,961;25730,717;    2,555;   -0,955
631,539;25475,537;    2,464;    0,227
632,116;24788,172;   11,373;   15,409
632,694;25389,314;    2,555;    6,500
633,271;25740,567;    0,828;    2,682
633,848;25658,084;    1,828;    2,045
634,426;25682,581;   -1,081;    1,773
635,003;24754,116;    1,101;   -0,409
635,580;25072,916;    1,192;    3,682
636,158;25660,009;    3,737;    1,227
636,735;25671,235;    0,555;   -0,500
637,312;25774,074;   -0,809;   -0,682
637,889;25851,072;   -4,354;   -0,682
638,466;25335,799;   -3,990;   -0,409
639,043;25357,974;    2,101;   -1,136
639,620;25700,119;   -2,262;   -0,955
640,197;26007,157;    1,100;    1,682
640,774;26114,486;   -0,172;    1,136
641,351;26531,543;    0,737;    1,136
641,928;25969,781;   -0,627;    1,409
642,505;25568,019;    0,828;   -0,500
643,082;25740,075;   -1,718;    1,227
643,658;24725,041;   -0,718;    1,500
644,235;25538,643;    1,191;    2,500
644,812;25829,881;    1,918;    0,773
645,388;25524,665;   -0,991;    1,409
645,965;25606,539;   -0,809;    1,682
646,542;25670,595;   -1,445;   -0,227
647,118;25650,561;    1,009;   -0,955
647,695;26000,890;   -0,263;    1,136
648,271;25874,765;   -0,536;    0,500
648,848;26179,821;    0,736;    2,227
649,424;26042,423;    0,827;    1,318
650,000;25765,843;   -0,354;   -1,045
650,577;25563,354;   -0,627;   -0,955
651,153;26062,410;   -1,809;    0,955
651,729;27121,921;    1,191;    0,864
652,305;27401,159;    0,645;    2,773
652,881;32049,852;   -0,082;    1,136
653,458;39050,999;    1,100;    0,227
654,034;42789,692;    0,282;    1,591
654,610;44184,021;    0,554;    0,773
655,186;45512,077;    0,645;    3,045
655,762;45110,770;   -0,991;    0,409
656,338;45128,645;    0,100;    0,136
656,913;46101,428;   -0,082;    0,409
657,489;45336,485;    0,827;   -0,318
658,065;45308,268;   -0,173;   -1,591
658,641;45930,597;   -0,900;   -0,864
659,217;45215,108;   -0,991;    0,409
659,792;44551,528;    0,645;   -0,409
660,368;44783,585;   -2,173;   -0,682
660,944;44377,277;   -2,082;    1,227
661,519;39688,152;   -0,628;    0,409
662,095;33692,663;   -1,719;    0,591
662,670;29180,083;    1,281;   -0,136
663,246;28033,503;    1,009;   -0,409
663,821;27363,196;    0,281;    1,682
664,396;26849,343;    0,009;    1,864
664,972;27096,672;    0,009;   -0,500
665,547;27401,274;    1,372;    0,136
666,122;27444,967;   -1,082;    0,318
666,698;27783,023;   -0,173;    0,318
667,273;27138,988;   -0,173;    0,136
667,848;27947,863;    2,372;    1,500
668,423;27744,556;    2,190;    2,318
668,998;28234,885;    2,827;   -0,682
669,573;28785,941;   -3,264;   -1,500
670,148;28618,634;   -1,446;   -0,682
670,723;28400,781;   -1,810;    0,318
671,298;28862,747;    2,372;    1,045
671,873;29004,076;   -0,082;   -0,136
672,448;28937,950;    0,645;    0,136
673,023;29286,825;   -1,992;   -0,227
673,597;29617,063;    0,827;    2,318
674,172;29417,665;   -0,355;    0,318
674,747;28873,630;    0,372;   -1,045
675,321;28695,868;   -0,628;    3,318
675,896;28279,834;    0,645;    1,045
676,471;29315,708;    2,645;    1,591
677,045;29018,128;   -1,264;    0,682
677,620;29111,639;    0,190;    1,136
678,194;29442,241;   -2,628;    1,136
678,769;29000,207;   -1,083;   -0,318
679,343;29234,263;   -0,628;    1,773
679,917;29123,501;   -1,446;    1,955
680,492;29159,830;    0,826;    3,227
681,066;29329,614;    3,372;    0,409
681,640;29348,216;    1,463;   -0,318
682,214;30193,090;    0,735;    0,500
682,788;29712,147;   -1,356;   -0,773
683,363;29676,930;   -1,810;    1,682
683,937;29367,532;   -1,719;   -0,318
684,511;30114,316;    0,463;   -0,591
685,085;29879,463;   -1,356;    0,318
685,659;29592,883;   -2,538;    0,864
686,232;29873,030;   -0,356;   -0,318
686,806;29568,723;   -0,901;    0,409
687,380;30159,416;   -0,174;    0,591
687,954;30414,200;   -1,174;    1,136
688,528;30098,620;   -0,719;    1,955
689,101;30917,858;   -3,992;    1,045
689,675;30498,187;   -0,356;   -0,136
690,249;29848,334;   -0,719;    0,409
690,822;30171,209;    0,280;    0,318
691,396;30232,720;   -0,265;    1,227
691,969;29719,958;    1,280;    0,136
692,543;30168,196;   -0,447;   -1,955
693,116;29870,889;   -0,265;   -1,409
693,690;29727,127;    0,099;    0,500
694,263;30247,910;   -1,083;    2,955
694,836;30246,967;    1,371;    3,591
695,410;28895,569;   -0,265;    1,773
695,983;29395,080;    0,189;    0,591
696,556;29343,318;   -0,447;   -1,045
697,129;29791,192;   -0,356;    1,409
697,703;29415,158;   -1,629;    1,955
698,276;29403,123;    1,462;   -0,773
698,849;29212,634;    1,280;    1,409
699,422;29544,054;   -1,083;    0,591
699,995;29238,020;    0,007;    0,136
700,568;29742,258;   -0,629;    3,045
701,140;29756,860;   -2,811;    1,682
701,713;29455,280;   -0,174;    2,409
702,286;29254,881;   -0,538;    0,864
702,859;29105,483;   -0,902;   -0,591
703,432;28260,176;    0,825;    0,682
704,004;28760,051;    0,462;    0,318
704,577;28638,107;   -0,629;    0,136
705,150;29262,982;    0,189;    2,500
705,722;28972,947;   -0,356;   -3,227
706,295;28731,549;   -0,175;   -0,591
706,867;28599,151;   -0,175;    1,955
707,440;28864,298;   -1,720;   -0,409
708,012;29112,900;    0,462;    0,591
708,584;29069,320;    2,462;    0,227
709,157;29329,285;    1,825;   -0,591
709,729;28951,523;    2,280;    2,045
710,301;29847,216;    0,734;    0,045
710,874;29813,272;   -1,447;   -0,227
711,446;28676,420;    0,371;    0,864
712,018;28544,840;    0,098;    0,500
712,590;28318,623;   -1,993;    1,682
713,162;28813,043;    0,825;    1,318
713,734;29046,373;    1,825;   -2,045
714,306;28988,156;   -1,902;   -0,409
714,878;27680,485;    0,825;    0,864
715,450;28520,542;    0,643;    0,864
716,022;28786,598;    1,552;    1,318
716,593;28873,018;    0,189;    0,591
717,165;28801,983;   -3,175;   -1,227
717,737;28550,585;    0,280;    0,409
718,309;28213,914;    0,280;   -0,045
718,880;28136,334;   -0,539;   -1,409
719,452;28368,754;   -0,175;   -1,591
720,024;27982,174;    0,734;   -0,591
720,595;28530,958;   -2,902;    0,955
721,167;28112,651;    0,370;   -2,045
721,738;27632,343;   -0,812;   -1,045
722,309;27615,036;   -0,993;   -1,227
722,881;27361,002;   -1,357;    0,773
723,452;28006,422;   -2,630;    2,864
724,023;28134,114;   -0,721;    2,682
724,595;27896,444;    0,007;    0,682
725,166;27673,227;    0,007;   -0,409
725,737;27368,829;    1,734;    0,227
726,308;27478,794;   -0,266;    0,318
726,879;27914,851;   -1,630;    1,227
727,450;27744,544;    0,552;   -0,045
728,021;27700,964;    3,097;    0,682
728,592;27503,565;    0,734;    0,500
729,163;27808,531;    0,643;   -0,136
729,734;27825,042;    0,188;   -0,227
730,305;28183,553;    1,734;    0,136
730,876;28521,518;    0,188;    2,955
731,447;28288,211;    2,188;    2,682
732,017;28359,722;    1,097;    1,864
732,588;27826,505;    0,734;    1,227
733,159;28045,380;    0,643;   -1,045
733,729;27877,891;    0,006;    0,409
734,300;27129,493;    0,915;    0,864
734,870;27577,822;    3,461;    0,591
735,441;28124,605;    0,370;   -0,591
736,011;27903,207;    0,643;   -1,591
736,582;27832,355;   -0,812;    0,045
737,152;27333,684;   -1,721;   -2,045
737,722;27746,195;   -0,267;   -0,682
738,293;27449,978;   -1,358;    1,318
738,863;27326,307;    2,461;    2,318
739,433;27169,364;    5,279;    0,318
740,003;27765,875;   -0,994;   -0,682
740,573;27177,567;    2,097;   -1,591
741,143;27151,260;   -1,085;    0,318
741,713;27928,044;    1,188;   -0,500
742,283;27621,736;    0,915;    1,591
742,853;27396,429;    1,915;    1,591
743,423;26824,031;    1,733;    0,045
743,993;26987,542;   -0,358;    1,500
744,563;26350,235;    0,097;   -0,864
745,133;26309,473;   -0,812;   -0,864
745,702;26998,347;   -0,267;    1,773
746,272;26232,313;   -0,176;    0,591
746,842;25990,187;   -1,358;   -0,591
747,411;26391,880;   -0,267;   -0,318
747,981;26564,664;    0,097;    0,500
748,551;26594,175;    2,278;   -1,045
749,120;26461,686;    0,642;   -0,227
749,690;26861,106;   -0,631;    2,409
750,259;27170,344;    1,369;    2,955
750,828;27028,127;    1,551;   -1,955
751,398;27346,820;    1,278;   -0,045
751,967;26859,240;    2,187;    0,409
752,536;27013,387;   -0,813;   -0,227
753,105;27490,080;    0,096;    0,227
753,675;27315,046;    0,096;    1,773
754,244;27256,375;   -0,904;    3,591
754,813;27272,249;    0,551;    1,227
755,382;26881,578;    0,460;    0,955
755,951;27451,453;    1,551;    3,682
756,520;26951,691;   -0,085;    1,864
757,089;27464,838;    0,278;    0,500
757,658;27621,440;    1,733;    1,227
758,227;27644,588;    1,096;    0,318
758,795;27925,371;    1,187;    1,136
759,364;28156,609;   -0,086;   -0,591
759,933;27143,302;   -1,176;   -0,045
760,501;26686,449;    0,733;   -1,318
761,070;27190,869;   -2,813;   -1,409
761,639;27912,744;   -1,904;    1,318
762,207;27245,891;    1,551;   -0,955
762,776;27179,948;    0,369;    0,864
763,344;27097,913;   -0,995;    0,591
763,913;26210,788;   -0,722;    1,409
764,481;26966,571;    1,005;   -0,136
765,049;26729,718;   -1,358;    1,409
765,618;26617,775;   -0,086;    0,318
766,186;26672,740;    0,278;    0,136
766,754;26869,433;    0,005;    1,864
767,322;25885,671;   -1,995;    0,409
767,890;25929,819;   -0,722;   -1,773
768,459;26339,693;   -2,177;   -0,318
769,027;26545,568;    1,641;    3,409
769,595;25489,897;    3,278;    2,591
770,163;25971,499;    3,823;    2,955
770,730;25700,464;    0,732;   -0,136
771,298;25489,339;    0,187;   -1,409
771,866;25583,940;   -1,541;    4,955
772,434;25944,360;   -0,631;   -1,864
773,002;26120,962;    0,005;    0,682
773,569;25734,746;    0,914;    1,682
774,137;25526,711;   -0,268;   -0,045
774,705;26319,768;    0,278;   -0,136
775,272;25835,006;    0,641;    0,682
775,840;25590,426;   -0,177;    2,682
776,407;25168,482;    0,277;    1,955
776,975;24761,720;   -0,632;    0,318
777,542;25741,231;   -1,086;   -0,045
778,110;25536,470;   -1,268;   -0,045
778,677;25228,162;   -2,359;   -0,864
779,244;24990,128;    2,186;    1,045
779,812;25119,184;    1,823;    0,864
780,379;24977,513;    0,005;    1,136
780,946;25220,024;    1,005;   -0,773
781,513;25559,353;   -1,450;    0,318
782,080;24935,046;   -0,086;    2,864
782,647;25631,648;   -0,268;    3,045
783,214;25245,795;   -0,177;    3,864
783,781;24873,215;   -0,723;   -0,682
784,348;24738,544;   -0,632;    1,500
784,915;25189,328;   -3,177;    0,318
785,482;24953,839;    1,368;    2,591
786,049;25384,713;    0,186;   -0,591
786,615;25477,497;    0,277;   -0,955
787,182;25183,099;    0,186;   -0,682
787,749;24903,882;   -2,814;    1,409
788,315;24244,484;   -1,632;   -0,409
788,882;24503,086;    1,550;   -1,227
789,448;25240,233;    1,732;   -0,955
790,015;25276,108;    1,095;    3,227
790,581;24795,437;    1,459;    0,227
791,148;24695,221;    0,641;    1,045
791,714;24962,550;   -0,541;    3,136
792,280;24642,970;    0,186;    1,591
792,847;24206,026;    0,550;    2,500
793,413;24742,264;   -0,269;   -0,318
793,979;24267,866;    3,459;   -1,318
794,545;24390,832;    4,459;    2,682
795,111;23801,615;    2,186;    1,318
795,678;23924,490;    0,731;   -1,682
796,244;23587,182;    3,368;    0,136
796,810;24125,966;    1,731;    0,773
797,375;23799,659;    0,549;   -2,136
797,941;23898,261;   -0,541;    0,591
798,507;24057,226;   -0,451;   -0,955
799,073;23567,737;   -0,360;    0,591
799,639;23631,339;   -2,632;    3,136
800,205;23683,668;    0,095;    2,682
800,770;23177,633;    0,640;    1,773
801,336;23325,417;    1,368;   -0,955
801,901;22984,837;    4,549;    3,136
802,467;23561,166;   -0,542;    2,045
803,033;22901,859;   -0,087;    0,864
803,598;23131,733;    1,913;   -1,045
804,163;23148,244;    1,095;   -0,318
804,729;23108,846;   -0,178;    1,136
805,294;23540,721;    0,822;    2,227
805,859;23349,504;    0,731;   -0,409
806,425;22820,288;    1,186;    2,682
806,990;22441,072;    2,186;    4,318
807,555;22945,037;   -1,451;    2,591
808,120;22799,184;    0,822;   -0,409
808,685;22834,968;    0,185;   -2,500
809,250;22310,024;    0,004;   -0,500
809,815;22652,081;    1,913;    0,682
810,380;23200,864;   -0,269;    1,591
810,945;23739,648;   -1,087;    2,045
811,510;22914,886;    2,094;    1,591
812,075;22625,579;   -0,633;   -1,409
812,640;22590,363;    2,003;    1,409
813,204;22689,964;    0,822;   -0,227
813,769;23198,475;    2,094;   -0,045
814,334;22596,077;    0,458;    0,864
814,898;22628,679;    0,367;    0,591
815,463;22522,099;    1,276;   -0,773
816,027;22496,064;   -0,724;   -2,318
816,592;22586,394;    0,640;   -2,045
817,156;22130,814;    2,094;    1,136
817,721;21954,052;    4,276;    2,318
818,285;21912,835;    2,912;    1,500
818,849;22529,255;   -1,451;    1,682
819,414;22421,857;   -0,269;    2,955
819,978;22017,095;   -1,269;    1,773
820,542;22575,152;    2,003;    0,500
821,106;22329,935;   -0,815;    0,682
821,670;22420,719;   -0,815;    2,591
822,234;22142,048;   -0,270;    1,409
822,798;21490,195;    0,003;    0,500
823,362;21437,161;   -0,633;    4,227
823,926;20759,945;    0,094;    1,136
824,490;21019,819;   -0,997;   -0,682
825,054;21466,603;   -0,088;   -1,136
825,618;21078,568;   -1,542;   -1,500
826,181;21025,806;    0,458;   -1,318
826,745;20971,499;    1,367;   -1,045
827,309;21314,555;    1,185;    1,318
827,872;20685,612;    1,367;    0,955
828,436;21656,396;    1,185;   -0,773
828,999;21730,270;   -0,997;    1,227
829,563;20515,326;   -0,179;    1,136
830,126;20337,110;   -0,179;   -0,591
830,690;20349,348;   -1,997;    2,864
831,253;19847,132;   -0,543;    2,227
831,816;19977,097;   -1,906;    0,500
832,380;19928,972;    0,185;    0,864
832,943;20176,210;   -1,361;   -0,500
833,506;19639,266;    2,639;   -1,227
834,069;20419,868;    3,912;   -0,955
834,632;20494,470;    1,730;    1,318
835,195;20383,163;    1,003;    0,955
835,758;19594,128;   -0,997;    1,955
836,321;19476,457;    0,730;   -1,045
836,884;19554,968;   -0,725;   -0,955
837,447;19591,207;   -2,816;    1,773
838,010;19837,990;    0,366;    3,227
838,573;20152,774;   -1,179;    0,773
839,135;20057,830;   -1,361;   -0,955
839,698;19477,068;    1,275;    0,409
840,261;19005,397;    1,003;   -0,227
840,823;18871,090;   -0,543;    0,864
841,386;19169,510;   -0,452;   -2,409
841,948;19020,839;   -1,361;    1,773
842,511;18805,714;    0,912;    1,682
843,073;18927,952;    1,912;    0,227
843,636;18744,008;   -0,361;   -0,227
844,198;18656,337;    0,911;    0,591
844,760;18803,485;    1,093;    1,955
845,322;18415,632;    0,548;    1,136
845,885;18861,961;    0,730;    0,591
846,447;19309,745;   -1,998;    0,227
847,009;18923,165;    1,911;   -0,682
847,571;19216,676;    0,820;   -2,045
848,133;19327,550;   -1,089;   -1,864
848,695;19144,879;   -0,543;    1,409
849,257;18700,572;   -1,089;   -1,682
849,819;18882,447;   -0,998;   -0,409
850,381;18940,230;   -0,725;   -0,864
850,942;19292,014;    1,093;   -0,591
851,504;19264,161;    1,184;    0,227
852,066;19284,399;    1,275;   -1,591
852,628;18796,183;   -0,180;    1,955
853,189;18350,058;    1,638;    2,682
853,751;18489,387;   -0,907;    1,409
854,312;18249,443;   -0,453;   -1,682
854,874;18798,318;   -2,089;   -0,773
855,435;19321,465;   -0,907;   -1,682
855,997;19461,612;   -1,816;   -0,136
856,558;18741,941;    0,366;    1,773
857,119;18825,816;    0,820;    2,864
857,681;18518,963;    0,002;    0,318
858,242;18597,292;    1,911;   -2,136
858,803;19071,621;    0,456;   -0,773
859,364;19645,859;    0,184;   -4,773
859,925;18926,825;   -2,453;   -0,955
860,486;18828,245;   -0,453;   -0,955
861,047;18538,574;   -0,544;   -1,227
861,608;18350,903;   -1,089;   -0,773
862,169;18462,232;    0,638;   -0,045
862,730;18259,016;    0,456;    1,409
863,291;18490,254;   -0,635;   -0,500
863,852;18880,401;   -0,635;    1,955
864,412;18301,912;   -0,271;   -0,864
864,973;16868,332;   -0,089;    0,500
865,534;16770,843;   -1,726;    0,227
866,094;18267,263;    1,820;    0,227
866,655;17899,501;    1,274;    3,318
867,215;18202,649;    0,274;    0,136
867,776;18031,796;    0,547;   -0,136
868,336;18133,307;   -1,453;    0,136
868,897;17603,363;    2,638;    1,682
869,457;17332,329;    1,365;    0,318
870,017;17619,112;    0,547;   -1,227
870,578;18121,532;   -0,817;    0,773
871,138;17826,861;   -2,089;   -0,955
871,698;17336,009;   -0,817;   -1,318
872,258;17209,974;   -0,453;   -2,864
872,818;17637,303;    2,729;    0,045
873,378;17585,814;    0,638;    1,045
873,938;17080,598;    0,547;    0,500
874,498;17423,291;    0,274;   -1,955
875,058;17303,438;    2,183;    1,773
875,618;17159,949;    1,910;   -2,682
876,177;17098,914;    1,274;    0,136
876,737;16703,607;   -0,090;    1,955
877,297;16756,391;    0,183;    1,955
877,856;16719,083;   -0,362;    0,318
878,416;16688,958;    1,183;   -0,136
878,976;16932,287;   -1,817;    0,409
879,535;17116,616;    0,092;    3,136
880,095;16806,763;   -0,544;    0,045
880,654;16944,638;   -1,090;    1,318
881,213;17049,422;    2,456;    1,500
881,773;16683,205;    2,637;    2,682
882,332;17061,443;    3,365;    5,136
882,891;16896,318;    3,092;    2,136
883,451;17378,192;   -1,272;    1,682
884,010;16811,703;   -2,908;   -0,409
884,569;16889,123;   -0,999;   -0,045
885,128;17023,543;    2,819;   -1,864
885,687;17114,691;    4,455;    0,682
886,246;16797,656;    1,455;    2,136
886,805;16591,440;    2,455;    2,045
887,364;16840,860;   -0,999;   -0,500
887,922;17244,643;   -1,181;    0,045
888,481;16712,791;   -1,545;    0,591
889,040;17021,938;    1,183;    2,136
889,599;17729,631;    2,455;    1,409
890,157;17765,596;    1,455;    2,409
890,716;17405,653;   -0,090;    0,227
891,274;17224,800;    0,092;   -1,136
891,833;17692,493;    1,546;    0,864
892,391;17547,822;   -0,454;    0,500
892,950;17626,060;    1,819;   -0,773
893,508;18014,389;    0,455;   -0,409
894,067;17348,718;    0,637;    0,136
894,625;17253,865;   -0,636;   -1,500
895,183;17501,922;   -0,363;   -0,682
895,741;17382,796;    1,728;   -1,773
896,299;17172,216;   -0,545;   -2,409
896,858;17388,363;    0,819;   -1,591
897,416;17562,602;    2,728;   -1,318
897,974;17278,113;    1,819;    0,318
898,532;17436,714;    6,091;    2,682
899,089;17311,134;    2,091;   -0,682
899,647;17386,464;   -1,454;    1,318
900,205;17077,884;    1,182;    1,045
900,763;17276,304;   -0,454;    0,227
901,321;17215,724;    2,364;   -1,409
901,878;16638,871;   -1,000;   -0,773
902,436;16568,836;   -1,363;    1,318
902,994;16974,802;    4,728;    3,682
903,551;16359,040;    0,728;    0,409
904,109;16779,369;    0,182;   -1,409
904,666;16336,062;    2,455;    1,045
905,224;16180,754;    0,182;   -0,409
905,781;15926,629;    0,727;   -0,318
906,338;16005,594;   -1,363;    1,045
906,895;15941,924;    0,637;    2,045
907,453;15833,980;    1,727;    1,136
908,010;15884,945;   -0,909;    0,409
908,567;15524,002;    1,273;    0,591
909,124;15014,604;    0,364;   -1,500
909,681;15121,296;   -2,909;    0,682
910,238;15255,625;    0,636;   -1,318
910,795;15594,864;   -0,273;   -1,136
911,352;15201,045;   -2,909;   -2,682
911,909;14629,955;   -1,364;   -0,864
912,466;15120,318;   -3,182;    1,500
913,022;14672,682;   -1,636;    0,500
913,579;15039,864;   -0,909;    2,045
914,136;14714,591;    1,636;    0,955
914,692;15048,500;    0,091;   -1,227
915,249;14678,864;    1,455;    0,409
915,806;14906,500;    0,182;    1,955
916,362;14651,045;    1,909;    1,864
916,918;14191,773;    2,000;    1,045
917,475;14147,045;   -1,182;    0,955
918,031;14243,318;    3,364;   -0,045
918,587;13696,227;   -0,909;   -0,318
919,144;13900,591;   -2,273;    0,227
919,700;14206,864;    1,727;    0,773
920,256;13803,773;    0,727;    0,045
920,812;13433,409;   -0,727;   -1,045
921,368;13442,864;   -1,727;   -1,045
921,924;13048,136;    0,182;   -0,136
922,480;12625,864;   -0,545;    1,227
923,036;13258,045;    1,273;    1,955
923,592;13194,955;    0,455;    0,318
924,148;13107,500;    0,455;   -0,955
924,704;12388,773;   -1,364;   -0,409
925,259;12643,227;   -0,273;    0,591
925,815;12457,864;    1,455;    0,500
926,371;11971,227;    2,909;    1,409
926,926;11858,773;    2,091;    0,591
927,482;11489,682;   -1,364;    0,773
928,037;11371,318;    0,909;    2,045
928,593;11669,864;    1,636;    1,045
929,148;11499,591;   -1,818;   -1,500
929,704;11008,773;   -1,455;   -0,500
930,259;11213,045;    0,091;   -0,136
930,814;10265,773;   -0,818;    1,955
931,369; 9931,227;    1,091;   -0,773
931,925; 9815,136;   -0,091;    0,136
932,480; 9735,045;   -2,818;   -2,591
933,035; 9655,136;    0,545;   -0,318
933,590; 9376,500;    0,364;   -1,773
934,145; 9003,773;   -1,364;   -0,318
934,700; 9347,773;    0,455;   -0,591
935,255; 9155,318;   -0,091;    0,045
935,809; 8426,318;    3,182;    0,864
936,364; 7548,955;   -0,455;   -0,136
936,919; 7514,682;    0,455;   -1,773
937,474; 7417,227;    1,455;    0,136
938,028; 7159,409;   -1,636;    1,136
938,583; 6636,591;    1,818;    4,682
939,138; 6917,682;    2,091;    2,136
939,692; 6366,682;    1,636;   -1,136
940,247; 6079,318;   -0,727;   -1,045
940,801; 5619,227;   -0,636;    0,227
941,355; 5487,864;   -0,364;    2,591
941,910; 5151,682;   -0,273;   -2,136
942,464; 5260,955;   -0,818;   -0,318
943,018; 5041,955;    1,000;   -0,227
943,572; 4998,227;    2,545;   -0,682
944,126; 4413,773;    0,091;   -0,409
944,681; 4290,500;    3,091;    0,227
945,235; 4279,864;    1,000;   -0,591
945,789; 4235,318;    0,364;   -1,864
946,342; 4332,045;    0,455;   -0,591
946,896; 4114,864;   -2,273;    0,955
947,450; 3862,136;    1,545;   -0,227
948,004; 4042,682;    1,727;   -0,045
948,558; 4071,682;    0,273;   -0,864
949,111; 3987,682;   -0,273;   -0,318
949,665; 4013,864;    1,636;   -0,682
950,219; 3884,773;   -0,091;   -1,045
950,772; 3990,864;   -1,909;    1,864
951,326; 3877,591;    0,545;   -0,955
951,879; 3959,864;    0,727;   -2,318
952,433; 4013,500;    0,000;    2,227
952,986; 3843,227;    2,909;    0,682
953,539; 3815,227;   -0,273;    0,591
954,093; 3727,591;    0,545;   -1,318
954,646; 3862,500;    0,909;    1,318
955,199; 3675,955;    0,000;   -0,500
955,752; 3585,955;   -0,455;    1,773
956,305; 3521,227;   -0,091;    2,955
956,858; 3702,955;    0,818;   -0,318
957,411; 3857,318;   -0,545;    2,136
957,964; 3683,773;    1,364;    2,136
958,517; 3674,955;   -1,545;    3,136
959,070; 3510,591;   -0,455;    1,955
959,623; 3580,682;    1,091;    1,500
960,176; 3348,045;    1,727;    2,045
960,728; 3328,591;   -2,727;    0,773
961,281; 3385,227;    0,545;    0,500
961,834; 3436,045;   -0,909;    0,864
962,386; 3356,773;    1,727;    1,045
962,939; 3280,500;    0,364;   -0,318
963,491; 3414,500;    0,455;    1,136
964,043; 3288,227;    1,182;    2,409
964,596; 3418,864;   -1,000;    2,227
965,148; 3243,955;   -1,000;    1,773
965,700; 3164,409;    1,091;   -0,227
966,253; 3309,500;   -0,636;    0,318
966,805; 3160,864;   -2,273;    0,773
967,357; 3189,955;    1,091;   -1,500
967,909; 3156,045;    0,455;   -1,227
968,461; 3291,318;    0,545;    3,136
969,013; 3216,682;   -0,182;   -0,864
969,565; 3285,045;   -0,455;   -1,136
970,117; 3347,227;   -0,364;    1,045
970,669; 3180,136;    0,182;   -0,136
971,220; 3055,136;   -0,455;   -1,500
971,772; 2966,682;   -0,636;   -0,318
972,324; 3103,955;    0,091;   -0,500
972,876; 3053,136;    0,818;   -0,045
973,427; 3181,864;    1,909;   -1,045
973,979; 3143,409;   -0,727;   -2,500
974,530; 3182,409;    1,818;    1,318
975,082; 3183,864;   -0,545;    1,682
975,633; 3067,045;    1,091;    1,682
976,184; 3222,136;    0,909;    0,773
976,736; 3009,409;    0,091;    0,227
977,287; 2835,045;   -0,909;   -0,500
977,838; 3004,045;    0,909;   -0,318
978,389; 3060,136;   -1,000;   -0,500
978,940; 2929,864;    0,545;   -0,409
979,491; 2945,500;    0,091;   -0,500
980,042; 2921,409;    0,182;    3,045
980,593; 2975,955;   -2,545;    0,227
981,144; 3014,227;    2,545;   -0,500
981,695; 2973,409;    1,455;    1,500
982,246; 2942,045;   -0,273;    1,045
982,797; 3101,591;   -1,727;    0,682
983,347; 3187,227;    0,364;    0,591
983,898; 3364,318;    3,091;    0,409
984,449; 3190,227;    2,182;    0,773
984,999; 3097,409;    1,455;   -1,136
985,550; 2876,318;    0,182;   -0,318
986,100; 2904,955;   -0,455;   -0,318
986,651; 2943,227;   -0,818;    0,045
987,201; 2926,318;   -1,000;   -0,591
987,751; 2990,955;    0,818;    2,864
988,302; 2985,227;    2,636;    1,500
988,852; 3016,682;    0,455;   -1,136
989,402; 3050,227;    0,091;    0,682
989,952; 2975,227;   -2,182;    0,864
990,502; 3083,136;   -0,091;    0,682
991,052; 3039,773;   -0,727;    0,045
991,602; 2922,682;   -2,909;    1,318
992,152; 2919,682;    0,455;    0,682
992,702; 2890,500;    1,364;   -0,045
993,252; 2801,864;   -3,000;   -0,500
993,802; 2900,864;   -0,273;    1,318
994,352; 3116,955;   -1,545;    1,136
994,901; 3214,227;   -0,182;    3,227
995,451; 3128,955;   -0,182;    0,318
996,000; 3220,318;    1,636;    0,318
996,550; 2940,500;    2,273;    0,227
997,100; 2928,955;    1,273;   -0,045
997,649; 3202,227;    2,182;    0,955
998,198; 2850,227;    1,727;   -1,500
998,748; 3041,500;    1,091;   -2,318
999,297; 2961,682;   -0,818;   -0,409
999,846; 3022,227;    1,000;   -0,773
1000,395; 3051,682;   -0,818;    0,500
1000,945; 3009,500;    1,818;   -0,773
1001,494; 3110,955;    2,364;    0,682
1002,043; 3087,682;    4,636;    0,864
1002,592; 2924,864;   -1,091;    1,955
1003,141; 3061,318;   -0,455;   -0,682
1003,690; 2926,227;    1,727;    0,500
1004,238; 3006,045;    1,455;   -0,045
1004,787; 2643,864;    1,364;    1,227
1005,336; 2873,773;    0,364;    0,682
1005,885; 3024,045;    1,364;   -2,773
1006,433; 3154,682;    0,545;    0,955
1006,982; 3215,500;    0,455;    1,682
1007,531; 3133,500;   -1,818;   -0,227
1008,079; 3105,318;   -2,273;    0,500
1008,627; 3226,045;   -1,455;    0,409
1009,176; 2964,500;    0,000;   -1,955
1009,724; 3003,955;    1,091;    0,864
1010,273; 3060,864;    1,273;    0,500
1010,821; 3171,955;    0,091;    1,409
1011,369; 2897,045;   -1,364;    1,318
1011,917; 2881,045;   -1,364;   -0,591
1012,465; 3162,591;    1,273;   -1,591
1013,013; 3280,591;    2,091;   -1,682
1013,561; 3165,682;    0,455;   -0,773
1014,109; 3215,500;   -1,909;    1,682
1014,657; 3077,955;    0,364;    0,591
1015,205; 3207,591;    1,636;   -0,955
1015,753; 3258,955;   -0,545;   -1,409
1016,301; 3301,227;   -2,636;    3,045
1016,848; 3297,773;   -1,273;    0,409
1017,396; 3332,773;    2,545;    0,045
1017,944; 3463,773;    1,182;    1,864
1018,491; 3210,955;    0,273;    1,409
1019,039; 3358,318;    0,455;    0,591
1019,586; 3259,955;   -1,364;    1,682
1020,134; 3367,409;    0,455;    1,500
1020,681; 3397,409;    0,182;   -1,136
1021,228; 3392,682;    2,909;   -2,227
1021,776; 3234,136;    1,182;   -1,136
1022,323; 3458,227;    0,455;    0,773
1022,870; 3382,227;   -1,000;   -0,045
1023,417; 3273,045;    2,636;    1,864
1023,964; 3406,318;    2,636;    1,227
1024,511; 3245,864;    1,000;    0,773
1025,058; 3051,045;    3,182;   -0,045
1025,605; 3114,773;   -2,273;    3,136
1026,152; 3338,682;    1,727;   -0,591
1026,699; 3066,318;    1,818;    1,318
1027,245; 3225,500;   -0,091;    0,318
1027,792; 3429,955;   -1,000;    1,409
1028,339; 3316,045;    2,364;   -0,045
1028,885; 3172,682;    1,000;   -0,227
1029,432; 3122,591;   -0,091;    0,227
1029,978; 3179,773;   -1,000;   -1,591
1030,525; 3063,318;    1,000;    0,409
1031,071; 3309,500;   -1,364;    1,136
1031,618; 3424,591;    0,364;    1,682
1032,164; 3213,045;   -0,091;    3,045
1032,710; 3246,773;    1,636;   -1,500
1033,256; 3170,500;   -0,636;   -0,136
1033,803; 3153,045;   -0,545;    1,500
1034,349; 2865,227;   -1,364;    0,136
1034,895; 3038,136;    0,000;   -0,318
1035,441; 3014,864;   -0,818;    0,318
1035,987; 3004,136;   -2,364;   -0,682
1036,533; 3026,409;   -1,455;   -0,955
1037,078; 3221,500;    1,455;    1,682
1037,624; 3042,682;    2,455;   -0,955
1038,170; 3072,682;    0,455;   -0,318
1038,716; 2960,045;    1,636;   -0,409
1039,261; 2894,318;   -2,273;   -0,773
1039,807; 2821,500;   -0,091;    3,409
1040,352; 2876,136;   -1,909;   -0,318
1040,898; 2930,682;   -1,545;   -0,682
1041,443; 2829,773;   -1,455;   -2,591
1041,989; 2875,500;    1,091;    1,591
1042,534; 2750,227;   -0,364;    2,591
1043,079; 2861,955;    2,909;    0,955
1043,625; 2655,409;    1,818;    0,500
1044,170; 2695,227;   -1,364;    1,045
1044,715; 2941,409;    2,455;    0,955
1045,260; 2769,227;    2,182;   -0,955
1045,805; 2803,682;    1,182;   -0,591
1046,350; 2744,045;    1,364;   -0,409
1046,895; 2700,864;    2,909;    1,591
1047,440; 2653,591;    5,364;    0,409
1047,985; 2545,773;    2,818;   -0,955
1048,530; 2472,864;    1,545;    1,227
1049,074; 2534,318;    0,000;    0,318
1049,619; 2506,409;   -1,364;    1,955
1050,164; 2303,409;    0,455;    0,227
1050,708; 2348,045;   -0,455;    0,045
1051,253; 2721,045;    1,273;   -2,227
1051,797; 2432,955;    0,818;   -1,318
1052,342; 2438,045;   -1,182;    1,045
1052,886; 2423,227;    0,364;   -1,409
1053,430; 2319,591;   -1,364;    0,136
1053,975; 2327,864;   -0,818;   -0,318
1054,519; 2313,591;   -0,727;    3,227
1055,063; 2339,045;    0,909;    1,318
1055,607; 2213,227;   -0,182;    0,227
1056,151; 2248,591;    2,909;    1,682
1056,695; 2151,318;    2,273;   -1,136
1057,239; 2226,591;   -1,727;   -0,682
1057,783; 2217,591;    0,818;   -1,500
1058,327; 2176,045;    0,000;    1,409
1058,871; 2402,955;   -0,545;    1,318
1059,415; 2112,773;   -0,818;   -0,045
1059,958; 2375,318;    1,455;    2,591
1060,502; 2078,682;   -1,000;   -0,773
1061,046; 2002,227;    0,364;   -0,955
1061,589; 1988,773;   -3,000;   -1,136
1062,133; 1870,318;   -1,273;    1,864
1062,676; 1795,045;    1,182;    0,864
1063,220; 1806,864;    1,091;    0,500
1063,763; 1830,409;    0,909;    1,136
1064,306; 1921,955;   -0,909;    1,864
1064,849; 1788,227;   -0,909;    0,591
1065,393; 1787,773;    2,000;   -1,500
1065,936; 1920,318;    0,182;   -0,409
1066,479; 1794,591;   -1,455;    1,318
1067,022; 1817,591;   -0,273;   -0,227
1067,565; 1703,318;   -0,091;   -1,318
1068,108; 1747,227;    0,727;   -0,591
1068,651; 1721,227;   -0,636;    1,409
1069,194; 1644,409;   -0,455;   -1,682
1069,736; 1643,500;   -1,273;    0,955
1070,279; 1618,955;   -1,364;   -0,500
1070,822; 1668,682;   -2,000;   -0,318
1071,364; 1769,227;   -0,364;    1,318
1071,907; 1591,955;   -0,727;    3,227
1072,450; 1491,500;    0,000;   -0,045
1072,992; 1484,864;   -0,273;    3,136
1073,535; 1628,955;    2,091;    2,136
1074,077; 1410,955;   -0,727;    2,045
1074,619; 1364,227;   -1,364;    0,591
1075,161; 1413,591;   -1,091;    1,500
1075,704; 1596,955;    1,545;    1,227
1076,246; 1397,409;   -0,182;    0,682
1076,788; 1326,227;   -0,364;    1,773
1077,330; 1407,591;    1,273;    2,136
1077,872; 1362,864;    0,909;    0,955
1078,414; 1584,591;    2,727;    0,773
1078,956; 1312,864;    1,273;   -0,227
1079,498; 1584,409;    1,636;    0,318
1080,040; 1292,409;    1,909;   -1,318
1080,581; 1224,409;    1,636;   -0,318
1081,123; 1148,500;    0,091;   -0,773
1081,665; 1201,500;   -1,182;   -0,955
1082,206; 1492,591;    1,364;   -0,500
1082,748; 1353,955;    0,727;    2,045
1083,289; 1233,500;   -2,000;    1,318
1083,831; 1137,409;   -0,545;    0,227
1084,372; 1172,500;    0,000;    0,591
1084,913; 1179,409;    1,091;    0,864
1085,455; 1149,682;   -1,909;   -2,045
1085,996; 1123,045;   -2,273;    0,136
1086,537; 1131,591;   -0,091;    0,864
1087,078; 1166,591;   -0,909;   -2,136
1087,619; 1213,955;   -1,273;    0,227
1088,160; 1126,955;    0,000;    1,318
1088,701; 1116,773;   -1,091;    0,682
1089,242; 1051,955;    1,364;   -2,227
1089,783; 1153,227;   -0,273;    1,409
1090,324; 1109,682;    0,455;    0,682
1090,865;  997,500;    2,727;   -0,409
1091,405;  971,773;    0,727;    2,227
1091,946;  999,318;    0,182;   -0,955
1092,487;  922,682;    0,818;   -1,409
1093,027; 1080,864;   -1,364;   -1,500
1093,568;  939,955;   -0,364;    1,227
1094,108; 1037,864;    0,273;    1,773
1094,649;  975,864;   -1,182;    0,136
1095,189;  905,227;   -0,636;   -0,682
1095,729;  866,409;   -0,091;    0,955
1096,269;  863,500;    0,727;   -0,955
1096,810; 1182,318;   -1,364;    0,500
1097,350; 1014,591;    1,364;   -0,773
1097,890;  909,864;    0,364;    1,227
1098,430; 1162,955;    2,364;    2,864
1098,970; 1042,409;    2,182;    1,682
1099,510;  898,318;    0,545;   -2,318
1100,050;  820,318;    1,000;   -1,591
1100,589;  791,591;   -0,727;   -0,318
1101,129;  914,409;    0,818;   -0,955
1101,669; 1078,955;    1,727;    2,136
1102,209;  889,773;   -0,091;    2,227
1102,748;  842,591;    0,000;    0,955
1103,288;  825,682;    1,273;   -1,227
1103,827;  862,773;    3,091;   -2,227
1104,367;  732,318;   -0,091;   -2,409
1104,906;  701,682;    1,364;   -1,136
1105,445;  774,864;    0,636;   -1,136
1105,985;  713,409;   -0,727;    1,500
1106,524;  764,955;   -1,727;   -0,682
1107,063;  744,136;   -2,727;    1,409
1107,602;  707,955;   -1,909;   -1,500
1108,141;  635,773;   -1,909;    1,500
1108,680;  745,955;   -3,455;   -0,591
1109,219;  680,409;   -0,909;   -0,500
1109,758;  676,136;    0,455;    0,682
1110,297;  639,682;    1,000;   -0,682
1110,836;  596,136;   -0,727;    0,955
1111,375;  766,409;   -2,545;    0,409
1111,913;  770,409;   -1,000;    0,773
1112,452;  705,955;   -0,273;    0,136
1112,991;  598,227;    1,091;    1,955
1113,529;  557,591;   -0,818;   -0,045
1114,068;  627,318;   -0,273;    2,955
1114,606;  525,500;   -0,364;   -0,955
1115,144;  696,227;   -1,273;    1,045
1115,683;  628,227;   -0,727;    0,318
1116,221;  669,682;   -0,455;   -0,864
1116,759;  574,318;    0,636;   -0,864
1117,297;  772,409;    0,000;    1,864
1117,836;  575,864;   -2,182;   -1,227
1118,374;  593,045;    0,182;   -0,682
1118,912;  535,045;    0,909;    2,682
1119,450;  508,318;    1,000;    0,864
1119,988;  566,045;    1,545;    2,136
1120,525; 1031,682;    5,091;    3,318
1121,063;  726,773;    1,182;    1,864
1121,601;  532,773;   -0,909;   -1,227
1122,139;  497,409;   -0,727;   -2,045
1122,676;  692,409;   -0,727;    2,773
1123,214;  623,682;   -1,182;    4,409
1123,751;  428,955;    1,727;    2,227
1124,289;  563,500;   -0,091;   -0,409
1124,826;  422,409;    1,727;    0,227
1125,364;  339,773;    1,727;   -0,955
1125,901;  541,318;    1,182;    1,227
1126,438;  660,136;    0,818;    0,955
1126,975;  382,864;   -0,727;   -0,773
1127,513;  449,955;    0,273;    2,136
1128,050;  351,409;    1,636;   -0,682
1128,587;  465,045;    2,000;   -0,227
1129,124;  501,045;    0,091;    1,318
1129,661;  368,318;    0,273;    0,227
1130,198;  538,864;    1,636;    0,773
1130,734;  483,591;    0,182;    1,409
1131,271;  334,682;   -0,909;    0,864
1131,808;  507,227;    2,909;    3,045
1132,345;  380,682;    1,545;    0,318
1132,881;  249,045;   -1,545;   -1,864
1133,418;  398,500;    0,727;   -1,136
1133,954;  326,409;    2,455;   -2,682
1134,491;  404,864;    1,364;   -0,773
1135,027;  300,227;    2,364;    0,864
1135,564;  385,409;    0,273;    2,955
1136,100;  368,591;    0,364;    2,136
1136,636;  259,591;   -1,273;   -1,045
1137,172;  364,864;    0,000;   -1,045
1137,708;  283,500;   -1,364;   -1,045
1138,245;  281,773;    1,273;   -1,227
1138,781;  225,591;    1,091;   -3,318
1139,317;  311,591;    1,273;   -1,409
1139,852;  299,227;    3,091;    0,136
1140,388;  413,136;   -1,182;   -0,409
1140,924;  291,318;   -1,091;   -2,227
1141,460;  227,864;   -1,636;    0,136
1141,996;  165,227;   -1,364;    2,682
1142,531;  215,500;    1,364;    3,318
1143,067;  436,318;    1,182;    1,045
1143,602;  489,591;   -0,091;   -0,318
1144,138;  340,409;   -2,636;    1,045
1144,673;  208,318;   -1,455;    1,409
1145,209;  271,864;   -1,909;   -0,318
1145,744;  187,682;   -0,727;    0,864
1146,279;  328,045;    1,818;   -0,136
1146,815;  235,864;    1,545;   -2,682
1147,350;  273,773;   -1,364;    0,045
1147,885;  179,136;   -0,818;   -1,318
1148,420;  171,773;   -2,273;    0,773
1148,955;  171,136;   -1,727;    1,864
1149,490;  192,409;   -0,909;   -1,591
1150,025;  182,045;    0,455;   -1,773
1150,560;  295,318;    1,091;   -0,955
1151,094;  263,591;    1,455;   -0,591
1151,629;  275,136;    1,636;    0,864
1152,164;  191,682;    1,364;    1,318
1152,698;  147,227;   -0,182;   -0,136
1153,233;  106,591;    0,091;   -0,682
1153,767;  155,409;   -3,000;   -2,318
1154,302;  204,682;   -1,455;    1,773
1154,836;  200,682;   -0,455;   -2,136
1155,371;  266,409;   -1,364;    3,682
1155,905;  210,682;   -0,636;    1,682
1156,439;  174,773;   -0,636;   -0,500
1156,973;  207,045;    0,364;    0,318
1157,507;  147,318;   -0,364;    0,682
1158,042;  173,682;   -0,727;    1,045
1158,576;  224,591;    0,182;    1,773
1159,110;  205,500;   -0,818;    2,409
1159,643;  183,773;    0,636;   -0,045
1160,177;  117,955;   -1,545;    1,500

