
Integration time [ms]:   0,040
Averaging Nr. [scans]: 11
Smoothing Nr. [pixels]: 0
Data measured with spectrometer [name]: 7318044SP
Wave   ;Sample   ;Dark     ;Reference
[nm]   ;[counts] ;[counts] ;[counts] 

186,757;   29,346;   31,551;    1,318
187,357;   65,802;   22,551;    0,955
187,958;   38,788;   15,460;   -1,591
188,558;   80,428;    8,915;   -1,227
189,159;   39,633;    6,733;   -4,500
189,759;   10,688;    7,278;   -3,591
190,360;   12,371;    2,824;   -2,136
190,960;   45,440;    2,915;   -4,136
191,560;   67,029;    3,189;   -6,591
192,161;  324,230;    4,372;   -3,500
192,761;  161,181;    4,010;   -3,227
193,361;  105,218;    1,556;   -3,773
193,962;  158,838;    2,010;   -2,682
194,562;   71,208;    1,189;   -3,955
195,162;  107,600;   -2,448;   -2,227
195,762;  272,353;   -3,176;   -0,045
196,362;  216,589;    1,370;   -2,500
196,963;   82,970;    2,006;   -0,864
197,563;  146,614;    1,551;   -0,955
198,163;   97,713;    0,096;   -0,682
198,763;  118,941;    1,733;   -0,500
199,363;  221,105;    3,096;   -0,500
199,963;  176,613;    0,369;    0,409
200,563;  146,249;    2,823;   -1,409
201,163;  117,535;    3,277;   -0,227
201,763;  222,967;    3,732;    0,318
202,363;  162,703;    1,459;    1,500
202,963;  264,475;    1,459;    1,045
203,563;  377,276;    0,277;    0,500
204,162;  222,294;    2,096;   -1,864
204,762;  211,306;    0,550;    0,591
205,362;  172,925;    3,004;    1,955
205,962;  269,894;    3,096;    1,955
206,562;  271,370;    1,823;    2,318
207,161;  241,506;   -0,087;    0,318
207,761;  397,766;    1,277;    2,409
208,361;  273,848;   -0,268;    1,409
208,960;  367,684;    0,459;    1,500
209,560;  434,865;    1,277;    1,591
210,160;  415,984;    0,550;    1,864
210,759;  378,061;    4,186;    1,227
211,359;  389,296;    1,459;    1,045
211,958;  645,543;    1,277;    2,045
212,558;  723,425;    1,732;    1,864
213,157;  570,847;    1,822;    1,500
213,757; 1012,324;    3,822;   -0,227
214,356;  708,101;    1,277;   -0,409
214,956; 1038,302;    3,095;    0,409
215,555;  663,255;    2,095;    2,136
216,154;  607,105;   -2,723;   -0,591
216,754;  600,733;    0,277;    0,773
217,353;  726,788;   -0,268;   -1,045
217,952;  587,136;   -0,178;    0,318
218,552;  820,868;    1,368;   -0,773
219,151;  703,954;    0,277;    0,955
219,750;  706,649;    0,004;   -0,227
220,349;  813,950;   -0,451;    1,045
220,948;  882,831;   -1,360;    1,136
221,548;  891,750;    0,913;    1,227
222,147; 1010,669;   -0,087;   -0,409
222,746; 1285,454;   -0,451;   -0,955
223,345; 1155,113;    0,731;    0,500
223,944; 1152,359;   -0,451;    0,773
224,543; 1309,028;    1,004;   -1,409
225,142; 1417,081;    0,094;    0,136
225,741; 1314,268;   -0,814;    1,045
226,340; 1337,141;   -0,451;   -0,955
226,939; 1749,387;   -0,996;   -0,136
227,538; 1646,377;   -0,360;   -0,773
228,137; 1825,228;   -0,814;    0,864
228,735; 1928,496;   -0,541;    1,227
229,334; 1684,214;   -0,905;   -0,227
229,933; 2056,923;    0,459;    0,591
230,532; 2137,687;    1,186;   -0,409
231,131; 2181,592;    1,732;    0,318
231,729; 2278,264;   -2,450;   -2,318
232,328; 2340,583;   -0,723;   -1,500
232,927; 2377,442;    1,004;   -0,500
233,525; 2479,209;    3,640;    0,045
234,124; 2674,928;    2,368;   -1,591
234,723; 2672,419;    0,913;   -1,045
235,321; 2780,459;    2,277;    0,136
235,920; 2977,905;    1,186;   -1,227
236,518; 3238,673;    3,459;    0,318
237,117; 3357,178;    0,004;   -0,227
237,715; 3492,733;    0,640;   -0,500
238,314; 3536,883;   -0,087;   -2,318
238,912; 3645,642;   -0,723;   -1,409
239,510; 3673,533;    0,459;   -1,227
240,109; 3860,529;    0,004;    3,773
240,707; 3879,974;   -0,996;    1,227
241,305; 4222,583;    0,550;    0,136
241,904; 4429,947;   -0,178;   -2,045
242,502; 4417,778;   -0,632;   -0,227
243,100; 4368,269;   -0,087;   -0,955
243,698; 4637,369;    0,732;    1,682
244,297; 4824,310;   -0,632;    0,682
244,895; 4688,541;   -0,269;   -2,318
245,493; 5021,009;    2,186;   -0,591
246,091; 5064,505;    1,368;   -1,318
246,689; 5067,409;    1,004;    0,591
247,287; 5240,555;    0,822;   -1,136
247,885; 5525,463;   -1,451;    1,227
248,483; 5631,700;    1,822;   -0,500
249,081; 5767,336;    0,185;    1,591
249,679; 5950,531;   -0,178;    1,682
250,277; 6219,977;   -1,723;    0,864
250,875; 6220,183;   -1,087;   -1,045
251,473; 6243,032;   -1,178;    0,500
252,071; 6439,519;    1,459;    1,045
252,669; 6606,450;   -1,814;    0,318
253,267; 6892,876;   -0,087;    0,773
253,864; 6866,646;   -0,360;    0,682
254,462; 6751,995;    1,640;    1,591
255,060; 6705,245;   -0,269;    1,318
255,658; 7043,359;    0,822;   -0,136
256,255; 7462,187;    0,186;   -2,045
256,853; 7322,736;   -0,269;    1,409
257,451; 7336,273;    0,822;    1,864
258,048; 7638,069;    1,822;    1,864
258,646; 7375,354;    1,731;   -1,045
259,243; 7559,645;   -0,087;    2,227
259,841; 7643,423;   -0,814;    0,318
260,438; 7508,345;   -0,087;    0,864
261,036; 8231,437;   -1,905;    1,409
261,633; 8137,459;   -0,087;    2,227
262,231; 7903,105;    2,731;   -0,045
262,828; 7987,042;   -0,905;    1,136
263,425; 8038,787;    0,913;   -0,591
264,023; 8313,155;    0,186;    0,045
264,620; 7849,891;   -0,360;   -0,318
265,217; 8211,818;   -2,087;    3,136
265,815; 8338,327;   -1,905;    2,136
266,412; 8132,009;    0,731;    0,136
267,009; 8173,814;   -1,451;    0,773
267,606; 8061,173;    0,822;   -0,955
268,203; 8042,396;   -0,269;   -0,591
268,801; 8336,205;    1,731;    0,591
269,398; 8627,054;   -0,360;    2,500
269,995; 8604,951;    0,277;    1,591
270,592; 8423,519;   -0,632;   -0,500
271,189; 8619,086;    0,186;    0,409
271,786; 8747,823;   -0,632;    1,227
272,383; 8564,264;   -1,087;    0,227
272,980; 8724,973;    0,277;    0,318
273,577; 9187,556;    0,004;    1,227
274,174; 8760,333;    0,822;    2,591
274,771; 8769,814;   -0,814;   -0,773
275,367; 8885,824;    2,277;    1,409
275,964; 8857,123;    0,731;   -0,500
276,561; 8973,827;    1,549;   -1,045
277,158; 9200,077;    0,095;   -1,773
277,755; 9342,881;    2,185;    0,409
278,351; 8713,077;   -0,451;   -1,500
278,948; 9027,572;   -0,815;    0,045
279,545; 9041,459;   -1,360;    2,318
280,141; 9671,073;   -1,723;   -2,045
280,738; 9545,623;   -0,451;   -0,136
281,334; 9790,782;   -1,633;    0,591
281,931; 9188,899;   -0,087;   -1,318
282,528; 9290,453;    0,822;   -0,500
283,124;10001,995;   -1,087;   -0,500
283,721; 9928,517;   -0,451;    1,409
284,317; 9739,421;    0,185;    2,500
284,913;10297,040;   -1,360;    0,591
285,510;10516,040;    0,640;   -0,318
286,106;10546,222;   -2,269;   -0,955
286,703;10175,163;   -0,360;    1,955
287,299;10356,968;   -1,451;   -0,591
287,895;10592,195;    0,822;   -1,045
288,491;11151,054;    0,186;    2,136
289,088;10928,427;   -2,360;    2,409
289,684;10993,996;   -1,723;    1,500
290,280;11034,605;    0,368;    0,682
290,876;11134,855;    1,822;    5,500
291,472;11043,654;    1,276;    2,227
292,068;11136,867;    1,367;    0,227
292,665;10853,150;    2,095;    0,773
293,261;10469,186;    0,276;    2,136
293,857;10863,869;    2,913;    2,136
294,453;10807,919;    3,550;    0,955
295,049;10732,189;   -0,268;    1,955
295,644;10777,738;    0,095;    0,136
296,240;10668,993;   -0,905;   -0,136
296,836;10732,348;   -0,995;    0,318
297,432;11019,662;    1,096;   -0,500
298,028;11076,726;    0,732;    0,773
298,624;11521,452;    1,459;    1,864
299,220;11747,835;    2,368;    0,591
299,815;11409,861;    1,005;   -0,409
300,411;11209,734;    0,914;    1,773
301,007;11223,803;    1,368;    0,227
301,602;11272,598;   -0,541;   -2,318
302,198;11489,485;    0,732;   -0,773
302,794;11810,971;    1,187;   -0,500
303,389;11927,257;   -1,177;    1,045
303,985;11992,694;    0,550;    1,409
304,580;11971,966;    1,459;    1,591
305,176;11934,884;   -3,086;    0,136
305,771;11875,320;   -1,268;   -1,227
306,367;11747,320;    4,095;    0,136
306,962;12058,143;    0,641;    1,500
307,558;11767,262;   -0,450;    0,136
308,153;11675,616;    1,095;   -1,136
308,748;11947,466;   -0,814;    1,682
309,344;11918,079;   -0,632;   -1,318
309,939;12016,161;   -1,905;   -1,318
310,534;12289,484;   -0,086;   -1,682
311,130;12216,898;    0,459;   -2,500
311,725;11917,934;    1,004;   -0,500
312,320;12231,939;    2,459;    0,045
312,915;12064,670;    1,459;   -1,045
313,510;12135,334;    1,550;   -0,500
314,105;12653,458;    1,096;    1,409
314,700;12021,675;   -3,086;   -1,045
315,295;11629,603;   -0,904;    0,045
315,890;11224,225;    1,277;    0,864
316,485;11599,125;   -0,359;   -0,318
317,080;11681,062;   -3,086;    1,591
317,675;12248,398;    2,005;   -0,682
318,270;11682,326;    5,550;    3,318
318,865;11710,231;    3,278;    3,045
319,460;11502,293;   -0,904;    0,591
320,055;11730,522;   -0,541;   -1,227
320,650;11372,013;   -1,995;   -0,591
321,244;11449,090;   -0,177;   -1,409
321,839;12382,144;   -1,541;   -0,227
322,434;12276,757;   -1,086;   -1,591
323,029;11914,562;    1,732;    1,591
323,623;11722,557;    1,550;    0,773
324,218;11497,894;    2,368;    1,409
324,812;11412,612;    1,096;    1,591
325,407;11212,657;   -0,814;    2,045
326,002;11107,089;    0,277;   -0,409
326,596;11436,571;    0,914;    1,318
327,191;11600,884;    0,823;   -1,045
327,785;11203,480;   -0,813;   -0,227
328,379;11444,098;    1,368;    0,136
328,974;11285,221;    0,914;   -3,955
329,568;11483,739;    0,186;   -2,409
330,163;11304,694;    2,096;    1,045
330,757;11664,379;    2,459;    1,591
331,351;11000,270;    0,459;    0,682
331,945;11323,512;    0,914;    1,409
332,540;10932,366;   -1,723;   -0,591
333,134;11084,175;   -1,086;    0,773
333,728;11356,607;    0,005;    0,318
334,322;11692,212;   -1,177;   -0,864
334,916;10976,647;    0,277;    0,955
335,510;11308,475;   -0,450;   -0,136
336,105;11578,884;   -1,086;    1,591
336,699;11284,016;   -1,086;    0,591
337,293;11213,515;   -1,723;    0,318
337,887;11387,516;   -2,723;    1,955
338,481;11500,393;    0,459;    0,591
339,074;11666,188;   -0,359;    2,682
339,668;11475,315;   -1,632;    1,227
340,262;11747,575;    1,732;    3,227
340,856;11261,024;    1,822;   -0,682
341,450;10630,760;    1,004;    1,864
342,044;11511,970;    1,459;    0,136
342,637;11285,711;    0,913;   -2,136
343,231;11155,155;   -2,360;    0,682
343,825;11140,920;   -1,086;   -0,591
344,419;11117,630;   -1,995;    0,500
345,012;10904,894;    2,459;    4,045
345,606;10913,471;    4,641;    1,591
346,199;10753,081;   -1,813;   -0,227
346,793;10266,390;    1,914;    2,045
347,386;10446,848;   -0,813;   -1,136
347,980;10453,095;   -0,268;   -0,045
348,573;10234,809;    2,278;    0,409
349,167; 9947,514;    5,278;    4,773
349,760;10257,737;    2,914;    2,682
350,354;10251,647;   -0,813;    1,136
350,947;10019,683;    1,096;    1,682
351,540; 9683,887;   -0,358;   -1,409
352,134; 9634,587;    1,096;    1,136
352,727; 9698,527;   -0,086;    1,136
353,320; 9512,550;    0,005;    0,591
353,913; 9343,245;   -1,995;    1,864
354,507; 9520,722;    0,823;   -1,227
355,100; 9541,332;    0,460;    0,864
355,693; 8807,892;    2,005;    2,409
356,286; 8819,491;    0,823;    2,773
356,879; 9192,109;   -0,722;    1,227
357,472; 8806,064;   -0,904;    1,500
358,065; 9007,323;   -0,722;    2,500
358,658; 8900,923;   -0,540;    2,318
359,251; 8573,659;   -1,631;   -0,591
359,844; 8058,855;   -1,904;   -1,136
360,437; 8231,764;   -2,995;    0,045
361,030; 8502,446;    1,369;   -0,682
361,623; 8089,719;    2,824;    0,318
362,215; 8119,614;   -0,086;    2,045
362,808; 7935,641;   -2,358;   -1,682
363,401; 8142,015;   -2,449;    0,136
363,994; 7882,760;   -0,631;   -1,500
364,586; 7785,389;    0,824;   -1,500
365,179; 8012,521;   -0,449;   -1,136
365,772; 7494,978;   -1,995;    2,045
366,364; 7816,507;    1,915;   -3,227
366,957; 7996,299;    2,279;   -0,045
367,549; 7995,822;    2,188;   -0,864
368,142; 7651,346;    1,825;   -1,500
368,734; 7846,606;    0,734;   -2,136
369,327; 7773,884;    1,643;   -0,500
369,919; 7703,794;   -1,538;    0,409
370,512; 7533,791;   -1,083;   -0,500
371,104; 7290,188;   -0,901;    1,591
371,696; 7471,759;    1,191;   -0,955
372,289; 7545,988;    0,373;    1,136
372,881; 7652,901;   -2,080;    1,318
373,473; 7561,844;   -2,170;    1,136
374,066; 7403,694;   -0,169;    0,500
374,658; 7267,846;    0,378;    1,136
375,250; 7620,684;    0,653;   -1,409
375,842; 7438,936;    0,473;   -0,045
376,434; 7315,664;   -0,435;   -0,409
377,026; 7876,281;    0,204;   -2,500
377,618; 7777,615;   -0,158;   -0,682
378,210; 7624,535;   -0,338;   -1,955
378,802; 7474,966;    0,754;   -0,591
379,394; 7432,315;    1,846;    0,682
379,986; 8021,841;    1,393;   -0,955
380,578; 8113,864;   -0,153;    0,773
381,170; 7471,971;   -0,972;    0,045
381,762; 7441,735;    0,755;    1,409
382,354; 7627,012;   -0,065;   -1,318
382,945; 7742,425;   -2,976;    0,318
383,537; 7869,533;   -2,705;   -1,955
384,129; 7887,629;   -2,160;   -1,136
384,721; 8065,400;   -0,252;    0,955
385,312; 8017,608;   -0,161;   -0,955
385,904; 8116,350;   -2,706;    1,591
386,496; 7457,833;   -0,979;    1,045
387,087; 7624,466;    1,022;    2,500
387,679; 7654,608;   -1,160;    0,045
388,270; 7762,867;    2,840;    2,045
388,862; 7893,062;    1,295;   -0,318
389,453; 7790,199;   -0,887;    1,045
390,045; 8041,622;   -0,705;   -2,682
390,636; 7994,377;    0,204;   -0,591
391,227; 7861,894;   -0,523;   -0,045
391,819; 7981,789;    0,204;    0,773
392,410; 8041,502;    1,022;    0,045
393,001; 7952,037;   -0,979;   -1,591
393,593; 8240,591;    1,930;   -0,045
394,184; 8096,409;    1,385;   -0,409
394,775; 7993,991;    1,839;    2,136
395,366; 8209,706;    1,385;    0,773
395,957; 8200,452;    0,113;    0,136
396,548; 8526,752;   -0,342;    2,682
397,139; 8833,935;   -2,433;    0,591
397,730; 8572,756;   -1,888;    0,955
398,321; 8618,864;   -1,252;    0,955
398,912; 8660,569;   -0,615;    0,136
399,503; 8727,682;   -3,524;   -1,409
400,094; 8149,514;    0,294;    1,682
400,685; 8020,151;   -0,433;    0,045
401,276; 8094,206;    0,930;   -0,955
401,867; 8413,928;   -0,888;    0,773
402,458; 8487,801;   -2,251;   -2,318
403,048; 8485,232;    1,112;    0,591
403,639; 8106,547;    0,840;    0,864
404,230; 8332,637;    2,476;    0,318
404,821; 8261,501;   -0,615;    0,045
405,411; 8379,886;    1,203;   -2,591
406,002; 7983,273;   -1,252;   -1,136
406,592; 7832,386;    2,294;    0,045
407,183; 8155,203;    0,566;   -1,500
407,774; 8064,658;    3,475;   -0,136
408,364; 8404,040;    0,930;    0,409
408,954; 7976,967;    0,384;    1,227
409,545; 8028,590;    1,021;    1,045
410,135; 7557,444;    1,293;    0,500
410,726; 7718,520;    1,838;    0,318
411,316; 8104,962;    0,111;    0,773
411,906; 7768,911;   -0,253;   -0,409
412,497; 7246,776;   -1,070;   -0,045
413,087; 7837,121;   -1,980;   -0,227
413,677; 8201,824;   -0,707;    3,864
414,267; 8074,774;    0,656;    1,409
414,857; 8059,529;   -2,980;    4,227
415,448; 8296,175;    0,839;    0,500
416,038; 8020,048;    0,020;   -0,591
416,628; 7970,992;   -0,889;    0,409
417,218; 7432,115;    0,565;    3,318
417,808; 7692,506;    0,202;   -0,409
418,398; 8150,996;    0,020;    2,682
418,988; 8135,442;    2,020;    0,591
419,578; 8358,183;   -0,707;    1,409
420,168; 8691,465;   -1,343;   -0,955
420,757; 8282,662;   -1,343;   -1,500
421,347; 7958,996;    0,111;   -0,227
421,937; 8091,923;    2,292;    1,409
422,527; 8035,709;    0,838;   -0,773
423,116; 7874,115;   -0,253;   -0,045
423,706; 8183,687;   -1,889;    0,318
424,296; 8152,769;    1,384;    0,682
424,885; 8544,951;   -0,071;   -3,045
425,475; 8806,382;    1,474;   -2,864
426,065; 8706,223;   -0,980;   -0,318
426,654; 8331,381;   -0,435;   -0,318
427,244; 8444,432;    0,020;    1,409
427,833; 7915,219;    1,383;   -0,500
428,423; 8366,754;   -0,526;    1,136
429,012; 9094,149;   -0,344;   -1,136
429,601; 8560,244;   -1,344;    0,136
430,191; 8792,885;    1,292;    4,318
430,780; 8403,186;   -0,344;   -0,409
431,369; 8345,885;    0,746;   -0,045
431,959; 8916,212;   -1,254;    0,500
432,548; 8682,803;   -1,163;   -0,045
433,137; 8816,857;   -1,254;   -1,318
433,726; 9315,725;    0,292;    0,500
434,315; 8653,280;   -0,526;    2,409
434,905; 8734,401;   -1,254;    1,409
435,494; 8650,434;    0,746;    0,955
436,083; 9076,716;   -0,981;   -0,955
436,672; 8922,861;    0,110;    0,500
437,261; 8465,201;    0,292;   -1,955
437,850; 8598,852;    1,383;    0,682
438,439; 8562,169;    3,291;    1,955
439,027; 8397,569;    3,655;    1,773
439,616; 8678,236;    2,927;    1,227
440,205; 8549,300;    0,200;   -2,136
440,794; 8600,441;    2,109;   -0,045
441,383; 8788,795;   -1,346;   -0,591
441,971; 8653,595;   -2,436;    0,591
442,560; 8485,735;    0,563;   -1,773
443,149; 8223,586;    0,379;   -1,318
443,737; 8355,383;   -0,074;   -2,318
444,326; 8581,658;    0,018;    0,318
444,915; 8573,849;   -1,982;    0,864
445,503; 8938,708;   -2,891;   -0,318
446,092; 8212,290;    0,382;    2,136
446,680; 8699,903;    0,382;    0,318
447,269; 8809,730;   -0,346;   -0,318
447,857; 8582,729;    0,018;   -1,773
448,445; 8678,975;    0,563;    1,318
449,034; 8888,252;   -1,528;   -1,136
449,622; 8934,529;   -1,073;    3,500
450,210; 8203,178;    2,017;    2,227
450,799; 8691,846;    0,290;   -0,591
451,387; 8613,641;    1,381;   -0,591
451,975; 8280,137;    2,654;    0,864
452,563; 8399,751;    3,472;    2,318
453,151; 8354,791;   -0,528;   -1,227
453,739; 8288,217;   -1,347;    0,136
454,328; 8098,309;    2,381;   -2,136
454,916; 7837,776;    2,562;   -0,136
455,504; 7992,740;    1,017;    1,227
456,092; 8149,804;    0,017;   -1,591
456,679; 8101,423;    1,472;    0,682
457,267; 8071,786;    4,017;    1,045
457,855; 8146,081;    1,017;    1,409
458,443; 7871,553;   -0,165;    1,682
459,031; 8015,667;    0,108;    2,409
459,619; 8427,213;   -1,801;    2,864
460,206; 8495,558;    0,835;    2,045
460,794; 8553,562;   -2,983;   -0,227
461,382; 8750,275;   -0,529;   -0,864
461,970; 8352,666;    1,198;    1,864
462,557; 8347,234;   -0,711;   -0,682
463,145; 8487,243;   -3,165;   -1,682
463,732; 8660,933;    2,016;   -1,045
464,320; 8552,437;   -0,075;   -3,045
464,907; 8229,365;    2,743;   -0,773
465,495; 8091,095;    0,743;   -1,227
466,082; 8216,274;   -1,984;   -0,045
466,670; 8116,746;   -2,529;    1,227
467,257; 8477,064;   -1,711;    2,045
467,844; 8610,137;   -0,075;    0,045
468,432; 8614,459;    0,834;    3,500
469,019; 8149,009;    0,925;   -1,773
469,606; 8545,086;    0,470;    3,682
470,193; 8387,854;   -1,439;    0,227
470,780; 7994,963;   -2,075;    0,864
471,368; 8274,349;   -1,257;   -0,773
471,955; 8048,490;    1,379;   -0,682
472,542; 7701,549;    0,652;   -1,136
473,129; 7900,395;   -0,166;    0,136
473,716; 7615,604;    1,470;    0,591
474,303; 7728,886;    0,652;   -0,864
474,890; 7954,130;   -1,439;   -0,500
475,477; 7981,066;   -1,621;    0,409
476,064; 7797,288;    1,106;   -1,591
476,650; 7694,352;    0,288;    0,318
477,237; 7509,534;   -0,258;    0,955
477,824; 7633,957;   -1,076;    0,864
478,411; 7595,393;   -1,894;   -0,318
478,997; 7724,224;    0,560;   -0,773
479,584; 7706,237;    1,196;   -0,409
480,171; 8272,092;   -0,440;   -0,773
480,757; 7945,064;    2,651;    0,773
481,344; 8176,797;    0,469;    0,409
481,931; 7641,585;    1,105;    1,045
482,517; 8438,795;   -1,258;    0,318
483,104; 8873,114;    1,106;    2,864
483,690; 9012,583;   -1,804;    0,045
484,276; 9193,350;   -0,895;    0,227
484,863; 8939,019;    2,469;    1,136
485,449; 9368,159;   -0,077;    0,318
486,035; 9349,390;   -1,986;   -0,136
486,622; 9695,386;   -0,895;    0,045
487,208; 9565,963;    1,378;    1,500
487,794; 9422,717;    0,741;    0,318
488,380; 9530,117;    0,105;   -1,409
488,967; 9559,839;   -1,168;   -0,409
489,553; 9613,617;   -1,895;   -1,409
490,139; 9815,594;    1,559;    0,773
490,725; 9338,707;    0,741;   -0,227
491,311; 9016,926;    3,287;    3,045
491,897; 8524,575;   -0,986;    1,500
492,483; 8488,643;    0,105;    1,227
493,069; 8468,016;    3,923;    0,864
493,655; 8430,134;    1,650;    0,682
494,241; 8396,807;    1,377;   -0,955
494,826; 8798,703;    0,287;   -1,045
495,412; 8379,826;    2,559;   -0,682
495,998; 8585,692;   -0,805;   -0,318
496,584; 8737,120;    0,377;    1,045
497,169; 8788,774;    1,014;   -0,682
497,755; 8832,087;    0,650;    1,227
498,341; 9440,770;    0,559;    0,318
498,926; 9152,174;    1,832;    1,955
499,512; 9424,835;    1,286;    2,955
500,097; 9584,954;    0,195;   -0,318
500,683; 9647,082;   -0,350;    2,136
501,268;10128,850;   -0,169;   -0,955
501,854; 9979,963;   -0,169;    1,227
502,439;10043,545;   -0,624;   -1,773
503,024;10337,786;    0,195;    0,500
503,610;10485,804;   -0,078;   -0,682
504,195;10615,249;    0,558;    1,955
504,780;10845,868;    2,922;    1,227
505,366;10806,296;    3,013;    2,864
505,951;10644,898;    0,740;    1,045
506,536;10787,994;   -3,260;   -3,682
507,121;10864,881;    0,285;   -0,318
507,706;11485,712;    2,376;    1,045
508,291;11957,267;    2,649;    1,136
508,876;11518,820;   -0,988;    2,591
509,461;11077,816;   -0,169;   -0,773
510,046;11585,920;    0,194;    0,318
510,631;11898,389;   -0,351;   -0,773
511,216;11655,602;    2,467;   -0,500
511,801;12124,430;   -0,442;    2,591
512,386;12459,939;    0,740;    0,500
512,971;12440,520;   -2,988;    0,955
513,555;12091,493;   -0,897;   -1,500
514,140;12939,647;   -0,442;   -3,136
514,725;12984,033;   -0,715;   -1,136
515,309;13181,006;   -0,533;    0,318
515,894;12652,878;   -0,624;   -2,227
516,479;13150,105;   -0,624;   -0,955
517,063;13036,065;    0,376;    1,227
517,648;13198,447;    1,012;   -1,136
518,232;12877,972;   -0,261;   -1,409
518,817;13270,313;   -0,079;    1,682
519,401;13503,800;    2,194;    0,591
519,985;13072,218;    1,103;    1,136
520,570;12977,059;    0,830;   -1,955
521,154;13265,454;    2,102;    0,591
521,738;13447,580;   -2,352;    2,409
522,323;14026,518;   -0,170;    1,682
522,907;13792,171;    0,466;   -0,136
523,491;13542,276;    0,557;    0,955
524,075;13500,798;    2,284;    0,591
524,659;13597,026;    1,466;    0,591
525,243;13096,803;    1,739;    0,409
525,827;13363,407;    0,648;   -0,045
526,411;14221,753;   -1,989;   -0,136
526,995;14411,221;   -0,352;    1,409
527,579;14061,116;   -0,443;   -1,045
528,163;14369,674;    0,375;   -1,500
528,747;14276,561;    2,466;   -0,773
529,331;14567,388;   -0,080;   -1,409
529,915;14798,715;    1,738;    0,955
530,499;14751,683;   -0,807;    1,227
531,082;14483,561;   -0,534;    1,591
531,666;13919,187;    1,374;    0,773
532,250;14610,356;    1,284;    2,682
532,833;14949,224;    0,920;    2,773
533,417;14819,083;   -1,807;    0,864
534,001;14766,382;    1,647;   -0,318
534,584;15481,145;    0,374;    0,500
535,168;15312,682;    0,465;    1,409
535,751;15386,042;    0,647;    0,045
536,334;14834,082;   -0,898;   -0,409
536,918;15438,555;    0,011;    1,591
537,501;15565,619;   -0,899;    1,318
538,085;15556,741;   -0,444;    1,045
538,668;15725,446;    0,829;    2,409
539,251;16045,241;    1,829;    3,773
539,834;16087,859;    0,101;    0,773
540,418;15974,108;   -1,990;    4,318
541,001;16082,131;   -0,990;    1,773
541,584;16083,039;    2,101;    2,227
542,167;15793,067;    1,374;    2,955
542,750;15996,231;    1,919;   -0,773
543,333;15570,075;    0,555;    2,136
543,916;16329,281;    0,192;    2,500
544,499;16984,476;   -1,354;    0,227
545,082;16963,457;    1,374;    3,591
545,665;17076,908;    1,919;    1,500
546,248;17432,621;    1,010;   -0,318
546,830;17100,657;   -0,445;    1,955
547,413;17525,820;    1,010;   -0,773
547,996;18083,847;    0,555;    0,500
548,579;17843,074;    0,919;    0,955
549,161;17620,783;    1,828;    2,682
549,744;17456,010;   -0,809;    0,409
550,326;17968,110;   -0,809;   -1,136
550,909;17724,596;    2,737;    0,591
551,492;18129,355;   -0,263;    0,227
552,074;17899,937;   -0,173;   -1,318
552,657;18485,364;    2,373;    0,045
553,239;18216,295;   -0,173;   -0,773
553,821;18083,569;   -1,082;    1,045
554,404;17607,418;    1,282;    1,136
554,986;17978,018;    0,464;    1,045
555,568;18612,404;    1,191;   -0,955
556,151;17826,836;    1,191;   -0,227
556,733;18000,905;   -0,264;   -0,864
557,315;18459,685;    0,100;    0,500
557,897;18270,090;    0,554;   -0,500
558,479;18437,676;   -1,991;    1,318
559,061;18596,812;   -0,719;   -0,864
559,643;18906,899;   -0,264;    0,045
560,225;19275,204;    1,645;    2,864
560,807;19310,081;    0,918;    0,318
561,389;18769,530;    0,554;    2,318
561,971;19582,520;    0,463;    2,136
562,553;19354,030;   -1,628;    1,591
563,135;19498,957;   -0,537;    1,136
563,717;19097,467;    3,372;    1,136
564,298;19813,998;    3,645;   -0,045
564,880;19551,979;    0,645;   -1,409
565,462;19740,706;    0,645;    1,318
566,043;20892,134;   -0,446;    2,318
566,625;20414,312;    1,918;    1,227
567,207;20288,666;    1,099;    1,682
567,788;21399,688;   -1,264;    1,500
568,370;22249,406;    1,917;   -0,500
568,951;22093,052;    0,190;    0,227
569,533;22930,560;   -0,628;   -0,500
570,114;23398,570;   -0,446;    0,682
570,695;23903,837;   -0,174;   -1,318
571,277;24417,164;   -0,265;   -1,682
571,858;25147,878;    2,008;   -1,136
572,439;26104,424;    1,554;   -1,045
573,021;26254,695;    2,099;   -2,773
573,602;26742,637;   -1,265;    0,318
574,183;27687,573;   -2,083;    2,227
574,764;27836,345;   -1,629;    0,409
575,345;28377,577;    0,917;   -0,136
575,926;28968,737;   -0,356;    0,136
576,507;28977,087;    1,099;   -0,227
577,088;30098,509;    3,099;    1,682
577,669;30100,200;    0,735;    1,955
578,250;30866,209;    0,644;   -1,045
578,831;31509,058;   -1,356;   -2,227
579,412;31738,359;   -0,810;    0,955
579,993;32701,704;    1,008;    0,227
580,573;33086,286;   -0,629;   -0,955
581,154;32038,872;    0,735;   -0,591
581,735;32884,345;    0,644;    0,773
582,315;32368,618;   -0,629;    2,136
582,896;32735,345;   -0,174;    1,227
583,477;32121,090;    0,189;    1,227
584,057;32317,036;    0,553;    0,955
584,638;32598,977;    2,553;    2,318
585,218;32552,754;   -0,538;    2,682
585,799;32764,841;    0,281;   -0,227
586,379;32769,873;    0,372;    1,591
586,959;31479,182;    0,735;    0,318
587,540;30800,858;   -0,629;    2,227
588,120;30309,926;    1,007;   -0,045
588,700;29322,672;    2,553;    2,136
589,281;29666,041;    0,462;   -0,955
589,861;29548,554;    0,099;   -1,682
590,441;29400,322;    2,371;   -2,682
591,021;28358,972;   -0,265;   -2,591
591,601;28609,328;   -0,537;    0,500
592,181;28569,432;   -0,719;   -0,773
592,761;27849,431;    0,007;    1,409
593,341;27794,327;   -0,901;    0,045
593,921;27821,478;   -0,265;    1,591
594,501;27738,123;   -0,538;    1,318
595,081;27526,046;    0,917;   -0,318
595,661;27873,518;   -1,447;    0,955
596,240;28373,178;   -0,537;    0,136
596,820;28057,487;    0,372;    1,955
597,400;28241,264;    2,008;    0,773
597,980;28469,628;    2,008;    1,045
598,559;28494,614;    2,735;   -0,227
599,139;28221,459;   -0,174;   -1,227
599,718;28110,368;   -0,174;   -0,409
600,298;28331,464;    0,735;    0,682
600,877;28598,096;    2,917;    1,409
601,457;28821,769;    2,281;    1,136
602,036;28752,323;    0,190;    2,045
602,616;28929,533;    0,644;    1,682
603,195;29300,037;   -0,355;    3,500
603,774;28914,578;   -0,901;    2,045
604,354;28756,192;    0,826;   -0,500
604,933;28181,496;    0,463;    1,864
605,512;28292,083;    3,554;    0,591
606,091;28380,520;   -0,537;    3,773
606,671;29224,469;    0,281;    0,773
607,250;28342,387;    1,644;    3,136
607,829;28560,102;    2,372;    3,227
608,408;28392,751;    1,190;    2,591
608,987;27413,611;    1,281;    3,409
609,566;27721,705;   -1,265;   -2,500
610,145;27824,870;   -1,082;    0,682
610,723;28251,829;    4,372;    6,864
611,302;27481,116;   -0,446;    1,682
611,881;26993,334;    5,008;   11,227
612,460;27850,589;    1,645;    3,955
613,039;28299,166;   -0,082;    2,045
613,617;27010,879;    1,736;    4,773
614,196;27180,257;    1,099;    1,227
614,775;27557,671;    1,009;    2,409
615,353;27481,408;    0,736;    0,864
615,932;27161,935;    0,100;    2,409
616,510;27766,485;    0,554;    0,591
617,089;27283,189;    7,100;   17,591
617,667;27041,758;    2,372;    6,136
618,246;26940,735;   -1,537;    1,318
618,824;27067,449;   -3,355;   -0,955
619,402;26609,453;   -2,900;   -1,773
619,981;27102,213;   -0,173;   -1,045
620,559;26939,140;    0,009;    1,682
621,137;26484,681;   -0,718;    1,864
621,715;26501,822;   -1,173;   -0,682
622,293;26460,463;   -0,537;   -0,773
622,871;26873,049;   -0,718;    0,500
623,450;26481,672;    0,373;   -0,864
624,028;26363,077;    0,191;   -0,955
624,606;26013,786;   -1,718;    1,682
625,183;26409,873;   -1,536;   -1,136
625,761;26000,505;    1,009;    1,136
626,339;26373,868;    1,373;    2,591
626,917;26689,319;   -0,172;   -0,045
627,495;26685,182;   -0,354;    1,318
628,073;26132,237;   -0,263;    2,864
628,650;25839,587;    0,100;    2,136
629,228;26278,141;    0,373;    4,409
629,806;25646,323;    2,282;    1,136
630,383;25939,033;    1,464;   -0,318
630,961;25713,082;    2,555;   -0,955
631,539;25497,901;    2,464;    0,227
632,116;24829,900;   11,373;   15,409
632,694;25390,314;    2,555;    6,500
633,271;25720,747;    0,828;    2,682
633,848;25701,083;    1,828;    2,045
634,426;25704,761;   -1,081;    1,773
635,003;24814,476;    1,101;   -0,409
635,580;25097,639;    1,192;    3,682
636,158;25684,098;    3,737;    1,227
636,735;25655,324;    0,555;   -0,500
637,312;25791,165;   -0,809;   -0,682
637,889;25880,343;   -4,354;   -0,682
638,466;25349,158;   -3,990;   -0,409
639,043;25346,786;    2,101;   -1,136
639,620;25692,113;   -2,262;   -0,955
640,197;26017,974;    1,100;    1,682
640,774;26148,031;   -0,172;    1,136
641,351;26529,906;    0,737;    1,136
641,928;25920,871;   -0,627;    1,409
642,505;25558,201;    0,828;   -0,500
643,082;25754,530;   -1,718;    1,227
643,658;24771,950;   -0,718;    1,500
644,235;25503,552;    1,191;    2,500
644,812;25803,699;    1,918;    0,773
645,388;25594,210;   -0,991;    1,409
645,965;25669,449;   -0,809;    1,682
646,542;25747,142;   -1,445;   -0,227
647,118;25700,562;    1,009;   -0,955
647,695;26000,618;   -0,263;    1,136
648,271;25943,947;   -0,536;    0,500
648,848;26272,368;    0,736;    2,227
649,424;26081,060;    0,827;    1,318
650,000;25823,481;   -0,354;   -1,045
650,577;25639,173;   -0,627;   -0,955
651,153;26144,139;   -1,809;    0,955
651,729;27143,650;    1,191;    0,864
652,305;27413,979;    0,645;    2,773
652,881;32086,218;   -0,082;    1,136
653,458;39046,820;    1,100;    0,227
654,034;42765,058;    0,282;    1,591
654,610;44197,660;    0,554;    0,773
655,186;45525,535;    0,645;    3,045
655,762;45190,046;   -0,991;    0,409
656,338;45159,011;    0,100;    0,136
656,913;46120,431;   -0,082;    0,409
657,489;45380,306;    0,827;   -0,318
658,065;45326,454;   -0,173;   -1,591
658,641;45938,419;   -0,900;   -0,864
659,217;45261,657;   -0,991;    0,409
659,792;44639,350;    0,645;   -0,409
660,368;44851,316;   -2,173;   -0,682
660,944;44459,100;   -2,082;    1,227
661,519;39706,884;   -0,628;    0,409
662,095;33669,667;   -1,719;    0,591
662,670;29179,087;    1,281;   -0,136
663,246;28069,780;    1,009;   -0,409
663,821;27377,564;    0,281;    1,682
664,396;26926,712;    0,009;    1,864
664,972;27197,132;    0,009;   -0,500
665,547;27456,915;    1,372;    0,136
666,122;27495,608;   -1,082;    0,318
666,698;27800,938;   -0,173;    0,318
667,273;27112,449;   -0,173;    0,136
667,848;27925,778;    2,372;    1,500
668,423;27716,471;    2,190;    2,318
668,998;28293,527;    2,827;   -0,682
669,573;28863,129;   -3,264;   -1,500
670,148;28703,458;   -1,446;   -0,682
670,723;28543,060;   -1,810;    0,318
671,298;28895,299;    2,372;    1,045
671,873;29083,173;   -0,082;   -0,136
672,448;28954,866;    0,645;    0,136
673,023;29258,286;   -1,992;   -0,227
673,597;29609,707;    0,827;    2,318
674,172;29422,309;   -0,355;    0,318
674,747;28883,638;    0,372;   -1,045
675,321;28709,422;   -0,628;    3,318
675,896;28296,024;    0,645;    1,045
676,471;29295,625;    2,645;    1,591
677,045;29034,591;   -1,264;    0,682
677,620;29123,284;    0,190;    1,136
678,194;29415,431;   -2,628;    1,136
678,769;28994,942;   -1,083;   -0,318
679,343;29254,908;   -0,628;    1,773
679,917;29167,692;   -1,446;    1,955
680,492;29275,657;    0,826;    3,227
681,066;29363,532;    3,372;    0,409
681,640;29357,225;    1,463;   -0,318
682,214;30183,645;    0,735;    0,500
682,788;29701,156;   -1,356;   -0,773
683,363;29699,031;   -1,810;    1,682
683,937;29410,451;   -1,719;   -0,318
684,511;30088,689;    0,463;   -0,591
685,085;29851,473;   -1,356;    0,318
685,659;29581,621;   -2,538;    0,864
686,232;29893,495;   -0,356;   -0,318
686,806;29558,824;   -0,901;    0,409
687,380;30221,790;   -0,174;    0,591
687,954;30423,119;   -1,174;    1,136
688,528;30091,630;   -0,719;    1,955
689,101;30892,960;   -3,992;    1,045
689,675;30499,107;   -0,356;   -0,136
690,249;29871,527;   -0,719;    0,409
690,822;30184,311;    0,280;    0,318
691,396;30295,367;   -0,265;    1,227
691,969;29732,151;    1,280;    0,136
692,543;30158,753;   -0,447;   -1,955
693,116;29833,264;   -0,265;   -1,409
693,690;29675,957;    0,099;    0,500
694,263;30232,195;   -1,083;    2,955
694,836;30320,252;    1,371;    3,591
695,410;28908,218;   -0,265;    1,773
695,983;29430,638;    0,189;    0,591
696,556;29386,331;   -0,447;   -1,045
697,129;29748,023;   -0,356;    1,409
697,703;29409,807;   -1,629;    1,955
698,276;29417,136;    1,462;   -0,773
698,849;29216,557;    1,280;    1,409
699,422;29553,340;   -1,083;    0,591
699,995;29274,124;    0,007;    0,136
700,568;29755,544;   -0,629;    3,045
701,140;29770,601;   -2,811;    1,682
701,713;29516,476;   -0,174;    2,409
702,286;29285,623;   -0,538;    0,864
702,859;29164,225;   -0,902;   -0,591
703,432;28323,190;    0,825;    0,682
704,004;28768,065;    0,462;    0,318
704,577;28662,849;   -0,629;    0,136
705,150;29305,360;    0,189;    2,500
705,722;29060,689;   -0,356;   -3,227
706,295;28836,655;   -0,175;   -0,591
706,867;28708,439;   -0,175;    1,955
707,440;28846,859;   -1,720;   -0,409
708,012;29118,824;    0,462;    0,591
708,584;29081,881;    2,462;    0,227
709,157;29344,756;    1,825;   -0,591
709,729;29008,630;    2,280;    2,045
710,301;29873,050;    0,734;    0,045
710,874;29858,289;   -1,447;   -0,227
711,446;28730,891;    0,371;    0,864
712,018;28629,674;    0,098;    0,500
712,590;28360,186;   -1,993;    1,682
713,162;28885,333;    0,825;    1,318
713,734;29150,117;    1,825;   -2,045
714,306;29003,991;   -1,902;   -0,409
714,878;27673,957;    0,825;    0,864
715,450;28523,468;    0,643;    0,864
716,022;28742,525;    1,552;    1,318
716,593;28948,490;    0,189;    0,591
717,165;28894,001;   -3,175;   -1,227
717,737;28558,694;    0,280;    0,409
718,309;28154,751;    0,280;   -0,045
718,880;28145,353;   -0,539;   -1,409
719,452;28419,136;   -0,175;   -1,591
720,024;27946,466;    0,734;   -0,591
720,595;28492,340;   -2,902;    0,955
721,167;28092,942;    0,370;   -2,045
721,738;27648,362;   -0,812;   -1,045
722,309;27583,146;   -0,993;   -1,227
722,881;27349,385;   -1,357;    0,773
723,452;28034,441;   -2,630;    2,864
724,023;28199,407;   -0,721;    2,682
724,595;27969,100;    0,007;    0,682
725,166;27683,974;    0,007;   -0,409
725,737;27319,213;    1,734;    0,227
726,308;27405,633;   -0,266;    0,318
726,879;27879,689;   -1,630;    1,227
727,450;27736,109;    0,552;   -0,045
728,021;27716,711;    3,097;    0,682
728,592;27516,768;    0,734;    0,500
729,163;27823,915;    0,643;   -0,136
729,734;27840,608;    0,188;   -0,227
730,305;28207,846;    1,734;    0,136
730,876;28602,267;    0,188;    2,955
731,447;28303,050;    2,188;    2,682
732,017;28418,925;    1,097;    1,864
732,588;27864,436;    0,734;    1,227
733,159;28085,129;    0,643;   -1,045
733,729;27910,731;    0,006;    0,409
734,300;27157,878;    0,915;    0,864
734,870;27617,208;    3,461;    0,591
735,441;28177,264;    0,370;   -0,591
736,011;27915,139;    0,643;   -1,591
736,582;27840,650;   -0,812;    0,045
737,152;27335,343;   -1,721;   -2,045
737,722;27785,672;   -0,267;   -0,682
738,293;27501,910;   -1,358;    1,318
738,863;27386,967;    2,461;    2,318
739,433;27164,932;    5,279;    0,318
740,003;27765,716;   -0,994;   -0,682
740,573;27201,591;    2,097;   -1,591
741,143;27138,738;   -1,085;    0,318
741,713;27927,431;    1,188;   -0,500
742,283;27635,669;    0,915;    1,591
742,853;27386,544;    1,915;    1,591
743,423;26820,055;    1,733;    0,045
743,993;27023,294;   -0,358;    1,500
744,563;26416,896;    0,097;   -0,864
745,133;26351,316;   -0,812;   -0,864
745,702;27022,372;   -0,267;    1,773
746,272;26235,610;   -0,176;    0,591
746,842;25954,303;   -1,358;   -0,591
747,411;26404,451;   -0,267;   -0,318
747,981;26606,235;    0,097;    0,500
748,551;26683,382;    2,278;   -1,045
749,120;26497,166;    0,642;   -0,227
749,690;26870,040;   -0,631;    2,409
750,259;27195,551;    1,369;    2,955
750,828;27136,517;    1,551;   -1,955
751,398;27352,574;    1,278;   -0,045
751,967;26858,085;    2,187;    0,409
752,536;27081,505;   -0,813;   -0,227
753,105;27454,016;    0,096;    0,227
753,675;27326,436;    0,096;    1,773
754,244;27227,493;   -0,904;    3,591
754,813;27291,913;    0,551;    1,227
755,382;26887,151;    0,460;    0,955
755,951;27459,389;    1,551;    3,682
756,520;26983,809;   -0,085;    1,864
757,089;27526,230;    0,278;    0,500
757,658;27704,468;    1,733;    1,227
758,227;27633,615;    1,096;    0,318
758,795;27916,217;    1,187;    1,136
759,364;28182,092;   -0,086;   -0,591
759,933;27170,785;   -1,176;   -0,045
760,501;26673,660;    0,733;   -1,318
761,070;27174,625;   -2,813;   -1,409
761,639;27946,863;   -1,904;    1,318
762,207;27287,556;    1,551;   -0,955
762,776;27192,613;    0,369;    0,864
763,344;27124,488;   -0,995;    0,591
763,913;26233,908;   -0,722;    1,409
764,481;27013,964;    1,005;   -0,136
765,049;26746,475;   -1,358;    1,409
765,618;26651,259;   -0,086;    0,318
766,186;26786,134;    0,278;    0,136
766,754;26976,918;    0,005;    1,864
767,322;25942,156;   -1,995;    0,409
767,890;25976,485;   -0,722;   -1,773
768,459;26358,178;   -2,177;   -0,318
769,027;26580,053;    1,641;    3,409
769,595;25476,200;    3,278;    2,591
770,163;25942,529;    3,823;    2,955
770,730;25690,131;    0,732;   -0,136
771,298;25539,370;    0,187;   -1,409
771,866;25615,608;   -1,541;    4,955
772,434;25977,301;   -0,631;   -1,864
773,002;26087,448;    0,005;    0,682
773,569;25764,232;    0,914;    1,682
774,137;25555,743;   -0,268;   -0,045
774,705;26323,436;    0,278;   -0,136
775,272;25874,947;    0,641;    0,682
775,840;25633,276;   -0,177;    2,682
776,407;25158,151;    0,277;    1,955
776,975;24741,935;   -0,632;    0,318
777,542;25703,991;   -1,086;   -0,045
778,110;25567,048;   -1,268;   -0,045
778,677;25274,650;   -2,359;   -0,864
779,244;25039,343;    2,186;    1,045
779,812;25124,308;    1,823;    0,864
780,379;24948,365;    0,005;    1,136
780,946;25208,603;    1,005;   -0,773
781,513;25541,478;   -1,450;    0,318
782,080;24883,716;   -0,086;    2,864
782,647;25623,045;   -0,268;    3,045
783,214;25170,011;   -0,177;    3,864
783,781;24831,340;   -0,723;   -0,682
784,348;24687,669;   -0,632;    1,500
784,915;25174,271;   -3,177;    0,318
785,482;24985,055;    1,368;    2,591
786,049;25417,930;    0,186;   -0,591
786,615;25480,986;    0,277;   -0,955
787,182;25258,679;    0,186;   -0,682
787,749;24946,099;   -2,814;    1,409
788,315;24279,883;   -1,632;   -0,409
788,882;24559,394;    1,550;   -1,227
789,448;25283,269;    1,732;   -0,955
790,015;25303,962;    1,095;    3,227
790,581;24852,382;    1,459;    0,227
791,148;24771,893;    0,641;    1,045
791,714;24976,495;   -0,541;    3,136
792,280;24600,824;    0,186;    1,591
792,847;24210,244;    0,550;    2,500
793,413;24773,937;   -0,269;   -0,318
793,979;24296,721;    3,459;   -1,318
794,545;24400,414;    4,459;    2,682
795,111;23743,743;    2,186;    1,318
795,678;23995,527;    0,731;   -1,682
796,244;23633,401;    3,368;    0,136
796,810;24155,640;    1,731;    0,773
797,375;23826,060;    0,549;   -2,136
797,941;23859,571;   -0,541;    0,591
798,507;24033,809;   -0,451;   -0,955
799,073;23589,866;   -0,360;    0,591
799,639;23649,650;   -2,632;    3,136
800,205;23703,070;    0,095;    2,682
800,770;23230,035;    0,640;    1,773
801,336;23305,637;    1,368;   -0,955
801,901;22994,512;    4,549;    3,136
802,467;23602,114;   -0,542;    2,045
803,033;22890,170;   -0,087;    0,864
803,598;23091,772;    1,913;   -1,045
804,163;23136,556;    1,095;   -0,318
804,729;23140,158;   -0,178;    1,136
805,294;23505,942;    0,822;    2,227
805,859;23267,089;    0,731;   -0,409
806,425;22748,237;    1,186;    2,682
806,990;22387,475;    2,186;    4,318
807,555;22899,986;   -1,451;    2,591
808,120;22778,861;    0,822;   -0,409
808,685;22819,645;    0,185;   -2,500
809,250;22360,428;    0,004;   -0,500
809,815;22702,576;    1,913;    0,682
810,380;23256,451;   -0,269;    1,591
810,945;23746,053;   -1,087;    2,045
811,510;22917,382;    2,094;    1,591
812,075;22624,711;   -0,633;   -1,409
812,640;22659,131;    2,003;    1,409
813,204;22704,915;    0,822;   -0,227
813,769;23210,244;    2,094;   -0,045
814,334;22623,846;    0,458;    0,864
814,898;22687,630;    0,367;    0,591
815,463;22515,777;    1,276;   -0,773
816,027;22483,925;   -0,724;   -2,318
816,592;22535,981;    0,640;   -2,045
817,156;22055,947;    2,094;    1,136
817,721;21940,185;    4,276;    2,318
818,285;21976,514;    2,912;    1,500
818,849;22552,662;   -1,451;    1,682
819,414;22443,537;   -0,269;    2,955
819,978;22010,593;   -1,269;    1,773
820,542;22594,013;    2,003;    0,500
821,106;22277,888;   -0,815;    0,682
821,670;22434,490;   -0,815;    2,591
822,234;22199,728;   -0,270;    1,409
822,798;21508,785;    0,003;    0,500
823,362;21473,296;   -0,633;    4,227
823,926;20793,898;    0,094;    1,136
824,490;21000,772;   -0,997;   -0,682
825,054;21477,556;   -0,088;   -1,136
825,618;21086,885;   -1,542;   -1,500
826,181;21046,215;    0,458;   -1,318
826,745;20951,362;    1,367;   -1,045
827,309;21292,146;    1,185;    1,318
827,872;20729,111;    1,367;    0,955
828,436;21707,350;    1,185;   -0,773
828,999;21743,315;   -0,997;    1,227
829,563;20507,281;   -0,179;    1,136
830,126;20323,701;   -0,179;   -0,591
830,690;20353,212;   -1,997;    2,864
831,253;19895,178;   -0,543;    2,227
831,816;20062,143;   -1,906;    0,500
832,380;19953,018;    0,185;    0,864
832,943;20205,711;   -1,361;   -0,500
833,506;19685,949;    2,639;   -1,227
834,069;20462,733;    3,912;   -0,955
834,632;20500,517;    1,730;    1,318
835,195;20365,210;    1,003;    0,955
835,758;19568,812;   -0,997;    1,955
836,321;19443,686;    0,730;   -1,045
836,884;19556,470;   -0,725;   -0,955
837,447;19570,708;   -2,816;    1,773
838,010;19840,674;    0,366;    3,227
838,573;20091,912;   -1,179;    0,773
839,135;20066,969;   -1,361;   -0,955
839,698;19533,934;    1,275;    0,409
840,261;19043,536;    1,003;   -0,227
840,823;18917,047;   -0,543;    0,864
841,386;19169,013;   -0,452;   -2,409
841,948;19052,433;   -1,361;    1,773
842,511;18831,944;    0,912;    1,682
843,073;18990,910;    1,912;    0,227
843,636;18785,875;   -0,361;   -0,227
844,198;18709,205;    0,911;    0,591
844,760;18804,352;    1,093;    1,955
845,322;18429,863;    0,548;    1,136
845,885;18856,102;    0,730;    0,591
846,447;19342,067;   -1,998;    0,227
847,009;18965,760;    1,911;   -0,682
847,571;19279,726;    0,820;   -2,045
848,133;19390,146;   -1,089;   -1,864
848,695;19210,111;   -0,543;    1,409
849,257;18732,259;   -1,089;   -1,682
849,819;18881,133;   -0,998;   -0,409
850,381;18945,008;   -0,725;   -0,864
850,942;19350,428;    1,093;   -0,591
851,504;19263,121;    1,184;    0,227
852,066;19314,450;    1,275;   -1,591
852,628;18868,143;   -0,180;    1,955
853,189;18387,109;    1,638;    2,682
853,751;18512,165;   -0,907;    1,409
854,312;18300,858;   -0,453;   -1,682
854,874;18793,006;   -2,089;   -0,773
855,435;19353,335;   -0,907;   -1,682
855,997;19522,391;   -1,816;   -0,136
856,558;18805,175;    0,366;    1,773
857,119;18865,686;    0,820;    2,864
857,681;18525,561;    0,002;    0,318
858,242;18609,345;    1,911;   -2,136
858,803;19044,674;    0,456;   -0,773
859,364;19643,003;    0,184;   -4,773
859,925;18927,151;   -2,453;   -0,955
860,486;18805,571;   -0,453;   -0,955
861,047;18532,355;   -0,544;   -1,227
861,608;18339,411;   -1,089;   -0,773
862,169;18488,922;    0,638;   -0,045
862,730;18258,706;    0,456;    1,409
863,291;18432,490;   -0,635;   -0,500
863,852;18836,546;   -0,635;    1,955
864,412;18320,694;   -0,271;   -0,864
864,973;16912,750;   -0,089;    0,500
865,534;16759,625;   -1,726;    0,227
866,094;18248,409;    1,820;    0,227
866,655;17916,374;    1,274;    3,318
867,215;18159,612;    0,274;    0,136
867,776;18019,487;    0,547;   -0,136
868,336;18098,544;   -1,453;    0,136
868,897;17602,055;    2,638;    1,682
869,457;17383,475;    1,365;    0,318
870,017;17527,713;    0,547;   -1,227
870,578;18084,315;   -0,817;    0,773
871,138;17765,554;   -2,089;   -0,955
871,698;17305,792;   -0,817;   -1,318
872,258;17216,030;   -0,453;   -2,864
872,818;17619,269;    2,729;    0,045
873,378;17550,052;    0,638;    1,045
873,938;17091,836;    0,547;    0,500
874,498;17457,711;    0,274;   -1,955
875,058;17330,585;    2,183;    1,773
875,618;17146,006;    1,910;   -2,682
876,177;17066,244;    1,274;    0,136
876,737;16713,755;   -0,090;    1,955
877,297;16753,902;    0,183;    1,955
877,856;16786,595;   -0,362;    0,318
878,416;16715,470;    1,183;   -0,136
878,976;16909,890;   -1,817;    0,409
879,535;17075,492;    0,092;    3,136
880,095;16824,639;   -0,544;    0,045
880,654;16977,151;   -1,090;    1,318
881,213;17042,116;    2,456;    1,500
881,773;16739,991;    2,637;    2,682
882,332;17040,956;    3,365;    5,136
882,891;16879,377;    3,092;    2,136
883,451;17362,524;   -1,272;    1,682
884,010;16770,944;   -2,908;   -0,409
884,569;16859,455;   -0,999;   -0,045
885,128;16962,057;    2,819;   -1,864
885,687;17077,023;    4,455;    0,682
886,246;16788,897;    1,455;    2,136
886,805;16562,863;    2,455;    2,045
887,364;16848,101;   -0,999;   -0,500
887,922;17182,612;   -1,181;    0,045
888,481;16666,851;   -1,545;    0,591
889,040;16977,089;    1,183;    2,136
889,599;17673,236;    2,455;    1,409
890,157;17775,202;    1,455;    2,409
890,716;17437,077;   -0,090;    0,227
891,274;17257,679;    0,092;   -1,136
891,833;17692,917;    1,546;    0,864
892,391;17572,428;   -0,454;    0,500
892,950;17637,666;    1,819;   -0,773
893,508;18017,996;    0,455;   -0,409
894,067;17376,143;    0,637;    0,136
894,625;17294,654;   -0,636;   -1,500
895,183;17466,165;   -0,363;   -0,682
895,741;17322,131;    1,728;   -1,773
896,299;17197,369;   -0,545;   -2,409
896,858;17401,244;    0,819;   -1,591
897,416;17523,846;    2,728;   -1,318
897,974;17251,539;    1,819;    0,318
898,532;17405,504;    6,091;    2,682
899,089;17319,834;    2,091;   -0,682
899,647;17351,345;   -1,454;    1,318
900,205;17068,037;    1,182;    1,045
900,763;17249,003;   -0,454;    0,227
901,321;17227,423;    2,364;   -1,409
901,878;16677,752;   -1,000;   -0,773
902,436;16559,263;   -1,363;    1,318
902,994;16950,502;    4,728;    3,682
903,551;16386,286;    0,728;    0,409
904,109;16771,615;    0,182;   -1,409
904,666;16354,762;    2,455;    1,045
905,224;16201,182;    0,182;   -0,409
905,781;15920,512;    0,727;   -0,318
906,338;16002,477;   -1,363;    1,045
906,895;15964,443;    0,637;    2,045
907,453;15883,408;    1,727;    1,136
908,010;15930,374;   -0,909;    0,409
908,567;15549,976;    1,273;    0,591
909,124;15034,032;    0,364;   -1,500
909,681;15168,180;   -2,909;    0,682
910,238;15295,146;    0,636;   -1,318
910,795;15598,657;   -0,273;   -1,136
911,352;15204,020;   -2,909;   -2,682
911,909;14597,020;   -1,364;   -0,864
912,466;15136,657;   -3,182;    1,500
913,022;14693,747;   -1,636;    0,500
913,579;15012,657;   -0,909;    2,045
914,136;14723,384;    1,636;    0,955
914,692;15064,293;    0,091;   -1,227
915,249;14684,020;    1,455;    0,409
915,806;14927,111;    0,182;    1,955
916,362;14688,384;    1,909;    1,864
916,918;14197,293;    2,000;    1,045
917,475;14192,293;   -1,182;    0,955
918,031;14254,202;    3,364;   -0,045
918,587;13707,747;   -0,909;   -0,318
919,144;13927,747;   -2,273;    0,227
919,700;14228,929;    1,727;    0,773
920,256;13783,293;    0,727;    0,045
920,812;13415,929;   -0,727;   -1,045
921,368;13451,475;   -1,727;   -1,045
921,924;13056,838;    0,182;   -0,136
922,480;12626,929;   -0,545;    1,227
923,036;13270,566;    1,273;    1,955
923,592;13192,293;    0,455;    0,318
924,148;13104,566;    0,455;   -0,955
924,704;12457,202;   -1,364;   -0,409
925,259;12696,293;   -0,273;    0,591
925,815;12450,202;    1,455;    0,500
926,371;11977,566;    2,909;    1,409
926,926;11841,293;    2,091;    0,591
927,482;11483,566;   -1,364;    0,773
928,037;11382,475;    0,909;    2,045
928,593;11663,293;    1,636;    1,045
929,148;11476,475;   -1,818;   -1,500
929,704;11001,475;   -1,455;   -0,500
930,259;11207,657;    0,091;   -0,136
930,814;10245,384;   -0,818;    1,955
931,369; 9949,111;    1,091;   -0,773
931,925; 9816,747;   -0,091;    0,136
932,480; 9744,838;   -2,818;   -2,591
933,035; 9631,475;    0,545;   -0,318
933,590; 9385,566;    0,364;   -1,773
934,145; 9012,202;   -1,364;   -0,318
934,700; 9361,838;    0,455;   -0,591
935,255; 9144,384;   -0,091;    0,045
935,809; 8419,747;    3,182;    0,864
936,364; 7568,384;   -0,455;   -0,136
936,919; 7539,475;    0,455;   -1,773
937,474; 7410,475;    1,455;    0,136
938,028; 7175,657;   -1,636;    1,136
938,583; 6640,747;    1,818;    4,682
939,138; 6911,657;    2,091;    2,136
939,692; 6362,657;    1,636;   -1,136
940,247; 6067,111;   -0,727;   -1,045
940,801; 5635,111;   -0,636;    0,227
941,355; 5499,929;   -0,364;    2,591
941,910; 5138,475;   -0,273;   -2,136
942,464; 5261,111;   -0,818;   -0,318
943,018; 5022,838;    1,000;   -0,227
943,572; 4987,929;    2,545;   -0,682
944,126; 4414,020;    0,091;   -0,409
944,681; 4311,020;    3,091;    0,227
945,235; 4274,747;    1,000;   -0,591
945,789; 4224,566;    0,364;   -1,864
946,342; 4319,202;    0,455;   -0,591
946,896; 4124,384;   -2,273;    0,955
947,450; 3861,929;    1,545;   -0,227
948,004; 4043,838;    1,727;   -0,045
948,558; 4069,293;    0,273;   -0,864
949,111; 4001,293;   -0,273;   -0,318
949,665; 4011,293;    1,636;   -0,682
950,219; 3902,384;   -0,091;   -1,045
950,772; 3989,111;   -1,909;    1,864
951,326; 3896,929;    0,545;   -0,955
951,879; 4002,657;    0,727;   -2,318
952,433; 4000,838;    0,000;    2,227
952,986; 3850,838;    2,909;    0,682
953,539; 3793,384;   -0,273;    0,591
954,093; 3731,020;    0,545;   -1,318
954,646; 3841,111;    0,909;    1,318
955,199; 3677,384;    0,000;   -0,500
955,752; 3571,020;   -0,455;    1,773
956,305; 3529,838;   -0,091;    2,955
956,858; 3698,747;    0,818;   -0,318
957,411; 3869,566;   -0,545;    2,136
957,964; 3700,657;    1,364;    2,136
958,517; 3687,293;   -1,545;    3,136
959,070; 3522,475;   -0,455;    1,955
959,623; 3597,293;    1,091;    1,500
960,176; 3356,747;    1,727;    2,045
960,728; 3346,020;   -2,727;    0,773
961,281; 3389,838;    0,545;    0,500
961,834; 3445,202;   -0,909;    0,864
962,386; 3356,929;    1,727;    1,045
962,939; 3263,747;    0,364;   -0,318
963,491; 3416,475;    0,455;    1,136
964,043; 3294,566;    1,182;    2,409
964,596; 3417,929;   -1,000;    2,227
965,148; 3256,020;   -1,000;    1,773
965,700; 3184,929;    1,091;   -0,227
966,253; 3323,202;   -0,636;    0,318
966,805; 3163,111;   -2,273;    0,773
967,357; 3222,838;    1,091;   -1,500
967,909; 3170,838;    0,455;   -1,227
968,461; 3293,475;    0,545;    3,136
969,013; 3203,747;   -0,182;   -0,864
969,565; 3302,929;   -0,455;   -1,136
970,117; 3348,566;   -0,364;    1,045
970,669; 3195,657;    0,182;   -0,136
971,220; 3071,111;   -0,455;   -1,500
971,772; 2977,475;   -0,636;   -0,318
972,324; 3092,293;    0,091;   -0,500
972,876; 3044,657;    0,818;   -0,045
973,427; 3186,475;    1,909;   -1,045
973,979; 3139,384;   -0,727;   -2,500
974,530; 3189,747;    1,818;    1,318
975,082; 3209,293;   -0,545;    1,682
975,633; 3087,566;    1,091;    1,682
976,184; 3218,566;    0,909;    0,773
976,736; 3003,657;    0,091;    0,227
977,287; 2816,384;   -0,909;   -0,500
977,838; 3001,475;    0,909;   -0,318
978,389; 3055,929;   -1,000;   -0,500
978,940; 2921,111;    0,545;   -0,409
979,491; 2955,475;    0,091;   -0,500
980,042; 2911,293;    0,182;    3,045
980,593; 2975,747;   -2,545;    0,227
981,144; 3004,020;    2,545;   -0,500
981,695; 2978,384;    1,455;    1,500
982,246; 2945,111;   -0,273;    1,045
982,797; 3110,566;   -1,727;    0,682
983,347; 3236,929;    0,364;    0,591
983,898; 3375,202;    3,091;    0,409
984,449; 3179,384;    2,182;    0,773
984,999; 3102,020;    1,455;   -1,136
985,550; 2885,747;    0,182;   -0,318
986,100; 2910,475;   -0,455;   -0,318
986,651; 2929,202;   -0,818;    0,045
987,201; 2910,293;   -1,000;   -0,591
987,751; 3003,838;    0,818;    2,864
988,302; 2988,020;    2,636;    1,500
988,852; 3015,020;    0,455;   -1,136
989,402; 3047,747;    0,091;    0,682
989,952; 2984,293;   -2,182;    0,864
990,502; 3085,838;   -0,091;    0,682
991,052; 3039,020;   -0,727;    0,045
991,602; 2913,747;   -2,909;    1,318
992,152; 2903,566;    0,455;    0,682
992,702; 2899,020;    1,364;   -0,045
993,252; 2812,747;   -3,000;   -0,500
993,802; 2898,384;   -0,273;    1,318
994,352; 3124,020;   -1,545;    1,136
994,901; 3232,293;   -0,182;    3,227
995,451; 3129,475;   -0,182;    0,318
996,000; 3222,020;    1,636;    0,318
996,550; 2933,202;    2,273;    0,227
997,100; 2930,384;    1,273;   -0,045
997,649; 3195,838;    2,182;    0,955
998,198; 2842,202;    1,727;   -1,500
998,748; 3044,293;    1,091;   -2,318
999,297; 2947,929;   -0,818;   -0,409
999,846; 2996,838;    1,000;   -0,773
1000,395; 3072,020;   -0,818;    0,500
1000,945; 3012,475;    1,818;   -0,773
1001,494; 3092,747;    2,364;    0,682
1002,043; 3093,929;    4,636;    0,864
1002,592; 2938,929;   -1,091;    1,955
1003,141; 3082,384;   -0,455;   -0,682
1003,690; 2931,747;    1,727;    0,500
1004,238; 3016,293;    1,455;   -0,045
1004,787; 2669,566;    1,364;    1,227
1005,336; 2893,566;    0,364;    0,682
1005,885; 3029,929;    1,364;   -2,773
1006,433; 3159,566;    0,545;    0,955
1006,982; 3248,020;    0,455;    1,682
1007,531; 3124,657;   -1,818;   -0,227
1008,079; 3086,020;   -2,273;    0,500
1008,627; 3239,384;   -1,455;    0,409
1009,176; 2976,657;    0,000;   -1,955
1009,724; 3005,384;    1,091;    0,864
1010,273; 3074,838;    1,273;    0,500
1010,821; 3164,475;    0,091;    1,409
1011,369; 2909,566;   -1,364;    1,318
1011,917; 2889,747;   -1,364;   -0,591
1012,465; 3164,475;    1,273;   -1,591
1013,013; 3271,747;    2,091;   -1,682
1013,561; 3159,657;    0,455;   -0,773
1014,109; 3219,566;   -1,909;    1,682
1014,657; 3075,475;    0,364;    0,591
1015,205; 3209,747;    1,636;   -0,955
1015,753; 3233,020;   -0,545;   -1,409
1016,301; 3279,384;   -2,636;    3,045
1016,848; 3296,929;   -1,273;    0,409
1017,396; 3329,566;    2,545;    0,045
1017,944; 3450,202;    1,182;    1,864
1018,491; 3215,020;    0,273;    1,409
1019,039; 3356,566;    0,455;    0,591
1019,586; 3271,202;   -1,364;    1,682
1020,134; 3374,293;    0,455;    1,500
1020,681; 3406,202;    0,182;   -1,136
1021,228; 3408,657;    2,909;   -2,227
1021,776; 3243,657;    1,182;   -1,136
1022,323; 3456,929;    0,455;    0,773
1022,870; 3399,111;   -1,000;   -0,045
1023,417; 3292,747;    2,636;    1,864
1023,964; 3435,202;    2,636;    1,227
1024,511; 3262,566;    1,000;    0,773
1025,058; 3044,293;    3,182;   -0,045
1025,605; 3120,202;   -2,273;    3,136
1026,152; 3346,566;    1,727;   -0,591
1026,699; 3076,111;    1,818;    1,318
1027,245; 3246,566;   -0,091;    0,318
1027,792; 3434,475;   -1,000;    1,409
1028,339; 3307,657;    2,364;   -0,045
1028,885; 3173,929;    1,000;   -0,227
1029,432; 3115,202;   -0,091;    0,227
1029,978; 3184,020;   -1,000;   -1,591
1030,525; 3088,747;    1,000;    0,409
1031,071; 3326,475;   -1,364;    1,136
1031,618; 3428,475;    0,364;    1,682
1032,164; 3219,929;   -0,091;    3,045
1032,710; 3253,475;    1,636;   -1,500
1033,256; 3164,657;   -0,636;   -0,136
1033,803; 3160,384;   -0,545;    1,500
1034,349; 2879,747;   -1,364;    0,136
1034,895; 3040,566;    0,000;   -0,318
1035,441; 3035,384;   -0,818;    0,318
1035,987; 3020,475;   -2,364;   -0,682
1036,533; 3022,293;   -1,455;   -0,955
1037,078; 3225,838;    1,455;    1,682
1037,624; 3065,202;    2,455;   -0,955
1038,170; 3062,384;    0,455;   -0,318
1038,716; 2954,657;    1,636;   -0,409
1039,261; 2873,293;   -2,273;   -0,773
1039,807; 2831,747;   -0,091;    3,409
1040,352; 2888,202;   -1,909;   -0,318
1040,898; 2937,929;   -1,545;   -0,682
1041,443; 2841,747;   -1,455;   -2,591
1041,989; 2852,293;    1,091;    1,591
1042,534; 2739,202;   -0,364;    2,591
1043,079; 2871,475;    2,909;    0,955
1043,625; 2652,838;    1,818;    0,500
1044,170; 2692,202;   -1,364;    1,045
1044,715; 2943,020;    2,455;    0,955
1045,260; 2764,111;    2,182;   -0,955
1045,805; 2817,020;    1,182;   -0,591
1046,350; 2749,111;    1,364;   -0,409
1046,895; 2711,475;    2,909;    1,591
1047,440; 2655,475;    5,364;    0,409
1047,985; 2547,657;    2,818;   -0,955
1048,530; 2468,202;    1,545;    1,227
1049,074; 2525,475;    0,000;    0,318
1049,619; 2508,293;   -1,364;    1,955
1050,164; 2321,202;    0,455;    0,227
1050,708; 2355,384;   -0,455;    0,045
1051,253; 2734,929;    1,273;   -2,227
1051,797; 2439,747;    0,818;   -1,318
1052,342; 2453,202;   -1,182;    1,045
1052,886; 2443,384;    0,364;   -1,409
1053,430; 2325,202;   -1,364;    0,136
1053,975; 2326,475;   -0,818;   -0,318
1054,519; 2326,929;   -0,727;    3,227
1055,063; 2325,293;    0,909;    1,318
1055,607; 2207,747;   -0,182;    0,227
1056,151; 2229,566;    2,909;    1,682
1056,695; 2151,838;    2,273;   -1,136
1057,239; 2223,384;   -1,727;   -0,682
1057,783; 2227,657;    0,818;   -1,500
1058,327; 2182,657;    0,000;    1,409
1058,871; 2409,020;   -0,545;    1,318
1059,415; 2124,202;   -0,818;   -0,045
1059,958; 2395,202;    1,455;    2,591
1060,502; 2103,838;   -1,000;   -0,773
1061,046; 2007,929;    0,364;   -0,955
1061,589; 1986,566;   -3,000;   -1,136
1062,133; 1869,111;   -1,273;    1,864
1062,676; 1811,111;    1,182;    0,864
1063,220; 1802,929;    1,091;    0,500
1063,763; 1820,838;    0,909;    1,136
1064,306; 1905,384;   -0,909;    1,864
1064,849; 1787,475;   -0,909;    0,591
1065,393; 1795,929;    2,000;   -1,500
1065,936; 1921,566;    0,182;   -0,409
1066,479; 1797,838;   -1,455;    1,318
1067,022; 1832,111;   -0,273;   -0,227
1067,565; 1716,384;   -0,091;   -1,318
1068,108; 1738,747;    0,727;   -0,591
1068,651; 1714,293;   -0,636;    1,409
1069,194; 1647,747;   -0,455;   -1,682
1069,736; 1654,020;   -1,273;    0,955
1070,279; 1629,566;   -1,364;   -0,500
1070,822; 1685,293;   -2,000;   -0,318
1071,364; 1769,202;   -0,364;    1,318
1071,907; 1599,838;   -0,727;    3,227
1072,450; 1486,111;    0,000;   -0,045
1072,992; 1478,111;   -0,273;    3,136
1073,535; 1626,566;    2,091;    2,136
1074,077; 1415,020;   -0,727;    2,045
1074,619; 1394,111;   -1,364;    0,591
1075,161; 1426,475;   -1,091;    1,500
1075,704; 1607,838;    1,545;    1,227
1076,246; 1402,929;   -0,182;    0,682
1076,788; 1324,020;   -0,364;    1,773
1077,330; 1402,838;    1,273;    2,136
1077,872; 1367,111;    0,909;    0,955
1078,414; 1583,384;    2,727;    0,773
1078,956; 1322,020;    1,273;   -0,227
1079,498; 1586,384;    1,636;    0,318
1080,040; 1294,293;    1,909;   -1,318
1080,581; 1224,020;    1,636;   -0,318
1081,123; 1146,293;    0,091;   -0,773
1081,665; 1191,384;   -1,182;   -0,955
1082,206; 1498,566;    1,364;   -0,500
1082,748; 1357,020;    0,727;    2,045
1083,289; 1228,384;   -2,000;    1,318
1083,831; 1147,657;   -0,545;    0,227
1084,372; 1177,838;    0,000;    0,591
1084,913; 1183,293;    1,091;    0,864
1085,455; 1155,202;   -1,909;   -2,045
1085,996; 1122,657;   -2,273;    0,136
1086,537; 1135,111;   -0,091;    0,864
1087,078; 1169,838;   -0,909;   -2,136
1087,619; 1223,020;   -1,273;    0,227
1088,160; 1139,020;    0,000;    1,318
1088,701; 1124,747;   -1,091;    0,682
1089,242; 1060,657;    1,364;   -2,227
1089,783; 1158,202;   -0,273;    1,409
1090,324; 1112,202;    0,455;    0,682
1090,865; 1006,838;    2,727;   -0,409
1091,405;  966,747;    0,727;    2,227
1091,946;  999,111;    0,182;   -0,955
1092,487;  928,657;    0,818;   -1,409
1093,027; 1094,202;   -1,364;   -1,500
1093,568;  938,566;   -0,364;    1,227
1094,108; 1043,657;    0,273;    1,773
1094,649;  974,566;   -1,182;    0,136
1095,189;  917,566;   -0,636;   -0,682
1095,729;  869,838;   -0,091;    0,955
1096,269;  869,020;    0,727;   -0,955
1096,810; 1192,020;   -1,364;    0,500
1097,350; 1010,293;    1,364;   -0,773
1097,890;  916,020;    0,364;    1,227
1098,430; 1162,384;    2,364;    2,864
1098,970; 1044,566;    2,182;    1,682
1099,510;  891,566;    0,545;   -2,318
1100,050;  813,566;    1,000;   -1,591
1100,589;  795,020;   -0,727;   -0,318
1101,129;  920,747;    0,818;   -0,955
1101,669; 1069,111;    1,727;    2,136
1102,209;  887,293;   -0,091;    2,227
1102,748;  840,747;    0,000;    0,955
1103,288;  819,475;    1,273;   -1,227
1103,827;  867,111;    3,091;   -2,227
1104,367;  749,747;   -0,091;   -2,409
1104,906;  707,566;    1,364;   -1,136
1105,445;  780,111;    0,636;   -1,136
1105,985;  724,020;   -0,727;    1,500
1106,524;  766,566;   -1,727;   -0,682
1107,063;  740,747;   -2,727;    1,409
1107,602;  719,657;   -1,909;   -1,500
1108,141;  640,111;   -1,909;    1,500
1108,680;  748,293;   -3,455;   -0,591
1109,219;  678,566;   -0,909;   -0,500
1109,758;  678,566;    0,455;    0,682
1110,297;  648,929;    1,000;   -0,682
1110,836;  586,020;   -0,727;    0,955
1111,375;  766,020;   -2,545;    0,409
1111,913;  771,475;   -1,000;    0,773
1112,452;  707,747;   -0,273;    0,136
1112,991;  595,566;    1,091;    1,955
1113,529;  554,111;   -0,818;   -0,045
1114,068;  632,384;   -0,273;    2,955
1114,606;  522,929;   -0,364;   -0,955
1115,144;  686,475;   -1,273;    1,045
1115,683;  621,929;   -0,727;    0,318
1116,221;  663,747;   -0,455;   -0,864
1116,759;  576,475;    0,636;   -0,864
1117,297;  783,747;    0,000;    1,864
1117,836;  586,475;   -2,182;   -1,227
1118,374;  600,657;    0,182;   -0,682
1118,912;  536,020;    0,909;    2,682
1119,450;  524,020;    1,000;    0,864
1119,988;  581,384;    1,545;    2,136
1120,525; 1034,838;    5,091;    3,318
1121,063;  736,657;    1,182;    1,864
1121,601;  536,747;   -0,909;   -1,227
1122,139;  489,747;   -0,727;   -2,045
1122,676;  693,020;   -0,727;    2,773
1123,214;  625,475;   -1,182;    4,409
1123,751;  429,020;    1,727;    2,227
1124,289;  574,293;   -0,091;   -0,409
1124,826;  439,384;    1,727;    0,227
1125,364;  353,475;    1,727;   -0,955
1125,901;  539,475;    1,182;    1,227
1126,438;  652,838;    0,818;    0,955
1126,975;  375,384;   -0,727;   -0,773
1127,513;  451,929;    0,273;    2,136
1128,050;  345,657;    1,636;   -0,682
1128,587;  457,020;    2,000;   -0,227
1129,124;  511,111;    0,091;    1,318
1129,661;  372,838;    0,273;    0,227
1130,198;  535,384;    1,636;    0,773
1130,734;  476,111;    0,182;    1,409
1131,271;  337,293;   -0,909;    0,864
1131,808;  511,384;    2,909;    3,045
1132,345;  391,293;    1,545;    0,318
1132,881;  253,747;   -1,545;   -1,864
1133,418;  401,475;    0,727;   -1,136
1133,954;  328,293;    2,455;   -2,682
1134,491;  400,020;    1,364;   -0,773
1135,027;  304,202;    2,364;    0,864
1135,564;  392,929;    0,273;    2,955
1136,100;  378,657;    0,364;    2,136
1136,636;  265,929;   -1,273;   -1,045
1137,172;  364,111;    0,000;   -1,045
1137,708;  281,202;   -1,364;   -1,045
1138,245;  284,566;    1,273;   -1,227
1138,781;  233,384;    1,091;   -3,318
1139,317;  303,657;    1,273;   -1,409
1139,852;  300,293;    3,091;    0,136
1140,388;  420,020;   -1,182;   -0,409
1140,924;  297,657;   -1,091;   -2,227
1141,460;  234,111;   -1,636;    0,136
1141,996;  170,202;   -1,364;    2,682
1142,531;  226,384;    1,364;    3,318
1143,067;  427,838;    1,182;    1,045
1143,602;  496,384;   -0,091;   -0,318
1144,138;  333,111;   -2,636;    1,045
1144,673;  201,475;   -1,455;    1,409
1145,209;  266,202;   -1,909;   -0,318
1145,744;  183,929;   -0,727;    0,864
1146,279;  329,838;    1,818;   -0,136
1146,815;  240,747;    1,545;   -2,682
1147,350;  282,475;   -1,364;    0,045
1147,885;  194,111;   -0,818;   -1,318
1148,420;  185,202;   -2,273;    0,773
1148,955;  169,384;   -1,727;    1,864
1149,490;  196,293;   -0,909;   -1,591
1150,025;  182,293;    0,455;   -1,773
1150,560;  295,475;    1,091;   -0,955
1151,094;  265,657;    1,455;   -0,591
1151,629;  266,566;    1,636;    0,864
1152,164;  195,929;    1,364;    1,318
1152,698;  149,020;   -0,182;   -0,136
1153,233;  107,929;    0,091;   -0,682
1153,767;  150,838;   -3,000;   -2,318
1154,302;  212,566;   -1,455;    1,773
1154,836;  208,747;   -0,455;   -2,136
1155,371;  253,202;   -1,364;    3,682
1155,905;  210,566;   -0,636;    1,682
1156,439;  180,838;   -0,636;   -0,500
1156,973;  206,566;    0,364;    0,318
1157,507;  138,475;   -0,364;    0,682
1158,042;  178,929;   -0,727;    1,045
1158,576;  225,747;    0,182;    1,773
1159,110;  209,566;   -0,818;    2,409
1159,643;  184,838;    0,636;   -0,045
1160,177;  121,293;   -1,545;    1,500

