
Integration time [ms]:   0,040
Averaging Nr. [scans]: 11
Smoothing Nr. [pixels]: 0
Data measured with spectrometer [name]: 7318044SP
Wave   ;Sample   ;Dark     ;Reference
[nm]   ;[counts] ;[counts] ;[counts] 

186,757;   29,335;   31,551;    1,318
187,357;   66,248;   22,551;    0,955
187,958;   35,597;   15,460;   -1,591
188,558;   74,145;    8,915;   -1,227
189,159;   51,352;    6,733;   -4,500
189,759;   18,679;    7,278;   -3,591
190,360;   17,730;    2,824;   -2,136
190,960;   46,168;    2,915;   -4,136
191,560;   64,039;    3,189;   -6,591
192,161;  326,441;    4,372;   -3,500
192,761;  165,865;    4,010;   -3,227
193,361;  111,449;    1,556;   -3,773
193,962;  160,604;    2,010;   -2,682
194,562;   87,767;    1,189;   -3,955
195,162;  128,238;   -2,448;   -2,227
195,762;  292,258;   -3,176;   -0,045
196,362;  234,584;    1,370;   -2,500
196,963;   93,600;    2,006;   -0,864
197,563;  168,331;    1,551;   -0,955
198,163;  116,699;    0,096;   -0,682
198,763;  137,747;    1,733;   -0,500
199,363;  252,637;    3,096;   -0,500
199,963;  209,324;    0,369;    0,409
200,563;  176,596;    2,823;   -1,409
201,163;  151,971;    3,277;   -0,227
201,763;  249,040;    3,732;    0,318
202,363;  184,229;    1,459;    1,500
202,963;  299,273;    1,459;    1,045
203,563;  421,620;    0,277;    0,500
204,162;  259,365;    2,096;   -1,864
204,762;  245,373;    0,550;    0,591
205,362;  209,630;    3,004;    1,955
205,962;  316,057;    3,096;    1,955
206,562;  316,622;    1,823;    2,318
207,161;  287,026;   -0,087;    0,318
207,761;  444,472;    1,277;    2,409
208,361;  327,192;   -0,268;    1,409
208,960;  435,663;    0,459;    1,500
209,560;  500,295;    1,277;    1,591
210,160;  468,688;    0,550;    1,864
210,759;  432,312;    4,186;    1,227
211,359;  441,998;    1,459;    1,045
211,958;  712,338;    1,277;    2,045
212,558;  811,220;    1,732;    1,864
213,157;  644,823;    1,822;    1,500
213,757; 1104,570;    3,822;   -0,227
214,356;  797,622;    1,277;   -0,409
214,956; 1131,735;    3,095;    0,409
215,555;  748,047;    2,095;    2,136
216,154;  692,806;   -2,723;   -0,591
216,754;  697,979;    0,277;    0,773
217,353;  845,036;   -0,268;   -1,045
217,952;  699,471;   -0,178;    0,318
218,552;  938,294;    1,368;   -0,773
219,151;  834,015;    0,277;    0,955
219,750;  823,799;    0,004;   -0,227
220,349;  977,557;   -0,451;    1,045
220,948; 1034,437;   -1,360;    1,136
221,548; 1057,449;    0,913;    1,227
222,147; 1165,550;   -0,087;   -0,409
222,746; 1464,515;   -0,451;   -0,955
223,345; 1344,537;    0,731;    0,500
223,944; 1362,512;   -0,451;    0,773
224,543; 1540,727;    1,004;   -1,409
225,142; 1651,139;    0,094;    0,136
225,741; 1560,329;   -0,814;    1,045
226,340; 1596,929;   -0,451;   -0,955
226,939; 2059,450;   -0,996;   -0,136
227,538; 2031,166;   -0,360;   -0,773
228,137; 2187,747;   -0,814;    0,864
228,735; 2369,924;   -0,541;    1,227
229,334; 2108,097;   -0,905;   -0,227
229,933; 2493,442;    0,459;    0,591
230,532; 2597,389;    1,186;   -0,409
231,131; 2649,022;    1,732;    0,318
231,729; 2803,056;   -2,450;   -2,318
232,328; 2975,920;   -0,723;   -1,500
232,927; 3056,327;    1,004;   -0,500
233,525; 3198,999;    3,640;    0,045
234,124; 3406,994;    2,368;   -1,591
234,723; 3419,847;    0,913;   -1,045
235,321; 3602,704;    2,277;    0,136
235,920; 3847,243;    1,186;   -1,227
236,518; 4108,554;    3,459;    0,318
237,117; 4309,785;    0,004;   -0,227
237,715; 4498,888;    0,640;   -0,500
238,314; 4534,948;   -0,087;   -2,318
238,912; 4626,252;   -0,723;   -1,409
239,510; 4682,416;    0,459;   -1,227
240,109; 4859,051;    0,004;    3,773
240,707; 4892,496;   -0,996;    1,227
241,305; 5319,104;    0,550;    0,136
241,904; 5539,740;   -0,178;   -2,045
242,502; 5504,299;   -0,632;   -0,227
243,100; 5428,788;   -0,087;   -0,955
243,698; 5671,163;    0,732;    1,682
244,297; 5856,010;   -0,632;    0,682
244,895; 5689,150;   -0,269;   -2,318
245,493; 6043,708;    2,186;   -0,591
246,091; 6069,022;    1,368;   -1,318
246,689; 6077,563;    1,004;    0,591
247,287; 6224,890;    0,822;   -1,136
247,885; 6508,615;   -1,451;    1,227
248,483; 6605,582;    1,822;   -0,500
249,081; 6752,849;    0,185;    1,591
249,679; 6921,863;   -0,178;    1,682
250,277; 7169,493;   -1,723;    0,864
250,875; 7168,611;   -1,087;   -1,045
251,473; 7190,185;   -1,178;    0,500
252,071; 7415,309;    1,459;    1,045
252,669; 7579,330;   -1,814;    0,318
253,267; 7847,935;   -0,087;    0,773
253,864; 7798,890;   -0,360;    0,682
254,462; 7656,420;    1,640;    1,591
255,060; 7631,944;   -0,269;    1,318
255,658; 7971,330;    0,822;   -0,136
256,255; 8385,432;    0,186;   -2,045
256,853; 8255,706;   -0,269;    1,409
257,451; 8277,790;    0,822;    1,864
258,048; 8536,677;    1,822;    1,864
258,646; 8289,052;    1,731;   -1,045
259,243; 8489,161;   -0,087;    2,227
259,841; 8525,303;   -0,814;    0,318
260,438; 8427,770;   -0,087;    0,864
261,036; 9150,956;   -1,905;    1,409
261,633; 9023,157;   -0,087;    2,227
262,231; 8766,894;    2,731;   -0,045
262,828; 8870,743;   -0,905;    1,136
263,425; 8930,304;    0,913;   -0,591
264,023; 9192,398;    0,186;    0,045
264,620; 8757,589;   -0,360;   -0,318
265,217; 9103,516;   -2,087;    3,136
265,815; 9231,295;   -1,905;    2,136
266,412; 8977,252;    0,731;    0,136
267,009; 9040,149;   -1,451;    0,773
267,606; 8917,598;    0,822;   -0,955
268,203; 8902,551;   -0,269;   -0,591
268,801; 9238,176;    1,731;    0,591
269,398; 9517,115;   -0,360;    2,500
269,995; 9481,561;    0,277;    1,591
270,592; 9217,947;   -0,632;   -0,500
271,189; 9471,147;    0,186;    0,409
271,786; 9570,159;   -0,632;    1,227
272,383; 9433,237;   -1,087;    0,227
272,980; 9620,126;    0,277;    0,318
273,577;10089,712;    0,004;    1,227
274,174; 9636,761;    0,822;    2,591
274,771; 9631,057;   -0,814;   -0,773
275,367; 9726,344;    2,277;    1,409
275,964; 9715,006;    0,731;   -0,500
276,561; 9825,798;    1,549;   -1,045
277,158;10083,045;    0,095;   -1,773
277,755;10187,758;    2,185;    0,409
278,351; 9562,411;   -0,451;   -1,500
278,948; 9882,268;   -0,815;    0,045
279,545; 9947,883;   -1,360;    2,318
280,141;10545,681;   -1,723;   -2,045
280,738;10385,594;   -0,451;   -0,136
281,334;10662,206;   -1,633;    0,591
281,931;10019,593;   -0,087;   -1,318
282,528;10136,784;    0,822;   -0,500
283,124;10864,966;   -1,087;   -0,500
283,721;10768,211;   -0,451;    1,409
284,317;10567,752;    0,185;    2,500
284,913;11125,188;   -1,360;    0,591
285,510;11345,552;    0,640;   -0,318
286,106;11391,099;   -2,269;   -0,955
286,703;10944,314;   -0,360;    1,955
287,299;11139,666;   -1,451;   -0,591
287,895;11321,439;    0,822;   -1,045
288,491;11920,933;    0,186;    2,136
289,088;11663,941;   -2,360;    2,409
289,684;11729,239;   -1,723;    1,500
290,280;11702,123;    0,368;    0,682
290,876;11813,825;    1,822;    5,500
291,472;11714,077;    1,276;    2,227
292,068;11798,290;    1,367;    0,227
292,665;11515,757;    2,095;    0,773
293,261;11125,246;    0,276;    2,136
293,857;11510,750;    2,913;    2,136
294,453;11450,892;    3,550;    0,955
295,049;11352,894;   -0,268;    1,955
295,644;11364,714;    0,095;    0,136
296,240;11255,879;   -0,905;   -0,136
296,836;11299,237;   -0,995;    0,318
297,432;11583,189;    1,096;   -0,500
298,028;11656,798;    0,732;    0,773
298,624;12051,068;    1,459;    1,864
299,220;12275,906;    2,368;    0,591
299,815;11962,386;    1,005;   -0,409
300,411;11746,894;    0,914;    1,773
301,007;11744,694;    1,368;    0,227
301,602;11786,850;   -0,541;   -2,318
302,198;11974,922;    0,732;   -0,773
302,794;12291,497;    1,187;   -0,500
303,389;12427,328;   -1,177;    1,045
303,985;12512,764;    0,550;    1,409
304,580;12473,038;    1,459;    1,591
305,176;12409,408;   -3,086;    0,136
305,771;12352,116;   -1,268;   -1,227
306,367;12212,115;    4,095;    0,136
306,962;12512,032;    0,641;    1,500
307,558;12273,150;   -0,450;    0,136
308,153;12188,321;    1,095;   -1,136
308,748;12422,354;   -0,814;    1,682
309,344;12374,238;   -0,632;   -1,318
309,939;12452,321;   -1,905;   -1,318
310,534;12727,552;   -0,086;   -1,682
311,130;12710,149;    0,459;   -2,500
311,725;12455,003;    1,004;   -0,500
312,320;12779,464;    2,459;    0,045
312,915;12603,920;    1,459;   -1,045
313,510;12677,857;    1,550;   -0,500
314,105;13183,620;    1,096;    1,409
314,700;12552,201;   -3,086;   -1,045
315,295;12185,493;   -0,904;    0,045
315,890;11795,205;    1,277;    0,864
316,485;12128,921;   -0,359;   -0,318
317,080;12252,586;   -3,086;    1,591
317,675;12844,104;    2,005;   -0,682
318,270;12226,308;    5,550;    3,318
318,865;12231,122;    3,278;    3,045
319,460;12051,455;   -0,904;    0,591
320,055;12271,596;   -0,541;   -1,227
320,650;11948,633;   -1,995;   -0,591
321,244;12036,072;   -0,177;   -1,409
321,839;12939,942;   -1,541;   -0,227
322,434;12842,554;   -1,086;   -1,591
323,029;12468,998;    1,732;    1,591
323,623;12319,809;    1,550;    0,773
324,218;12071,967;    2,368;    1,409
324,812;11926,410;    1,096;    1,591
325,407;11721,091;   -0,814;    2,045
326,002;11673,432;    0,277;   -0,409
326,596;12007,097;    0,914;    1,318
327,191;12170,682;    0,823;   -1,045
327,785;11710,552;   -0,813;   -0,227
328,379;11940,623;    1,368;    0,136
328,974;11748,564;    0,914;   -3,955
329,568;11974,538;    0,186;   -2,409
330,163;11812,130;    2,096;    1,045
330,757;12151,630;    2,459;    1,591
331,351;11491,885;    0,459;    0,682
331,945;11795,493;    0,914;    1,409
332,540;11359,163;   -1,723;   -0,591
333,134;11478,879;   -1,086;    0,773
333,728;11750,676;    0,005;    0,318
334,322;12085,646;   -1,177;   -0,864
334,916;11366,351;    0,277;    0,955
335,510;11711,181;   -0,450;   -0,136
336,105;11930,410;   -1,086;    1,591
336,699;11667,903;   -1,086;    0,591
337,293;11616,765;   -1,723;    0,318
337,887;11740,859;   -2,723;    1,955
338,481;11874,644;    0,459;    0,591
339,074;12015,255;   -0,359;    2,682
339,668;11838,929;   -1,632;    1,227
340,262;12064,916;    1,732;    3,227
340,856;11571,000;    1,822;   -0,682
341,450;10932,644;    1,004;    1,864
342,044;11844,219;    1,459;    0,136
342,637;11621,687;    0,913;   -2,136
343,231;11469,763;   -2,360;    0,682
343,825;11409,899;   -1,086;   -0,591
344,419;11387,428;   -1,995;    0,500
345,012;11128,966;    2,459;    4,045
345,606;11176,180;    4,641;    1,591
346,199;11019,972;   -1,813;   -0,227
346,793;10536,009;    1,914;    2,045
347,386;10738,192;   -0,813;   -1,136
347,980;10701,443;   -0,268;   -0,045
348,573;10496,704;    2,278;    0,409
349,167;10175,956;    5,278;    4,773
349,760;10525,633;    2,914;    2,682
350,354;10535,184;   -0,813;    1,136
350,947;10248,127;    1,096;    1,682
351,540; 9921,150;   -0,358;   -1,409
352,134; 9863,756;    1,096;    1,136
352,727; 9937,057;   -0,086;    1,136
353,320; 9725,173;    0,005;    0,591
353,913; 9581,141;   -1,995;    1,864
354,507; 9762,799;    0,823;   -1,227
355,100; 9755,864;    0,460;    0,864
355,693; 8987,882;    2,005;    2,409
356,286; 9032,842;    0,823;    2,773
356,879; 9386,733;   -0,722;    1,227
357,472; 8984,142;   -0,904;    1,500
358,065; 9216,039;   -0,722;    2,500
358,658; 9141,910;   -0,540;    2,318
359,251; 8770,101;   -1,631;   -0,591
359,844; 8272,208;   -1,904;   -1,136
360,437; 8423,750;   -2,995;    0,045
361,030; 8686,705;    1,369;   -0,682
361,623; 8284,345;    2,824;    0,318
362,215; 8321,421;   -0,086;    2,045
362,808; 8168,539;   -2,358;   -1,682
363,401; 8373,551;   -2,449;    0,136
363,994; 8100,752;   -0,631;   -1,500
364,586; 7999,292;    0,824;   -1,500
365,179; 8229,698;   -0,449;   -1,136
365,772; 7719,876;   -1,995;    2,045
366,364; 8041,502;    1,915;   -3,227
366,957; 8205,844;    2,279;   -0,045
367,549; 8236,732;    2,188;   -0,864
368,142; 7872,621;    1,825;   -1,500
368,734; 8097,977;    0,734;   -2,136
369,327; 8035,893;    1,643;   -0,500
369,919; 7946,079;   -1,538;    0,409
370,512; 7752,626;   -1,083;   -0,500
371,104; 7513,759;   -0,901;    1,591
371,696; 7669,976;    1,191;   -0,955
372,289; 7756,393;    0,373;    1,136
372,881; 7900,407;   -2,080;    1,318
373,473; 7818,632;   -2,170;    1,136
374,066; 7610,317;   -0,169;    0,500
374,658; 7497,036;    0,378;    1,136
375,250; 7843,713;    0,653;   -1,409
375,842; 7674,807;    0,473;   -0,045
376,434; 7587,917;   -0,435;   -0,409
377,026; 8141,832;    0,204;   -2,500
377,618; 8012,373;   -0,158;   -0,682
378,210; 7859,769;   -0,338;   -1,955
378,802; 7737,306;    0,754;   -0,591
379,394; 7685,486;    1,846;    0,682
379,986; 8278,930;    1,393;   -0,955
380,578; 8396,865;   -0,153;    0,773
381,170; 7723,053;   -0,972;    0,045
381,762; 7689,715;    0,755;    1,409
382,354; 7862,792;   -0,065;   -1,318
382,945; 8002,824;   -2,976;    0,318
383,537; 8142,731;   -2,705;   -1,955
384,129; 8129,083;   -2,160;   -1,136
384,721; 8339,213;   -0,252;    0,955
385,312; 8251,962;   -0,161;   -0,955
385,904; 8349,616;   -2,706;    1,591
386,496; 7732,557;   -0,979;    1,045
387,087; 7865,560;    1,022;    2,500
387,679; 7909,159;   -1,160;    0,045
388,270; 8058,512;    2,840;    2,045
388,862; 8168,887;    1,295;   -0,318
389,453; 8069,479;   -0,887;    1,045
390,045; 8349,447;   -0,705;   -2,682
390,636; 8282,751;    0,204;   -0,591
391,227; 8132,719;   -0,523;   -0,045
391,819; 8249,612;    0,204;    0,773
392,410; 8308,778;    1,022;    0,045
393,001; 8230,578;   -0,979;   -1,591
393,593; 8534,858;    1,930;   -0,045
394,184; 8395,950;    1,385;   -0,409
394,775; 8337,078;    1,839;    2,136
395,366; 8502,341;    1,385;    0,773
395,957; 8500,909;    0,113;    0,136
396,548; 8826,842;   -0,342;    2,682
397,139; 9127,484;   -2,433;    0,591
397,730; 8862,755;   -1,888;    0,955
398,321; 8914,770;   -1,252;    0,955
398,912; 8980,292;   -0,615;    0,136
399,503; 9037,133;   -3,524;   -1,409
400,094; 8440,781;    0,294;    1,682
400,685; 8295,512;   -0,433;    0,045
401,276; 8422,113;    0,930;   -0,955
401,867; 8737,833;   -0,888;    0,773
402,458; 8818,799;   -2,251;   -2,318
403,048; 8806,682;    1,112;    0,591
403,639; 8410,363;    0,840;    0,864
404,230; 8666,450;    2,476;    0,318
404,821; 8573,497;   -0,615;    0,045
405,411; 8693,972;    1,203;   -2,591
406,002; 8294,632;   -1,252;   -1,136
406,592; 8153,742;    2,294;    0,045
407,183; 8456,829;    0,566;   -1,500
407,774; 8399,194;    3,475;   -0,136
408,364; 8707,214;    0,930;    0,409
408,954; 8306,867;    0,384;    1,227
409,545; 8351,581;    1,021;    1,045
410,135; 7888,887;    1,293;    0,500
410,726; 8035,594;    1,838;    0,318
411,316; 8438,040;    0,111;    0,773
411,906; 8109,441;   -0,253;   -0,409
412,497; 7588,582;   -1,070;   -0,045
413,087; 8211,746;   -1,980;   -0,227
413,677; 8614,171;   -0,707;    3,864
414,267; 8449,758;    0,656;    1,409
414,857; 8442,967;   -2,980;    4,227
415,448; 8741,890;    0,839;    0,500
416,038; 8422,671;    0,020;   -0,591
416,628; 8390,158;   -0,889;    0,409
417,218; 7840,006;    0,565;    3,318
417,808; 8139,669;    0,202;   -0,409
418,398; 8618,524;    0,020;    2,682
418,988; 8612,241;    2,020;    0,591
419,578; 8852,712;   -0,707;    1,409
420,168; 9248,450;   -1,343;   -0,955
420,757; 8819,468;   -1,343;   -1,500
421,347; 8483,793;    0,111;   -0,227
421,937; 8660,448;    2,292;    1,409
422,527; 8595,051;    0,838;   -0,773
423,116; 8413,187;   -0,253;   -0,045
423,706; 8743,304;   -1,889;    0,318
424,296; 8753,204;    1,384;    0,682
424,885; 9198,841;   -0,071;   -3,045
425,475; 9461,180;    1,474;   -2,864
426,065; 9351,475;   -0,980;   -0,318
426,654; 8984,447;   -0,435;   -0,318
427,244; 9121,866;    0,020;    1,409
427,833; 8557,925;    1,383;   -0,500
428,423; 9042,185;   -0,526;    1,136
429,012; 9801,759;   -0,344;   -1,136
429,601; 9315,035;   -1,344;    0,136
430,191; 9540,679;    1,292;    4,318
430,780; 9202,526;   -0,344;   -0,409
431,369; 9096,039;    0,746;   -0,045
431,959; 9716,366;   -1,254;    0,500
432,548; 9508,411;   -1,163;   -0,045
433,137; 9658,282;   -1,254;   -1,318
433,726;10188,879;    0,292;    0,500
434,315; 9578,341;   -0,526;    2,409
434,905; 9663,186;   -1,254;    1,409
435,494; 9546,039;    0,746;    0,955
436,083; 9989,323;   -0,981;   -0,955
436,672; 9872,286;    0,110;    0,500
437,261; 9425,806;    0,292;   -1,955
437,850; 9569,457;    1,383;    0,682
438,439; 9536,589;    3,291;    1,955
439,027; 9397,715;    3,655;    1,773
439,616; 9755,563;    2,927;    1,227
440,205; 9605,720;    0,200;   -2,136
440,794; 9719,494;    2,109;   -0,045
441,383; 9993,300;   -1,346;   -0,591
441,971; 9852,737;   -2,436;    0,591
442,560; 9670,602;    0,563;   -1,773
443,149; 9403,244;    0,379;   -1,318
443,737; 9569,242;   -0,074;   -2,318
444,326; 9853,524;    0,018;    0,318
444,915; 9922,807;   -1,982;    0,864
445,503;10296,303;   -2,891;   -0,318
446,092; 9553,521;    0,382;    2,136
446,680;10087,678;    0,382;    0,318
447,269;10268,777;   -0,346;   -0,318
447,857;10050,683;    0,018;   -1,773
448,445;10166,473;    0,563;    1,318
449,034;10399,842;   -1,528;   -1,136
449,622;10518,210;   -1,073;    3,500
450,210; 9727,582;    2,017;    2,227
450,799;10271,613;    0,290;   -0,591
451,387;10256,862;    1,381;   -0,591
451,975; 9874,814;    2,654;    0,864
452,563; 9985,339;    3,472;    2,318
453,151;10050,012;   -0,528;   -1,227
453,739; 9956,798;   -1,347;    0,136
454,328; 9788,891;    2,381;   -2,136
454,916; 9501,175;    2,562;   -0,136
455,504; 9690,413;    1,017;    1,227
456,092; 9857,206;    0,017;   -1,591
456,679; 9825,005;    1,472;    0,682
457,267; 9773,548;    4,017;    1,045
457,855; 9929,115;    1,017;    1,409
458,443; 9713,676;   -0,165;    1,682
459,031; 9864,882;    0,108;    2,409
459,619;10332,066;   -1,801;    2,864
460,206;10448,046;    0,835;    2,045
460,794;10544,504;   -2,983;   -0,227
461,382;10761,577;   -0,529;   -0,864
461,970;10368,150;    1,198;    1,864
462,557;10381,082;   -0,711;   -0,682
463,145;10579,820;   -3,165;   -1,682
463,732;10717,870;    2,016;   -1,045
464,320;10670,826;   -0,075;   -3,045
464,907;10330,028;    2,743;   -0,773
465,495;10190,844;    0,743;   -1,227
466,082;10362,754;   -1,984;   -0,045
466,670;10296,226;   -2,529;    1,227
467,257;10701,998;   -1,711;    2,045
467,844;10837,251;   -0,075;    0,045
468,432;10848,755;    0,834;    3,500
469,019;10324,302;    0,925;   -1,773
469,606;10851,836;    0,470;    3,682
470,193;10686,781;   -1,439;    0,227
470,780;10253,621;   -2,075;    0,864
471,368;10582,278;   -1,257;   -0,773
471,955;10398,056;    1,379;   -0,682
472,542; 9989,112;    0,652;   -1,136
473,129;10269,688;   -0,166;    0,136
473,716; 9954,898;    1,470;    0,591
474,303;10174,179;    0,652;   -0,864
474,890;10492,873;   -1,439;   -0,500
475,477;10490,263;   -1,621;    0,409
476,064;10408,391;    1,106;   -1,591
476,650;10319,730;    0,288;    0,318
477,237;10161,276;   -0,258;    0,955
477,824;10356,061;   -1,076;    0,864
478,411;10370,771;   -1,894;   -0,318
478,997;10567,691;    0,560;   -0,773
479,584;10618,792;    1,196;   -0,409
480,171;11368,648;   -0,440;   -0,773
480,757;11013,890;    2,651;    0,773
481,344;11303,807;    0,469;    0,409
481,931;10844,315;    1,105;    1,045
482,517;11853,801;   -1,258;    0,318
483,104;12458,487;    1,106;    2,864
483,690;12751,682;   -1,804;    0,045
484,276;13117,175;   -0,895;    0,227
484,863;12868,481;    2,469;    1,136
485,449;13448,164;   -0,077;    0,318
486,035;13460,031;   -1,986;   -0,136
486,622;13865,211;   -0,895;    0,045
487,208;13795,696;    1,378;    1,500
487,794;13642,721;    0,741;    0,318
488,380;13756,484;    0,105;   -1,409
488,967;13825,656;   -1,168;   -0,409
489,553;13912,072;   -1,895;   -1,409
490,139;14082,412;    1,559;    0,773
490,725;13492,253;    0,741;   -0,227
491,311;13036,380;    3,287;    3,045
491,897;12399,394;   -0,986;    1,500
492,483;12168,915;    0,105;    1,227
493,069;11936,289;    3,923;    0,864
493,655;11945,768;    1,650;    0,682
494,241;11851,351;    1,377;   -0,955
494,826;12265,431;    0,287;   -1,045
495,412;11720,644;    2,559;   -0,682
495,998;11876,234;   -0,805;   -0,318
496,584;12036,662;    0,377;    1,045
497,169;12029,043;    1,014;   -0,682
497,755;12002,625;    0,650;    1,227
498,341;12572,766;    0,559;    0,318
498,926;12148,259;    1,832;    1,955
499,512;12323,913;    1,286;    2,955
500,097;12479,217;    0,195;   -0,318
500,683;12393,164;   -0,350;    2,136
501,268;12780,750;   -0,169;   -0,955
501,854;12499,863;   -0,169;    1,227
502,439;12425,805;   -0,624;   -1,773
503,024;12639,412;    0,195;    0,500
503,610;12716,430;   -0,078;   -0,682
504,195;12733,511;    0,558;    1,955
504,780;12837,677;    2,922;    1,227
505,366;12652,832;    3,013;    2,864
505,951;12381,883;    0,740;    1,045
506,536;12419,889;   -3,260;   -3,682
507,121;12407,413;    0,285;   -0,318
507,706;12935,062;    2,376;    1,045
508,291;13312,888;    2,649;    1,136
508,876;12761,072;   -0,988;    2,591
509,461;12233,252;   -0,169;   -0,773
510,046;12687,902;    0,194;    0,318
510,631;12922,281;   -0,351;   -0,773
511,216;12566,857;    2,467;   -0,500
511,801;12938,597;   -0,442;    2,591
512,386;13262,467;    0,740;    0,500
512,971;13201,682;   -2,988;    0,955
513,555;12764,657;   -0,897;   -1,500
514,140;13549,174;   -0,442;   -3,136
514,725;13560,738;   -0,715;   -1,136
515,309;13732,348;   -0,533;    0,318
515,894;13144,948;   -0,624;   -2,227
516,479;13616,538;   -0,624;   -0,955
517,063;13435,680;    0,376;    1,227
517,648;13555,698;    1,012;   -1,136
518,232;13209,401;   -0,261;   -1,409
518,817;13584,105;   -0,079;    1,682
519,401;13777,229;    2,194;    0,591
519,985;13250,284;    1,103;    1,136
520,570;13170,305;    0,830;   -1,955
521,154;13453,153;    2,102;    0,591
521,738;13634,458;   -2,352;    2,409
522,323;14224,035;   -0,170;    1,682
522,907;13937,413;    0,466;   -0,136
523,491;13647,245;    0,557;    0,955
524,075;13627,858;    2,284;    0,591
524,659;13730,179;    1,466;    0,591
525,243;13175,683;    1,739;    0,409
525,827;13479,376;    0,648;   -0,045
526,411;14301,451;   -1,989;   -0,136
526,995;14516,100;   -0,352;    1,409
527,579;14100,718;   -0,443;   -1,045
528,163;14440,730;    0,375;   -1,500
528,747;14329,253;    2,466;   -0,773
529,331;14640,990;   -0,080;   -1,409
529,915;14845,134;    1,738;    0,955
530,499;14837,648;   -0,807;    1,227
531,082;14547,255;   -0,534;    1,591
531,666;13991,604;    1,374;    0,773
532,250;14655,867;    1,284;    2,682
532,833;14933,005;    0,920;    2,773
533,417;14807,227;   -1,807;    0,864
534,001;14804,252;    1,647;   -0,318
534,584;15513,286;    0,374;    0,500
535,168;15375,459;    0,465;    1,409
535,751;15385,186;    0,647;    0,045
536,334;14813,589;   -0,898;   -0,409
536,918;15406,608;    0,011;    1,591
537,501;15529,942;   -0,899;    1,318
538,085;15547,246;   -0,444;    1,045
538,668;15728,314;    0,829;    2,409
539,251;16044,927;    1,829;    3,773
539,834;16038,000;    0,101;    0,773
540,418;15990,338;   -1,990;    4,318
541,001;16111,543;   -0,990;    1,773
541,584;16110,447;    2,101;    2,227
542,167;15842,296;    1,374;    2,955
542,750;15967,641;    1,919;   -0,773
543,333;15562,119;    0,555;    2,136
543,916;16322,962;    0,192;    2,500
544,499;16926,975;   -1,354;    0,227
545,082;16955,320;    1,374;    3,591
545,665;17111,134;    1,919;    1,500
546,248;17470,209;    1,010;   -0,318
546,830;17144,519;   -0,445;    1,955
547,413;17537,771;    1,010;   -0,773
547,996;18039,251;    0,555;    0,500
548,579;17833,931;    0,919;    0,955
549,161;17624,549;    1,828;    2,682
549,744;17379,865;   -0,809;    0,409
550,326;17912,237;   -0,809;   -1,136
550,909;17708,722;    2,737;    0,591
551,492;18095,393;   -0,263;    0,227
552,074;17875,698;   -0,173;   -1,318
552,657;18432,489;    2,373;    0,045
553,239;18200,057;   -0,173;   -0,773
553,821;18096,877;   -1,082;    1,045
554,404;17633,362;    1,282;    1,136
554,986;17984,779;    0,464;    1,045
555,568;18610,346;    1,191;   -0,955
556,151;17812,596;    1,191;   -0,227
556,733;18001,120;   -0,264;   -0,864
557,315;18501,807;    0,100;    0,500
557,897;18285,485;    0,554;   -0,500
558,479;18403,889;   -1,991;    1,318
559,061;18561,022;   -0,719;   -0,864
559,643;18889,019;   -0,264;    0,045
560,225;19287,601;    1,645;    2,864
560,807;19288,383;    0,918;    0,318
561,389;18774,832;    0,554;    2,318
561,971;19534,364;    0,463;    2,136
562,553;19337,876;   -1,628;    1,591
563,135;19500,622;   -0,537;    1,136
563,717;19087,677;    3,372;    1,136
564,298;19781,026;    3,645;   -0,045
564,880;19541,911;    0,645;   -1,409
565,462;19694,002;    0,645;    1,318
566,043;20865,070;   -0,446;    2,318
566,625;20415,974;    1,918;    1,227
567,207;20200,600;    1,099;    1,682
567,788;21340,803;   -1,264;    1,500
568,370;22194,519;    1,917;   -0,500
568,951;22021,530;    0,190;    0,227
569,533;22892,217;   -0,628;   -0,500
570,114;23372,414;   -0,446;    0,682
570,695;23880,768;   -0,174;   -1,318
571,277;24371,003;   -0,265;   -1,682
571,858;25153,264;    2,008;   -1,136
572,439;26034,083;    1,554;   -1,045
573,021;26218,168;    2,099;   -2,773
573,602;26754,928;   -1,265;    0,318
574,183;27683,318;   -2,083;    2,227
574,764;27736,000;   -1,629;    0,409
575,345;28349,049;    0,917;   -0,136
575,926;28942,665;   -0,356;    0,136
576,507;28926,106;    1,099;   -0,227
577,088;30088,256;    3,099;    1,682
577,669;30110,399;    0,735;    1,955
578,250;30824,590;    0,644;   -1,045
578,831;31538,073;   -1,356;   -2,227
579,412;31747,831;   -0,810;    0,955
579,993;32659,812;    1,008;    0,227
580,573;33004,303;   -0,629;   -0,955
581,154;32025,072;    0,735;   -0,591
581,735;32882,272;    0,644;    0,773
582,315;32370,181;   -0,629;    2,136
582,896;32551,545;   -0,174;    1,227
583,477;32039,742;    0,189;    1,227
584,057;32334,417;    0,553;    0,955
584,638;32627,448;    2,553;    2,318
585,218;32613,771;   -0,538;    2,682
585,799;32761,677;    0,281;   -0,227
586,379;32728,347;    0,372;    1,591
586,959;31469,745;    0,735;    0,318
587,540;30794,600;   -0,629;    2,227
588,120;30315,301;    1,007;   -0,045
588,700;29321,050;    2,553;    2,136
589,281;29642,785;    0,462;   -0,955
589,861;29574,298;    0,099;   -1,682
590,441;29434,975;    2,371;   -2,682
591,021;28344,899;   -0,265;   -2,591
591,601;28597,529;   -0,537;    0,500
592,181;28591,362;   -0,719;   -0,773
592,761;27919,081;    0,007;    1,409
593,341;27806,800;   -0,901;    0,045
593,921;27795,951;   -0,265;    1,591
594,501;27658,140;   -0,538;    1,318
595,081;27495,883;    0,917;   -0,318
595,661;27871,991;   -1,447;    0,955
596,240;28355,379;   -0,537;    0,136
596,820;28004,691;    0,372;    1,955
597,400;28219,646;    2,008;    0,773
597,980;28439,830;    2,008;    1,045
598,559;28406,905;    2,735;   -0,227
599,139;28138,568;   -0,174;   -1,227
599,718;28070,750;   -0,174;   -0,409
600,298;28304,665;    0,735;    0,682
600,877;28563,480;    2,917;    1,409
601,457;28846,973;    2,281;    1,136
602,036;28756,343;    0,190;    2,045
602,616;28935,008;    0,644;    1,682
603,195;29251,514;   -0,355;    3,500
603,774;28773,963;   -0,901;    2,045
604,354;28687,486;    0,826;   -0,500
604,933;28172,425;    0,463;    1,864
605,512;28327,467;    3,554;    0,591
606,091;28376,906;   -0,537;    3,773
606,671;29186,946;    0,281;    0,773
607,250;28228,773;    1,644;    3,136
607,829;28519,580;    2,372;    3,227
608,408;28407,956;    1,190;    2,591
608,987;27432,728;    1,281;    3,409
609,566;27749,541;   -1,265;   -2,500
610,145;27864,532;   -1,082;    0,682
610,723;28190,945;    4,372;    6,864
611,302;27469,688;   -0,446;    1,682
611,881;26976,724;    5,008;   11,227
612,460;27827,705;    1,645;    3,955
613,039;28222,376;   -0,082;    2,045
613,617;26952,539;    1,736;    4,773
614,196;27131,555;    1,099;    1,227
614,775;27513,335;    1,009;    2,409
615,353;27459,073;    0,736;    0,864
615,932;27206,509;    0,100;    2,409
616,510;27773,876;    0,554;    0,591
617,089;27237,582;    7,100;   17,591
617,667;26969,059;    2,372;    6,136
618,246;26849,310;   -1,537;    1,318
618,824;27050,387;   -3,355;   -0,955
619,402;26623,483;   -2,900;   -1,773
619,981;27135,152;   -0,173;   -1,045
620,559;26905,808;    0,009;    1,682
621,137;26462,712;   -0,718;    1,864
621,715;26467,761;   -1,173;   -0,682
622,293;26413,585;   -0,537;   -0,773
622,871;26858,353;   -0,718;    0,500
623,450;26470,615;    0,373;   -0,864
624,028;26342,835;    0,191;   -0,955
624,606;25892,091;   -1,718;    1,682
625,183;26331,270;   -1,536;   -1,136
625,761;25973,448;    1,009;    1,136
626,339;26268,900;    1,373;    2,591
626,917;26662,173;   -0,172;   -0,045
627,495;26731,218;   -0,354;    1,318
628,073;26126,638;   -0,263;    2,864
628,650;25805,712;    0,100;    2,136
629,228;26278,265;    0,373;    4,409
629,806;25675,994;    2,282;    1,136
630,383;25916,887;    1,464;   -0,318
630,961;25705,117;    2,555;   -0,955
631,539;25456,846;    2,464;    0,227
632,116;24777,208;   11,373;   15,409
632,694;25368,805;    2,555;    6,500
633,271;25716,604;    0,828;    2,682
633,848;25625,394;    1,828;    2,045
634,426;25633,256;   -1,081;    1,773
635,003;24748,246;    1,101;   -0,409
635,580;25077,865;    1,192;    3,682
636,158;25688,775;    3,737;    1,227
636,735;25631,182;    0,555;   -0,500
637,312;25755,657;   -0,809;   -0,682
637,889;25781,384;   -4,354;   -0,682
638,466;25322,839;   -3,990;   -0,409
639,043;25325,197;    2,101;   -1,136
639,620;25649,160;   -2,262;   -0,955
640,197;25944,649;    1,100;    1,682
640,774;26096,978;   -0,172;    1,136
641,351;26530,034;    0,737;    1,136
641,928;25914,636;   -0,627;    1,409
642,505;25595,874;    0,828;   -0,500
643,082;25689,749;   -1,718;    1,227
643,658;24703,532;   -0,718;    1,500
644,235;25501,316;    1,191;    2,500
644,812;25762,645;    1,918;    0,773
645,388;25517,065;   -0,991;    1,409
645,965;25603,121;   -0,809;    1,682
646,542;25691,905;   -1,445;   -0,227
647,118;25701,779;    1,009;   -0,955
647,695;26019,653;   -0,263;    1,136
648,271;25897,528;   -0,536;    0,500
648,848;26183,948;    0,736;    2,227
649,424;26033,277;    0,827;    1,318
650,000;25811,424;   -0,354;   -1,045
650,577;25634,662;   -0,627;   -0,955
651,153;26108,446;   -1,809;    0,955
651,729;27132,047;    1,191;    0,864
652,305;27394,104;    0,645;    2,773
652,881;31995,069;   -0,082;    1,136
653,458;38937,034;    1,100;    0,227
654,034;42681,727;    0,282;    1,591
654,610;44221,874;    0,554;    0,773
655,186;45499,021;    0,645;    3,045
655,762;45142,441;   -0,991;    0,409
656,338;45110,225;    0,100;    0,136
656,913;46141,463;   -0,082;    0,409
657,489;45332,792;    0,827;   -0,318
658,065;45254,484;   -0,173;   -1,591
658,641;45896,813;   -0,900;   -0,864
659,217;45189,324;   -0,991;    0,409
659,792;44608,199;    0,645;   -0,409
660,368;44797,982;   -2,173;   -0,682
660,944;44464,584;   -2,082;    1,227
661,519;39733,277;   -0,628;    0,409
662,095;33686,424;   -1,719;    0,591
662,670;29149,207;    1,281;   -0,136
663,246;28068,809;    1,009;   -0,409
663,821;27393,684;    0,281;    1,682
664,396;26838,740;    0,009;    1,864
664,972;27139,705;    0,009;   -0,500
665,547;27446,852;    1,372;    0,136
666,122;27455,454;   -1,082;    0,318
666,698;27725,692;   -0,173;    0,318
667,273;27035,112;   -0,173;    0,136
667,848;27903,441;    2,372;    1,500
668,423;27728,588;    2,190;    2,318
668,998;28289,281;    2,827;   -0,682
669,573;28860,246;   -3,264;   -1,500
670,148;28671,030;   -1,446;   -0,682
670,723;28487,995;   -1,810;    0,318
671,298;28865,688;    2,372;    1,045
671,873;29048,199;   -0,082;   -0,136
672,448;28911,164;    0,645;    0,136
673,023;29276,038;   -1,992;   -0,227
673,597;29598,004;    0,827;    2,318
674,172;29432,424;   -0,355;    0,318
674,747;28902,025;    0,372;   -1,045
675,321;28671,263;   -0,628;    3,318
675,896;28251,502;    0,645;    1,045
676,471;29295,012;    2,645;    1,591
677,045;29007,432;   -1,264;    0,682
677,620;29100,125;    0,190;    1,136
678,194;29448,908;   -2,628;    1,136
678,769;28964,147;   -1,083;   -0,318
679,343;29205,657;   -0,628;    1,773
679,917;29082,714;   -1,446;    1,955
680,492;29200,770;    0,826;    3,227
681,066;29274,644;    3,372;    0,409
681,640;29301,519;    1,463;   -0,318
682,214;30159,666;    0,735;    0,500
682,788;29701,450;   -1,356;   -0,773
683,363;29639,597;   -1,810;    1,682
683,937;29321,471;   -1,719;   -0,318
684,511;30097,800;    0,463;   -0,591
685,085;29774,584;   -1,356;    0,318
685,659;29531,822;   -2,538;    0,864
686,232;29837,060;   -0,356;   -0,318
686,806;29509,934;   -0,901;    0,409
687,380;30139,263;   -0,174;    0,591
687,954;30319,229;   -1,174;    1,136
688,528;30058,194;   -0,719;    1,955
689,101;30840,523;   -3,992;    1,045
689,675;30462,034;   -0,356;   -0,136
690,249;29880,636;   -0,719;    0,409
690,822;30114,328;    0,280;    0,318
691,396;30239,839;   -0,265;    1,227
691,969;29718,895;    1,280;    0,136
692,543;30151,952;   -0,447;   -1,955
693,116;29836,281;   -0,265;   -1,409
693,690;29693,246;    0,099;    0,500
694,263;30259,757;   -1,083;    2,955
694,836;30304,177;    1,371;    3,591
695,410;28919,960;   -0,265;    1,773
695,983;29384,835;    0,189;    0,591
696,556;29355,436;   -0,447;   -1,045
697,129;29742,493;   -0,356;    1,409
697,703;29392,913;   -1,629;    1,955
698,276;29447,332;    1,462;   -0,773
698,849;29236,934;    1,280;    1,409
699,422;29554,627;   -1,083;    0,591
699,995;29185,683;    0,007;    0,136
700,568;29738,648;   -0,629;    3,045
701,140;29771,614;   -2,811;    1,682
701,713;29490,216;   -0,174;    2,409
702,286;29235,454;   -0,538;    0,864
702,859;29159,237;   -0,902;   -0,591
703,432;28260,021;    0,825;    0,682
704,004;28752,532;    0,462;    0,318
704,577;28610,951;   -0,629;    0,136
705,150;29197,008;    0,189;    2,500
705,722;28983,609;   -0,356;   -3,227
706,295;28788,938;   -0,175;   -0,591
706,867;28654,631;   -0,175;    1,955
707,440;28857,415;   -1,720;   -0,409
708,012;29134,471;    0,462;    0,591
708,584;29066,436;    2,462;    0,227
709,157;29311,129;    1,825;   -0,591
709,729;28985,185;    2,280;    2,045
710,301;29788,696;    0,734;    0,045
710,874;29855,389;   -1,447;   -0,227
711,446;28728,536;    0,371;    0,864
712,018;28587,047;    0,098;    0,500
712,590;28319,466;   -1,993;    1,682
713,162;28872,523;    0,825;    1,318
713,734;29084,670;    1,825;   -2,045
714,306;28960,544;   -1,902;   -0,409
714,878;27660,237;    0,825;    0,864
715,450;28481,021;    0,643;    0,864
716,022;28760,804;    1,552;    1,318
716,593;28911,315;    0,189;    0,591
717,165;28805,735;   -3,175;   -1,227
717,737;28542,609;    0,280;    0,409
718,309;28148,120;    0,280;   -0,045
718,880;28119,085;   -0,539;   -1,409
719,452;28387,596;   -0,175;   -1,591
720,024;27982,471;    0,734;   -0,591
720,595;28586,982;   -2,902;    0,955
721,167;28074,310;    0,370;   -2,045
721,738;27594,821;   -0,812;   -1,045
722,309;27619,241;   -0,993;   -1,227
722,881;27373,388;   -1,357;    0,773
723,452;27979,717;   -2,630;    2,864
724,023;28160,865;   -0,721;    2,682
724,595;27963,830;    0,007;    0,682
725,166;27698,159;    0,007;   -0,409
725,737;27373,942;    1,734;    0,227
726,308;27418,635;   -0,266;    0,318
726,879;27827,782;   -1,630;    1,227
727,450;27691,475;    0,552;   -0,045
728,021;27670,349;    3,097;    0,682
728,592;27496,951;    0,734;    0,500
729,163;27796,280;    0,643;   -0,136
729,734;27853,882;    0,188;   -0,227
730,305;28136,938;    1,734;    0,136
730,876;28536,903;    0,188;    2,955
731,447;28251,051;    2,188;    2,682
732,017;28368,743;    1,097;    1,864
732,588;27833,072;    0,734;    1,227
733,159;28031,038;    0,643;   -1,045
733,729;27870,003;    0,006;    0,409
734,300;27098,877;    0,915;    0,864
734,870;27582,206;    3,461;    0,591
735,441;28126,990;    0,370;   -0,591
736,011;27903,228;    0,643;   -1,591
736,582;27802,830;   -0,812;    0,045
737,152;27274,522;   -1,721;   -2,045
737,722;27761,033;   -0,267;   -0,682
738,293;27494,180;   -1,358;    1,318
738,863;27336,964;    2,461;    2,318
739,433;27120,657;    5,279;    0,318
740,003;27728,077;   -0,994;   -0,682
740,573;27178,587;    2,097;   -1,591
741,143;27135,189;   -1,085;    0,318
741,713;27916,791;    1,188;   -0,500
742,283;27612,483;    0,915;    1,591
742,853;27408,540;    1,915;    1,591
743,423;26831,778;    1,733;    0,045
743,993;26976,743;   -0,358;    1,500
744,563;26364,708;    0,097;   -0,864
745,133;26294,674;   -0,812;   -0,864
745,702;27020,185;   -0,267;    1,773
746,272;26226,786;   -0,176;    0,591
746,842;25982,934;   -1,358;   -0,591
747,411;26418,263;   -0,267;   -0,318
747,981;26570,773;    0,097;    0,500
748,551;26620,284;    2,278;   -1,045
749,120;26457,159;    0,642;   -0,227
749,690;26850,306;   -0,631;    2,409
750,259;27160,908;    1,369;    2,955
750,828;27084,146;    1,551;   -1,955
751,398;27353,293;    1,278;   -0,045
751,967;26838,258;    2,187;    0,409
752,536;27056,133;   -0,813;   -0,227
753,105;27478,462;    0,096;    0,227
753,675;27242,700;    0,096;    1,773
754,244;27180,120;   -0,904;    3,591
754,813;27262,812;    0,551;    1,227
755,382;26867,141;    0,460;    0,955
755,951;27455,470;    1,551;    3,682
756,520;26960,527;   -0,085;    1,864
757,089;27515,765;    0,278;    0,500
757,658;27620,912;    1,733;    1,227
758,227;27612,604;    1,096;    0,318
758,795;27955,661;    1,187;    1,136
759,364;28140,626;   -0,086;   -0,591
759,933;27175,500;   -1,176;   -0,045
760,501;26723,920;    0,733;   -1,318
761,070;27192,158;   -2,813;   -1,409
761,639;27862,033;   -1,904;    1,318
762,207;27183,362;    1,551;   -0,955
762,776;27147,873;    0,369;    0,864
763,344;27151,838;   -0,995;    0,591
763,913;26256,440;   -0,722;    1,409
764,481;26976,314;    1,005;   -0,136
765,049;26717,280;   -1,358;    1,409
765,618;26640,972;   -0,086;    0,318
766,186;26770,847;    0,278;    0,136
766,754;26946,358;    0,005;    1,864
767,322;25878,505;   -1,995;    0,409
767,890;25901,197;   -0,722;   -1,773
768,459;26297,708;   -2,177;   -0,318
769,027;26483,674;    1,641;    3,409
769,595;25473,093;    3,278;    2,591
770,163;25894,604;    3,823;    2,955
770,730;25660,661;    0,732;   -0,136
771,298;25502,444;    0,187;   -1,409
771,866;25559,500;   -1,541;    4,955
772,434;25912,829;   -0,631;   -1,864
773,002;26072,886;    0,005;    0,682
773,569;25728,578;    0,914;    1,682
774,137;25574,544;   -0,268;   -0,045
774,705;26290,873;    0,278;   -0,136
775,272;25802,929;    0,641;    0,682
775,840;25582,349;   -0,177;    2,682
776,407;25111,223;    0,277;    1,955
776,975;24706,916;   -0,632;    0,318
777,542;25719,245;   -1,086;   -0,045
778,110;25540,301;   -1,268;   -0,045
778,677;25215,630;   -2,359;   -0,864
779,244;24973,777;    2,186;    1,045
779,812;25110,015;    1,823;    0,864
780,379;24946,435;    0,005;    1,136
780,946;25204,946;    1,005;   -0,773
781,513;25527,821;   -1,450;    0,318
782,080;24835,240;   -0,086;    2,864
782,647;25616,933;   -0,268;    3,045
783,214;25225,808;   -0,177;    3,864
783,781;24864,955;   -0,723;   -0,682
784,348;24701,102;   -0,632;    1,500
784,915;25171,431;   -3,177;    0,318
785,482;24982,578;    1,368;    2,591
786,049;25370,998;    0,186;   -0,591
786,615;25490,054;    0,277;   -0,955
787,182;25249,111;    0,186;   -0,682
787,749;24939,440;   -2,814;    1,409
788,315;24242,769;   -1,632;   -0,409
788,882;24538,643;    1,550;   -1,227
789,448;25219,517;    1,732;   -0,955
790,015;25249,210;    1,095;    3,227
790,581;24832,630;    1,459;    0,227
791,148;24712,595;    0,641;    1,045
791,714;24893,652;   -0,541;    3,136
792,280;24556,617;    0,186;    1,591
792,847;24157,128;    0,550;    2,500
793,413;24696,184;   -0,269;   -0,318
793,979;24259,058;    3,459;   -1,318
794,545;24348,024;    4,459;    2,682
795,111;23738,080;    2,186;    1,318
795,678;23949,591;    0,731;   -1,682
796,244;23594,011;    3,368;    0,136
796,810;24150,067;    1,731;    0,773
797,375;23847,760;    0,549;   -2,136
797,941;23841,998;   -0,541;    0,591
798,507;24024,963;   -0,451;   -0,955
799,073;23581,656;   -0,360;    0,591
799,639;23626,348;   -2,632;    3,136
800,205;23608,587;    0,095;    2,682
800,770;23176,370;    0,640;    1,773
801,336;23309,245;    1,368;   -0,955
801,901;23002,483;    4,549;    3,136
802,467;23549,175;   -0,542;    2,045
803,033;22883,595;   -0,087;    0,864
803,598;23074,924;    1,913;   -1,045
804,163;23115,162;    1,095;   -0,318
804,729;23035,400;   -0,178;    1,136
805,294;23430,275;    0,822;    2,227
805,859;23270,604;    0,731;   -0,409
806,425;22763,842;    1,186;    2,682
806,990;22388,171;    2,186;    4,318
807,555;22923,136;   -1,451;    2,591
808,120;22819,465;    0,822;   -0,409
808,685;22822,431;    0,185;   -2,500
809,250;22297,123;    0,004;   -0,500
809,815;22660,180;    1,913;    0,682
810,380;23246,599;   -0,269;    1,591
810,945;23755,565;   -1,087;    2,045
811,510;22948,712;    2,094;    1,591
812,075;22636,495;   -0,633;   -1,409
812,640;22650,370;    2,003;    1,409
813,204;22683,790;    0,822;   -0,227
813,769;23180,028;    2,094;   -0,045
814,334;22539,993;    0,458;    0,864
814,898;22627,231;    0,367;    0,591
815,463;22501,742;    1,276;   -0,773
816,027;22494,344;   -0,724;   -2,318
816,592;22564,491;    0,640;   -2,045
817,156;22078,002;    2,094;    1,136
817,721;21912,604;    4,276;    2,318
818,285;21888,842;    2,912;    1,500
818,849;22520,898;   -1,451;    1,682
819,414;22422,500;   -0,269;    2,955
819,978;21993,011;   -1,269;    1,773
820,542;22568,340;    2,003;    0,500
821,106;22262,305;   -0,815;    0,682
821,670;22381,270;   -0,815;    2,591
822,234;22171,963;   -0,270;    1,409
822,798;21501,019;    0,003;    0,500
823,362;21446,257;   -0,633;    4,227
823,926;20753,495;    0,094;    1,136
824,490;20975,006;   -0,997;   -0,682
825,054;21423,608;   -0,088;   -1,136
825,618;21019,664;   -1,542;   -1,500
826,181;20999,993;    0,458;   -1,318
826,745;20952,322;    1,367;   -1,045
827,309;21318,469;    1,185;    1,318
827,872;20681,889;    1,367;    0,955
828,436;21697,764;    1,185;   -0,773
828,999;21739,911;   -0,997;    1,227
829,563;20533,967;   -0,179;    1,136
830,126;20312,932;   -0,179;   -0,591
830,690;20342,261;   -1,997;    2,864
831,253;19881,045;   -0,543;    2,227
831,816;20013,829;   -1,906;    0,500
832,380;19947,976;    0,185;    0,864
832,943;20185,032;   -1,361;   -0,500
833,506;19624,725;    2,639;   -1,227
834,069;20393,508;    3,912;   -0,955
834,632;20424,201;    1,730;    1,318
835,195;20386,803;    1,003;    0,955
835,758;19578,950;   -0,997;    1,955
836,321;19406,006;    0,730;   -1,045
836,884;19522,608;   -0,725;   -0,955
837,447;19571,209;   -2,816;    1,773
838,010;19832,629;    0,366;    3,227
838,573;20081,777;   -1,179;    0,773
839,135;20083,015;   -1,361;   -0,955
839,698;19558,798;    1,275;    0,409
840,261;19038,309;    1,003;   -0,227
840,823;18877,183;   -0,543;    0,864
841,386;19194,967;   -0,452;   -2,409
841,948;19067,478;   -1,361;    1,773
842,511;18796,898;    0,912;    1,682
843,073;18904,318;    1,912;    0,227
843,636;18707,010;   -0,361;   -0,227
844,198;18636,703;    0,911;    0,591
844,760;18791,214;    1,093;    1,955
845,322;18433,088;    0,548;    1,136
845,885;18918,326;    0,730;    0,591
846,447;19322,383;   -1,998;    0,227
847,009;18897,257;    1,911;   -0,682
847,571;19237,677;    0,820;   -2,045
848,133;19343,006;   -1,089;   -1,864
848,695;19166,698;   -0,543;    1,409
849,257;18679,482;   -1,089;   -1,682
849,819;18866,266;   -0,998;   -0,409
850,381;18912,504;   -0,725;   -0,864
850,942;19274,651;    1,093;   -0,591
851,504;19257,616;    1,184;    0,227
852,066;19272,491;    1,275;   -1,591
852,628;18817,638;   -0,180;    1,955
853,189;18368,694;    1,638;    2,682
853,751;18490,932;   -0,907;    1,409
854,312;18285,988;   -0,453;   -1,682
854,874;18779,045;   -2,089;   -0,773
855,435;19330,283;   -0,907;   -1,682
855,997;19490,248;   -1,816;   -0,136
856,558;18796,123;    0,366;    1,773
857,119;18846,543;    0,820;    2,864
857,681;18528,690;    0,002;    0,318
858,242;18589,110;    1,911;   -2,136
858,803;19044,348;    0,456;   -0,773
859,364;19581,949;    0,184;   -4,773
859,925;18872,278;   -2,453;   -0,955
860,486;18781,971;   -0,453;   -0,955
861,047;18521,755;   -0,544;   -1,227
861,608;18309,084;   -1,089;   -0,773
862,169;18441,776;    0,638;   -0,045
862,730;18238,014;    0,456;    1,409
863,291;18492,616;   -0,635;   -0,500
863,852;18833,400;   -0,635;    1,955
864,412;18279,092;   -0,271;   -0,864
864,973;16927,512;   -0,089;    0,500
865,534;16800,477;   -1,726;    0,227
866,094;18241,079;    1,820;    0,227
866,655;17900,135;    1,274;    3,318
867,215;18191,283;    0,274;    0,136
867,776;18036,430;    0,547;   -0,136
868,336;18107,941;   -1,453;    0,136
868,897;17567,815;    2,638;    1,682
869,457;17295,326;    1,365;    0,318
870,017;17525,564;    0,547;   -1,227
870,578;18060,802;   -0,817;    0,773
871,138;17728,949;   -2,089;   -0,955
871,698;17297,915;   -0,817;   -1,318
872,258;17208,880;   -0,453;   -2,864
872,818;17574,300;    2,729;    0,045
873,378;17542,447;    0,638;    1,045
873,938;17087,685;    0,547;    0,500
874,498;17410,923;    0,274;   -1,955
875,058;17305,525;    2,183;    1,773
875,618;17145,399;    1,910;   -2,682
876,177;17081,183;    1,274;    0,136
876,737;16714,876;   -0,090;    1,955
877,297;16719,023;    0,183;    1,955
877,856;16705,988;   -0,362;    0,318
878,416;16685,044;    1,183;   -0,136
878,976;16932,373;   -1,817;    0,409
879,535;17070,066;    0,092;    3,136
880,095;16783,486;   -0,544;    0,045
880,654;16895,997;   -1,090;    1,318
881,213;17036,235;    2,456;    1,500
881,773;16656,655;    2,637;    2,682
882,332;16969,529;    3,365;    5,136
882,891;16865,767;    3,092;    2,136
883,451;17329,642;   -1,272;    1,682
884,010;16768,971;   -2,908;   -0,409
884,569;16822,118;   -0,999;   -0,045
885,128;16988,174;    2,819;   -1,864
885,687;17072,140;    4,455;    0,682
886,246;16775,650;    1,455;    2,136
886,805;16540,343;    2,455;    2,045
887,364;16822,581;   -0,999;   -0,500
887,922;17177,274;   -1,181;    0,045
888,481;16681,966;   -1,545;    0,591
889,040;16989,477;    1,183;    2,136
889,599;17700,806;    2,455;    1,409
890,157;17792,862;    1,455;    2,409
890,716;17424,646;   -0,090;    0,227
891,274;17210,248;    0,092;   -1,136
891,833;17646,577;    1,546;    0,864
892,391;17546,724;   -0,454;    0,500
892,950;17636,962;    1,819;   -0,773
893,508;17983,200;    0,455;   -0,409
894,067;17327,165;    0,637;    0,136
894,625;17233,676;   -0,636;   -1,500
895,183;17468,369;   -0,363;   -0,682
895,741;17329,789;    1,728;   -1,773
896,299;17197,300;   -0,545;   -2,409
896,858;17378,538;    0,819;   -1,591
897,416;17492,685;    2,728;   -1,318
897,974;17251,468;    1,819;    0,318
898,532;17375,343;    6,091;    2,682
899,089;17249,036;    2,091;   -0,682
899,647;17304,455;   -1,454;    1,318
900,205;17010,057;    1,182;    1,045
900,763;17238,204;   -0,454;    0,227
901,321;17295,715;    2,364;   -1,409
901,878;16672,771;   -1,000;   -0,773
902,436;16568,100;   -1,363;    1,318
902,994;16935,338;    4,728;    3,682
903,551;16354,304;    0,728;    0,409
904,109;16731,815;    0,182;   -1,409
904,666;16326,598;    2,455;    1,045
905,224;16193,018;    0,182;   -0,409
905,781;15950,074;    0,727;   -0,318
906,338;16031,949;   -1,363;    1,045
906,895;15938,551;    0,637;    2,045
907,453;15850,789;    1,727;    1,136
908,010;15900,572;   -0,909;    0,409
908,567;15565,083;    1,273;    0,591
909,124;15032,139;    0,364;   -1,500
909,681;15108,559;   -2,909;    0,682
910,238;15254,161;    0,636;   -1,318
910,795;15568,126;   -0,273;   -1,136
911,352;15185,944;   -2,909;   -2,682
911,909;14611,308;   -1,364;   -0,864
912,466;15121,217;   -3,182;    1,500
913,022;14651,854;   -1,636;    0,500
913,579;15024,126;   -0,909;    2,045
914,136;14735,399;    1,636;    0,955
914,692;15076,308;    0,091;   -1,227
915,249;14622,308;    1,455;    0,409
915,806;14880,581;    0,182;    1,955
916,362;14608,944;    1,909;    1,864
916,918;14173,672;    2,000;    1,045
917,475;14171,217;   -1,182;    0,955
918,031;14215,035;    3,364;   -0,045
918,587;13671,217;   -0,909;   -0,318
919,144;13889,399;   -2,273;    0,227
919,700;14245,854;    1,727;    0,773
920,256;13833,672;    0,727;    0,045
920,812;13429,854;   -0,727;   -1,045
921,368;13398,217;   -1,727;   -1,045
921,924;13022,581;    0,182;   -0,136
922,480;12627,035;   -0,545;    1,227
923,036;13261,854;    1,273;    1,955
923,592;13185,035;    0,455;    0,318
924,148;13115,490;    0,455;   -0,955
924,704;12418,490;   -1,364;   -0,409
925,259;12678,399;   -0,273;    0,591
925,815;12458,763;    1,455;    0,500
926,371;11973,581;    2,909;    1,409
926,926;11862,035;    2,091;    0,591
927,482;11483,672;   -1,364;    0,773
928,037;11365,763;    0,909;    2,045
928,593;11650,763;    1,636;    1,045
929,148;11442,581;   -1,818;   -1,500
929,704;10980,035;   -1,455;   -0,500
930,259;11170,944;    0,091;   -0,136
930,814;10250,854;   -0,818;    1,955
931,369; 9956,308;    1,091;   -0,773
931,925; 9839,035;   -0,091;    0,136
932,480; 9725,854;   -2,818;   -2,591
933,035; 9608,944;    0,545;   -0,318
933,590; 9372,854;    0,364;   -1,773
934,145; 9014,854;   -1,364;   -0,318
934,700; 9355,763;    0,455;   -0,591
935,255; 9133,217;   -0,091;    0,045
935,809; 8407,035;    3,182;    0,864
936,364; 7553,490;   -0,455;   -0,136
936,919; 7527,399;    0,455;   -1,773
937,474; 7401,854;    1,455;    0,136
938,028; 7140,581;   -1,636;    1,136
938,583; 6619,581;    1,818;    4,682
939,138; 6911,763;    2,091;    2,136
939,692; 6354,763;    1,636;   -1,136
940,247; 6059,035;   -0,727;   -1,045
940,801; 5603,308;   -0,636;    0,227
941,355; 5484,944;   -0,364;    2,591
941,910; 5157,672;   -0,273;   -2,136
942,464; 5257,035;   -0,818;   -0,318
943,018; 5041,490;    1,000;   -0,227
943,572; 4969,854;    2,545;   -0,682
944,126; 4375,308;    0,091;   -0,409
944,681; 4296,763;    3,091;    0,227
945,235; 4274,217;    1,000;   -0,591
945,789; 4218,581;    0,364;   -1,864
946,342; 4303,490;    0,455;   -0,591
946,896; 4115,944;   -2,273;    0,955
947,450; 3876,399;    1,545;   -0,227
948,004; 4054,308;    1,727;   -0,045
948,558; 4064,944;    0,273;   -0,864
949,111; 3988,763;   -0,273;   -0,318
949,665; 4019,399;    1,636;   -0,682
950,219; 3903,308;   -0,091;   -1,045
950,772; 3992,581;   -1,909;    1,864
951,326; 3860,308;    0,545;   -0,955
951,879; 3968,399;    0,727;   -2,318
952,433; 3990,581;    0,000;    2,227
952,986; 3842,944;    2,909;    0,682
953,539; 3799,035;   -0,273;    0,591
954,093; 3726,126;    0,545;   -1,318
954,646; 3853,763;    0,909;    1,318
955,199; 3681,763;    0,000;   -0,500
955,752; 3560,399;   -0,455;    1,773
956,305; 3521,490;   -0,091;    2,955
956,858; 3698,763;    0,818;   -0,318
957,411; 3868,399;   -0,545;    2,136
957,964; 3687,763;    1,364;    2,136
958,517; 3693,854;   -1,545;    3,136
959,070; 3524,217;   -0,455;    1,955
959,623; 3578,399;    1,091;    1,500
960,176; 3339,672;    1,727;    2,045
960,728; 3321,126;   -2,727;    0,773
961,281; 3381,490;    0,545;    0,500
961,834; 3434,217;   -0,909;    0,864
962,386; 3347,763;    1,727;    1,045
962,939; 3277,217;    0,364;   -0,318
963,491; 3420,308;    0,455;    1,136
964,043; 3289,944;    1,182;    2,409
964,596; 3406,126;   -1,000;    2,227
965,148; 3254,854;   -1,000;    1,773
965,700; 3175,490;    1,091;   -0,227
966,253; 3333,854;   -0,636;    0,318
966,805; 3174,490;   -2,273;    0,773
967,357; 3209,581;    1,091;   -1,500
967,909; 3145,217;    0,455;   -1,227
968,461; 3270,217;    0,545;    3,136
969,013; 3207,308;   -0,182;   -0,864
969,565; 3281,763;   -0,455;   -1,136
970,117; 3351,399;   -0,364;    1,045
970,669; 3199,672;    0,182;   -0,136
971,220; 3051,490;   -0,455;   -1,500
971,772; 2967,399;   -0,636;   -0,318
972,324; 3096,581;    0,091;   -0,500
972,876; 3037,217;    0,818;   -0,045
973,427; 3185,217;    1,909;   -1,045
973,979; 3133,854;   -0,727;   -2,500
974,530; 3178,035;    1,818;    1,318
975,082; 3186,126;   -0,545;    1,682
975,633; 3080,944;    1,091;    1,682
976,184; 3228,399;    0,909;    0,773
976,736; 2999,944;    0,091;    0,227
977,287; 2809,490;   -0,909;   -0,500
977,838; 2994,217;    0,909;   -0,318
978,389; 3053,217;   -1,000;   -0,500
978,940; 2912,763;    0,545;   -0,409
979,491; 2950,035;    0,091;   -0,500
980,042; 2909,672;    0,182;    3,045
980,593; 2956,490;   -2,545;    0,227
981,144; 3004,126;    2,545;   -0,500
981,695; 2970,944;    1,455;    1,500
982,246; 2940,035;   -0,273;    1,045
982,797; 3101,944;   -1,727;    0,682
983,347; 3203,672;    0,364;    0,591
983,898; 3380,126;    3,091;    0,409
984,449; 3208,854;    2,182;    0,773
984,999; 3091,217;    1,455;   -1,136
985,550; 2889,763;    0,182;   -0,318
986,100; 2918,308;   -0,455;   -0,318
986,651; 2935,672;   -0,818;    0,045
987,201; 2918,672;   -1,000;   -0,591
987,751; 3001,308;    0,818;    2,864
988,302; 2985,581;    2,636;    1,500
988,852; 3005,035;    0,455;   -1,136
989,402; 3056,581;    0,091;    0,682
989,952; 2974,490;   -2,182;    0,864
990,502; 3076,308;   -0,091;    0,682
991,052; 3039,399;   -0,727;    0,045
991,602; 2906,672;   -2,909;    1,318
992,152; 2895,490;    0,455;    0,682
992,702; 2872,399;    1,364;   -0,045
993,252; 2794,672;   -3,000;   -0,500
993,802; 2896,672;   -0,273;    1,318
994,352; 3128,581;   -1,545;    1,136
994,901; 3230,126;   -0,182;    3,227
995,451; 3147,217;   -0,182;    0,318
996,000; 3219,217;    1,636;    0,318
996,550; 2926,308;    2,273;    0,227
997,100; 2939,126;    1,273;   -0,045
997,649; 3210,672;    2,182;    0,955
998,198; 2834,672;    1,727;   -1,500
998,748; 3042,581;    1,091;   -2,318
999,297; 2949,854;   -0,818;   -0,409
999,846; 3005,854;    1,000;   -0,773
1000,395; 3060,672;   -0,818;    0,500
1000,945; 3002,126;    1,818;   -0,773
1001,494; 3103,944;    2,364;    0,682
1002,043; 3094,126;    4,636;    0,864
1002,592; 2934,217;   -1,091;    1,955
1003,141; 3062,581;   -0,455;   -0,682
1003,690; 2922,763;    1,727;    0,500
1004,238; 3031,126;    1,455;   -0,045
1004,787; 2662,399;    1,364;    1,227
1005,336; 2887,672;    0,364;    0,682
1005,885; 3030,944;    1,364;   -2,773
1006,433; 3166,763;    0,545;    0,955
1006,982; 3212,308;    0,455;    1,682
1007,531; 3122,490;   -1,818;   -0,227
1008,079; 3065,035;   -2,273;    0,500
1008,627; 3209,399;   -1,455;    0,409
1009,176; 2956,854;    0,000;   -1,955
1009,724; 3015,854;    1,091;    0,864
1010,273; 3055,035;    1,273;    0,500
1010,821; 3177,944;    0,091;    1,409
1011,369; 2914,126;   -1,364;    1,318
1011,917; 2898,763;   -1,364;   -0,591
1012,465; 3174,672;    1,273;   -1,591
1013,013; 3281,854;    2,091;   -1,682
1013,561; 3165,399;    0,455;   -0,773
1014,109; 3201,944;   -1,909;    1,682
1014,657; 3085,763;    0,364;    0,591
1015,205; 3221,035;    1,636;   -0,955
1015,753; 3256,308;   -0,545;   -1,409
1016,301; 3292,854;   -2,636;    3,045
1016,848; 3273,399;   -1,273;    0,409
1017,396; 3309,035;    2,545;    0,045
1017,944; 3440,490;    1,182;    1,864
1018,491; 3214,308;    0,273;    1,409
1019,039; 3350,672;    0,455;    0,591
1019,586; 3273,490;   -1,364;    1,682
1020,134; 3383,672;    0,455;    1,500
1020,681; 3384,126;    0,182;   -1,136
1021,228; 3391,490;    2,909;   -2,227
1021,776; 3220,944;    1,182;   -1,136
1022,323; 3459,126;    0,455;    0,773
1022,870; 3400,944;   -1,000;   -0,045
1023,417; 3290,217;    2,636;    1,864
1023,964; 3445,581;    2,636;    1,227
1024,511; 3266,854;    1,000;    0,773
1025,058; 3068,944;    3,182;   -0,045
1025,605; 3109,854;   -2,273;    3,136
1026,152; 3314,581;    1,727;   -0,591
1026,699; 3053,399;    1,818;    1,318
1027,245; 3237,126;   -0,091;    0,318
1027,792; 3431,944;   -1,000;    1,409
1028,339; 3328,854;    2,364;   -0,045
1028,885; 3177,490;    1,000;   -0,227
1029,432; 3131,308;   -0,091;    0,227
1029,978; 3178,672;   -1,000;   -1,591
1030,525; 3067,217;    1,000;    0,409
1031,071; 3322,126;   -1,364;    1,136
1031,618; 3432,581;    0,364;    1,682
1032,164; 3217,672;   -0,091;    3,045
1032,710; 3269,672;    1,636;   -1,500
1033,256; 3178,308;   -0,636;   -0,136
1033,803; 3163,308;   -0,545;    1,500
1034,349; 2874,308;   -1,364;    0,136
1034,895; 3034,308;    0,000;   -0,318
1035,441; 3023,854;   -0,818;    0,318
1035,987; 3015,126;   -2,364;   -0,682
1036,533; 3007,944;   -1,455;   -0,955
1037,078; 3224,035;    1,455;    1,682
1037,624; 3034,217;    2,455;   -0,955
1038,170; 3063,854;    0,455;   -0,318
1038,716; 2974,035;    1,636;   -0,409
1039,261; 2869,490;   -2,273;   -0,773
1039,807; 2809,399;   -0,091;    3,409
1040,352; 2888,308;   -1,909;   -0,318
1040,898; 2926,581;   -1,545;   -0,682
1041,443; 2834,763;   -1,455;   -2,591
1041,989; 2847,581;    1,091;    1,591
1042,534; 2736,035;   -0,364;    2,591
1043,079; 2844,126;    2,909;    0,955
1043,625; 2655,672;    1,818;    0,500
1044,170; 2706,035;   -1,364;    1,045
1044,715; 2949,944;    2,455;    0,955
1045,260; 2770,672;    2,182;   -0,955
1045,805; 2817,944;    1,182;   -0,591
1046,350; 2746,399;    1,364;   -0,409
1046,895; 2696,126;    2,909;    1,591
1047,440; 2648,763;    5,364;    0,409
1047,985; 2570,126;    2,818;   -0,955
1048,530; 2480,490;    1,545;    1,227
1049,074; 2548,217;    0,000;    0,318
1049,619; 2516,854;   -1,364;    1,955
1050,164; 2315,399;    0,455;    0,227
1050,708; 2353,217;   -0,455;    0,045
1051,253; 2718,490;    1,273;   -2,227
1051,797; 2429,035;    0,818;   -1,318
1052,342; 2463,672;   -1,182;    1,045
1052,886; 2453,399;    0,364;   -1,409
1053,430; 2330,399;   -1,364;    0,136
1053,975; 2355,399;   -0,818;   -0,318
1054,519; 2319,217;   -0,727;    3,227
1055,063; 2325,854;    0,909;    1,318
1055,607; 2213,581;   -0,182;    0,227
1056,151; 2244,944;    2,909;    1,682
1056,695; 2153,399;    2,273;   -1,136
1057,239; 2224,763;   -1,727;   -0,682
1057,783; 2245,854;    0,818;   -1,500
1058,327; 2170,490;    0,000;    1,409
1058,871; 2396,763;   -0,545;    1,318
1059,415; 2111,672;   -0,818;   -0,045
1059,958; 2372,581;    1,455;    2,591
1060,502; 2089,581;   -1,000;   -0,773
1061,046; 1996,581;    0,364;   -0,955
1061,589; 1980,490;   -3,000;   -1,136
1062,133; 1855,944;   -1,273;    1,864
1062,676; 1800,126;    1,182;    0,864
1063,220; 1816,581;    1,091;    0,500
1063,763; 1822,854;    0,909;    1,136
1064,306; 1926,854;   -0,909;    1,864
1064,849; 1798,217;   -0,909;    0,591
1065,393; 1798,126;    2,000;   -1,500
1065,936; 1915,763;    0,182;   -0,409
1066,479; 1802,763;   -1,455;    1,318
1067,022; 1814,763;   -0,273;   -0,227
1067,565; 1716,399;   -0,091;   -1,318
1068,108; 1754,490;    0,727;   -0,591
1068,651; 1712,399;   -0,636;    1,409
1069,194; 1640,763;   -0,455;   -1,682
1069,736; 1642,490;   -1,273;    0,955
1070,279; 1613,581;   -1,364;   -0,500
1070,822; 1663,581;   -2,000;   -0,318
1071,364; 1761,672;   -0,364;    1,318
1071,907; 1597,763;   -0,727;    3,227
1072,450; 1496,763;    0,000;   -0,045
1072,992; 1486,126;   -0,273;    3,136
1073,535; 1626,399;    2,091;    2,136
1074,077; 1430,944;   -0,727;    2,045
1074,619; 1384,126;   -1,364;    0,591
1075,161; 1418,035;   -1,091;    1,500
1075,704; 1592,490;    1,545;    1,227
1076,246; 1404,217;   -0,182;    0,682
1076,788; 1328,581;   -0,364;    1,773
1077,330; 1408,308;    1,273;    2,136
1077,872; 1369,581;    0,909;    0,955
1078,414; 1592,308;    2,727;    0,773
1078,956; 1319,672;    1,273;   -0,227
1079,498; 1577,126;    1,636;    0,318
1080,040; 1287,854;    1,909;   -1,318
1080,581; 1236,308;    1,636;   -0,318
1081,123; 1154,399;    0,091;   -0,773
1081,665; 1205,763;   -1,182;   -0,955
1082,206; 1504,308;    1,364;   -0,500
1082,748; 1363,217;    0,727;    2,045
1083,289; 1232,672;   -2,000;    1,318
1083,831; 1135,217;   -0,545;    0,227
1084,372; 1172,944;    0,000;    0,591
1084,913; 1187,854;    1,091;    0,864
1085,455; 1157,854;   -1,909;   -2,045
1085,996; 1121,126;   -2,273;    0,136
1086,537; 1134,308;   -0,091;    0,864
1087,078; 1167,763;   -0,909;   -2,136
1087,619; 1217,581;   -1,273;    0,227
1088,160; 1137,217;    0,000;    1,318
1088,701; 1107,308;   -1,091;    0,682
1089,242; 1050,944;    1,364;   -2,227
1089,783; 1154,308;   -0,273;    1,409
1090,324; 1118,854;    0,455;    0,682
1090,865;  998,126;    2,727;   -0,409
1091,405;  956,763;    0,727;    2,227
1091,946;  982,035;    0,182;   -0,955
1092,487;  912,763;    0,818;   -1,409
1093,027; 1088,217;   -1,364;   -1,500
1093,568;  935,854;   -0,364;    1,227
1094,108; 1036,854;    0,273;    1,773
1094,649;  980,581;   -1,182;    0,136
1095,189;  920,308;   -0,636;   -0,682
1095,729;  868,854;   -0,091;    0,955
1096,269;  860,308;    0,727;   -0,955
1096,810; 1186,399;   -1,364;    0,500
1097,350; 1009,308;    1,364;   -0,773
1097,890;  914,763;    0,364;    1,227
1098,430; 1174,490;    2,364;    2,864
1098,970; 1049,672;    2,182;    1,682
1099,510;  898,944;    0,545;   -2,318
1100,050;  822,763;    1,000;   -1,591
1100,589;  788,581;   -0,727;   -0,318
1101,129;  918,490;    0,818;   -0,955
1101,669; 1072,399;    1,727;    2,136
1102,209;  885,217;   -0,091;    2,227
1102,748;  843,308;    0,000;    0,955
1103,288;  843,944;    1,273;   -1,227
1103,827;  862,126;    3,091;   -2,227
1104,367;  733,399;   -0,091;   -2,409
1104,906;  699,581;    1,364;   -1,136
1105,445;  774,126;    0,636;   -1,136
1105,985;  727,672;   -0,727;    1,500
1106,524;  769,672;   -1,727;   -0,682
1107,063;  750,217;   -2,727;    1,409
1107,602;  716,217;   -1,909;   -1,500
1108,141;  636,581;   -1,909;    1,500
1108,680;  756,399;   -3,455;   -0,591
1109,219;  680,763;   -0,909;   -0,500
1109,758;  670,763;    0,455;    0,682
1110,297;  644,490;    1,000;   -0,682
1110,836;  584,854;   -0,727;    0,955
1111,375;  767,217;   -2,545;    0,409
1111,913;  772,399;   -1,000;    0,773
1112,452;  712,944;   -0,273;    0,136
1112,991;  588,126;    1,091;    1,955
1113,529;  556,490;   -0,818;   -0,045
1114,068;  622,490;   -0,273;    2,955
1114,606;  521,763;   -0,364;   -0,955
1115,144;  688,763;   -1,273;    1,045
1115,683;  631,490;   -0,727;    0,318
1116,221;  673,308;   -0,455;   -0,864
1116,759;  575,217;    0,636;   -0,864
1117,297;  773,944;    0,000;    1,864
1117,836;  582,126;   -2,182;   -1,227
1118,374;  587,490;    0,182;   -0,682
1118,912;  522,126;    0,909;    2,682
1119,450;  519,399;    1,000;    0,864
1119,988;  568,763;    1,545;    2,136
1120,525; 1037,854;    5,091;    3,318
1121,063;  725,490;    1,182;    1,864
1121,601;  535,763;   -0,909;   -1,227
1122,139;  488,763;   -0,727;   -2,045
1122,676;  691,763;   -0,727;    2,773
1123,214;  621,581;   -1,182;    4,409
1123,751;  426,490;    1,727;    2,227
1124,289;  566,126;   -0,091;   -0,409
1124,826;  438,308;    1,727;    0,227
1125,364;  355,399;    1,727;   -0,955
1125,901;  541,126;    1,182;    1,227
1126,438;  656,217;    0,818;    0,955
1126,975;  382,399;   -0,727;   -0,773
1127,513;  448,763;    0,273;    2,136
1128,050;  355,944;    1,636;   -0,682
1128,587;  451,217;    2,000;   -0,227
1129,124;  502,944;    0,091;    1,318
1129,661;  362,944;    0,273;    0,227
1130,198;  536,581;    1,636;    0,773
1130,734;  489,581;    0,182;    1,409
1131,271;  342,854;   -0,909;    0,864
1131,808;  503,399;    2,909;    3,045
1132,345;  380,217;    1,545;    0,318
1132,881;  241,944;   -1,545;   -1,864
1133,418;  382,490;    0,727;   -1,136
1133,954;  324,944;    2,455;   -2,682
1134,491;  402,399;    1,364;   -0,773
1135,027;  299,763;    2,364;    0,864
1135,564;  403,944;    0,273;    2,955
1136,100;  376,399;    0,364;    2,136
1136,636;  252,035;   -1,273;   -1,045
1137,172;  355,217;    0,000;   -1,045
1137,708;  285,217;   -1,364;   -1,045
1138,245;  283,490;    1,273;   -1,227
1138,781;  236,308;    1,091;   -3,318
1139,317;  311,763;    1,273;   -1,409
1139,852;  293,126;    3,091;    0,136
1140,388;  418,308;   -1,182;   -0,409
1140,924;  299,308;   -1,091;   -2,227
1141,460;  223,308;   -1,636;    0,136
1141,996;  165,126;   -1,364;    2,682
1142,531;  211,490;    1,364;    3,318
1143,067;  435,126;    1,182;    1,045
1143,602;  490,035;   -0,091;   -0,318
1144,138;  337,126;   -2,636;    1,045
1144,673;  198,581;   -1,455;    1,409
1145,209;  270,399;   -1,909;   -0,318
1145,744;  191,581;   -0,727;    0,864
1146,279;  330,672;    1,818;   -0,136
1146,815;  235,672;    1,545;   -2,682
1147,350;  275,490;   -1,364;    0,045
1147,885;  186,672;   -0,818;   -1,318
1148,420;  187,854;   -2,273;    0,773
1148,955;  177,854;   -1,727;    1,864
1149,490;  202,308;   -0,909;   -1,591
1150,025;  181,672;    0,455;   -1,773
1150,560;  295,035;    1,091;   -0,955
1151,094;  261,854;    1,455;   -0,591
1151,629;  266,035;    1,636;    0,864
1152,164;  190,399;    1,364;    1,318
1152,698;  148,672;   -0,182;   -0,136
1153,233;  100,308;    0,091;   -0,682
1153,767;  151,854;   -3,000;   -2,318
1154,302;  201,308;   -1,455;    1,773
1154,836;  202,672;   -0,455;   -2,136
1155,371;  262,217;   -1,364;    3,682
1155,905;  209,581;   -0,636;    1,682
1156,439;  181,854;   -0,636;   -0,500
1156,973;  209,854;    0,364;    0,318
1157,507;  142,217;   -0,364;    0,682
1158,042;  174,672;   -0,727;    1,045
1158,576;  224,035;    0,182;    1,773
1159,110;  218,399;   -0,818;    2,409
1159,643;  180,763;    0,636;   -0,045
1160,177;  119,490;   -1,545;    1,500

