
Integration time [ms]:   0,040
Averaging Nr. [scans]: 11
Smoothing Nr. [pixels]: 0
Data measured with spectrometer [name]: 7318044SP
Wave   ;Sample   ;Dark     ;Reference
[nm]   ;[counts] ;[counts] ;[counts] 

186,757;   30,336;   31,551;    1,318
187,357;   71,107;   22,551;    0,955
187,958;   40,100;   15,460;   -1,591
188,558;   90,505;    8,915;   -1,227
189,159;   53,763;    6,733;   -4,500
189,759;   21,088;    7,278;   -3,591
190,360;   15,785;    2,824;   -2,136
190,960;   58,956;    2,915;   -4,136
191,560;   78,191;    3,189;   -6,591
192,161;  338,213;    4,372;   -3,500
192,761;  166,096;    4,010;   -3,227
193,361;  116,918;    1,556;   -3,773
193,962;  167,188;    2,010;   -2,682
194,562;   90,103;    1,189;   -3,955
195,162;  125,265;   -2,448;   -2,227
195,762;  292,032;   -3,176;   -0,045
196,362;  232,199;    1,370;   -2,500
196,963;   97,065;    2,006;   -0,864
197,563;  182,148;    1,551;   -0,955
198,163;  121,127;    0,096;   -0,682
198,763;  131,871;    1,733;   -0,500
199,363;  249,585;    3,096;   -0,500
199,963;  202,332;    0,369;    0,409
200,563;  170,264;    2,823;   -1,409
201,163;  159,033;    3,277;   -0,227
201,763;  257,547;    3,732;    0,318
202,363;  186,390;    1,459;    1,500
202,963;  301,373;    1,459;    1,045
203,563;  421,700;    0,277;    0,500
204,162;  259,544;    2,096;   -1,864
204,762;  245,359;    0,550;    0,591
205,362;  208,675;    3,004;    1,955
205,962;  314,118;    3,096;    1,955
206,562;  310,650;    1,823;    2,318
207,161;  279,396;   -0,087;    0,318
207,761;  441,865;    1,277;    2,409
208,361;  318,465;   -0,268;    1,409
208,960;  422,411;    0,459;    1,500
209,560;  492,924;    1,277;    1,591
210,160;  468,018;    0,550;    1,864
210,759;  437,714;    4,186;    1,227
211,359;  446,291;    1,459;    1,045
211,958;  719,127;    1,277;    2,045
212,558;  799,908;    1,732;    1,864
213,157;  630,717;    1,822;    1,500
213,757; 1091,147;    3,822;   -0,227
214,356;  787,897;    1,277;   -0,409
214,956; 1128,955;    3,095;    0,409
215,555;  747,542;    2,095;    2,136
216,154;  681,120;   -2,723;   -0,591
216,754;  687,834;    0,277;    0,773
217,353;  833,761;   -0,268;   -1,045
217,952;  677,914;   -0,178;    0,318
218,552;  927,102;    1,368;   -0,773
219,151;  817,937;    0,277;    0,955
219,750;  821,031;    0,004;   -0,227
220,349;  955,101;   -0,451;    1,045
220,948; 1017,280;   -1,360;    1,136
221,548; 1058,974;    0,913;    1,227
222,147; 1168,338;   -0,087;   -0,409
222,746; 1453,716;   -0,451;   -0,955
223,345; 1334,020;    0,731;    0,500
223,944; 1341,323;   -0,451;    0,773
224,543; 1536,514;    1,004;   -1,409
225,142; 1645,659;    0,094;    0,136
225,741; 1553,334;   -0,814;    1,045
226,340; 1585,217;   -0,451;   -0,955
226,939; 2046,508;   -0,996;   -0,136
227,538; 2023,075;   -0,360;   -0,773
228,137; 2170,879;   -0,814;    0,864
228,735; 2336,419;   -0,541;    1,227
229,334; 2080,770;   -0,905;   -0,227
229,933; 2456,847;    0,459;    0,591
230,532; 2579,317;    1,186;   -0,409
231,131; 2627,117;    1,732;    0,318
231,729; 2793,906;   -2,450;   -2,318
232,328; 2939,310;   -0,723;   -1,500
232,927; 3040,502;    1,004;   -0,500
233,525; 3161,344;    3,640;    0,045
234,124; 3394,739;    2,368;   -1,591
234,723; 3427,244;    0,913;   -1,045
235,321; 3576,676;    2,277;    0,136
235,920; 3807,276;    1,186;   -1,227
236,518; 4105,890;    3,459;    0,318
237,117; 4298,675;    0,004;   -0,227
237,715; 4472,380;    0,640;   -0,500
238,314; 4512,699;   -0,087;   -2,318
238,912; 4606,550;   -0,723;   -1,409
239,510; 4659,979;    0,459;   -1,227
240,109; 4857,847;    0,004;    3,773
240,707; 4909,937;   -0,996;    1,227
241,305; 5298,741;    0,550;    0,136
241,904; 5510,377;   -0,178;   -2,045
242,502; 5465,487;   -0,632;   -0,227
243,100; 5423,549;   -0,087;   -0,955
243,698; 5674,618;    0,732;    1,682
244,297; 5869,867;   -0,632;    0,682
244,895; 5712,936;   -0,269;   -2,318
245,493; 6050,239;    2,186;   -0,591
246,091; 6070,454;    1,368;   -1,318
246,689; 6085,994;    1,004;    0,591
247,287; 6264,500;    0,822;   -1,136
247,885; 6525,899;   -1,451;    1,227
248,483; 6636,280;    1,822;   -0,500
249,081; 6780,077;    0,185;    1,591
249,679; 6949,811;   -0,178;    1,682
250,277; 7210,037;   -1,723;    0,864
250,875; 7196,646;   -1,087;   -1,045
251,473; 7251,441;   -1,178;    0,500
252,071; 7473,462;    1,459;    1,045
252,669; 7615,414;   -1,814;    0,318
253,267; 7857,991;   -0,087;    0,773
253,864; 7830,318;   -0,360;    0,682
254,462; 7690,153;    1,640;    1,591
255,060; 7685,303;   -0,269;    1,318
255,658; 8023,050;    0,822;   -0,136
256,255; 8427,949;    0,186;   -2,045
256,853; 8294,353;   -0,269;    1,409
257,451; 8312,318;    0,822;    1,864
258,048; 8532,286;    1,822;    1,864
258,646; 8309,783;    1,731;   -1,045
259,243; 8517,444;   -0,087;    2,227
259,841; 8549,660;   -0,814;    0,318
260,438; 8448,145;   -0,087;    0,864
261,036; 9189,905;   -1,905;    1,409
261,633; 9089,154;   -0,087;    2,227
262,231; 8830,973;    2,731;   -0,045
262,828; 8908,225;   -0,905;    1,136
263,425; 8973,546;    0,913;   -0,591
264,023; 9252,576;    0,186;    0,045
264,620; 8786,770;   -0,360;   -0,318
265,217; 9156,875;   -2,087;    3,136
265,815; 9257,337;   -1,905;    2,136
266,412; 9020,251;    0,731;    0,136
267,009; 9075,220;   -1,451;    0,773
267,606; 8964,692;    0,822;   -0,955
268,203; 8952,145;   -0,269;   -0,591
268,801; 9271,349;    1,731;    0,591
269,398; 9544,132;   -0,360;    2,500
269,995; 9536,680;    0,277;    1,591
270,592; 9333,620;   -0,632;   -0,500
271,189; 9535,892;    0,186;    0,409
271,786; 9660,767;   -0,632;    1,227
272,383; 9485,645;   -1,087;    0,227
272,980; 9685,564;    0,277;    0,318
273,577;10170,363;    0,004;    1,227
274,174; 9697,239;    0,822;    2,591
274,771; 9690,596;   -0,814;   -0,773
275,367; 9874,266;    2,277;    1,409
275,964; 9810,770;    0,731;   -0,500
276,561; 9901,251;    1,549;   -1,045
277,158;10131,902;    0,095;   -1,773
277,755;10262,713;    2,185;    0,409
278,351; 9663,776;   -0,451;   -1,500
278,948; 9983,402;   -0,815;    0,045
279,545; 9994,631;   -1,360;    2,318
280,141;10653,292;   -1,723;   -2,045
280,738;10510,492;   -0,451;   -0,136
281,334;10782,496;   -1,633;    0,591
281,931;10135,398;   -0,087;   -1,318
282,528;10223,763;    0,822;   -0,500
283,124;10935,698;   -1,087;   -0,500
283,721;10841,282;   -0,451;    1,409
284,317;10665,378;    0,185;    2,500
284,913;11255,989;   -1,360;    0,591
285,510;11429,808;    0,640;   -0,318
286,106;11450,966;   -2,269;   -0,955
286,703;11052,260;   -0,360;    1,955
287,299;11253,479;   -1,451;   -0,591
287,895;11488,075;    0,822;   -1,045
288,491;12047,859;    0,186;    2,136
289,088;11792,338;   -2,360;    2,409
289,684;11869,596;   -1,723;    1,500
290,280;11859,364;    0,368;    0,682
290,876;11955,731;    1,822;    5,500
291,472;11823,116;    1,276;    2,227
292,068;11921,797;    1,367;    0,227
292,665;11631,479;    2,095;    0,773
293,261;11232,177;    0,276;    2,136
293,857;11663,352;    2,913;    2,136
294,453;11613,022;    3,550;    0,955
295,049;11476,105;   -0,268;    1,955
295,644;11497,249;    0,095;    0,136
296,240;11394,837;   -0,905;   -0,136
296,836;11439,426;   -0,995;    0,318
297,432;11725,708;    1,096;   -0,500
298,028;11759,137;    0,732;    0,773
298,624;12164,172;    1,459;    1,864
299,220;12395,810;    2,368;    0,591
299,815;12094,223;    1,005;   -0,409
300,411;11873,650;    0,914;    1,773
301,007;11893,300;    1,368;    0,227
301,602;11950,497;   -0,541;   -2,318
302,198;12149,782;    0,732;   -0,773
302,794;12484,850;    1,187;   -0,500
303,389;12591,778;   -1,177;    1,045
303,985;12665,764;    0,550;    1,409
304,580;12648,298;    1,459;    1,591
305,176;12598,891;   -3,086;    0,136
305,771;12546,434;   -1,268;   -1,227
306,367;12344,446;    4,095;    0,136
306,962;12691,951;    0,641;    1,500
307,558;12443,614;   -0,450;    0,136
308,153;12359,988;    1,095;   -1,136
308,748;12587,918;   -0,814;    1,682
309,344;12570,024;   -0,632;   -1,318
309,939;12668,181;   -1,905;   -1,318
310,534;12941,512;   -0,086;   -1,682
311,130;12897,534;    0,459;   -2,500
311,725;12608,403;    1,004;   -0,500
312,320;12984,295;    2,459;    0,045
312,915;12802,882;    1,459;   -1,045
313,510;12864,623;    1,550;   -0,500
314,105;13377,052;    1,096;    1,409
314,700;12768,648;   -3,086;   -1,045
315,295;12425,025;   -0,904;    0,045
315,890;11972,120;    1,277;    0,864
316,485;12344,325;   -0,359;   -0,318
317,080;12415,418;   -3,086;    1,591
317,675;13040,119;    2,005;   -0,682
318,270;12451,723;    5,550;    3,318
318,865;12402,171;    3,278;    3,045
319,460;12266,919;   -0,904;    0,591
320,055;12518,991;   -0,541;   -1,227
320,650;12140,382;   -1,995;   -0,591
321,244;12216,750;   -0,177;   -1,409
321,839;13158,121;   -1,541;   -0,227
322,434;13069,022;   -1,086;   -1,591
323,029;12681,332;    1,732;    1,591
323,623;12496,463;    1,550;    0,773
324,218;12286,379;    2,368;    1,409
324,812;12169,856;    1,096;    1,591
325,407;11961,646;   -0,814;    2,045
326,002;11858,172;    0,277;   -0,409
326,596;12181,447;    0,914;    1,318
327,191;12366,595;    0,823;   -1,045
327,785;11947,084;   -0,813;   -0,227
328,379;12179,354;    1,368;    0,136
328,974;11993,841;    0,914;   -3,955
329,568;12164,713;    0,186;   -2,409
330,163;12024,650;    2,096;    1,045
330,757;12378,129;    2,459;    1,591
331,351;11678,183;    0,459;    0,682
331,945;11983,207;    0,914;    1,409
332,540;11560,826;   -1,723;   -0,591
333,134;11730,928;   -1,086;    0,773
333,728;11989,884;    0,005;    0,318
334,322;12319,102;   -1,177;   -0,864
334,916;11582,146;    0,277;    0,955
335,510;11895,294;   -0,450;   -0,136
336,105;12201,231;   -1,086;    1,591
336,699;11916,027;   -1,086;    0,591
337,293;11840,010;   -1,723;    0,318
337,887;11989,509;   -2,723;    1,955
338,481;12066,852;    0,459;    0,591
339,074;12214,685;   -0,359;    2,682
339,668;12060,803;   -1,632;    1,227
340,262;12305,421;    1,732;    3,227
340,856;11801,358;    1,822;   -0,682
341,450;11165,201;    1,004;    1,864
342,044;12060,192;    1,459;    0,136
342,637;11832,211;    0,913;   -2,136
343,231;11686,382;   -2,360;    0,682
343,825;11648,566;   -1,086;   -0,591
344,419;11590,245;   -1,995;    0,500
345,012;11361,039;    2,459;    4,045
345,606;11377,332;    4,641;    1,591
346,199;11234,646;   -1,813;   -0,227
346,793;10772,310;    1,914;    2,045
347,386;10916,181;   -0,813;   -1,136
347,980;10946,903;   -0,268;   -0,045
348,573;10737,225;    2,278;    0,409
349,167;10401,988;    5,278;    4,773
349,760;10730,033;    2,914;    2,682
350,354;10709,224;   -0,813;    1,136
350,947;10437,480;    1,096;    1,682
351,540;10107,772;   -0,358;   -1,409
352,134;10059,338;    1,096;    1,136
352,727;10135,872;   -0,086;    1,136
353,320; 9958,129;    0,005;    0,591
353,913; 9800,927;   -1,995;    1,864
354,507; 9983,686;    0,823;   -1,227
355,100; 9960,921;    0,460;    0,864
355,693; 9176,233;    2,005;    2,409
356,286; 9244,241;    0,823;    2,773
356,879; 9616,046;   -0,722;    1,227
357,472; 9193,188;   -0,904;    1,500
358,065; 9395,600;   -0,722;    2,500
358,658; 9326,858;   -0,540;    2,318
359,251; 8957,052;   -1,631;   -0,591
359,844; 8429,127;   -1,904;   -1,136
360,437; 8602,446;   -2,995;    0,045
361,030; 8872,111;    1,369;   -0,682
361,623; 8458,337;    2,824;    0,318
362,215; 8503,250;   -0,086;    2,045
362,808; 8336,197;   -2,358;   -1,682
363,401; 8523,163;   -2,449;    0,136
363,994; 8239,529;   -0,631;   -1,500
364,586; 8173,924;    0,824;   -1,500
365,179; 8421,389;   -0,449;   -1,136
365,772; 7907,511;   -1,995;    2,045
366,364; 8241,666;    1,915;   -3,227
366,957; 8389,286;    2,279;   -0,045
367,549; 8420,061;    2,188;   -0,864
368,142; 8076,994;    1,825;   -1,500
368,734; 8273,349;    0,734;   -2,136
369,327; 8224,229;    1,643;   -0,500
369,919; 8128,807;   -1,538;    0,409
370,512; 7940,629;   -1,083;   -0,500
371,104; 7664,692;   -0,901;    1,591
371,696; 7844,628;    1,191;   -0,955
372,289; 7960,381;    0,373;    1,136
372,881; 8116,184;   -2,080;    1,318
373,473; 8037,508;   -2,170;    1,136
374,066; 7811,050;   -0,169;    0,500
374,658; 7659,980;    0,378;    1,136
375,250; 8038,069;    0,653;   -1,409
375,842; 7869,977;    0,473;   -0,045
376,434; 7743,633;   -0,435;   -0,409
377,026; 8360,687;    0,204;   -2,500
377,618; 8221,207;   -0,158;   -0,682
378,210; 8075,818;   -0,338;   -1,955
378,802; 7935,331;    0,754;   -0,591
379,394; 7894,721;    1,846;    0,682
379,986; 8515,709;    1,393;   -0,955
380,578; 8627,228;   -0,153;    0,773
381,170; 7887,415;   -0,972;    0,045
381,762; 7863,318;    0,755;    1,409
382,354; 8087,281;   -0,065;   -1,318
382,945; 8188,295;   -2,976;    0,318
383,537; 8340,948;   -2,705;   -1,955
384,129; 8345,967;   -2,160;   -1,136
384,721; 8558,929;   -0,252;    0,955
385,312; 8471,934;   -0,161;   -0,955
385,904; 8577,077;   -2,706;    1,591
386,496; 7931,135;   -0,979;    1,045
387,087; 8099,570;    1,022;    2,500
387,679; 8136,660;   -1,160;    0,045
388,270; 8261,788;    2,840;    2,045
388,862; 8392,558;    1,295;   -0,318
389,453; 8283,131;   -0,887;    1,045
390,045; 8551,917;   -0,705;   -2,682
390,636; 8469,169;    0,204;   -0,591
391,227; 8320,292;   -0,523;   -0,045
391,819; 8434,945;    0,204;    0,773
392,410; 8524,609;    1,022;    0,045
393,001; 8436,269;   -0,979;   -1,591
393,593; 8713,305;    1,930;   -0,045
394,184; 8584,555;    1,385;   -0,409
394,775; 8518,321;    1,839;    2,136
395,366; 8695,789;    1,385;    0,773
395,957; 8713,108;    0,113;    0,136
396,548; 9038,999;   -0,342;    2,682
397,139; 9352,202;   -2,433;    0,591
397,730; 9087,744;   -1,888;    0,955
398,321; 9126,804;   -1,252;    0,955
398,912; 9185,523;   -0,615;    0,136
399,503; 9241,270;   -3,524;   -1,409
400,094; 8643,949;    0,294;    1,682
400,685; 8523,357;   -0,433;    0,045
401,276; 8624,670;    0,930;   -0,955
401,867; 8956,517;   -0,888;    0,773
402,458; 9026,534;   -2,251;   -2,318
403,048; 8991,834;    1,112;    0,591
403,639; 8602,730;    0,840;    0,864
404,230; 8847,151;    2,476;    0,318
404,821; 8768,452;   -0,615;    0,045
405,411; 8916,871;    1,203;   -2,591
406,002; 8492,697;   -1,252;   -1,136
406,592; 8323,218;    2,294;    0,045
407,183; 8653,912;    0,566;   -1,500
407,774; 8568,980;    3,475;   -0,136
408,364; 8922,618;    0,930;    0,409
408,954; 8495,837;    0,384;    1,227
409,545; 8572,545;    1,021;    1,045
410,135; 8097,267;    1,293;    0,500
410,726; 8256,614;    1,838;    0,318
411,316; 8670,991;    0,111;    0,773
411,906; 8331,707;   -0,253;   -0,409
412,497; 7773,143;   -1,070;   -0,045
413,087; 8389,585;   -1,980;   -0,227
413,677; 8793,464;   -0,707;    3,864
414,267; 8656,407;    0,656;    1,409
414,857; 8655,444;   -2,980;    4,227
415,448; 8944,194;    0,839;    0,500
416,038; 8621,076;    0,020;   -0,591
416,628; 8613,173;   -0,889;    0,409
417,218; 8054,137;    0,565;    3,318
417,808; 8312,721;    0,202;   -0,409
418,398; 8810,759;    0,020;    2,682
418,988; 8850,122;    2,020;    0,591
419,578; 9110,015;   -0,707;    1,409
420,168; 9445,902;   -1,343;   -0,955
420,757; 9025,953;   -1,343;   -1,500
421,347; 8675,533;    0,111;   -0,227
421,937; 8853,910;    2,292;    1,409
422,527; 8807,719;    0,838;   -0,773
423,116; 8637,604;   -0,253;   -0,045
423,706; 8976,835;   -1,889;    0,318
424,296; 8983,095;    1,384;    0,682
424,885; 9394,368;   -0,071;   -3,045
425,475; 9700,007;    1,474;   -2,864
426,065; 9590,755;   -0,980;   -0,318
426,654; 9210,168;   -0,435;   -0,318
427,244; 9344,792;    0,020;    1,409
427,833; 8776,748;    1,383;   -0,500
428,423; 9285,794;   -0,526;    1,136
429,012;10055,873;   -0,344;   -1,136
429,601; 9537,993;   -1,344;    0,136
430,191; 9801,953;    1,292;    4,318
430,780; 9420,138;   -0,344;   -0,409
431,369; 9311,090;    0,746;   -0,045
431,959; 9977,336;   -1,254;    0,500
432,548; 9775,478;   -1,163;   -0,045
433,137; 9913,099;   -1,254;   -1,318
433,726;10453,588;    0,292;    0,500
434,315; 9800,339;   -0,526;    2,409
434,905; 9873,987;   -1,254;    1,409
435,494; 9751,712;    0,746;    0,955
436,083;10237,405;   -0,981;   -0,955
436,672;10145,117;    0,110;    0,500
437,261; 9680,132;    0,292;   -1,955
437,850; 9839,764;    1,383;    0,682
438,439; 9812,146;    3,291;    1,955
439,027; 9642,378;    3,655;    1,773
439,616;10007,991;    2,927;    1,227
440,205; 9822,839;    0,200;   -2,136
440,794; 9951,023;    2,109;   -0,045
441,383;10237,238;   -1,346;   -0,591
441,971;10051,668;   -2,436;    0,591
442,560; 9932,033;    0,563;   -1,773
443,149; 9685,021;    0,379;   -1,318
443,737; 9852,543;   -0,074;   -2,318
444,326;10119,870;    0,018;    0,318
444,915;10185,325;   -1,982;    0,864
445,503;10580,438;   -2,891;   -0,318
446,092; 9799,852;    0,382;    2,136
446,680;10363,128;    0,382;    0,318
447,269;10522,516;   -0,346;   -0,318
447,857;10341,642;    0,018;   -1,773
448,445;10447,991;    0,563;    1,318
449,034;10647,440;   -1,528;   -1,136
449,622;10779,810;   -1,073;    3,500
450,210; 9962,080;    2,017;    2,227
450,799;10588,215;    0,290;   -0,591
451,387;10530,116;    1,381;   -0,591
451,975;10143,320;    2,654;    0,864
452,563;10221,174;    3,472;    2,318
453,151;10306,357;   -0,528;   -1,227
453,739;10248,400;   -1,347;    0,136
454,328;10044,013;    2,381;   -2,136
454,916; 9733,146;    2,562;   -0,136
455,504; 9937,175;    1,017;    1,227
456,092;10125,126;    0,017;   -1,591
456,679;10129,294;    1,472;    0,682
457,267;10012,693;    4,017;    1,045
457,855;10198,100;    1,017;    1,409
458,443; 9949,614;   -0,165;    1,682
459,031;10083,520;    0,108;    2,409
459,619;10551,497;   -1,801;    2,864
460,206;10705,858;    0,835;    2,045
460,794;10802,070;   -2,983;   -0,227
461,382;11032,018;   -0,529;   -0,864
461,970;10629,953;    1,198;    1,864
462,557;10665,791;   -0,711;   -0,682
463,145;10848,781;   -3,165;   -1,682
463,732;11007,618;    2,016;   -1,045
464,320;10952,347;   -0,075;   -3,045
464,907;10585,167;    2,743;   -0,773
465,495;10465,255;    0,743;   -1,227
466,082;10635,451;   -1,984;   -0,045
466,670;10563,840;   -2,529;    1,227
467,257;10982,812;   -1,711;    2,045
467,844;11115,719;   -0,075;    0,045
468,432;11147,504;    0,834;    3,500
469,019;10617,466;    0,925;   -1,773
469,606;11112,333;    0,470;    3,682
470,193;10971,527;   -1,439;    0,227
470,780;10499,312;   -2,075;    0,864
471,368;10834,640;   -1,257;   -0,773
471,955;10622,310;    1,379;   -0,682
472,542;10273,143;    0,652;   -1,136
473,129;10521,861;   -0,166;    0,136
473,716;10218,785;    1,470;    0,591
474,303;10430,979;    0,652;   -0,864
474,890;10771,671;   -1,439;   -0,500
475,477;10799,720;   -1,621;    0,409
476,064;10681,539;    1,106;   -1,591
476,650;10587,375;    0,288;    0,318
477,237;10439,375;   -0,258;    0,955
477,824;10585,718;   -1,076;    0,864
478,411;10624,693;   -1,894;   -0,318
478,997;10855,201;    0,560;   -0,773
479,584;10924,449;    1,196;   -0,409
480,171;11622,828;   -0,440;   -0,773
480,757;11278,212;    2,651;    0,773
481,344;11597,899;    0,469;    0,409
481,931;11087,103;    1,105;    1,045
482,517;12131,162;   -1,258;    0,318
483,104;12778,416;    1,106;    2,864
483,690;13104,980;   -1,804;    0,045
484,276;13516,697;   -0,895;    0,227
484,863;13264,797;    2,469;    1,136
485,449;13839,537;   -0,077;    0,318
486,035;13820,049;   -1,986;   -0,136
486,622;14248,554;   -0,895;    0,045
487,208;14180,791;    1,378;    1,500
487,794;14021,307;    0,741;    0,318
488,380;14147,539;    0,105;   -1,409
488,967;14215,875;   -1,168;   -0,409
489,553;14267,352;   -1,895;   -1,409
490,139;14442,878;    1,559;    0,773
490,725;13822,091;    0,741;   -0,227
491,311;13372,936;    3,287;    3,045
491,897;12703,046;   -0,986;    1,500
492,483;12509,583;    0,105;    1,227
493,069;12258,402;    3,923;    0,864
493,655;12241,554;    1,650;    0,682
494,241;12146,491;    1,377;   -0,955
494,826;12595,346;    0,287;   -1,045
495,412;12026,833;    2,559;   -0,682
495,998;12176,517;   -0,805;   -0,318
496,584;12355,013;    0,377;    1,045
497,169;12351,414;    1,014;   -0,682
497,755;12297,971;    0,650;    1,227
498,341;12870,498;    0,559;    0,318
498,926;12385,021;    1,832;    1,955
499,512;12606,550;    1,286;    2,955
500,097;12788,700;    0,195;   -0,318
500,683;12729,352;   -0,350;    2,136
501,268;13075,761;   -0,169;   -0,955
501,854;12760,349;   -0,169;    1,227
502,439;12707,980;   -0,624;   -1,773
503,024;12936,640;    0,195;    0,500
503,610;12999,926;   -0,078;   -0,682
504,195;13049,937;    0,558;    1,955
504,780;13163,786;    2,922;    1,227
505,366;12968,112;    3,013;    2,864
505,951;12687,286;    0,740;    1,045
506,536;12680,736;   -3,260;   -3,682
507,121;12680,874;    0,285;   -0,318
507,706;13230,348;    2,376;    1,045
508,291;13622,384;    2,649;    1,136
508,876;13054,307;   -0,988;    2,591
509,461;12519,357;   -0,169;   -0,773
510,046;12939,183;    0,194;    0,318
510,631;13205,167;   -0,351;   -0,773
511,216;12885,313;    2,467;   -0,500
511,801;13240,086;   -0,442;    2,591
512,386;13578,730;    0,740;    0,500
512,971;13505,179;   -2,988;    0,955
513,555;13012,572;   -0,897;   -1,500
514,140;13861,012;   -0,442;   -3,136
514,725;13870,818;   -0,715;   -1,136
515,309;13999,871;   -0,533;    0,318
515,894;13398,196;   -0,624;   -2,227
516,479;13859,895;   -0,624;   -0,955
517,063;13733,293;    0,376;    1,227
517,648;13861,864;    1,012;   -1,136
518,232;13489,568;   -0,261;   -1,409
518,817;13828,730;   -0,079;    1,682
519,401;14053,478;    2,194;    0,591
519,985;13582,064;    1,103;    1,136
520,570;13482,482;    0,830;   -1,955
521,154;13736,447;    2,102;    0,591
521,738;13894,168;   -2,352;    2,409
522,323;14470,864;   -0,170;    1,682
522,907;14237,572;    0,466;   -0,136
523,491;13956,136;    0,557;    0,955
524,075;13909,389;    2,284;    0,591
524,659;14030,678;    1,466;    0,591
525,243;13472,099;    1,739;    0,409
525,827;13726,908;    0,648;   -0,045
526,411;14595,042;   -1,989;   -0,136
526,995;14839,345;   -0,352;    1,409
527,579;14439,669;   -0,443;   -1,045
528,163;14716,165;    0,375;   -1,500
528,747;14642,861;    2,466;   -0,773
529,331;14962,407;   -0,080;   -1,409
529,915;15153,756;    1,738;    0,955
530,499;15102,269;   -0,807;    1,227
531,082;14828,201;   -0,534;    1,591
531,666;14259,816;    1,374;    0,773
532,250;14938,205;    1,284;    2,682
532,833;15304,570;    0,920;    2,773
533,417;15159,251;   -1,807;    0,864
534,001;15144,131;    1,647;   -0,318
534,584;15854,386;    0,374;    0,500
535,168;15689,192;    0,465;    1,409
535,751;15698,400;    0,647;    0,045
536,334;15150,729;   -0,898;   -0,409
536,918;15761,197;    0,011;    1,591
537,501;15900,740;   -0,899;    1,318
538,085;15887,966;   -0,444;    1,045
538,668;16081,582;    0,829;    2,409
539,251;16374,562;    1,829;    3,773
539,834;16381,265;    0,101;    0,773
540,418;16294,746;   -1,990;    4,318
541,001;16434,754;   -0,990;    1,773
541,584;16440,563;    2,101;    2,227
542,167;16127,440;    1,374;    2,955
542,750;16292,801;    1,919;   -0,773
543,333;15929,704;    0,555;    2,136
543,916;16698,052;    0,192;    2,500
544,499;17319,356;   -1,354;    0,227
545,082;17338,433;    1,374;    3,591
545,665;17392,870;    1,919;    1,500
546,248;17798,704;    1,010;   -0,318
546,830;17443,276;   -0,445;    1,955
547,413;17901,389;    1,010;   -0,773
547,996;18407,620;    0,555;    0,500
548,579;18203,603;    0,919;    0,955
549,161;18015,590;    1,828;    2,682
549,744;17775,846;   -0,809;    0,409
550,326;18312,132;   -0,809;   -1,136
550,909;18069,096;    2,737;    0,591
551,492;18464,276;   -0,263;    0,227
552,074;18236,906;   -0,173;   -1,318
552,657;18819,244;    2,373;    0,045
553,239;18597,821;   -0,173;   -0,773
553,821;18516,149;   -1,082;    1,045
554,404;18032,841;    1,282;    1,136
554,986;18388,917;    0,464;    1,045
555,568;18996,494;    1,191;   -0,955
556,151;18190,201;    1,191;   -0,227
556,733;18366,067;   -0,264;   -0,864
557,315;18884,632;    0,100;    0,500
557,897;18693,938;    0,554;   -0,500
558,479;18786,256;   -1,991;    1,318
559,061;18965,263;   -0,719;   -0,864
559,643;19288,870;   -0,264;    0,045
560,225;19660,299;    1,645;    2,864
560,807;19692,688;    0,918;    0,318
561,389;19178,693;    0,554;    2,318
561,971;19965,114;    0,463;    2,136
562,553;19755,665;   -1,628;    1,591
563,135;19887,315;   -0,537;    1,136
563,717;19512,004;    3,372;    1,136
564,298;20193,099;    3,645;   -0,045
564,880;19935,883;    0,645;   -1,409
565,462;20165,155;    0,645;    1,318
566,043;21313,707;   -0,446;    2,318
566,625;20860,156;    1,918;    1,227
567,207;20722,178;    1,099;    1,682
567,788;21893,937;   -1,264;    1,500
568,370;22718,971;    1,917;   -0,500
568,951;22556,403;    0,190;    0,227
569,533;23415,968;   -0,628;   -0,500
570,114;23936,796;   -0,446;    0,682
570,695;24460,042;   -0,174;   -1,318
571,277;24973,663;   -0,265;   -1,682
571,858;25718,632;    2,008;   -1,136
572,439;26670,427;    1,554;   -1,045
573,021;26856,611;    2,099;   -2,773
573,602;27345,166;   -1,265;    0,318
574,183;28331,579;   -2,083;    2,227
574,764;28486,164;   -1,629;    0,409
575,345;29095,233;    0,917;   -0,136
575,926;29705,257;   -0,356;    0,136
576,507;29669,887;    1,099;   -0,227
577,088;30808,854;    3,099;    1,682
577,669;30815,305;    0,735;    1,955
578,250;31583,942;    0,644;   -1,045
578,831;32307,487;   -1,356;   -2,227
579,412;32586,830;   -0,810;    0,955
579,993;33466,999;    1,008;    0,227
580,573;33794,583;   -0,629;   -0,955
581,154;32782,434;    0,735;   -0,591
581,735;33611,721;    0,644;    0,773
582,315;33173,357;   -0,629;    2,136
582,896;33429,618;   -0,174;    1,227
583,477;32961,042;    0,189;    1,227
584,057;33115,966;    0,553;    0,955
584,638;33407,726;    2,553;    2,318
585,218;33380,954;   -0,538;    2,682
585,799;33540,209;    0,281;   -0,227
586,379;33499,490;    0,372;    1,591
586,959;32222,734;    0,735;    0,318
587,540;31507,917;   -0,629;    2,227
588,120;31058,489;    1,007;   -0,045
588,700;30002,195;    2,553;    2,136
589,281;30300,609;    0,462;   -0,955
589,861;30239,588;    0,099;   -1,682
590,441;30075,076;    2,371;   -2,682
591,021;29053,174;   -0,265;   -2,591
591,601;29243,842;   -0,537;    0,500
592,181;29210,759;   -0,719;   -0,773
592,761;28490,239;    0,007;    1,409
593,341;28411,696;   -0,901;    0,045
593,921;28444,822;   -0,265;    1,591
594,501;28343,858;   -0,538;    1,318
595,081;28154,569;    0,917;   -0,318
595,661;28508,060;   -1,447;    0,955
596,240;29073,966;   -0,537;    0,136
596,820;28692,151;    0,372;    1,955
597,400;28875,255;    2,008;    0,773
597,980;29127,130;    2,008;    1,045
598,559;29141,237;    2,735;   -0,227
599,139;28776,911;   -0,174;   -1,227
599,718;28710,274;   -0,174;   -0,409
600,298;28981,996;    0,735;    0,682
600,877;29170,603;    2,917;    1,409
601,457;29491,061;    2,281;    1,136
602,036;29405,109;    0,190;    2,045
602,616;29591,123;    0,644;    1,682
603,195;29924,146;   -0,355;    3,500
603,774;29460,515;   -0,901;    2,045
604,354;29316,768;    0,826;   -0,500
604,933;28840,642;    0,463;    1,864
605,512;28977,664;    3,554;    0,591
606,091;28982,161;   -0,537;    3,773
606,671;29782,217;    0,281;    0,773
607,250;28913,593;    1,644;    3,136
607,829;29161,631;    2,372;    3,227
608,408;29041,843;    1,190;    2,591
608,987;28033,466;    1,281;    3,409
609,566;28304,521;   -1,265;   -2,500
610,145;28432,004;   -1,082;    0,682
610,723;28838,971;    4,372;    6,864
611,302;28092,682;   -0,446;    1,682
611,881;27584,096;    5,008;   11,227
612,460;28407,992;    1,645;    3,955
613,039;28844,989;   -0,082;    2,045
613,617;27558,324;    1,736;    4,773
614,196;27793,024;    1,099;    1,227
614,775;28100,126;    1,009;    2,409
615,353;28051,661;    0,736;    0,864
615,932;27756,375;    0,100;    2,409
616,510;28348,574;    0,554;    0,591
617,089;27865,816;    7,100;   17,591
617,667;27596,654;    2,372;    6,136
618,246;27435,247;   -1,537;    1,318
618,824;27605,967;   -3,355;   -0,955
619,402;27177,973;   -2,900;   -1,773
619,981;27666,346;   -0,173;   -1,045
620,559;27526,257;    0,009;    1,682
621,137;27040,535;   -0,718;    1,864
621,715;27057,229;   -1,173;   -0,682
622,293;26949,496;   -0,537;   -0,773
622,871;27380,723;   -0,718;    0,500
623,450;26998,124;    0,373;   -0,864
624,028;26908,556;    0,191;   -0,955
624,606;26523,064;   -1,718;    1,682
625,183;26965,399;   -1,536;   -1,136
625,761;26526,029;    1,009;    1,136
626,339;26870,882;    1,373;    2,591
626,917;27225,715;   -0,172;   -0,045
627,495;27279,311;   -0,354;    1,318
628,073;26708,704;   -0,263;    2,864
628,650;26347,732;    0,100;    2,136
629,228;26843,949;    0,373;    4,409
629,806;26179,108;    2,282;    1,136
630,383;26485,060;    1,464;   -0,318
630,961;26242,959;    2,555;   -0,955
631,539;25968,651;    2,464;    0,227
632,116;25355,322;   11,373;   15,409
632,694;25892,981;    2,555;    6,500
633,271;26207,994;    0,828;    2,682
633,848;26145,809;    1,828;    2,045
634,426;26165,172;   -1,081;    1,773
635,003;25259,185;    1,101;   -0,409
635,580;25575,069;    1,192;    3,682
636,158;26120,577;    3,737;    1,227
636,735;26179,572;    0,555;   -0,500
637,312;26323,354;   -0,809;   -0,682
637,889;26368,199;   -4,354;   -0,682
638,466;25834,214;   -3,990;   -0,409
639,043;25892,609;    2,101;   -1,136
639,620;26201,479;   -2,262;   -0,955
640,197;26525,238;    1,100;    1,682
640,774;26682,299;   -0,172;    1,136
641,351;27046,360;    0,737;    1,136
641,928;26414,602;   -0,627;    1,409
642,505;26106,936;    0,828;   -0,500
643,082;26207,542;   -1,718;    1,227
643,658;25205,240;   -0,718;    1,500
644,235;25995,937;    1,191;    2,500
644,812;26311,907;    1,918;    0,773
645,388;26057,150;   -0,991;    1,409
645,965;26177,302;   -0,809;    1,682
646,542;26232,999;   -1,445;   -0,227
647,118;26148,151;    1,009;   -0,955
647,695;26453,848;   -0,263;    1,136
648,271;26378,454;   -0,536;    0,500
648,848;26731,334;    0,736;    2,227
649,424;26624,576;    0,827;    1,318
650,000;26291,274;   -0,354;   -1,045
650,577;26115,335;   -0,627;   -0,955
651,153;26552,032;   -1,809;    0,955
651,729;27596,456;    1,191;    0,864
652,305;27938,790;    0,645;    2,773
652,881;32844,124;   -0,082;    1,136
653,458;40017,639;    1,100;    0,227
654,034;43865,882;    0,282;    1,591
654,610;45358,488;    0,554;    0,773
655,186;46718,731;    0,645;    3,045
655,762;46358,701;   -0,991;    0,409
656,338;46331,126;    0,100;    0,136
656,913;47278,732;   -0,082;    0,409
657,489;46531,702;    0,827;   -0,318
658,065;46458,763;   -0,173;   -1,591
658,641;47131,551;   -0,900;   -0,864
659,217;46378,976;   -0,991;    0,409
659,792;45779,673;    0,645;   -0,409
660,368;45987,916;   -2,173;   -0,682
660,944;45587,795;   -2,082;    1,227
661,519;40554,038;   -0,628;    0,409
662,095;34354,190;   -1,719;    0,591
662,670;29715,160;    1,281;   -0,136
663,246;28580,130;    1,009;   -0,409
663,821;27885,827;    0,281;    1,682
664,396;27367,797;    0,009;    1,864
664,972;27706,312;    0,009;   -0,500
665,547;27959,737;    1,372;    0,136
666,122;28040,980;   -1,082;    0,318
666,698;28319,495;   -0,173;    0,318
667,273;27654,465;   -0,173;    0,136
667,848;28477,981;    2,372;    1,500
668,423;28261,587;    2,190;    2,318
668,998;28820,375;    2,827;   -0,682
669,573;29397,618;   -3,264;   -1,500
670,148;29217,315;   -1,446;   -0,682
670,723;29022,013;   -1,810;    0,318
671,298;29399,437;    2,372;    1,045
671,873;29549,316;   -0,082;   -0,136
672,448;29540,195;    0,645;    0,136
673,023;29870,893;   -1,992;   -0,227
673,597;30197,045;    0,827;    2,318
674,172;29935,287;   -0,355;    0,318
674,747;29406,530;    0,372;   -1,045
675,321;29274,046;   -0,628;    3,318
675,896;28820,288;    0,645;    1,045
676,471;29856,895;    2,645;    1,591
677,045;29614,774;   -1,264;    0,682
677,620;29712,471;    0,190;    1,136
678,194;29964,441;   -2,628;    1,136
678,769;29549,866;   -1,083;   -0,318
679,343;29764,108;   -0,628;    1,773
679,917;29648,351;   -1,446;    1,955
680,492;29755,503;    0,826;    3,227
681,066;29866,746;    3,372;    0,409
681,640;29876,261;    1,463;   -0,318
682,214;30727,413;    0,735;    0,500
682,788;30235,383;   -1,356;   -0,773
683,363;30154,262;   -1,810;    1,682
683,937;29896,414;   -1,719;   -0,318
684,511;30622,839;    0,463;   -0,591
685,085;30366,081;   -1,356;    0,318
685,659;30056,142;   -2,538;    0,864
686,232;30371,476;   -0,356;   -0,318
686,806;30098,901;   -0,901;    0,409
687,380;30817,234;   -0,174;    0,591
687,954;31016,386;   -1,174;    1,136
688,528;30686,083;   -0,719;    1,955
689,101;31458,417;   -3,992;    1,045
689,675;31049,842;   -0,356;   -0,136
690,249;30412,903;   -0,719;    0,409
690,822;30742,236;    0,280;    0,318
691,396;30828,388;   -0,265;    1,227
691,969;30310,813;    1,280;    0,136
692,543;30698,874;   -0,447;   -1,955
693,116;30350,298;   -0,265;   -1,409
693,690;30203,541;    0,099;    0,500
694,263;30795,420;   -1,083;    2,955
694,836;30859,026;    1,371;    3,591
695,410;29483,087;   -0,265;    1,773
695,983;29961,603;    0,189;    0,591
696,556;29943,664;   -0,447;   -1,045
697,129;30294,179;   -0,356;    1,409
697,703;29996,513;   -1,629;    1,955
698,276;29961,665;    1,462;   -0,773
698,849;29726,271;    1,280;    1,409
699,422;30081,332;   -1,083;    0,591
699,995;29773,029;    0,007;    0,136
700,568;30316,454;   -0,629;    3,045
701,140;30283,424;   -2,811;    1,682
701,713;30051,485;   -0,174;    2,409
702,286;29783,364;   -0,538;    0,864
702,859;29668,152;   -0,902;   -0,591
703,432;28747,759;    0,825;    0,682
704,004;29256,547;    0,462;    0,318
704,577;29216,426;   -0,629;    0,136
705,150;29833,214;    0,189;    2,500
705,722;29542,275;   -0,356;   -3,227
706,295;29303,245;   -0,175;   -0,591
706,867;29187,579;   -0,175;    1,955
707,440;29408,640;   -1,720;   -0,409
708,012;29659,246;    0,462;    0,591
708,584;29600,398;    2,462;    0,227
709,157;29854,550;    1,825;   -0,591
709,729;29523,702;    2,280;    2,045
710,301;30379,490;    0,734;    0,045
710,874;30387,642;   -1,447;   -0,227
711,446;29280,975;    0,371;    0,864
712,018;29142,309;    0,098;    0,500
712,590;28944,461;   -1,993;    1,682
713,162;29477,431;    0,825;    1,318
713,734;29629,128;    1,825;   -2,045
714,306;29516,189;   -1,902;   -0,409
714,878;28223,523;    0,825;    0,864
715,450;29075,311;    0,643;    0,864
716,022;29272,826;    1,552;    1,318
716,593;29475,887;    0,189;    0,591
717,165;29425,857;   -3,175;   -1,227
717,737;29100,373;    0,280;    0,409
718,309;28763,343;    0,280;   -0,045
718,880;28690,040;   -0,539;   -1,409
719,452;28901,192;   -0,175;   -1,591
720,024;28517,889;    0,734;   -0,591
720,595;29104,859;   -2,902;    0,955
721,167;28662,557;    0,370;   -2,045
721,738;28177,072;   -0,812;   -1,045
722,309;28146,497;   -0,993;   -1,227
722,881;27898,739;   -1,357;    0,773
723,452;28511,709;   -2,630;    2,864
724,023;28726,679;   -0,721;    2,682
724,595;28505,559;    0,007;    0,682
725,166;28245,347;    0,007;   -0,409
725,737;27966,226;    1,734;    0,227
726,308;28006,196;   -0,266;    0,318
726,879;28409,802;   -1,630;    1,227
727,450;28273,409;    0,552;   -0,045
728,021;28266,106;    3,097;    0,682
728,592;27991,258;    0,734;    0,500
729,163;28353,682;    0,643;   -0,136
729,734;28385,380;    0,188;   -0,227
730,305;28710,259;    1,734;    0,136
730,876;29089,683;    0,188;    2,955
731,447;28839,835;    2,188;    2,682
732,017;28965,714;    1,097;    1,864
732,588;28370,866;    0,734;    1,227
733,159;28587,018;    0,643;   -1,045
733,729;28403,897;    0,006;    0,409
734,300;27654,413;    0,915;    0,864
734,870;28112,383;    3,461;    0,591
735,441;28713,625;    0,370;   -0,591
736,011;28455,323;    0,643;   -1,591
736,582;28414,020;   -0,812;    0,045
737,152;27894,535;   -1,721;   -2,045
737,722;28309,778;   -0,267;   -0,682
738,293;27963,476;   -1,358;    1,318
738,863;27885,446;    2,461;    2,318
739,433;27678,325;    5,279;    0,318
740,003;28360,658;   -0,994;   -0,682
740,573;27748,174;    2,097;   -1,591
741,143;27658,689;   -1,085;    0,318
741,713;28469,568;    1,188;   -0,500
742,283;28150,629;    0,915;    1,591
742,853;27954,690;    1,915;    1,591
743,423;27365,206;    1,733;    0,045
743,993;27549,994;   -0,358;    1,500
744,563;26892,600;    0,097;   -0,864
745,133;26878,934;   -0,812;   -0,864
745,702;27538,722;   -0,267;    1,773
746,272;26760,329;   -0,176;    0,591
746,842;26496,662;   -1,358;   -0,591
747,411;26942,632;   -0,267;   -0,318
747,981;27104,875;    0,097;    0,500
748,551;27101,391;    2,278;   -1,045
749,120;26949,270;    0,642;   -0,227
749,690;27326,240;   -0,631;    2,409
750,259;27687,028;    1,369;    2,955
750,828;27626,907;    1,551;   -1,955
751,398;27893,059;    1,278;   -0,045
751,967;27337,392;    2,187;    0,409
752,536;27607,817;   -0,813;   -0,227
753,105;28020,333;    0,096;    0,227
753,675;27862,393;    0,096;    1,773
754,244;27788,545;   -0,904;    3,591
754,813;27748,970;    0,551;    1,227
755,382;27374,122;    0,460;    0,955
755,951;28011,092;    1,551;    3,682
756,520;27501,062;   -0,085;    1,864
757,089;28046,850;    0,278;    0,500
757,658;28227,820;    1,733;    1,227
758,227;28213,881;    1,096;    0,318
758,795;28531,033;    1,187;    1,136
759,364;28734,366;   -0,086;   -0,591
759,933;27754,791;   -1,176;   -0,045
760,501;27252,761;    0,733;   -1,318
761,070;27737,822;   -2,813;   -1,409
761,639;28423,337;   -1,904;    1,318
762,207;27800,762;    1,551;   -0,955
762,776;27749,005;    0,369;    0,864
763,344;27717,975;   -0,995;    0,591
763,913;26768,399;   -0,722;    1,409
764,481;27487,369;    1,005;   -0,136
765,049;27276,885;   -1,358;    1,409
765,618;27149,309;   -0,086;    0,318
766,186;27232,370;    0,278;    0,136
766,754;27447,340;    0,005;    1,864
767,322;26455,038;   -1,995;    0,409
767,890;26442,917;   -0,722;   -1,773
768,459;26879,523;   -2,177;   -0,318
769,027;27072,221;    1,641;    3,409
769,595;26034,191;    3,278;    2,591
770,163;26456,342;    3,823;    2,955
770,730;26174,858;    0,732;   -0,136
771,298;26038,010;    0,187;   -1,409
771,866;26064,616;   -1,541;    4,955
772,434;26393,132;   -0,631;   -1,864
773,002;26595,829;    0,005;    0,682
773,569;26210,526;    0,914;    1,682
774,137;26042,769;   -0,268;   -0,045
774,705;26846,012;    0,278;   -0,136
775,272;26388,073;    0,641;    0,682
775,840;26064,770;   -0,177;    2,682
776,407;25636,285;    0,277;    1,955
776,975;25248,892;   -0,632;    0,318
777,542;26223,498;   -1,086;   -0,045
778,110;26034,286;   -1,268;   -0,045
778,677;25748,529;   -2,359;   -0,864
779,244;25498,499;    2,186;    1,045
779,812;25589,106;    1,823;    0,864
780,379;25409,712;    0,005;    1,136
780,946;25679,955;    1,005;   -0,773
781,513;26056,016;   -1,450;    0,318
782,080;25401,713;   -0,086;    2,864
782,647;26156,683;   -0,268;    3,045
783,214;25755,289;   -0,177;    3,864
783,781;25348,441;   -0,723;   -0,682
784,348;25219,048;   -0,632;    1,500
784,915;25698,472;   -3,177;    0,318
785,482;25448,533;    1,368;    2,591
786,049;25879,776;    0,186;   -0,591
786,615;26020,837;    0,277;   -0,955
787,182;25741,625;    0,186;   -0,682
787,749;25435,868;   -2,814;    1,409
788,315;24721,383;   -1,632;   -0,409
788,882;25037,717;    1,550;   -1,227
789,448;25724,596;    1,732;   -0,955
790,015;25773,111;    1,095;    3,227
790,581;25339,809;    1,459;    0,227
791,148;25221,324;    0,641;    1,045
791,714;25435,931;   -0,541;    3,136
792,280;25109,173;    0,186;    1,591
792,847;24652,871;    0,550;    2,500
793,413;25237,477;   -0,269;   -0,318
793,979;24768,447;    3,459;   -1,318
794,545;24886,872;    4,459;    2,682
795,111;24222,933;    2,186;    1,318
795,678;24470,357;    0,731;   -1,682
796,244;24069,691;    3,368;    0,136
796,810;24664,661;    1,731;    0,773
797,375;24350,994;    0,549;   -2,136
797,941;24381,055;   -0,541;    0,591
798,507;24525,389;   -0,451;   -0,955
799,073;24056,086;   -0,360;    0,591
799,639;24082,238;   -2,632;    3,136
800,205;24135,481;    0,095;    2,682
800,770;23678,633;    0,640;    1,773
801,336;23801,603;    1,368;   -0,955
801,901;23458,391;    4,549;    3,136
802,467;24031,452;   -0,542;    2,045
803,033;23339,240;   -0,087;    0,864
803,598;23546,847;    1,913;   -1,045
804,163;23565,089;    1,095;   -0,318
804,729;23537,514;   -0,178;    1,136
805,294;23951,029;    0,822;    2,227
805,859;23718,908;    0,731;   -0,409
806,425;23222,242;    1,186;    2,682
806,990;22849,030;    2,186;    4,318
807,555;23379,909;   -1,451;    2,591
808,120;23281,607;    0,822;   -0,409
808,685;23303,668;    0,185;   -2,500
809,250;22778,456;    0,004;   -0,500
809,815;23135,608;    1,913;    0,682
810,380;23653,305;   -0,269;    1,591
810,945;24235,911;   -1,087;    2,045
811,510;23345,427;    2,094;    1,591
812,075;23093,124;   -0,633;   -1,409
812,640;23112,094;    2,003;    1,409
813,204;23190,882;    0,822;   -0,227
813,769;23635,852;    2,094;   -0,045
814,334;23055,095;    0,458;    0,864
814,898;23088,156;    0,367;    0,591
815,463;22939,217;    1,276;   -0,773
816,027;22949,551;   -0,724;   -2,318
816,592;23004,066;    0,640;   -2,045
817,156;22538,945;    2,094;    1,136
817,721;22367,188;    4,276;    2,318
818,285;22301,158;    2,912;    1,500
818,849;22973,310;   -1,451;    1,682
819,414;22876,644;   -0,269;    2,955
819,978;22471,341;   -1,269;    1,773
820,542;23043,765;    2,003;    0,500
821,106;22750,008;   -0,815;    0,682
821,670;22825,524;   -0,815;    2,591
822,234;22538,948;   -0,270;    1,409
822,798;21917,646;    0,003;    0,500
823,362;21867,525;   -0,633;    4,227
823,926;21173,131;    0,094;    1,136
824,490;21407,010;   -0,997;   -0,682
825,054;21834,980;   -0,088;   -1,136
825,618;21468,405;   -1,542;   -1,500
826,181;21400,829;    0,458;   -1,318
826,745;21360,345;    1,367;   -1,045
827,309;21704,678;    1,185;    1,318
827,872;21083,558;    1,367;    0,955
828,436;22011,437;    1,185;   -0,773
828,999;22098,589;   -0,997;    1,227
829,563;20909,468;   -0,179;    1,136
830,126;20753,710;   -0,179;   -0,591
830,690;20751,408;   -1,997;    2,864
831,253;20270,469;   -0,543;    2,227
831,816;20415,257;   -1,906;    0,500
832,380;20330,318;    0,185;    0,864
832,943;20569,106;   -1,361;   -0,500
833,506;20017,258;    2,639;   -1,227
834,069;20802,591;    3,912;   -0,955
834,632;20847,198;    1,730;    1,318
835,195;20759,259;    1,003;    0,955
835,758;19940,683;   -0,997;    1,955
836,321;19785,835;    0,730;   -1,045
836,884;19903,078;   -0,725;   -0,955
837,447;19942,139;   -2,816;    1,773
838,010;20198,018;    0,366;    3,227
838,573;20467,988;   -1,179;    0,773
839,135;20452,322;   -1,361;   -0,955
839,698;19883,655;    1,275;    0,409
840,261;19405,171;    1,003;   -0,227
840,823;19252,505;   -0,543;    0,864
841,386;19556,202;   -0,452;   -2,409
841,948;19422,445;   -1,361;    1,773
842,511;19153,051;    0,912;    1,682
843,073;19280,839;    1,912;    0,227
843,636;19048,809;   -0,361;   -0,227
844,198;19024,325;    0,911;    0,591
844,760;19172,386;    1,093;    1,955
845,322;18816,628;    0,548;    1,136
845,885;19255,598;    0,730;    0,591
846,447;19726,750;   -1,998;    0,227
847,009;19277,993;    1,911;   -0,682
847,571;19591,054;    0,820;   -2,045
848,133;19728,024;   -1,089;   -1,864
848,695;19552,630;   -0,543;    1,409
849,257;19067,873;   -1,089;   -1,682
849,819;19214,843;   -0,998;   -0,409
850,381;19284,631;   -0,725;   -0,864
850,942;19644,874;    1,093;   -0,591
851,504;19592,117;    1,184;    0,227
852,066;19637,450;    1,275;   -1,591
852,628;19114,511;   -0,180;    1,955
853,189;18695,209;    1,638;    2,682
853,751;18853,270;   -0,907;    1,409
854,312;18667,967;   -0,453;   -1,682
854,874;19139,755;   -2,089;   -0,773
855,435;19721,271;   -0,907;   -1,682
855,997;19863,695;   -1,816;   -0,136
856,558;19097,574;    0,366;    1,773
857,119;19216,635;    0,820;    2,864
857,681;18902,151;    0,002;    0,318
858,242;18960,484;    1,911;   -2,136
858,803;19376,091;    0,456;   -0,773
859,364;19953,606;    0,184;   -4,773
859,925;19281,576;   -2,453;   -0,955
860,486;19151,274;   -0,453;   -0,955
861,047;18865,244;   -0,544;   -1,227
861,608;18694,759;   -1,089;   -0,773
862,169;18803,911;    0,638;   -0,045
862,730;18572,790;    0,456;    1,409
863,291;18815,396;   -0,635;   -0,500
863,852;19241,185;   -0,635;    1,955
864,412;18673,791;   -0,271;   -0,864
864,973;17225,125;   -0,089;    0,500
865,534;17114,186;   -1,726;    0,227
866,094;18584,065;    1,820;    0,227
866,655;18250,126;    1,274;    3,318
867,215;18518,187;    0,274;    0,136
867,776;18395,338;    0,547;   -0,136
868,336;18458,127;   -1,453;    0,136
868,897;17929,824;    2,638;    1,682
869,457;17664,521;    1,365;    0,318
870,017;17880,764;    0,547;   -1,227
870,578;18408,643;   -0,817;    0,773
871,138;18122,249;   -2,089;   -0,955
871,698;17650,129;   -0,817;   -1,318
872,258;17550,099;   -0,453;   -2,864
872,818;17929,796;    2,729;    0,045
873,378;17880,039;    0,638;    1,045
873,938;17406,554;    0,547;    0,500
874,498;17755,070;    0,274;   -1,955
875,058;17631,585;    2,183;    1,773
875,618;17457,282;    1,910;   -2,682
876,177;17379,616;    1,274;    0,136
876,737;17012,041;   -0,090;    1,955
877,297;17042,738;    0,183;    1,955
877,856;17046,162;   -0,362;    0,318
878,416;16962,951;    1,183;   -0,136
878,976;17231,193;   -1,817;    0,409
879,535;17434,345;    0,092;    3,136
880,095;17143,861;   -0,544;    0,045
880,654;17254,285;   -1,090;    1,318
881,213;17338,528;    2,456;    1,500
881,773;16982,953;    2,637;    2,682
882,332;17340,650;    3,365;    5,136
882,891;17219,529;    3,092;    2,136
883,451;17707,408;   -1,272;    1,682
884,010;17132,833;   -2,908;   -0,409
884,569;17217,439;   -0,999;   -0,045
885,128;17361,046;    2,819;   -1,864
885,687;17422,743;    4,455;    0,682
886,246;17089,440;    1,455;    2,136
886,805;16882,501;    2,455;    2,045
887,364;17178,198;   -0,999;   -0,500
887,922;17516,896;   -1,181;    0,045
888,481;16999,138;   -1,545;    0,591
889,040;17307,654;    1,183;    2,136
889,599;18007,078;    2,455;    1,409
890,157;18081,594;    1,455;    2,409
890,716;17771,473;   -0,090;    0,227
891,274;17570,716;    0,092;   -1,136
891,833;18034,049;    1,546;    0,864
892,391;17921,383;   -0,454;    0,500
892,950;17983,535;    1,819;   -0,773
893,508;18330,232;    0,455;   -0,409
894,067;17704,020;    0,637;    0,136
894,625;17555,354;   -0,636;   -1,500
895,183;17800,415;   -0,363;   -0,682
895,741;17722,203;    1,728;   -1,773
896,299;17598,628;   -0,545;   -2,409
896,858;17746,689;    0,819;   -1,591
897,416;17875,295;    2,728;   -1,318
897,974;17607,174;    1,819;    0,318
898,532;17727,781;    6,091;    2,682
899,089;17660,842;    2,091;   -0,682
899,647;17668,357;   -1,454;    1,318
900,205;17414,873;    1,182;    1,045
900,763;17578,479;   -0,454;    0,227
901,321;17577,994;    2,364;   -1,409
901,878;17009,874;   -1,000;   -0,773
902,436;16870,207;   -1,363;    1,318
902,994;17243,814;    4,728;    3,682
903,551;16709,329;    0,728;    0,409
904,109;17111,845;    0,182;   -1,409
904,666;16697,996;    2,455;    1,045
905,224;16515,148;    0,182;   -0,409
905,781;16266,755;    0,727;   -0,318
906,338;16301,361;   -1,363;    1,045
906,895;16242,058;    0,637;    2,045
907,453;16188,392;    1,727;    1,136
908,010;16165,998;   -0,909;    0,409
908,567;15835,514;    1,273;    0,591
909,124;15347,211;    0,364;   -1,500
909,681;15392,363;   -2,909;    0,682
910,238;15572,242;    0,636;   -1,318
910,795;15861,848;   -0,273;   -1,136
911,352;15460,576;   -2,909;   -2,682
911,909;14867,121;   -1,364;   -0,864
912,466;15397,030;   -3,182;    1,500
913,022;14976,848;   -1,636;    0,500
913,579;15337,030;   -0,909;    2,045
914,136;14984,212;    1,636;    0,955
914,692;15342,939;    0,091;   -1,227
915,249;14951,576;    1,455;    0,409
915,806;15156,030;    0,182;    1,955
916,362;14928,758;    1,909;    1,864
916,918;14472,030;    2,000;    1,045
917,475;14454,485;   -1,182;    0,955
918,031;14517,848;    3,364;   -0,045
918,587;13944,303;   -0,909;   -0,318
919,144;14149,576;   -2,273;    0,227
919,700;14474,303;    1,727;    0,773
920,256;14036,667;    0,727;    0,045
920,812;13665,303;   -0,727;   -1,045
921,368;13695,576;   -1,727;   -1,045
921,924;13293,939;    0,182;   -0,136
922,480;12889,758;   -0,545;    1,227
923,036;13507,303;    1,273;    1,955
923,592;13433,394;    0,455;    0,318
924,148;13338,394;    0,455;   -0,955
924,704;12617,939;   -1,364;   -0,409
925,259;12886,212;   -0,273;    0,591
925,815;12678,939;    1,455;    0,500
926,371;12220,667;    2,909;    1,409
926,926;12092,212;    2,091;    0,591
927,482;11731,030;   -1,364;    0,773
928,037;11574,303;    0,909;    2,045
928,593;11875,394;    1,636;    1,045
929,148;11726,303;   -1,818;   -1,500
929,704;11225,303;   -1,455;   -0,500
930,259;11420,485;    0,091;   -0,136
930,814;10471,758;   -0,818;    1,955
931,369;10125,576;    1,091;   -0,773
931,925; 9998,394;   -0,091;    0,136
932,480; 9927,939;   -2,818;   -2,591
933,035; 9796,121;    0,545;   -0,318
933,590; 9570,303;    0,364;   -1,773
934,145; 9189,939;   -1,364;   -0,318
934,700; 9549,939;    0,455;   -0,591
935,255; 9348,939;   -0,091;    0,045
935,809; 8613,576;    3,182;    0,864
936,364; 7704,394;   -0,455;   -0,136
936,919; 7673,212;    0,455;   -1,773
937,474; 7537,303;    1,455;    0,136
938,028; 7279,394;   -1,636;    1,136
938,583; 6755,667;    1,818;    4,682
939,138; 7032,939;    2,091;    2,136
939,692; 6476,121;    1,636;   -1,136
940,247; 6178,939;   -0,727;   -1,045
940,801; 5698,212;   -0,636;    0,227
941,355; 5591,212;   -0,364;    2,591
941,910; 5246,758;   -0,273;   -2,136
942,464; 5346,303;   -0,818;   -0,318
943,018; 5114,576;    1,000;   -0,227
943,572; 5050,939;    2,545;   -0,682
944,126; 4464,303;    0,091;   -0,409
944,681; 4343,758;    3,091;    0,227
945,235; 4350,667;    1,000;   -0,591
945,789; 4305,939;    0,364;   -1,864
946,342; 4380,485;    0,455;   -0,591
946,896; 4197,485;   -2,273;    0,955
947,450; 3951,485;    1,545;   -0,227
948,004; 4127,667;    1,727;   -0,045
948,558; 4141,576;    0,273;   -0,864
949,111; 4067,212;   -0,273;   -0,318
949,665; 4089,939;    1,636;   -0,682
950,219; 3963,848;   -0,091;   -1,045
950,772; 4028,758;   -1,909;    1,864
951,326; 3930,758;    0,545;   -0,955
951,879; 4059,121;    0,727;   -2,318
952,433; 4069,758;    0,000;    2,227
952,986; 3910,576;    2,909;    0,682
953,539; 3879,303;   -0,273;    0,591
954,093; 3794,121;    0,545;   -1,318
954,646; 3939,485;    0,909;    1,318
955,199; 3741,030;    0,000;   -0,500
955,752; 3626,667;   -0,455;    1,773
956,305; 3582,303;   -0,091;    2,955
956,858; 3738,212;    0,818;   -0,318
957,411; 3921,394;   -0,545;    2,136
957,964; 3761,485;    1,364;    2,136
958,517; 3751,394;   -1,545;    3,136
959,070; 3553,758;   -0,455;    1,955
959,623; 3616,667;    1,091;    1,500
960,176; 3404,485;    1,727;    2,045
960,728; 3386,758;   -2,727;    0,773
961,281; 3446,394;    0,545;    0,500
961,834; 3496,758;   -0,909;    0,864
962,386; 3404,030;    1,727;    1,045
962,939; 3328,212;    0,364;   -0,318
963,491; 3479,667;    0,455;    1,136
964,043; 3351,485;    1,182;    2,409
964,596; 3468,303;   -1,000;    2,227
965,148; 3297,030;   -1,000;    1,773
965,700; 3217,667;    1,091;   -0,227
966,253; 3382,576;   -0,636;    0,318
966,805; 3189,848;   -2,273;    0,773
967,357; 3258,303;    1,091;   -1,500
967,909; 3206,848;    0,455;   -1,227
968,461; 3336,212;    0,545;    3,136
969,013; 3274,848;   -0,182;   -0,864
969,565; 3344,485;   -0,455;   -1,136
970,117; 3381,394;   -0,364;    1,045
970,669; 3218,212;    0,182;   -0,136
971,220; 3095,212;   -0,455;   -1,500
971,772; 3006,030;   -0,636;   -0,318
972,324; 3131,485;    0,091;   -0,500
972,876; 3081,939;    0,818;   -0,045
973,427; 3223,121;    1,909;   -1,045
973,979; 3199,030;   -0,727;   -2,500
974,530; 3246,030;    1,818;    1,318
975,082; 3245,394;   -0,545;    1,682
975,633; 3147,848;    1,091;    1,682
976,184; 3270,667;    0,909;    0,773
976,736; 3039,758;    0,091;    0,227
977,287; 2845,667;   -0,909;   -0,500
977,838; 3029,394;    0,909;   -0,318
978,389; 3093,212;   -1,000;   -0,500
978,940; 2978,394;    0,545;   -0,409
979,491; 2997,758;    0,091;   -0,500
980,042; 2965,303;    0,182;    3,045
980,593; 3020,667;   -2,545;    0,227
981,144; 3063,121;    2,545;   -0,500
981,695; 3038,030;    1,455;    1,500
982,246; 2990,939;   -0,273;    1,045
982,797; 3146,667;   -1,727;    0,682
983,347; 3260,485;    0,364;    0,591
983,898; 3421,667;    3,091;    0,409
984,449; 3236,303;    2,182;    0,773
984,999; 3157,212;    1,455;   -1,136
985,550; 2930,848;    0,182;   -0,318
986,100; 2956,576;   -0,455;   -0,318
986,651; 2984,394;   -0,818;    0,045
987,201; 2962,394;   -1,000;   -0,591
987,751; 3052,939;    0,818;    2,864
988,302; 3038,303;    2,636;    1,500
988,852; 3058,758;    0,455;   -1,136
989,402; 3102,303;    0,091;    0,682
989,952; 3007,485;   -2,182;    0,864
990,502; 3111,758;   -0,091;    0,682
991,052; 3091,939;   -0,727;    0,045
991,602; 2967,485;   -2,909;    1,318
992,152; 2952,394;    0,455;    0,682
992,702; 2915,394;    1,364;   -0,045
993,252; 2849,667;   -3,000;   -0,500
993,802; 2946,394;   -0,273;    1,318
994,352; 3178,030;   -1,545;    1,136
994,901; 3266,576;   -0,182;    3,227
995,451; 3165,848;   -0,182;    0,318
996,000; 3282,848;    1,636;    0,318
996,550; 2997,212;    2,273;    0,227
997,100; 2987,030;    1,273;   -0,045
997,649; 3253,576;    2,182;    0,955
998,198; 2877,667;    1,727;   -1,500
998,748; 3100,576;    1,091;   -2,318
999,297; 3008,121;   -0,818;   -0,409
999,846; 3041,394;    1,000;   -0,773
1000,395; 3095,030;   -0,818;    0,500
1000,945; 3054,394;    1,818;   -0,773
1001,494; 3158,576;    2,364;    0,682
1002,043; 3123,576;    4,636;    0,864
1002,592; 2975,121;   -1,091;    1,955
1003,141; 3129,030;   -0,455;   -0,682
1003,690; 2994,758;    1,727;    0,500
1004,238; 3082,212;    1,455;   -0,045
1004,787; 2704,394;    1,364;    1,227
1005,336; 2933,758;    0,364;    0,682
1005,885; 3081,758;    1,364;   -2,773
1006,433; 3234,030;    0,545;    0,955
1006,982; 3280,576;    0,455;    1,682
1007,531; 3202,667;   -1,818;   -0,227
1008,079; 3152,030;   -2,273;    0,500
1008,627; 3286,667;   -1,455;    0,409
1009,176; 3021,212;    0,000;   -1,955
1009,724; 3055,848;    1,091;    0,864
1010,273; 3110,485;    1,273;    0,500
1010,821; 3223,667;    0,091;    1,409
1011,369; 2962,394;   -1,364;    1,318
1011,917; 2933,758;   -1,364;   -0,591
1012,465; 3225,485;    1,273;   -1,591
1013,013; 3351,394;    2,091;   -1,682
1013,561; 3227,303;    0,455;   -0,773
1014,109; 3264,121;   -1,909;    1,682
1014,657; 3143,121;    0,364;    0,591
1015,205; 3258,303;    1,636;   -0,955
1015,753; 3312,485;   -0,545;   -1,409
1016,301; 3339,394;   -2,636;    3,045
1016,848; 3346,212;   -1,273;    0,409
1017,396; 3401,939;    2,545;    0,045
1017,944; 3528,303;    1,182;    1,864
1018,491; 3267,030;    0,273;    1,409
1019,039; 3408,303;    0,455;    0,591
1019,586; 3355,485;   -1,364;    1,682
1020,134; 3461,848;    0,455;    1,500
1020,681; 3465,939;    0,182;   -1,136
1021,228; 3475,394;    2,909;   -2,227
1021,776; 3316,848;    1,182;   -1,136
1022,323; 3515,667;    0,455;    0,773
1022,870; 3449,030;   -1,000;   -0,045
1023,417; 3332,394;    2,636;    1,864
1023,964; 3495,576;    2,636;    1,227
1024,511; 3332,030;    1,000;    0,773
1025,058; 3129,758;    3,182;   -0,045
1025,605; 3184,939;   -2,273;    3,136
1026,152; 3406,758;    1,727;   -0,591
1026,699; 3110,848;    1,818;    1,318
1027,245; 3293,030;   -0,091;    0,318
1027,792; 3504,667;   -1,000;    1,409
1028,339; 3393,121;    2,364;   -0,045
1028,885; 3236,939;    1,000;   -0,227
1029,432; 3178,848;   -0,091;    0,227
1029,978; 3236,939;   -1,000;   -1,591
1030,525; 3148,667;    1,000;    0,409
1031,071; 3381,303;   -1,364;    1,136
1031,618; 3492,848;    0,364;    1,682
1032,164; 3272,394;   -0,091;    3,045
1032,710; 3316,667;    1,636;   -1,500
1033,256; 3234,939;   -0,636;   -0,136
1033,803; 3228,394;   -0,545;    1,500
1034,349; 2919,667;   -1,364;    0,136
1034,895; 3092,667;    0,000;   -0,318
1035,441; 3072,303;   -0,818;    0,318
1035,987; 3081,758;   -2,364;   -0,682
1036,533; 3066,303;   -1,455;   -0,955
1037,078; 3255,848;    1,455;    1,682
1037,624; 3069,212;    2,455;   -0,955
1038,170; 3123,030;    0,455;   -0,318
1038,716; 3035,030;    1,636;   -0,409
1039,261; 2936,212;   -2,273;   -0,773
1039,807; 2873,758;   -0,091;    3,409
1040,352; 2954,030;   -1,909;   -0,318
1040,898; 3010,667;   -1,545;   -0,682
1041,443; 2917,485;   -1,455;   -2,591
1041,989; 2910,667;    1,091;    1,591
1042,534; 2801,121;   -0,364;    2,591
1043,079; 2928,758;    2,909;    0,955
1043,625; 2704,848;    1,818;    0,500
1044,170; 2755,576;   -1,364;    1,045
1044,715; 3003,939;    2,455;    0,955
1045,260; 2802,485;    2,182;   -0,955
1045,805; 2849,758;    1,182;   -0,591
1046,350; 2776,758;    1,364;   -0,409
1046,895; 2746,212;    2,909;    1,591
1047,440; 2692,121;    5,364;    0,409
1047,985; 2607,848;    2,818;   -0,955
1048,530; 2527,758;    1,545;    1,227
1049,074; 2599,212;    0,000;    0,318
1049,619; 2578,485;   -1,364;    1,955
1050,164; 2356,303;    0,455;    0,227
1050,708; 2395,394;   -0,455;    0,045
1051,253; 2772,121;    1,273;   -2,227
1051,797; 2476,303;    0,818;   -1,318
1052,342; 2484,030;   -1,182;    1,045
1052,886; 2499,030;    0,364;   -1,409
1053,430; 2359,485;   -1,364;    0,136
1053,975; 2377,212;   -0,818;   -0,318
1054,519; 2354,030;   -0,727;    3,227
1055,063; 2370,485;    0,909;    1,318
1055,607; 2255,030;   -0,182;    0,227
1056,151; 2282,939;    2,909;    1,682
1056,695; 2191,121;    2,273;   -1,136
1057,239; 2247,939;   -1,727;   -0,682
1057,783; 2267,121;    0,818;   -1,500
1058,327; 2200,303;    0,000;    1,409
1058,871; 2420,394;   -0,545;    1,318
1059,415; 2141,212;   -0,818;   -0,045
1059,958; 2416,848;    1,455;    2,591
1060,502; 2137,485;   -1,000;   -0,773
1061,046; 2033,576;    0,364;   -0,955
1061,589; 2016,030;   -3,000;   -1,136
1062,133; 1902,667;   -1,273;    1,864
1062,676; 1827,667;    1,182;    0,864
1063,220; 1822,485;    1,091;    0,500
1063,763; 1859,212;    0,909;    1,136
1064,306; 1926,121;   -0,909;    1,864
1064,849; 1810,030;   -0,909;    0,591
1065,393; 1825,303;    2,000;   -1,500
1065,936; 1926,848;    0,182;   -0,409
1066,479; 1827,848;   -1,455;    1,318
1067,022; 1849,121;   -0,273;   -0,227
1067,565; 1754,667;   -0,091;   -1,318
1068,108; 1775,758;    0,727;   -0,591
1068,651; 1736,758;   -0,636;    1,409
1069,194; 1678,121;   -0,455;   -1,682
1069,736; 1670,758;   -1,273;    0,955
1070,279; 1645,485;   -1,364;   -0,500
1070,822; 1708,848;   -2,000;   -0,318
1071,364; 1786,848;   -0,364;    1,318
1071,907; 1622,758;   -0,727;    3,227
1072,450; 1526,576;    0,000;   -0,045
1072,992; 1503,667;   -0,273;    3,136
1073,535; 1647,848;    2,091;    2,136
1074,077; 1439,758;   -0,727;    2,045
1074,619; 1399,848;   -1,364;    0,591
1075,161; 1432,485;   -1,091;    1,500
1075,704; 1620,303;    1,545;    1,227
1076,246; 1415,667;   -0,182;    0,682
1076,788; 1335,848;   -0,364;    1,773
1077,330; 1423,667;    1,273;    2,136
1077,872; 1378,030;    0,909;    0,955
1078,414; 1605,485;    2,727;    0,773
1078,956; 1339,030;    1,273;   -0,227
1079,498; 1580,939;    1,636;    0,318
1080,040; 1294,848;    1,909;   -1,318
1080,581; 1241,758;    1,636;   -0,318
1081,123; 1170,121;    0,091;   -0,773
1081,665; 1212,030;   -1,182;   -0,955
1082,206; 1519,485;    1,364;   -0,500
1082,748; 1378,939;    0,727;    2,045
1083,289; 1249,394;   -2,000;    1,318
1083,831; 1154,576;   -0,545;    0,227
1084,372; 1203,485;    0,000;    0,591
1084,913; 1202,394;    1,091;    0,864
1085,455; 1177,030;   -1,909;   -2,045
1085,996; 1136,030;   -2,273;    0,136
1086,537; 1156,394;   -0,091;    0,864
1087,078; 1188,121;   -0,909;   -2,136
1087,619; 1236,030;   -1,273;    0,227
1088,160; 1148,394;    0,000;    1,318
1088,701; 1133,394;   -1,091;    0,682
1089,242; 1067,485;    1,364;   -2,227
1089,783; 1170,667;   -0,273;    1,409
1090,324; 1136,030;    0,455;    0,682
1090,865; 1011,758;    2,727;   -0,409
1091,405;  981,030;    0,727;    2,227
1091,946; 1010,848;    0,182;   -0,955
1092,487;  935,848;    0,818;   -1,409
1093,027; 1098,030;   -1,364;   -1,500
1093,568;  952,303;   -0,364;    1,227
1094,108; 1066,485;    0,273;    1,773
1094,649;  991,758;   -1,182;    0,136
1095,189;  917,303;   -0,636;   -0,682
1095,729;  874,758;   -0,091;    0,955
1096,269;  879,121;    0,727;   -0,955
1096,810; 1198,030;   -1,364;    0,500
1097,350; 1015,939;    1,364;   -0,773
1097,890;  912,758;    0,364;    1,227
1098,430; 1178,576;    2,364;    2,864
1098,970; 1061,030;    2,182;    1,682
1099,510;  916,667;    0,545;   -2,318
1100,050;  845,576;    1,000;   -1,591
1100,589;  804,576;   -0,727;   -0,318
1101,129;  926,121;    0,818;   -0,955
1101,669; 1075,121;    1,727;    2,136
1102,209;  895,394;   -0,091;    2,227
1102,748;  849,394;    0,000;    0,955
1103,288;  844,576;    1,273;   -1,227
1103,827;  886,848;    3,091;   -2,227
1104,367;  755,030;   -0,091;   -2,409
1104,906;  713,939;    1,364;   -1,136
1105,445;  778,121;    0,636;   -1,136
1105,985;  737,939;   -0,727;    1,500
1106,524;  783,303;   -1,727;   -0,682
1107,063;  754,394;   -2,727;    1,409
1107,602;  728,121;   -1,909;   -1,500
1108,141;  646,303;   -1,909;    1,500
1108,680;  759,848;   -3,455;   -0,591
1109,219;  681,030;   -0,909;   -0,500
1109,758;  690,848;    0,455;    0,682
1110,297;  658,576;    1,000;   -0,682
1110,836;  607,394;   -0,727;    0,955
1111,375;  770,485;   -2,545;    0,409
1111,913;  785,576;   -1,000;    0,773
1112,452;  720,394;   -0,273;    0,136
1112,991;  600,939;    1,091;    1,955
1113,529;  552,212;   -0,818;   -0,045
1114,068;  634,212;   -0,273;    2,955
1114,606;  539,394;   -0,364;   -0,955
1115,144;  699,576;   -1,273;    1,045
1115,683;  626,212;   -0,727;    0,318
1116,221;  682,394;   -0,455;   -0,864
1116,759;  583,030;    0,636;   -0,864
1117,297;  785,667;    0,000;    1,864
1117,836;  590,121;   -2,182;   -1,227
1118,374;  597,667;    0,182;   -0,682
1118,912;  537,758;    0,909;    2,682
1119,450;  521,667;    1,000;    0,864
1119,988;  572,485;    1,545;    2,136
1120,525; 1032,303;    5,091;    3,318
1121,063;  736,939;    1,182;    1,864
1121,601;  543,576;   -0,909;   -1,227
1122,139;  497,303;   -0,727;   -2,045
1122,676;  699,121;   -0,727;    2,773
1123,214;  629,667;   -1,182;    4,409
1123,751;  430,939;    1,727;    2,227
1124,289;  566,121;   -0,091;   -0,409
1124,826;  438,576;    1,727;    0,227
1125,364;  362,758;    1,727;   -0,955
1125,901;  552,576;    1,182;    1,227
1126,438;  659,848;    0,818;    0,955
1126,975;  387,758;   -0,727;   -0,773
1127,513;  457,485;    0,273;    2,136
1128,050;  360,030;    1,636;   -0,682
1128,587;  458,303;    2,000;   -0,227
1129,124;  501,030;    0,091;    1,318
1129,661;  362,667;    0,273;    0,227
1130,198;  541,303;    1,636;    0,773
1130,734;  483,576;    0,182;    1,409
1131,271;  333,394;   -0,909;    0,864
1131,808;  519,848;    2,909;    3,045
1132,345;  389,303;    1,545;    0,318
1132,881;  252,848;   -1,545;   -1,864
1133,418;  395,030;    0,727;   -1,136
1133,954;  329,576;    2,455;   -2,682
1134,491;  406,303;    1,364;   -0,773
1135,027;  307,303;    2,364;    0,864
1135,564;  402,030;    0,273;    2,955
1136,100;  383,667;    0,364;    2,136
1136,636;  271,394;   -1,273;   -1,045
1137,172;  372,576;    0,000;   -1,045
1137,708;  296,485;   -1,364;   -1,045
1138,245;  282,394;    1,273;   -1,227
1138,781;  233,848;    1,091;   -3,318
1139,317;  309,121;    1,273;   -1,409
1139,852;  294,303;    3,091;    0,136
1140,388;  414,758;   -1,182;   -0,409
1140,924;  291,939;   -1,091;   -2,227
1141,460;  224,212;   -1,636;    0,136
1141,996;  166,939;   -1,364;    2,682
1142,531;  215,848;    1,364;    3,318
1143,067;  441,394;    1,182;    1,045
1143,602;  499,030;   -0,091;   -0,318
1144,138;  333,758;   -2,636;    1,045
1144,673;  191,939;   -1,455;    1,409
1145,209;  261,848;   -1,909;   -0,318
1145,744;  182,303;   -0,727;    0,864
1146,279;  328,030;    1,818;   -0,136
1146,815;  239,212;    1,545;   -2,682
1147,350;  281,667;   -1,364;    0,045
1147,885;  191,485;   -0,818;   -1,318
1148,420;  188,394;   -2,273;    0,773
1148,955;  172,667;   -1,727;    1,864
1149,490;  193,303;   -0,909;   -1,591
1150,025;  184,848;    0,455;   -1,773
1150,560;  302,030;    1,091;   -0,955
1151,094;  264,576;    1,455;   -0,591
1151,629;  260,939;    1,636;    0,864
1152,164;  190,394;    1,364;    1,318
1152,698;  156,758;   -0,182;   -0,136
1153,233;  114,303;    0,091;   -0,682
1153,767;  161,576;   -3,000;   -2,318
1154,302;  208,939;   -1,455;    1,773
1154,836;  204,394;   -0,455;   -2,136
1155,371;  261,667;   -1,364;    3,682
1155,905;  219,939;   -0,636;    1,682
1156,439;  180,758;   -0,636;   -0,500
1156,973;  208,576;    0,364;    0,318
1157,507;  149,667;   -0,364;    0,682
1158,042;  178,030;   -0,727;    1,045
1158,576;  226,576;    0,182;    1,773
1159,110;  219,485;   -0,818;    2,409
1159,643;  186,939;    0,636;   -0,045
1160,177;  119,758;   -1,545;    1,500

