
Integration time [ms]:   0,040
Averaging Nr. [scans]: 11
Smoothing Nr. [pixels]: 0
Data measured with spectrometer [name]: 7318044SP
Wave   ;Sample   ;Dark     ;Reference
[nm]   ;[counts] ;[counts] ;[counts] 

186,757;   19,762;   31,551;    1,318
187,357;   60,353;   22,551;    0,955
187,958;   36,982;   15,460;   -1,591
188,558;   79,295;    8,915;   -1,227
189,159;   50,099;    6,733;   -4,500
189,759;   15,878;    7,278;   -3,591
190,360;   14,850;    2,824;   -2,136
190,960;   58,932;    2,915;   -4,136
191,560;   74,807;    3,189;   -6,591
192,161;  331,382;    4,372;   -3,500
192,761;  166,637;    4,010;   -3,227
193,361;  122,096;    1,556;   -3,773
193,962;  177,180;    2,010;   -2,682
194,562;   83,721;    1,189;   -3,955
195,162;  126,242;   -2,448;   -2,227
195,762;  299,916;   -3,176;   -0,045
196,362;  250,354;    1,370;   -2,500
196,963;  103,766;    2,006;   -0,864
197,563;  169,028;    1,551;   -0,955
198,163;  117,825;    0,096;   -0,682
198,763;  138,115;    1,733;   -0,500
199,363;  255,283;    3,096;   -0,500
199,963;  219,483;    0,369;    0,409
200,563;  188,960;    2,823;   -1,409
201,163;  164,820;    3,277;   -0,227
201,763;  262,334;    3,732;    0,318
202,363;  187,176;    1,459;    1,500
202,963;  307,795;    1,459;    1,045
203,563;  432,304;    0,277;    0,500
204,162;  270,511;    2,096;   -1,864
204,762;  257,235;    0,550;    0,591
205,362;  220,187;    3,004;    1,955
205,962;  322,904;    3,096;    1,955
206,562;  328,708;    1,823;    2,318
207,161;  295,998;   -0,087;    0,318
207,761;  456,377;    1,277;    2,409
208,361;  318,615;   -0,268;    1,409
208,960;  428,378;    0,459;    1,500
209,560;  506,617;    1,277;    1,591
210,160;  482,439;    0,550;    1,864
210,759;  443,681;    4,186;    1,227
211,359;  452,074;    1,459;    1,045
211,958;  732,185;    1,277;    2,045
212,558;  825,692;    1,732;    1,864
213,157;  661,046;    1,822;    1,500
213,757; 1109,930;    3,822;   -0,227
214,356;  799,771;    1,277;   -0,409
214,956; 1155,103;    3,095;    0,409
215,555;  762,870;    2,095;    2,136
216,154;  687,721;   -2,723;   -0,591
216,754;  699,890;    0,277;    0,773
217,353;  852,636;   -0,268;   -1,045
217,952;  701,787;   -0,178;    0,318
218,552;  946,248;    1,368;   -0,773
219,151;  849,083;    0,277;    0,955
219,750;  857,721;    0,004;   -0,227
220,349;  997,974;   -0,451;    1,045
220,948; 1041,516;   -1,360;    1,136
221,548; 1074,756;    0,913;    1,227
222,147; 1199,394;   -0,087;   -0,409
222,746; 1506,134;   -0,451;   -0,955
223,345; 1372,256;    0,731;    0,500
223,944; 1380,469;   -0,451;    0,773
224,543; 1568,933;    1,004;   -1,409
225,142; 1685,440;    0,094;    0,136
225,741; 1593,935;   -0,814;    1,045
226,340; 1622,271;   -0,451;   -0,955
226,939; 2081,017;   -0,996;   -0,136
227,538; 2064,675;   -0,360;   -0,773
228,137; 2228,753;   -0,814;    0,864
228,735; 2405,020;   -0,541;    1,227
229,334; 2142,735;   -0,905;   -0,227
229,933; 2532,630;    0,459;    0,591
230,532; 2636,010;    1,186;   -0,409
231,131; 2685,537;    1,732;    0,318
231,729; 2858,781;   -2,450;   -2,318
232,328; 3026,093;   -0,723;   -1,500
232,927; 3133,286;    1,004;   -0,500
233,525; 3270,581;    3,640;    0,045
234,124; 3481,523;    2,368;   -1,591
234,723; 3504,118;    0,913;   -1,045
235,321; 3643,458;    2,277;    0,136
235,920; 3915,332;    1,186;   -1,227
236,518; 4182,763;    3,459;    0,318
237,117; 4399,275;    0,004;   -0,227
237,715; 4572,617;    0,640;   -0,500
238,314; 4607,756;   -0,087;   -2,318
238,912; 4730,606;   -0,723;   -1,409
239,510; 4781,945;    0,459;   -1,227
240,109; 4971,814;    0,004;    3,773
240,707; 5015,721;   -0,996;    1,227
241,305; 5393,979;    0,550;    0,136
241,904; 5624,343;   -0,178;   -2,045
242,502; 5576,544;   -0,632;   -0,227
243,100; 5520,696;   -0,087;   -0,955
243,698; 5772,492;    0,732;    1,682
244,297; 5952,650;   -0,632;    0,682
244,895; 5761,082;   -0,269;   -2,318
245,493; 6121,931;    2,186;   -0,591
246,091; 6169,237;    1,368;   -1,318
246,689; 6167,776;    1,004;    0,591
247,287; 6333,646;    0,822;   -1,136
247,885; 6636,135;   -1,451;    1,227
248,483; 6752,426;    1,822;   -0,500
249,081; 6884,858;    0,185;    1,591
249,679; 7027,411;   -0,178;    1,682
250,277; 7280,273;   -1,723;    0,864
250,875; 7289,157;   -1,087;   -1,045
251,473; 7330,314;   -1,178;    0,500
252,071; 7512,153;    1,459;    1,045
252,669; 7670,832;   -1,814;    0,318
253,267; 7933,317;   -0,087;    0,773
253,864; 7920,374;   -0,360;    0,682
254,462; 7763,025;    1,640;    1,591
255,060; 7742,085;   -0,269;    1,318
255,658; 8088,560;    0,822;   -0,136
256,255; 8502,367;    0,186;   -2,045
256,853; 8352,499;   -0,269;    1,409
257,451; 8380,009;    0,822;    1,864
258,048; 8626,887;    1,822;    1,864
258,646; 8388,383;    1,731;   -1,045
259,243; 8602,590;   -0,087;    2,227
259,841; 8652,988;   -0,814;    0,318
260,438; 8537,200;   -0,087;    0,864
261,036; 9277,598;   -1,905;    1,409
261,633; 9181,027;   -0,087;    2,227
262,231; 8901,300;    2,731;   -0,045
262,828; 8972,827;   -0,905;    1,136
263,425; 9073,420;    0,913;   -0,591
264,023; 9348,267;    0,186;    0,045
264,620; 8890,916;   -0,360;   -0,318
265,217; 9240,475;   -2,087;    3,136
265,815; 9343,209;   -1,905;    2,136
266,412; 9097,942;    0,731;    0,136
267,009; 9178,185;   -1,451;    0,773
267,606; 9016,746;    0,822;   -0,955
268,203; 9025,291;   -0,269;   -0,591
268,801; 9357,040;    1,731;    0,591
269,398; 9666,641;   -0,360;    2,500
269,995; 9631,281;    0,277;    1,591
270,592; 9374,040;   -0,632;   -0,500
271,189; 9594,309;    0,186;    0,409
271,786; 9723,458;   -0,632;    1,227
272,383; 9551,519;   -1,087;    0,227
272,980; 9757,710;    0,277;    0,318
273,577;10239,965;    0,004;    1,227
274,174; 9796,567;    0,822;    2,591
274,771; 9771,560;   -0,814;   -0,773
275,367; 9910,322;    2,277;    1,409
275,964; 9868,007;    0,731;   -0,500
276,561; 9970,396;    1,549;   -1,045
277,158;10220,683;    0,095;   -1,773
277,755;10343,767;    2,185;    0,409
278,351; 9738,377;   -0,451;   -1,500
278,948;10036,910;   -0,815;    0,045
279,545;10063,140;   -1,360;    2,318
280,141;10707,257;   -1,723;   -2,045
280,738;10553,002;   -0,451;   -0,136
281,334;10822,641;   -1,633;    0,591
281,931;10213,178;   -0,087;   -1,318
282,528;10300,452;    0,822;   -0,500
283,124;11052,662;   -1,087;   -0,500
283,721;10951,426;   -0,451;    1,409
284,317;10773,977;    0,185;    2,500
284,913;11316,679;   -1,360;    0,591
285,510;11494,770;    0,640;   -0,318
286,106;11514,474;   -2,269;   -0,955
286,703;11118,586;   -0,360;    1,955
287,299;11319,261;   -1,451;   -0,591
287,895;11540,312;    0,822;   -1,045
288,491;12125,913;    0,186;    2,136
289,088;11853,119;   -2,360;    2,409
289,684;11935,105;   -1,723;    1,500
290,280;11923,965;    0,368;    0,682
290,876;12000,332;    1,822;    5,500
291,472;11865,261;    1,276;    2,227
292,068;11976,578;    1,367;    0,227
292,665;11686,442;    2,095;    0,773
293,261;11324,777;    0,276;    2,136
293,857;11740,407;    2,913;    2,136
294,453;11638,260;    3,550;    0,955
295,049;11513,345;   -0,268;    1,955
295,644;11527,215;    0,095;    0,136
296,240;11416,803;   -0,905;   -0,136
296,836;11489,575;   -0,995;    0,318
297,432;11755,586;    1,096;   -0,500
298,028;11812,196;    0,732;    0,773
298,624;12221,866;    1,459;    1,864
299,220;12468,596;    2,368;    0,591
299,815;12127,008;    1,005;   -0,409
300,411;11938,799;    0,914;    1,773
301,007;11960,177;    1,368;    0,227
301,602;12022,010;   -0,541;   -2,318
302,198;12174,842;    0,732;   -0,773
302,794;12524,363;    1,187;   -0,500
303,389;12668,291;   -1,177;    1,045
303,985;12738,550;    0,550;    1,409
304,580;12692,629;    1,459;    1,591
305,176;12640,858;   -3,086;    0,136
305,771;12555,583;   -1,268;   -1,227
306,367;12389,049;    4,095;    0,136
306,962;12771,464;    0,641;    1,500
307,558;12506,763;   -0,450;    0,136
308,153;12409,410;    1,095;   -1,136
308,748;12655,521;   -0,814;    1,682
309,344;12619,899;   -0,632;   -1,318
309,939;12702,148;   -1,905;   -1,318
310,534;12981,569;   -0,086;   -1,682
311,130;12955,138;    0,459;   -2,500
311,725;12666,552;    1,004;   -0,500
312,320;12968,808;    2,459;    0,045
312,915;12855,666;    1,459;   -1,045
313,510;12915,227;    1,550;   -0,500
314,105;13413,020;    1,096;    1,409
314,700;12781,798;   -3,086;   -1,045
315,295;12411,266;   -0,904;    0,045
315,890;12002,270;    1,277;    0,864
316,485;12438,928;   -0,359;   -0,318
317,080;12504,386;   -3,086;    1,591
317,675;13062,178;    2,005;   -0,682
318,270;12453,782;    5,550;    3,318
318,865;12485,412;    3,278;    3,045
319,460;12311,068;   -0,904;    0,591
320,055;12558,051;   -0,541;   -1,227
320,650;12220,351;   -1,995;   -0,591
321,244;12231,082;   -0,177;   -1,409
321,839;13183,271;   -1,541;   -0,227
322,434;13083,262;   -1,086;   -1,591
323,029;12687,937;    1,732;    1,591
323,623;12522,885;    1,550;    0,773
324,218;12296,620;    2,368;    1,409
324,812;12168,187;    1,096;    1,591
325,407;11980,068;   -0,814;    2,045
326,002;11895,594;    0,277;   -0,409
326,596;12186,779;    0,914;    1,318
327,191;12415,199;    0,823;   -1,045
327,785;11985,052;   -0,813;   -0,227
328,379;12232,413;    1,368;    0,136
328,974;12019,445;    0,914;   -3,955
329,568;12227,044;    0,186;   -2,409
330,163;12041,436;    2,096;    1,045
330,757;12402,823;    2,459;    1,591
331,351;11689,332;    0,459;    0,682
331,945;12010,175;    0,914;    1,409
332,540;11605,611;   -1,723;   -0,591
333,134;11759,258;   -1,086;    0,773
333,728;12022,215;    0,005;    0,318
334,322;12347,615;   -1,177;   -0,864
334,916;11623,840;    0,277;    0,955
335,510;11938,352;   -0,450;   -0,136
336,105;12208,471;   -1,086;    1,591
336,699;11900,721;   -1,086;    0,591
337,293;11840,158;   -1,723;    0,318
337,887;11997,113;   -2,723;    1,955
338,481;12090,910;    0,459;    0,591
339,074;12249,924;   -0,359;    2,682
339,668;12057,315;   -1,632;    1,227
340,262;12315,751;    1,732;    3,227
340,856;11823,688;    1,822;   -0,682
341,450;11166,530;    1,004;    1,864
342,044;12088,431;    1,459;    0,136
342,637;11838,632;    0,913;   -2,136
343,231;11716,256;   -2,360;    0,682
343,825;11670,078;   -1,086;   -0,591
344,419;11620,031;   -1,995;    0,500
345,012;11369,279;    2,459;    4,045
345,606;11408,300;    4,641;    1,591
346,199;11240,252;   -1,813;   -0,227
346,793;10754,643;    1,914;    2,045
347,386;10947,785;   -0,813;   -1,136
347,980;10944,145;   -0,268;   -0,045
348,573;10712,922;    2,278;    0,409
349,167;10383,504;    5,278;    4,773
349,760;10735,277;    2,914;    2,682
350,354;10723,652;   -0,813;    1,136
350,947;10499,815;    1,096;    1,682
351,540;10120,562;   -0,358;   -1,409
352,134;10069,673;    1,096;    1,136
352,727;10174,387;   -0,086;    1,136
353,320; 9958,373;    0,005;    0,591
353,913; 9808,624;   -1,995;    1,864
354,507; 9996,837;    0,823;   -1,227
355,100; 9980,527;    0,460;    0,864
355,693; 9187,478;    2,005;    2,409
356,286; 9241,030;    0,823;    2,773
356,879; 9635,471;   -0,722;    1,227
357,472; 9206,704;   -0,904;    1,500
358,065; 9435,935;   -0,722;    2,500
358,658; 9349,374;   -0,540;    2,318
359,251; 8959,568;   -1,631;   -0,591
359,844; 8461,735;   -1,904;   -1,136
360,437; 8617,235;   -2,995;    0,045
361,030; 8887,808;    1,369;   -0,682
361,623; 8478,763;    2,824;    0,318
362,215; 8532,403;   -0,086;    2,045
362,808; 8365,986;   -2,358;   -1,682
363,401; 8550,317;   -2,449;    0,136
363,994; 8270,683;   -0,631;   -1,500
364,586; 8204,079;    0,824;   -1,500
365,179; 8421,454;   -0,449;   -1,136
365,772; 7893,756;   -1,995;    2,045
366,364; 8205,458;    1,915;   -3,227
366,957; 8395,080;    2,279;   -0,045
367,549; 8439,401;    2,188;   -0,864
368,142; 8089,426;    1,825;   -1,500
368,734; 8283,237;    0,734;   -2,136
369,327; 8224,936;    1,643;   -0,500
369,919; 8136,334;   -1,538;    0,409
370,512; 7934,885;   -1,083;   -0,500
371,104; 7669,678;   -0,901;    1,591
371,696; 7850,073;    1,191;   -0,955
372,289; 7947,465;    0,373;    1,136
372,881; 8083,363;   -2,080;    1,318
373,473; 8025,055;   -2,170;    1,136
374,066; 7824,149;   -0,169;    0,500
374,658; 7681,724;    0,378;    1,136
375,250; 8030,277;    0,653;   -1,409
375,842; 7884,103;    0,473;   -0,045
376,434; 7772,677;   -0,435;   -0,409
377,026; 8333,923;    0,204;   -2,500
377,618; 8249,999;   -0,158;   -0,682
378,210; 8102,437;   -0,338;   -1,955
378,802; 7918,138;    0,754;   -0,591
379,394; 7881,533;    1,846;    0,682
379,986; 8488,434;    1,393;   -0,955
380,578; 8607,045;   -0,153;    0,773
381,170; 7912,956;   -0,972;    0,045
381,762; 7879,035;    0,755;    1,409
382,354; 8076,173;   -0,065;   -1,318
382,945; 8174,452;   -2,976;    0,318
383,537; 8332,642;   -2,705;   -1,955
384,129; 8366,200;   -2,160;   -1,136
384,721; 8577,342;   -0,252;    0,955
385,312; 8484,346;   -0,161;   -0,955
385,904; 8577,398;   -2,706;    1,591
386,496; 7955,913;   -0,979;    1,045
387,087; 8102,805;    1,022;    2,500
387,679; 8119,714;   -1,160;    0,045
388,270; 8220,025;    2,840;    2,045
388,862; 8362,976;    1,295;   -0,318
389,453; 8279,459;   -0,887;    1,045
390,045; 8546,790;   -0,705;   -2,682
390,636; 8462,043;    0,204;   -0,591
391,227; 8321,619;   -0,523;   -0,045
391,819; 8423,362;    0,204;    0,773
392,410; 8518,571;    1,022;    0,045
393,001; 8460,865;   -0,979;   -1,591
393,593; 8749,446;    1,930;   -0,045
394,184; 8598,059;    1,385;   -0,409
394,775; 8505,643;    1,839;    2,136
395,366; 8683,386;    1,385;    0,773
395,957; 8706,706;    0,113;    0,136
396,548; 9051,687;   -0,342;    2,682
397,139; 9384,619;   -2,433;    0,591
397,730; 9115,341;   -1,888;    0,955
398,321; 9171,491;   -1,252;    0,955
398,912; 9192,573;   -0,615;    0,136
399,503; 9252,684;   -3,524;   -1,409
400,094; 8671,908;    0,294;    1,682
400,685; 8520,771;   -0,433;    0,045
401,276; 8656,358;    0,930;   -0,955
401,867; 8955,931;   -0,888;    0,773
402,458; 9039,949;   -2,251;   -2,318
403,048; 9009,520;    1,112;    0,591
403,639; 8606,326;    0,840;    0,864
404,230; 8859,474;    2,476;    0,318
404,821; 8787,866;   -0,615;    0,045
405,411; 8925,193;    1,203;   -2,591
406,002; 8517,383;   -1,252;   -1,136
406,592; 8357,176;    2,294;    0,045
407,183; 8660,232;    0,566;   -1,500
407,774; 8621,937;    3,475;   -0,136
408,364; 8946,121;    0,930;    0,409
408,954; 8534,157;    0,384;    1,227
409,545; 8587,139;    1,021;    1,045
410,135; 8105,314;    1,293;    0,500
410,726; 8268,840;    1,838;    0,318
411,316; 8652,583;    0,111;    0,773
411,906; 8319,207;   -0,253;   -0,409
412,497; 7795,645;   -1,070;   -0,045
413,087; 8447,086;   -1,980;   -0,227
413,677; 8825,873;   -0,707;    3,864
414,267; 8663,270;    0,656;    1,409
414,857; 8636,217;   -2,980;    4,227
415,448; 8963,331;    0,839;    0,500
416,038; 8638,759;    0,020;   -0,591
416,628; 8607,581;   -0,889;    0,409
417,218; 8043,000;    0,565;    3,318
417,808; 8335,674;    0,202;   -0,409
418,398; 8817,894;    0,020;    2,682
418,988; 8840,802;    2,020;    0,591
419,578; 9096,514;   -0,707;    1,409
420,168; 9428,584;   -1,343;   -0,955
420,757; 9038,000;   -1,343;   -1,500
421,347; 8694,394;    0,111;   -0,227
421,937; 8902,863;    2,292;    1,409
422,527; 8840,398;    0,838;   -0,773
423,116; 8655,102;   -0,253;   -0,045
423,706; 8984,969;   -1,889;    0,318
424,296; 8999,775;    1,384;    0,682
424,885; 9415,502;   -0,071;   -3,045
425,475; 9710,869;    1,474;   -2,864
426,065; 9604,071;   -0,980;   -0,318
426,654; 9241,664;   -0,435;   -0,318
427,244; 9369,017;    0,020;    1,409
427,833; 8804,792;    1,383;   -0,500
428,423; 9311,654;   -0,526;    1,136
429,012;10091,368;   -0,344;   -1,136
429,601; 9559,579;   -1,344;    0,136
430,191; 9782,813;    1,292;    4,318
430,780; 9432,725;   -0,344;   -0,409
431,369; 9371,494;    0,746;   -0,045
431,959;10043,831;   -1,254;    0,500
432,548; 9836,245;   -1,163;   -0,045
433,137; 9945,866;   -1,254;   -1,318
433,726;10509,901;    0,292;    0,500
434,315; 9848,106;   -0,526;    2,409
434,905; 9893,116;   -1,254;    1,409
435,494; 9786,932;    0,746;    0,955
436,083;10267,899;   -0,981;   -0,955
436,672;10166,793;    0,110;    0,500
437,261; 9706,170;    0,292;   -1,955
437,850; 9816,803;    1,383;    0,682
438,439; 9815,184;    3,291;    1,955
439,027; 9667,870;    3,655;    1,773
439,616;10012,027;    2,927;    1,227
440,205; 9881,967;    0,200;   -2,136
440,794; 9995,604;    2,109;   -0,045
441,383;10277,182;   -1,346;   -0,591
441,971;10139,703;   -2,436;    0,591
442,560; 9997,431;    0,563;   -1,773
443,149; 9735,771;    0,379;   -1,318
443,737; 9869,847;   -0,074;   -2,318
444,326;10165,086;    0,018;    0,318
444,915;10217,178;   -1,982;    0,864
445,503;10623,927;   -2,891;   -0,318
446,092; 9857,523;    0,382;    2,136
446,680;10413,435;    0,382;    0,318
447,269;10589,277;   -0,346;   -0,318
447,857;10348,038;    0,018;   -1,773
448,445;10477,478;    0,563;    1,318
449,034;10703,473;   -1,528;   -1,136
449,622;10862,570;   -1,073;    3,500
450,210;10062,929;    2,017;    2,227
450,799;10591,701;    0,290;   -0,591
451,387;10593,147;    1,381;   -0,591
451,975;10189,532;    2,654;    0,864
452,563;10262,933;    3,472;    2,318
453,151;10314,569;   -0,528;   -1,227
453,739;10249,338;   -1,347;    0,136
454,328;10079,861;    2,381;   -2,136
454,916; 9799,539;    2,562;   -0,136
455,504;10005,295;    1,017;    1,227
456,092;10189,519;    0,017;   -1,591
456,679;10191,051;    1,472;    0,682
457,267;10089,631;    4,017;    1,045
457,855;10272,764;    1,017;    1,409
458,443;10069,369;   -0,165;    1,682
459,031;10161,275;    0,108;    2,409
459,619;10630,252;   -1,801;    2,864
460,206;10792,886;    0,835;    2,045
460,794;10857,370;   -2,983;   -0,227
461,382;11118,771;   -0,529;   -0,864
461,970;10677,252;    1,198;    1,864
462,557;10736,545;   -0,711;   -0,682
463,145;10935,716;   -3,165;   -1,682
463,732;11061,825;    2,016;   -1,045
464,320;11015,826;   -0,075;   -3,045
464,907;10677,646;    2,743;   -0,773
465,495;10571,460;    0,743;   -1,227
466,082;10711,385;   -1,984;   -0,045
466,670;10657,774;   -2,529;    1,227
467,257;11041,745;   -1,711;    2,045
467,844;11185,743;   -0,075;    0,045
468,432;11215,073;    0,834;    3,500
469,019;10707,852;    0,925;   -1,773
469,606;11196,265;    0,470;    3,682
470,193;11015,640;   -1,439;    0,227
470,780;10581,244;   -2,075;    0,864
471,368;10928,207;   -1,257;   -0,773
471,955;10707,969;    1,379;   -0,682
472,542;10330,346;    0,652;   -1,136
473,129;10580,883;   -0,166;    0,136
473,716;10311,444;    1,470;    0,591
474,303;10527,820;    0,652;   -0,864
474,890;10835,964;   -1,439;   -0,500
475,477;10835,286;   -1,621;    0,409
476,064;10738,285;    1,106;   -1,591
476,650;10692,304;    0,288;    0,318
477,237;10504,395;   -0,258;    0,955
477,824;10666,920;   -1,076;    0,864
478,411;10718,258;   -1,894;   -0,318
478,997;10897,402;    0,560;   -0,773
479,584;10962,284;    1,196;   -0,409
480,171;11713,300;   -0,440;   -0,773
480,757;11365,229;    2,651;    0,773
481,344;11685,462;    0,469;    0,409
481,931;11211,209;    1,105;    1,045
482,517;12281,087;   -1,258;    0,318
483,104;12890,434;    1,106;    2,864
483,690;13207,816;   -1,804;    0,045
484,276;13572,350;   -0,895;    0,227
484,863;13317,087;    2,469;    1,136
485,449;13930,280;   -0,077;    0,318
486,035;13929,247;   -1,986;   -0,136
486,622;14360,298;   -0,895;    0,045
487,208;14311,353;    1,378;    1,500
487,794;14124,413;    0,741;    0,318
488,380;14253,736;    0,105;   -1,409
488,967;14316,343;   -1,168;   -0,409
489,553;14365,094;   -1,895;   -1,409
490,139;14562,528;    1,559;    0,773
490,725;13957,378;    0,741;   -0,227
491,311;13456,405;    3,287;    3,045
491,897;12803,515;   -0,986;    1,500
492,483;12598,688;    0,105;    1,227
493,069;12354,325;    3,923;    0,864
493,655;12348,204;    1,650;    0,682
494,241;12253,504;    1,377;   -0,955
494,826;12669,269;    0,287;   -1,045
495,412;12116,847;    2,559;   -0,682
495,998;12243,711;   -0,805;   -0,318
496,584;12433,571;    0,377;    1,045
497,169;12418,153;    1,014;   -0,682
497,755;12361,437;    0,650;    1,227
498,341;12934,056;    0,559;    0,318
498,926;12518,124;    1,832;    1,955
499,512;12715,104;    1,286;    2,955
500,097;12824,437;    0,195;   -0,318
500,683;12803,635;   -0,350;    2,136
501,268;13138,498;   -0,169;   -0,955
501,854;12811,268;   -0,169;    1,227
502,439;12737,807;   -0,624;   -1,773
503,024;12990,558;    0,195;    0,500
503,610;13063,754;   -0,078;   -0,682
504,195;13057,128;    0,558;    1,955
504,780;13174,523;    2,922;    1,227
505,366;12995,758;    3,013;    2,864
505,951;12717,749;    0,740;    1,045
506,536;12723,380;   -3,260;   -3,682
507,121;12729,610;    0,285;   -0,318
507,706;13257,992;    2,376;    1,045
508,291;13704,028;    2,649;    1,136
508,876;13153,131;   -0,988;    2,591
509,461;12562,091;   -0,169;   -0,773
510,046;12968,007;    0,194;    0,318
510,631;13234,264;   -0,351;   -0,773
511,216;12904,592;    2,467;   -0,500
511,801;13275,548;   -0,442;    2,591
512,386;13571,828;    0,740;    0,500
512,971;13494,821;   -2,988;    0,955
513,555;13056,670;   -0,897;   -1,500
514,140;13859,109;   -0,442;   -3,136
514,725;13855,641;   -0,715;   -1,136
515,309;13966,785;   -0,533;    0,318
515,894;13422,383;   -0,624;   -2,227
516,479;13907,809;   -0,624;   -0,955
517,063;13736,571;    0,376;    1,227
517,648;13861,959;    1,012;   -1,136
518,232;13505,298;   -0,261;   -1,409
518,817;13848,460;   -0,079;    1,682
519,401;14087,117;    2,194;    0,591
519,985;13570,158;    1,103;    1,136
520,570;13483,849;    0,830;   -1,955
521,154;13735,904;    2,102;    0,591
521,738;13914,260;   -2,352;    2,409
522,323;14468,321;   -0,170;    1,682
522,907;14214,300;    0,466;   -0,136
523,491;13937,046;    0,557;    0,955
524,075;13939,845;    2,284;    0,591
524,659;14014,862;    1,466;    0,591
525,243;13424,828;    1,739;    0,409
525,827;13722,273;    0,648;   -0,045
526,411;14589,498;   -1,989;   -0,136
526,995;14809,528;   -0,352;    1,409
527,579;14370,214;   -0,443;   -1,045
528,163;14696,619;    0,375;   -1,500
528,747;14633,133;    2,466;   -0,773
529,331;14938,952;   -0,080;   -1,409
529,915;15145,664;    1,738;    0,955
530,499;15091,541;   -0,807;    1,227
531,082;14793,929;   -0,534;    1,591
531,666;14225,814;    1,374;    0,773
532,250;14934,659;    1,284;    2,682
532,833;15292,296;    0,920;    2,773
533,417;15126,886;   -1,807;    0,864
534,001;15110,583;    1,647;   -0,318
534,584;15844,019;    0,374;    0,500
535,168;15677,370;    0,465;    1,409
535,751;15734,125;    0,647;    0,045
536,334;15182,727;   -0,898;   -0,409
536,918;15775,468;    0,011;    1,591
537,501;15883,646;   -0,899;    1,318
538,085;15836,690;   -0,444;    1,045
538,668;16035,943;    0,829;    2,409
539,251;16355,559;    1,829;    3,773
539,834;16336,443;    0,101;    0,773
540,418;16293,378;   -1,990;    4,318
541,001;16444,023;   -0,990;    1,773
541,584;16457,102;    2,101;    2,227
542,167;16152,526;    1,374;    2,955
542,750;16300,160;    1,919;   -0,773
543,333;15870,516;    0,555;    2,136
543,916;16679,593;    0,192;    2,500
544,499;17311,623;   -1,354;    0,227
545,082;17321,882;    1,374;    3,591
545,665;17448,955;    1,919;    1,500
546,248;17811,516;    1,010;   -0,318
546,830;17478,634;   -0,445;    1,955
547,413;17851,382;    1,010;   -0,773
547,996;18399,976;    0,555;    0,500
548,579;18186,596;    0,919;    0,955
549,161;18019,127;    1,828;    2,682
549,744;17792,019;   -0,809;    0,409
550,326;18291,850;   -0,809;   -1,136
550,909;18037,542;    2,737;    0,591
551,492;18484,631;   -0,263;    0,227
552,074;18238,897;   -0,173;   -1,318
552,657;18809,507;    2,373;    0,045
553,239;18553,447;   -0,173;   -0,773
553,821;18458,050;   -1,082;    1,045
554,404;17995,832;    1,282;    1,136
554,986;18403,361;    0,464;    1,045
555,568;19008,393;    1,191;   -0,955
556,151;18187,736;    1,191;   -0,227
556,733;18350,967;   -0,264;   -0,864
557,315;18860,803;    0,100;    0,500
557,897;18666,200;    0,554;   -0,500
558,479;18792,245;   -1,991;    1,318
559,061;18937,160;   -0,719;   -0,864
559,643;19246,403;   -0,264;    0,045
560,225;19640,106;    1,645;    2,864
560,807;19673,040;    0,918;    0,318
561,389;19150,318;    0,554;    2,318
561,971;19949,555;    0,463;    2,136
562,553;19751,017;   -1,628;    1,591
563,135;19889,667;   -0,537;    1,136
563,717;19466,082;    3,372;    1,136
564,298;20232,359;    3,645;   -0,045
564,880;19988,414;    0,645;   -1,409
565,462;20128,686;    0,645;    1,318
566,043;21263,967;   -0,446;    2,318
566,625;20833,325;    1,918;    1,227
567,207;20661,528;    1,099;    1,682
567,788;21842,832;   -1,264;    1,500
568,370;22700,683;    1,917;   -0,500
568,951;22545,116;    0,190;    0,227
569,533;23435,861;   -0,628;   -0,500
570,114;23919,601;   -0,446;    0,682
570,695;24458,118;   -0,174;   -1,318
571,277;24967,011;   -0,265;   -1,682
571,858;25692,253;    2,008;   -1,136
572,439;26637,776;    1,554;   -1,045
573,021;26867,776;    2,099;   -2,773
573,602;27371,422;   -1,265;    0,318
574,183;28323,835;   -2,083;    2,227
574,764;28433,056;   -1,629;    0,409
575,345;29000,852;    0,917;   -0,136
575,926;29682,423;   -0,356;    0,136
576,507;29647,234;    1,099;   -0,227
577,088;30732,565;    3,099;    1,682
577,669;30793,379;    0,735;    1,955
578,250;31620,198;    0,644;   -1,045
578,831;32287,651;   -1,356;   -2,227
579,412;32573,632;   -0,810;    0,955
579,993;33466,164;    1,008;    0,227
580,573;33810,748;   -0,629;   -0,955
581,154;32760,327;    0,735;   -0,591
581,735;33601,068;    0,644;    0,773
582,315;33144,249;   -0,629;    2,136
582,896;33459,784;   -0,174;    1,227
583,477;32887,752;    0,189;    1,227
584,057;33061,404;    0,553;    0,955
584,638;33417,436;    2,553;    2,318
585,218;33385,210;   -0,538;    2,682
585,799;33523,919;    0,281;   -0,227
586,379;33488,656;    0,372;    1,591
586,959;32192,172;    0,735;    0,318
587,540;31484,081;   -0,629;    2,227
588,120;31055,834;    1,007;   -0,045
588,700;29993,904;    2,553;    2,136
589,281;30310,138;    0,462;   -0,955
589,861;30285,753;    0,099;   -1,682
590,441;30054,423;    2,371;   -2,682
591,021;29036,339;   -0,265;   -2,591
591,601;29213,645;   -0,537;    0,500
592,181;29235,652;   -0,719;   -0,773
592,761;28526,766;    0,007;    1,409
593,341;28416,588;   -0,901;    0,045
593,921;28399,988;   -0,265;    1,591
594,501;28320,295;   -0,538;    1,318
595,081;28160,007;    0,917;   -0,318
595,661;28509,044;   -1,447;    0,955
596,240;29048,950;   -0,537;    0,136
596,820;28653,500;    0,372;    1,955
597,400;28864,421;    2,008;    0,773
597,980;29075,023;    2,008;    1,045
598,559;29104,493;    2,735;   -0,227
599,139;28827,258;   -0,174;   -1,227
599,718;28724,258;   -0,174;   -0,409
600,298;28969,707;    0,735;    0,682
600,877;29207,224;    2,917;    1,409
601,457;29413,592;    2,281;    1,136
602,036;29314,457;    0,190;    2,045
602,616;29575,108;    0,644;    1,682
603,195;29929,768;   -0,355;    3,500
603,774;29438,773;   -0,901;    2,045
604,354;29334,389;    0,826;   -0,500
604,933;28814,626;    0,463;    1,864
605,512;28939,467;    3,554;    0,591
606,091;28950,601;   -0,537;    3,773
606,671;29802,748;    0,281;    0,773
607,250;28960,033;    1,644;    3,136
607,829;29187,889;    2,372;    3,227
608,408;28988,374;    1,190;    2,591
608,987;27941,180;    1,281;    3,409
609,566;28344,414;   -1,265;   -2,500
610,145;28400,264;   -1,082;    0,682
610,723;28772,957;    4,372;    6,864
611,302;28068,760;   -0,446;    1,682
611,881;27600,992;    5,008;   11,227
612,460;28391,251;    1,645;    3,955
613,039;28820,886;   -0,082;    2,045
613,617;27558,128;    1,736;    4,773
614,196;27745,738;    1,099;    1,227
614,775;28064,296;    1,009;    2,409
615,353;27994,649;    0,736;    0,864
615,932;27709,363;    0,100;    2,409
616,510;28295,471;    0,554;    0,591
617,089;27835,531;    7,100;   17,591
617,667;27597,732;    2,372;    6,136
618,246;27475,781;   -1,537;    1,318
618,824;27565,864;   -3,355;   -0,955
619,402;27186,325;   -2,900;   -1,773
619,981;27685,335;   -0,173;   -1,045
620,559;27478,792;    0,009;    1,682
621,137;26986,706;   -0,718;    1,864
621,715;27025,581;   -1,173;   -0,682
622,293;26965,394;   -0,537;   -0,773
622,871;27445,712;   -0,718;    0,500
623,450;26978,659;    0,373;   -0,864
624,028;26867,818;    0,191;   -0,955
624,606;26511,236;   -1,718;    1,682
625,183;26881,389;   -1,536;   -1,136
625,761;26502,292;    1,009;    1,136
626,339;26811,598;    1,373;    2,591
626,917;27165,888;   -0,172;   -0,045
627,495;27212,030;   -0,354;    1,318
628,073;26696,696;   -0,263;    2,864
628,650;26367,450;    0,100;    2,136
629,228;26754,848;    0,373;    4,409
629,806;26216,644;    2,282;    1,136
630,383;26443,232;    1,464;   -0,318
630,961;26214,404;    2,555;   -0,955
631,539;25977,642;    2,464;    0,227
632,116;25300,404;   11,373;   15,409
632,694;25857,427;    2,555;    6,500
633,271;26210,805;    0,828;    2,682
633,848;26141,710;    1,828;    2,045
634,426;26179,801;   -1,081;    1,773
635,003;25281,998;    1,101;   -0,409
635,580;25573,518;    1,192;    3,682
636,158;26142,479;    3,737;    1,227
636,735;26176,564;    0,555;   -0,500
637,312;26317,164;   -0,809;   -0,682
637,889;26367,192;   -4,354;   -0,682
638,466;25864,935;   -3,990;   -0,409
639,043;25865,605;    2,101;   -1,136
639,620;26167,930;   -2,262;   -0,955
640,197;26498,502;    1,100;    1,682
640,774;26657,654;   -0,172;    1,136
641,351;27097,442;    0,737;    1,136
641,928;26450,412;   -0,627;    1,409
642,505;26094,655;    0,828;   -0,500
643,082;26190,261;   -1,718;    1,227
643,658;25178,413;   -0,718;    1,500
644,235;25981,019;    1,191;    2,500
644,812;26286,898;    1,918;    0,773
645,388;26041,323;   -0,991;    1,409
645,965;26103,747;   -0,809;    1,682
646,542;26189,172;   -1,445;   -0,227
647,118;26127,232;    1,009;   -0,955
647,695;26478,839;   -0,263;    1,136
648,271;26344,263;   -0,536;    0,500
648,848;26700,869;    0,736;    2,227
649,424;26555,658;    0,827;    1,318
650,000;26310,991;   -0,354;   -1,045
650,577;26096,779;   -0,627;   -0,955
651,153;26546,567;   -1,809;    0,955
651,729;27626,265;    1,191;    0,864
652,305;27976,507;    0,645;    2,773
652,881;32859,386;   -0,082;    1,136
653,458;39960,083;    1,100;    0,227
654,034;43875,417;    0,282;    1,591
654,610;45391,205;    0,554;    0,773
655,186;46628,902;    0,645;    3,045
655,762;46322,781;   -0,991;    0,409
656,338;46318,115;    0,100;    0,136
656,913;47199,903;   -0,082;    0,409
657,489;46453,782;    0,827;   -0,318
658,065;46490,297;   -0,173;   -1,591
658,641;47092,813;   -0,900;   -0,864
659,217;46375,692;   -0,991;    0,409
659,792;45798,844;    0,645;   -0,409
660,368;45962,723;   -2,173;   -0,682
660,944;45508,602;   -2,082;    1,227
661,519;40579,117;   -0,628;    0,409
662,095;34391,541;   -1,719;    0,591
662,670;29737,602;    1,281;   -0,136
663,246;28622,754;    1,009;   -0,409
663,821;27905,360;    0,281;    1,682
664,396;27387,876;    0,009;    1,864
664,972;27681,664;    0,009;   -0,500
665,547;27963,543;    1,372;    0,136
666,122;28041,785;   -1,082;    0,318
666,698;28335,392;   -0,173;    0,318
667,273;27677,998;   -0,173;    0,136
667,848;28470,968;    2,372;    1,500
668,423;28297,301;    2,190;    2,318
668,998;28831,908;    2,827;   -0,682
669,573;29365,969;   -3,264;   -1,500
670,148;29192,484;   -1,446;   -0,682
670,723;28992,636;   -1,810;    0,318
671,298;29434,333;    2,372;    1,045
671,873;29564,666;   -0,082;   -0,136
672,448;29509,636;    0,645;    0,136
673,023;29891,788;   -1,992;   -0,227
673,597;30166,485;    0,827;    2,318
674,172;29910,637;   -0,355;    0,318
674,747;29376,243;    0,372;   -1,045
675,321;29212,577;   -0,628;    3,318
675,896;28790,547;    0,645;    1,045
676,471;29774,517;    2,645;    1,591
677,045;29581,759;   -1,264;    0,682
677,620;29648,820;    0,190;    1,136
678,194;29953,245;   -2,628;    1,136
678,769;29496,760;   -1,083;   -0,318
679,343;29772,003;   -0,628;    1,773
679,917;29648,973;   -1,446;    1,955
680,492;29719,579;    0,826;    3,227
681,066;29844,094;    3,372;    0,409
681,640;29883,882;    1,463;   -0,318
682,214;30695,761;    0,735;    0,500
682,788;30268,459;   -1,356;   -0,773
683,363;30188,974;   -1,810;    1,682
683,937;29887,762;   -1,719;   -0,318
684,511;30667,187;    0,463;   -0,591
685,085;30339,975;   -1,356;    0,318
685,659;30134,581;   -2,538;    0,864
686,232;30410,551;   -0,356;   -0,318
686,806;30103,703;   -0,901;    0,409
687,380;30759,764;   -0,174;    0,591
687,954;30974,097;   -1,174;    1,136
688,528;30672,794;   -0,719;    1,955
689,101;31487,037;   -3,992;    1,045
689,675;31016,552;   -0,356;   -0,136
690,249;30408,704;   -0,719;    0,409
690,822;30731,947;    0,280;    0,318
691,396;30846,371;   -0,265;    1,227
691,969;30257,250;    1,280;    0,136
692,543;30663,493;   -0,447;   -1,955
693,116;30336,736;   -0,265;   -1,409
693,690;30247,887;    0,099;    0,500
694,263;30762,584;   -1,083;    2,955
694,836;30850,918;    1,371;    3,591
695,410;29467,797;   -0,265;    1,773
695,983;29944,131;    0,189;    0,591
696,556;29923,191;   -0,447;   -1,045
697,129;30300,434;   -0,356;    1,409
697,703;29933,404;   -1,629;    1,955
698,276;29936,465;    1,462;   -0,773
698,849;29757,980;    1,280;    1,409
699,422;30127,950;   -1,083;    0,591
699,995;29772,193;    0,007;    0,136
700,568;30299,981;   -0,629;    3,045
701,140;30319,224;   -2,811;    1,682
701,713;29998,648;   -0,174;    2,409
702,286;29759,709;   -0,538;    0,864
702,859;29696,042;   -0,902;   -0,591
703,432;28796,740;    0,825;    0,682
704,004;29285,982;    0,462;    0,318
704,577;29157,589;   -0,629;    0,136
705,150;29796,286;    0,189;    2,500
705,722;29510,528;   -0,356;   -3,227
706,295;29324,771;   -0,175;   -0,591
706,867;29208,559;   -0,175;    1,955
707,440;29406,075;   -1,720;   -0,409
708,012;29630,499;    0,462;    0,591
708,584;29562,378;    2,462;    0,227
709,157;29853,712;    1,825;   -0,591
709,729;29500,227;    2,280;    2,045
710,301;30348,197;    0,734;    0,045
710,874;30344,712;   -1,447;   -0,227
711,446;29253,409;    0,371;    0,864
712,018;29114,925;    0,098;    0,500
712,590;28859,168;   -1,993;    1,682
713,162;29452,774;    0,825;    1,318
713,734;29627,562;    1,825;   -2,045
714,306;29473,805;   -1,902;   -0,409
714,878;28199,865;    0,825;    0,864
715,450;29052,108;    0,643;    0,864
716,022;29272,351;    1,552;    1,318
716,593;29455,684;    0,189;    0,591
717,165;29360,745;   -3,175;   -1,227
717,737;29040,806;    0,280;    0,409
718,309;28738,049;    0,280;   -0,045
718,880;28671,655;   -0,539;   -1,409
719,452;28923,807;   -0,175;   -1,591
720,024;28522,322;    0,734;   -0,591
720,595;29104,565;   -2,902;    0,955
721,167;28644,898;    0,370;   -2,045
721,738;28166,959;   -0,812;   -1,045
722,309;28125,020;   -0,993;   -1,227
722,881;27891,717;   -1,357;    0,773
723,452;28535,414;   -2,630;    2,864
724,023;28718,566;   -0,721;    2,682
724,595;28464,990;    0,007;    0,682
725,166;28252,142;    0,007;   -0,409
725,737;27880,203;    1,734;    0,227
726,308;27932,628;   -0,266;    0,318
726,879;28434,507;   -1,630;    1,227
727,450;28315,567;    0,552;   -0,045
728,021;28255,355;    3,097;    0,682
728,592;28049,780;    0,734;    0,500
729,163;28333,295;    0,643;   -0,136
729,734;28356,993;    0,188;   -0,227
730,305;28664,235;    1,734;    0,136
730,876;29101,205;    0,188;    2,955
731,447;28844,720;    2,188;    2,682
732,017;28945,872;    1,097;    1,864
732,588;28383,569;    0,734;    1,227
733,159;28572,085;    0,643;   -1,045
733,729;28388,055;    0,006;    0,409
734,300;27682,025;    0,915;    0,864
734,870;28146,995;    3,461;    0,591
735,441;28730,419;    0,370;   -0,591
736,011;28475,116;    0,643;   -1,591
736,582;28360,450;   -0,812;    0,045
737,152;27873,965;   -1,721;   -2,045
737,722;28286,753;   -0,267;   -0,682
738,293;27977,360;   -1,358;    1,318
738,863;27880,602;    2,461;    2,318
739,433;27701,027;    5,279;    0,318
740,003;28316,724;   -0,994;   -0,682
740,573;27750,148;    2,097;   -1,591
741,143;27699,027;   -1,085;    0,318
741,713;28471,452;    1,188;   -0,500
742,283;28156,058;    0,915;    1,591
742,853;27898,210;    1,915;    1,591
743,423;27333,089;    1,733;    0,045
743,993;27516,968;   -0,358;    1,500
744,563;26892,665;    0,097;   -0,864
745,133;26830,999;   -0,812;   -0,864
745,702;27482,696;   -0,267;    1,773
746,272;26704,575;   -0,176;    0,591
746,842;26453,363;   -1,358;   -0,591
747,411;26940,424;   -0,267;   -0,318
747,981;27142,030;    0,097;    0,500
748,551;27154,909;    2,278;   -1,045
749,120;26995,243;    0,642;   -0,227
749,690;27395,576;   -0,631;    2,409
750,259;27675,001;    1,369;    2,955
750,828;27592,880;    1,551;   -1,955
751,398;27871,213;    1,278;   -0,045
751,967;27393,001;    2,187;    0,409
752,536;27604,880;   -0,813;   -0,227
753,105;28069,850;    0,096;    0,227
753,675;27834,093;    0,096;    1,773
754,244;27738,972;   -0,904;    3,591
754,813;27785,942;    0,551;    1,227
755,382;27372,639;    0,460;    0,955
755,951;27969,518;    1,551;    3,682
756,520;27480,943;   -0,085;    1,864
757,089;28023,731;    0,278;    0,500
757,658;28189,519;    1,733;    1,227
758,227;28189,943;    1,096;    0,318
758,795;28466,277;    1,187;    1,136
759,364;28731,156;   -0,086;   -0,591
759,933;27727,035;   -1,176;   -0,045
760,501;27255,732;    0,733;   -1,318
761,070;27735,066;   -2,813;   -1,409
761,639;28416,217;   -1,904;    1,318
762,207;27748,824;    1,551;   -0,955
762,776;27715,885;    0,369;    0,864
763,344;27673,854;   -0,995;    0,591
763,913;26797,461;   -0,722;    1,409
764,481;27516,885;    1,005;   -0,136
765,049;27308,310;   -1,358;    1,409
765,618;27184,280;   -0,086;    0,318
766,186;27220,795;    0,278;    0,136
766,754;27422,401;    0,005;    1,864
767,322;26431,553;   -1,995;    0,409
767,890;26467,614;   -0,722;   -1,773
768,459;26870,402;   -2,177;   -0,318
769,027;27009,099;    1,641;    3,409
769,595;25966,978;    3,278;    2,591
770,163;26433,130;    3,823;    2,955
770,730;26130,009;    0,732;   -0,136
771,298;25989,615;    0,187;   -1,409
771,866;26071,040;   -1,541;    4,955
772,434;26373,191;   -0,631;   -1,864
773,002;26562,798;    0,005;    0,682
773,569;26209,131;    0,914;    1,682
774,137;26052,101;   -0,268;   -0,045
774,705;26826,435;    0,278;   -0,136
775,272;26332,950;    0,641;    0,682
775,840;26033,102;   -0,177;    2,682
776,407;25573,526;    0,277;    1,955
776,975;25204,224;   -0,632;    0,318
777,542;26183,921;   -1,086;   -0,045
778,110;26051,709;   -1,268;   -0,045
778,677;25699,861;   -2,359;   -0,864
779,244;25472,831;    2,186;    1,045
779,812;25598,255;    1,823;    0,864
780,379;25431,316;    0,005;    1,136
780,946;25716,558;    1,005;   -0,773
781,513;26052,437;   -1,450;    0,318
782,080;25386,044;   -0,086;    2,864
782,647;26115,014;   -0,268;    3,045
783,214;25712,529;   -0,177;    3,864
783,781;25340,954;   -0,723;   -0,682
784,348;25152,378;   -0,632;    1,500
784,915;25642,984;   -3,177;    0,318
785,482;25418,136;    1,368;    2,591
786,049;25858,106;    0,186;   -0,591
786,615;25974,530;    0,277;   -0,955
787,182;25732,228;    0,186;   -0,682
787,749;25438,925;   -2,814;    1,409
788,315;24748,622;   -1,632;   -0,409
788,882;25059,319;    1,550;   -1,227
789,448;25740,471;    1,732;   -0,955
790,015;25756,077;    1,095;    3,227
790,581;25326,138;    1,459;    0,227
791,148;25194,381;    0,641;    1,045
791,714;25404,442;   -0,541;    3,136
792,280;25076,866;    0,186;    1,591
792,847;24611,472;    0,550;    2,500
793,413;25242,715;   -0,269;   -0,318
793,979;24805,503;    3,459;   -1,318
794,545;24905,200;    4,459;    2,682
795,111;24261,716;    2,186;    1,318
795,678;24469,958;    0,731;   -1,682
796,244;24046,292;    3,368;    0,136
796,810;24628,444;    1,731;    0,773
797,375;24305,868;    0,549;   -2,136
797,941;24349,474;   -0,541;    0,591
798,507;24530,353;   -0,451;   -0,955
799,073;24051,869;   -0,360;    0,591
799,639;24125,657;   -2,632;    3,136
800,205;24121,263;    0,095;    2,682
800,770;23718,051;    0,640;    1,773
801,336;23762,385;    1,368;   -0,955
801,901;23456,446;    4,549;    3,136
802,467;23988,325;   -0,542;    2,045
803,033;23292,840;   -0,087;    0,864
803,598;23516,628;    1,913;   -1,045
804,163;23593,598;    1,095;   -0,318
804,729;23524,477;   -0,178;    1,136
805,294;23964,356;    0,822;    2,227
805,859;23718,690;    0,731;   -0,409
806,425;23189,205;    1,186;    2,682
806,990;22842,266;    2,186;    4,318
807,555;23353,781;   -1,451;    2,591
808,120;23213,206;    0,822;   -0,409
808,685;23268,358;    0,185;   -2,500
809,250;22797,237;    0,004;   -0,500
809,815;23096,025;    1,913;    0,682
810,380;23645,813;   -0,269;    1,591
810,945;24211,328;   -1,087;    2,045
811,510;23324,844;    2,094;    1,591
812,075;23045,450;   -0,633;   -1,409
812,640;23102,147;    2,003;    1,409
813,204;23153,753;    0,822;   -0,227
813,769;23670,814;    2,094;   -0,045
814,334;23110,966;    0,458;    0,864
814,898;23106,390;    0,367;    0,591
815,463;22961,360;    1,276;   -0,773
816,027;22879,421;   -0,724;   -2,318
816,592;22937,755;    0,640;   -2,045
817,156;22476,361;    2,094;    1,136
817,721;22352,785;    4,276;    2,318
818,285;22338,483;    2,912;    1,500
818,849;22993,816;   -1,451;    1,682
819,414;22873,513;   -0,269;    2,955
819,978;22462,574;   -1,269;    1,773
820,542;23005,544;    2,003;    0,500
821,106;22668,241;   -0,815;    0,682
821,670;22791,393;   -0,815;    2,591
822,234;22502,908;   -0,270;    1,409
822,798;21904,424;    0,003;    0,500
823,362;21887,848;   -0,633;    4,227
823,926;21162,091;    0,094;    1,136
824,490;21397,788;   -0,997;   -0,682
825,054;21852,122;   -0,088;   -1,136
825,618;21475,910;   -1,542;   -1,500
826,181;21429,698;    0,458;   -1,318
826,745;21337,577;    1,367;   -1,045
827,309;21676,910;    1,185;    1,318
827,872;21043,335;    1,367;    0,955
828,436;22035,032;    1,185;   -0,773
828,999;22102,002;   -0,997;    1,227
829,563;20892,608;   -0,179;    1,136
830,126;20726,124;   -0,179;   -0,591
830,690;20760,003;   -1,997;    2,864
831,253;20262,427;   -0,543;    2,227
831,816;20426,034;   -1,906;    0,500
832,380;20328,640;    0,185;    0,864
832,943;20536,973;   -1,361;   -0,500
833,506;19998,761;    2,639;   -1,227
834,069;20782,913;    3,912;   -0,955
834,632;20866,429;    1,730;    1,318
835,195;20751,853;    1,003;    0,955
835,758;19903,005;   -0,997;    1,955
836,321;19808,611;    0,730;   -1,045
836,884;19915,672;   -0,725;   -0,955
837,447;19906,642;   -2,816;    1,773
838,010;20196,066;    0,366;    3,227
838,573;20468,764;   -1,179;    0,773
839,135;20414,188;   -1,361;   -0,955
839,698;19899,158;    1,275;    0,409
840,261;19406,128;    1,003;   -0,227
840,823;19229,371;   -0,543;    0,864
841,386;19510,340;   -0,452;   -2,409
841,948;19392,674;   -1,361;    1,773
842,511;19168,098;    0,912;    1,682
843,073;19278,159;    1,912;    0,227
843,636;19072,947;   -0,361;   -0,227
844,198;19007,554;    0,911;    0,591
844,760;19174,887;    1,093;    1,955
845,322;18822,494;    0,548;    1,136
845,885;19244,282;    0,730;    0,591
846,447;19687,979;   -1,998;    0,227
847,009;19251,585;    1,911;   -0,682
847,571;19588,191;    0,820;   -2,045
848,133;19728,252;   -1,089;   -1,864
848,695;19514,586;   -0,543;    1,409
849,257;19067,283;   -1,089;   -1,682
849,819;19202,162;   -0,998;   -0,409
850,381;19266,314;   -0,725;   -0,864
850,942;19630,738;    1,093;   -0,591
851,504;19646,617;    1,184;    0,227
852,066;19662,496;    1,275;   -1,591
852,628;19138,557;   -0,180;    1,955
853,189;18708,527;    1,638;    2,682
853,751;18826,952;   -0,907;    1,409
854,312;18628,649;   -0,453;   -1,682
854,874;19157,982;   -2,089;   -0,773
855,435;19697,043;   -0,907;   -1,682
855,997;19831,468;   -1,816;   -0,136
856,558;19124,074;    0,366;    1,773
857,119;19204,317;    0,820;    2,864
857,681;18895,014;    0,002;    0,318
858,242;18898,893;    1,911;   -2,136
858,803;19381,226;    0,456;   -0,773
859,364;19967,378;    0,184;   -4,773
859,925;19251,621;   -2,453;   -0,955
860,486;19151,045;   -0,453;   -0,955
861,047;18880,742;   -0,544;   -1,227
861,608;18671,258;   -1,089;   -0,773
862,169;18748,228;    0,638;   -0,045
862,730;18532,834;    0,456;    1,409
863,291;18823,622;   -0,635;   -0,500
863,852;19203,410;   -0,635;    1,955
864,412;18653,926;   -0,271;   -0,864
864,973;17246,623;   -0,089;    0,500
865,534;17087,502;   -1,726;    0,227
866,094;18611,835;    1,820;    0,227
866,655;18267,805;    1,274;    3,318
867,215;18541,593;    0,274;    0,136
867,776;18357,200;    0,547;   -0,136
868,336;18438,533;   -1,453;    0,136
868,897;17962,776;    2,638;    1,682
869,457;17677,291;    1,365;    0,318
870,017;17905,534;    0,547;   -1,227
870,578;18420,595;   -0,817;    0,773
871,138;18105,383;   -2,089;   -0,955
871,698;17626,807;   -0,817;   -1,318
872,258;17556,141;   -0,453;   -2,864
872,818;17921,293;    2,729;    0,045
873,378;17872,444;    0,638;    1,045
873,938;17405,778;    0,547;    0,500
874,498;17721,384;    0,274;   -1,955
875,058;17609,172;    2,183;    1,773
875,618;17461,779;    1,910;   -2,682
876,177;17379,749;    1,274;    0,136
876,737;17000,991;   -0,090;    1,955
877,297;17031,870;    0,183;    1,955
877,856;17061,022;   -0,362;    0,318
878,416;17014,537;    1,183;   -0,136
878,976;17245,416;   -1,817;    0,409
879,535;17417,295;    0,092;    3,136
880,095;17116,174;   -0,544;    0,045
880,654;17246,235;   -1,090;    1,318
881,213;17346,478;    2,456;    1,500
881,773;17012,720;    2,637;    2,682
882,332;17326,690;    3,365;    5,136
882,891;17207,751;    3,092;    2,136
883,451;17665,176;   -1,272;    1,682
884,010;17117,327;   -2,908;   -0,409
884,569;17181,206;   -0,999;   -0,045
885,128;17312,267;    2,819;   -1,864
885,687;17384,692;    4,455;    0,682
886,246;17089,025;    1,455;    2,136
886,805;16898,450;    2,455;    2,045
887,364;17130,511;   -0,999;   -0,500
887,922;17506,753;   -1,181;    0,045
888,481;17014,541;   -1,545;    0,591
889,040;17332,511;    1,183;    2,136
889,599;18008,572;    2,455;    1,409
890,157;18084,815;    1,455;    2,409
890,716;17745,694;   -0,090;    0,227
891,274;17545,482;    0,092;   -1,136
891,833;17981,179;    1,546;    0,864
892,391;17862,513;   -0,454;    0,500
892,950;17972,392;    1,819;   -0,773
893,508;18302,634;    0,455;   -0,409
894,067;17670,059;    0,637;    0,136
894,625;17565,847;   -0,636;   -1,500
895,183;17803,180;   -0,363;   -0,682
895,741;17683,150;    1,728;   -1,773
896,299;17528,848;   -0,545;   -2,409
896,858;17722,272;    0,819;   -1,591
897,416;17841,060;    2,728;   -1,318
897,974;17580,757;    1,819;    0,318
898,532;17750,818;    6,091;    2,682
899,089;17606,970;    2,091;   -0,682
899,647;17615,304;   -1,454;    1,318
900,205;17342,364;    1,182;    1,045
900,763;17553,971;   -0,454;    0,227
901,321;17555,850;    2,364;   -1,409
901,878;16983,365;   -1,000;   -0,773
902,436;16856,153;   -1,363;    1,318
902,994;17220,396;    4,728;    3,682
903,551;16670,911;    0,728;    0,409
904,109;17078,972;    0,182;   -1,409
904,666;16635,669;    2,455;    1,045
905,224;16461,821;    0,182;   -0,409
905,781;16228,973;    0,727;   -0,318
906,338;16282,579;   -1,363;    1,045
906,895;16214,367;    0,637;    2,045
907,453;16162,064;    1,727;    1,136
908,010;16184,761;   -0,909;    0,409
908,567;15859,550;    1,273;    0,591
909,124;15337,065;    0,364;   -1,500
909,681;15381,308;   -2,909;    0,682
910,238;15520,732;    0,636;   -1,318
910,795;15838,247;   -0,273;   -1,136
911,352;15472,702;   -2,909;   -2,682
911,909;14871,520;   -1,364;   -0,864
912,466;15390,975;   -3,182;    1,500
913,022;14951,157;   -1,636;    0,500
913,579;15287,247;   -0,909;    2,045
914,136;14976,520;    1,636;    0,955
914,692;15311,520;    0,091;   -1,227
915,249;14934,247;    1,455;    0,409
915,806;15142,247;    0,182;    1,955
916,362;14918,247;    1,909;    1,864
916,918;14479,247;    2,000;    1,045
917,475;14416,611;   -1,182;    0,955
918,031;14502,157;    3,364;   -0,045
918,587;13986,429;   -0,909;   -0,318
919,144;14201,247;   -2,273;    0,227
919,700;14488,157;    1,727;    0,773
920,256;14062,702;    0,727;    0,045
920,812;13684,975;   -0,727;   -1,045
921,368;13691,884;   -1,727;   -1,045
921,924;13281,247;    0,182;   -0,136
922,480;12868,884;   -0,545;    1,227
923,036;13503,611;    1,273;    1,955
923,592;13452,793;    0,455;    0,318
924,148;13350,884;    0,455;   -0,955
924,704;12616,793;   -1,364;   -0,409
925,259;12894,247;   -0,273;    0,591
925,815;12684,338;    1,455;    0,500
926,371;12184,793;    2,909;    1,409
926,926;12085,520;    2,091;    0,591
927,482;11722,157;   -1,364;    0,773
928,037;11596,975;    0,909;    2,045
928,593;11862,338;    1,636;    1,045
929,148;11701,702;   -1,818;   -1,500
929,704;11180,157;   -1,455;   -0,500
930,259;11412,520;    0,091;   -0,136
930,814;10456,793;   -0,818;    1,955
931,369;10118,157;    1,091;   -0,773
931,925;10019,338;   -0,091;    0,136
932,480; 9924,884;   -2,818;   -2,591
933,035; 9774,884;    0,545;   -0,318
933,590; 9549,157;    0,364;   -1,773
934,145; 9189,429;   -1,364;   -0,318
934,700; 9514,247;    0,455;   -0,591
935,255; 9323,520;   -0,091;    0,045
935,809; 8597,157;    3,182;    0,864
936,364; 7709,338;   -0,455;   -0,136
936,919; 7663,793;    0,455;   -1,773
937,474; 7550,884;    1,455;    0,136
938,028; 7328,429;   -1,636;    1,136
938,583; 6781,702;    1,818;    4,682
939,138; 7055,611;    2,091;    2,136
939,692; 6486,066;    1,636;   -1,136
940,247; 6198,702;   -0,727;   -1,045
940,801; 5724,157;   -0,636;    0,227
941,355; 5580,975;   -0,364;    2,591
941,910; 5221,247;   -0,273;   -2,136
942,464; 5350,611;   -0,818;   -0,318
943,018; 5117,702;    1,000;   -0,227
943,572; 5082,157;    2,545;   -0,682
944,126; 4483,247;    0,091;   -0,409
944,681; 4388,066;    3,091;    0,227
945,235; 4355,520;    1,000;   -0,591
945,789; 4304,520;    0,364;   -1,864
946,342; 4388,702;    0,455;   -0,591
946,896; 4196,520;   -2,273;    0,955
947,450; 3950,429;    1,545;   -0,227
948,004; 4131,429;    1,727;   -0,045
948,558; 4162,429;    0,273;   -0,864
949,111; 4082,611;   -0,273;   -0,318
949,665; 4091,157;    1,636;   -0,682
950,219; 3959,702;   -0,091;   -1,045
950,772; 4027,884;   -1,909;    1,864
951,326; 3941,066;    0,545;   -0,955
951,879; 4055,429;    0,727;   -2,318
952,433; 4093,702;    0,000;    2,227
952,986; 3903,702;    2,909;    0,682
953,539; 3869,702;   -0,273;    0,591
954,093; 3783,520;    0,545;   -1,318
954,646; 3946,429;    0,909;    1,318
955,199; 3745,611;    0,000;   -0,500
955,752; 3626,975;   -0,455;    1,773
956,305; 3592,702;   -0,091;    2,955
956,858; 3766,157;    0,818;   -0,318
957,411; 3936,520;   -0,545;    2,136
957,964; 3754,157;    1,364;    2,136
958,517; 3757,247;   -1,545;    3,136
959,070; 3572,338;   -0,455;    1,955
959,623; 3641,066;    1,091;    1,500
960,176; 3418,338;    1,727;    2,045
960,728; 3395,702;   -2,727;    0,773
961,281; 3451,520;    0,545;    0,500
961,834; 3502,975;   -0,909;    0,864
962,386; 3411,702;    1,727;    1,045
962,939; 3344,793;    0,364;   -0,318
963,491; 3479,702;    0,455;    1,136
964,043; 3361,429;    1,182;    2,409
964,596; 3468,066;   -1,000;    2,227
965,148; 3306,793;   -1,000;    1,773
965,700; 3222,247;    1,091;   -0,227
966,253; 3378,338;   -0,636;    0,318
966,805; 3223,157;   -2,273;    0,773
967,357; 3274,793;    1,091;   -1,500
967,909; 3214,429;    0,455;   -1,227
968,461; 3339,066;    0,545;    3,136
969,013; 3274,611;   -0,182;   -0,864
969,565; 3337,793;   -0,455;   -1,136
970,117; 3381,793;   -0,364;    1,045
970,669; 3259,429;    0,182;   -0,136
971,220; 3120,884;   -0,455;   -1,500
971,772; 3027,975;   -0,636;   -0,318
972,324; 3162,520;    0,091;   -0,500
972,876; 3111,338;    0,818;   -0,045
973,427; 3226,157;    1,909;   -1,045
973,979; 3185,884;   -0,727;   -2,500
974,530; 3239,611;    1,818;    1,318
975,082; 3244,066;   -0,545;    1,682
975,633; 3139,975;    1,091;    1,682
976,184; 3274,247;    0,909;    0,773
976,736; 3066,520;    0,091;    0,227
977,287; 2859,884;   -0,909;   -0,500
977,838; 3049,066;    0,909;   -0,318
978,389; 3114,611;   -1,000;   -0,500
978,940; 2970,884;    0,545;   -0,409
979,491; 3001,975;    0,091;   -0,500
980,042; 2978,975;    0,182;    3,045
980,593; 3031,611;   -2,545;    0,227
981,144; 3059,884;    2,545;   -0,500
981,695; 3023,884;    1,455;    1,500
982,246; 3005,338;   -0,273;    1,045
982,797; 3156,157;   -1,727;    0,682
983,347; 3265,611;    0,364;    0,591
983,898; 3445,975;    3,091;    0,409
984,449; 3243,520;    2,182;    0,773
984,999; 3169,884;    1,455;   -1,136
985,550; 2924,702;    0,182;   -0,318
986,100; 2951,520;   -0,455;   -0,318
986,651; 3003,611;   -0,818;    0,045
987,201; 2973,702;   -1,000;   -0,591
987,751; 3056,066;    0,818;    2,864
988,302; 3048,157;    2,636;    1,500
988,852; 3064,884;    0,455;   -1,136
989,402; 3097,247;    0,091;    0,682
989,952; 3006,793;   -2,182;    0,864
990,502; 3118,884;   -0,091;    0,682
991,052; 3092,884;   -0,727;    0,045
991,602; 2954,793;   -2,909;    1,318
992,152; 2945,975;    0,455;    0,682
992,702; 2923,975;    1,364;   -0,045
993,252; 2848,066;   -3,000;   -0,500
993,802; 2953,520;   -0,273;    1,318
994,352; 3197,975;   -1,545;    1,136
994,901; 3280,429;   -0,182;    3,227
995,451; 3180,975;   -0,182;    0,318
996,000; 3265,702;    1,636;    0,318
996,550; 2983,066;    2,273;    0,227
997,100; 2964,066;    1,273;   -0,045
997,649; 3248,975;    2,182;    0,955
998,198; 2900,338;    1,727;   -1,500
998,748; 3083,975;    1,091;   -2,318
999,297; 3002,247;   -0,818;   -0,409
999,846; 3067,066;    1,000;   -0,773
1000,395; 3105,520;   -0,818;    0,500
1000,945; 3054,611;    1,818;   -0,773
1001,494; 3145,157;    2,364;    0,682
1002,043; 3136,702;    4,636;    0,864
1002,592; 2981,884;   -1,091;    1,955
1003,141; 3136,066;   -0,455;   -0,682
1003,690; 2988,793;    1,727;    0,500
1004,238; 3059,247;    1,455;   -0,045
1004,787; 2689,793;    1,364;    1,227
1005,336; 2938,066;    0,364;    0,682
1005,885; 3091,247;    1,364;   -2,773
1006,433; 3224,247;    0,545;    0,955
1006,982; 3273,793;    0,455;    1,682
1007,531; 3183,247;   -1,818;   -0,227
1008,079; 3115,975;   -2,273;    0,500
1008,627; 3264,975;   -1,455;    0,409
1009,176; 3015,702;    0,000;   -1,955
1009,724; 3056,884;    1,091;    0,864
1010,273; 3103,884;    1,273;    0,500
1010,821; 3224,429;    0,091;    1,409
1011,369; 2985,975;   -1,364;    1,318
1011,917; 2946,247;   -1,364;   -0,591
1012,465; 3231,429;    1,273;   -1,591
1013,013; 3333,247;    2,091;   -1,682
1013,561; 3219,338;    0,455;   -0,773
1014,109; 3261,793;   -1,909;    1,682
1014,657; 3139,702;    0,364;    0,591
1015,205; 3271,338;    1,636;   -0,955
1015,753; 3318,702;   -0,545;   -1,409
1016,301; 3333,157;   -2,636;    3,045
1016,848; 3346,066;   -1,273;    0,409
1017,396; 3368,520;    2,545;    0,045
1017,944; 3495,793;    1,182;    1,864
1018,491; 3264,611;    0,273;    1,409
1019,039; 3404,247;    0,455;    0,591
1019,586; 3330,520;   -1,364;    1,682
1020,134; 3430,247;    0,455;    1,500
1020,681; 3457,429;    0,182;   -1,136
1021,228; 3460,338;    2,909;   -2,227
1021,776; 3289,793;    1,182;   -1,136
1022,323; 3511,975;    0,455;    0,773
1022,870; 3441,611;   -1,000;   -0,045
1023,417; 3350,157;    2,636;    1,864
1023,964; 3489,247;    2,636;    1,227
1024,511; 3332,338;    1,000;    0,773
1025,058; 3134,066;    3,182;   -0,045
1025,605; 3180,702;   -2,273;    3,136
1026,152; 3413,338;    1,727;   -0,591
1026,699; 3145,611;    1,818;    1,318
1027,245; 3296,157;   -0,091;    0,318
1027,792; 3503,066;   -1,000;    1,409
1028,339; 3376,247;    2,364;   -0,045
1028,885; 3220,157;    1,000;   -0,227
1029,432; 3155,975;   -0,091;    0,227
1029,978; 3221,157;   -1,000;   -1,591
1030,525; 3137,247;    1,000;    0,409
1031,071; 3403,157;   -1,364;    1,136
1031,618; 3503,247;    0,364;    1,682
1032,164; 3267,520;   -0,091;    3,045
1032,710; 3312,066;    1,636;   -1,500
1033,256; 3215,247;   -0,636;   -0,136
1033,803; 3226,066;   -0,545;    1,500
1034,349; 2940,247;   -1,364;    0,136
1034,895; 3104,702;    0,000;   -0,318
1035,441; 3070,338;   -0,818;    0,318
1035,987; 3056,702;   -2,364;   -0,682
1036,533; 3071,338;   -1,455;   -0,955
1037,078; 3256,520;    1,455;    1,682
1037,624; 3069,247;    2,455;   -0,955
1038,170; 3112,975;    0,455;   -0,318
1038,716; 3027,066;    1,636;   -0,409
1039,261; 2946,975;   -2,273;   -0,773
1039,807; 2866,157;   -0,091;    3,409
1040,352; 2957,429;   -1,909;   -0,318
1040,898; 2985,066;   -1,545;   -0,682
1041,443; 2887,520;   -1,455;   -2,591
1041,989; 2905,247;    1,091;    1,591
1042,534; 2773,066;   -0,364;    2,591
1043,079; 2901,975;    2,909;    0,955
1043,625; 2694,429;    1,818;    0,500
1044,170; 2753,157;   -1,364;    1,045
1044,715; 2988,975;    2,455;    0,955
1045,260; 2806,429;    2,182;   -0,955
1045,805; 2850,066;    1,182;   -0,591
1046,350; 2783,611;    1,364;   -0,409
1046,895; 2736,793;    2,909;    1,591
1047,440; 2695,520;    5,364;    0,409
1047,985; 2589,066;    2,818;   -0,955
1048,530; 2505,702;    1,545;    1,227
1049,074; 2577,702;    0,000;    0,318
1049,619; 2554,066;   -1,364;    1,955
1050,164; 2354,884;    0,455;    0,227
1050,708; 2389,611;   -0,455;    0,045
1051,253; 2761,793;    1,273;   -2,227
1051,797; 2470,429;    0,818;   -1,318
1052,342; 2485,975;   -1,182;    1,045
1052,886; 2495,429;    0,364;   -1,409
1053,430; 2364,157;   -1,364;    0,136
1053,975; 2379,611;   -0,818;   -0,318
1054,519; 2360,793;   -0,727;    3,227
1055,063; 2362,157;    0,909;    1,318
1055,607; 2245,884;   -0,182;    0,227
1056,151; 2277,884;    2,909;    1,682
1056,695; 2198,702;    2,273;   -1,136
1057,239; 2270,066;   -1,727;   -0,682
1057,783; 2264,702;    0,818;   -1,500
1058,327; 2200,884;    0,000;    1,409
1058,871; 2420,793;   -0,545;    1,318
1059,415; 2146,793;   -0,818;   -0,045
1059,958; 2405,338;    1,455;    2,591
1060,502; 2117,520;   -1,000;   -0,773
1061,046; 2034,338;    0,364;   -0,955
1061,589; 2023,066;   -3,000;   -1,136
1062,133; 1872,429;   -1,273;    1,864
1062,676; 1813,611;    1,182;    0,864
1063,220; 1819,247;    1,091;    0,500
1063,763; 1852,247;    0,909;    1,136
1064,306; 1942,338;   -0,909;    1,864
1064,849; 1814,702;   -0,909;    0,591
1065,393; 1821,429;    2,000;   -1,500
1065,936; 1932,338;    0,182;   -0,409
1066,479; 1813,066;   -1,455;    1,318
1067,022; 1844,793;   -0,273;   -0,227
1067,565; 1736,338;   -0,091;   -1,318
1068,108; 1767,520;    0,727;   -0,591
1068,651; 1752,520;   -0,636;    1,409
1069,194; 1672,157;   -0,455;   -1,682
1069,736; 1663,793;   -1,273;    0,955
1070,279; 1646,066;   -1,364;   -0,500
1070,822; 1708,429;   -2,000;   -0,318
1071,364; 1798,338;   -0,364;    1,318
1071,907; 1616,884;   -0,727;    3,227
1072,450; 1500,157;    0,000;   -0,045
1072,992; 1496,066;   -0,273;    3,136
1073,535; 1649,611;    2,091;    2,136
1074,077; 1429,429;   -0,727;    2,045
1074,619; 1392,429;   -1,364;    0,591
1075,161; 1441,520;   -1,091;    1,500
1075,704; 1629,611;    1,545;    1,227
1076,246; 1419,066;   -0,182;    0,682
1076,788; 1345,975;   -0,364;    1,773
1077,330; 1423,157;    1,273;    2,136
1077,872; 1386,247;    0,909;    0,955
1078,414; 1611,520;    2,727;    0,773
1078,956; 1332,338;    1,273;   -0,227
1079,498; 1589,793;    1,636;    0,318
1080,040; 1296,884;    1,909;   -1,318
1080,581; 1238,611;    1,636;   -0,318
1081,123; 1160,520;    0,091;   -0,773
1081,665; 1219,975;   -1,182;   -0,955
1082,206; 1521,338;    1,364;   -0,500
1082,748; 1379,429;    0,727;    2,045
1083,289; 1257,157;   -2,000;    1,318
1083,831; 1158,338;   -0,545;    0,227
1084,372; 1192,157;    0,000;    0,591
1084,913; 1209,157;    1,091;    0,864
1085,455; 1170,702;   -1,909;   -2,045
1085,996; 1142,247;   -2,273;    0,136
1086,537; 1152,793;   -0,091;    0,864
1087,078; 1189,066;   -0,909;   -2,136
1087,619; 1227,429;   -1,273;    0,227
1088,160; 1143,611;    0,000;    1,318
1088,701; 1131,157;   -1,091;    0,682
1089,242; 1070,157;    1,364;   -2,227
1089,783; 1170,793;   -0,273;    1,409
1090,324; 1144,702;    0,455;    0,682
1090,865; 1019,611;    2,727;   -0,409
1091,405;  991,157;    0,727;    2,227
1091,946; 1006,702;    0,182;   -0,955
1092,487;  926,429;    0,818;   -1,409
1093,027; 1092,520;   -1,364;   -1,500
1093,568;  943,611;   -0,364;    1,227
1094,108; 1049,975;    0,273;    1,773
1094,649;  987,157;   -1,182;    0,136
1095,189;  925,520;   -0,636;   -0,682
1095,729;  883,066;   -0,091;    0,955
1096,269;  887,702;    0,727;   -0,955
1096,810; 1211,611;   -1,364;    0,500
1097,350; 1022,975;    1,364;   -0,773
1097,890;  920,066;    0,364;    1,227
1098,430; 1183,611;    2,364;    2,864
1098,970; 1057,157;    2,182;    1,682
1099,510;  910,884;    0,545;   -2,318
1100,050;  841,338;    1,000;   -1,591
1100,589;  799,247;   -0,727;   -0,318
1101,129;  919,429;    0,818;   -0,955
1101,669; 1087,793;    1,727;    2,136
1102,209;  900,066;   -0,091;    2,227
1102,748;  857,157;    0,000;    0,955
1103,288;  846,520;    1,273;   -1,227
1103,827;  869,520;    3,091;   -2,227
1104,367;  749,702;   -0,091;   -2,409
1104,906;  714,702;    1,364;   -1,136
1105,445;  783,975;    0,636;   -1,136
1105,985;  728,338;   -0,727;    1,500
1106,524;  784,066;   -1,727;   -0,682
1107,063;  750,884;   -2,727;    1,409
1107,602;  729,066;   -1,909;   -1,500
1108,141;  645,157;   -1,909;    1,500
1108,680;  759,157;   -3,455;   -0,591
1109,219;  682,066;   -0,909;   -0,500
1109,758;  689,611;    0,455;    0,682
1110,297;  662,702;    1,000;   -0,682
1110,836;  598,429;   -0,727;    0,955
1111,375;  770,975;   -2,545;    0,409
1111,913;  780,066;   -1,000;    0,773
1112,452;  702,157;   -0,273;    0,136
1112,991;  597,702;    1,091;    1,955
1113,529;  563,611;   -0,818;   -0,045
1114,068;  633,884;   -0,273;    2,955
1114,606;  531,247;   -0,364;   -0,955
1115,144;  697,702;   -1,273;    1,045
1115,683;  629,884;   -0,727;    0,318
1116,221;  674,429;   -0,455;   -0,864
1116,759;  589,884;    0,636;   -0,864
1117,297;  792,702;    0,000;    1,864
1117,836;  583,157;   -2,182;   -1,227
1118,374;  601,338;    0,182;   -0,682
1118,912;  537,247;    0,909;    2,682
1119,450;  533,338;    1,000;    0,864
1119,988;  585,975;    1,545;    2,136
1120,525; 1039,338;    5,091;    3,318
1121,063;  748,157;    1,182;    1,864
1121,601;  540,338;   -0,909;   -1,227
1122,139;  495,702;   -0,727;   -2,045
1122,676;  695,066;   -0,727;    2,773
1123,214;  633,884;   -1,182;    4,409
1123,751;  435,066;    1,727;    2,227
1124,289;  574,702;   -0,091;   -0,409
1124,826;  429,884;    1,727;    0,227
1125,364;  354,884;    1,727;   -0,955
1125,901;  553,611;    1,182;    1,227
1126,438;  680,066;    0,818;    0,955
1126,975;  394,520;   -0,727;   -0,773
1127,513;  455,520;    0,273;    2,136
1128,050;  360,157;    1,636;   -0,682
1128,587;  466,066;    2,000;   -0,227
1129,124;  504,611;    0,091;    1,318
1129,661;  366,611;    0,273;    0,227
1130,198;  542,066;    1,636;    0,773
1130,734;  494,884;    0,182;    1,409
1131,271;  337,611;   -0,909;    0,864
1131,808;  512,157;    2,909;    3,045
1132,345;  388,884;    1,545;    0,318
1132,881;  255,157;   -1,545;   -1,864
1133,418;  402,611;    0,727;   -1,136
1133,954;  336,975;    2,455;   -2,682
1134,491;  411,884;    1,364;   -0,773
1135,027;  303,702;    2,364;    0,864
1135,564;  392,157;    0,273;    2,955
1136,100;  377,247;    0,364;    2,136
1136,636;  270,884;   -1,273;   -1,045
1137,172;  364,338;    0,000;   -1,045
1137,708;  281,793;   -1,364;   -1,045
1138,245;  289,520;    1,273;   -1,227
1138,781;  238,157;    1,091;   -3,318
1139,317;  314,975;    1,273;   -1,409
1139,852;  300,975;    3,091;    0,136
1140,388;  423,338;   -1,182;   -0,409
1140,924;  299,338;   -1,091;   -2,227
1141,460;  232,338;   -1,636;    0,136
1141,996;  160,429;   -1,364;    2,682
1142,531;  209,520;    1,364;    3,318
1143,067;  438,884;    1,182;    1,045
1143,602;  498,975;   -0,091;   -0,318
1144,138;  338,157;   -2,636;    1,045
1144,673;  205,702;   -1,455;    1,409
1145,209;  270,338;   -1,909;   -0,318
1145,744;  189,793;   -0,727;    0,864
1146,279;  326,975;    1,818;   -0,136
1146,815;  242,975;    1,545;   -2,682
1147,350;  286,429;   -1,364;    0,045
1147,885;  190,247;   -0,818;   -1,318
1148,420;  189,429;   -2,273;    0,773
1148,955;  175,338;   -1,727;    1,864
1149,490;  199,975;   -0,909;   -1,591
1150,025;  181,066;    0,455;   -1,773
1150,560;  296,429;    1,091;   -0,955
1151,094;  262,884;    1,455;   -0,591
1151,629;  269,157;    1,636;    0,864
1152,164;  202,520;    1,364;    1,318
1152,698;  157,702;   -0,182;   -0,136
1153,233;  111,429;    0,091;   -0,682
1153,767;  157,611;   -3,000;   -2,318
1154,302;  210,702;   -1,455;    1,773
1154,836;  213,157;   -0,455;   -2,136
1155,371;  256,793;   -1,364;    3,682
1155,905;  211,702;   -0,636;    1,682
1156,439;  176,247;   -0,636;   -0,500
1156,973;  204,884;    0,364;    0,318
1157,507;  149,429;   -0,364;    0,682
1158,042;  185,702;   -0,727;    1,045
1158,576;  226,611;    0,182;    1,773
1159,110;  213,247;   -0,818;    2,409
1159,643;  183,429;    0,636;   -0,045
1160,177;  115,520;   -1,545;    1,500

