
Integration time [ms]:   0,040
Averaging Nr. [scans]: 11
Smoothing Nr. [pixels]: 0
Data measured with spectrometer [name]: 7318044SP
Wave   ;Sample   ;Dark     ;Reference
[nm]   ;[counts] ;[counts] ;[counts] 

186,757;    8,105;   31,551;    1,318
187,357;   32,039;   22,551;    0,955
187,958;    9,749;   15,460;   -1,591
188,558;   45,189;    8,915;   -1,227
189,159;   13,959;    6,733;   -4,500
189,759;   -8,894;    7,278;   -3,591
190,360;  -10,263;    2,824;   -2,136
190,960;   23,575;    2,915;   -4,136
191,560;   24,798;    3,189;   -6,591
192,161;  236,366;    4,372;   -3,500
192,761;   99,674;    4,010;   -3,227
193,361;   36,818;    1,556;   -3,773
193,962;   73,701;    2,010;   -2,682
194,562;   13,020;    1,189;   -3,955
195,162;   21,206;   -2,448;   -2,227
195,762;  133,086;   -3,176;   -0,045
196,362;   86,039;    1,370;   -2,500
196,963;    5,404;    2,006;   -0,864
197,563;   44,465;    1,551;   -0,955
198,163;   10,896;    0,096;   -0,682
198,763;   16,593;    1,733;   -0,500
199,363;   65,754;    3,096;   -0,500
199,963;   30,051;    0,369;    0,409
200,563;   20,039;    2,823;   -1,409
201,163;    0,583;    3,277;   -0,227
201,763;   33,656;    3,732;    0,318
202,363;    3,747;    1,459;    1,500
202,963;   39,141;    1,459;    1,045
203,563;   88,769;    0,277;    0,500
204,162;   24,602;    2,096;   -1,864
204,762;   12,484;    0,550;    0,591
205,362;  -14,063;    3,004;    1,955
205,962;   18,670;    3,096;    1,955
206,562;   18,299;    1,823;    2,318
207,161;   -2,780;   -0,087;    0,318
207,761;   77,786;    1,277;    2,409
208,361;    8,245;   -0,268;    1,409
208,960;   24,617;    0,459;    1,500
209,560;   22,040;    1,277;    1,591
210,160;   41,081;    0,550;    1,864
210,759;   19,531;    4,186;    1,227
211,359;    9,640;    1,459;    1,045
211,958;  100,273;    1,277;    2,045
212,558;  106,525;    1,732;    1,864
213,157;   45,390;    1,822;    1,500
213,757;  184,480;    3,822;   -0,227
214,356;   65,181;    1,277;   -0,409
214,956;  153,681;    3,095;    0,409
215,555;   47,771;    2,095;    2,136
216,154;   12,439;   -2,723;   -0,591
216,754;   14,977;    0,277;    0,773
217,353;   27,324;   -0,268;   -1,045
217,952;  -19,185;   -0,178;    0,318
218,552;   44,364;    1,368;   -0,773
219,151;   11,984;    0,277;    0,955
219,750;   -1,884;    0,004;   -0,227
220,349;  -11,104;   -0,451;    1,045
220,948;   44,401;   -1,360;    1,136
221,548;   -1,203;    0,913;    1,227
222,147;    9,901;   -0,087;   -0,409
222,746;   83,845;   -0,451;   -0,955
223,345;   33,136;    0,731;    0,500
223,944;   26,581;   -0,451;    0,773
224,543;   27,898;    1,004;   -1,409
225,142;   21,449;    0,094;    0,136
225,741;   23,575;   -0,814;    1,045
226,340;   26,351;   -0,451;   -0,955
226,939;   74,167;   -0,996;   -0,136
227,538;   19,595;   -0,360;   -0,773
228,137;   81,834;   -0,814;    0,864
228,735;   50,012;   -0,541;    1,227
229,334;  -20,177;   -0,905;   -0,227
229,933;   73,529;    0,459;    0,591
230,532;   69,122;    1,186;   -0,409
231,131;  116,489;    1,732;    0,318
231,729;   46,057;   -2,450;   -2,318
232,328;   10,833;   -0,723;   -1,500
232,927;   30,708;    1,004;   -0,500
233,525;   15,528;    3,640;    0,045
234,124;   30,273;    2,368;   -1,591
234,723;    4,938;    0,913;   -1,045
235,321;   -2,854;    2,277;    0,136
235,920;    7,879;    1,186;   -1,227
236,518;   82,541;    3,459;    0,318
237,117;    8,769;    0,004;   -0,227
237,715;   17,068;    0,640;   -0,500
238,314;   25,133;   -0,087;   -2,318
238,912;   76,528;   -0,723;   -1,409
239,510;   43,423;    0,459;   -1,227
240,109;   79,802;    0,004;    3,773
240,707;   68,698;   -0,996;    1,227
241,305;    4,391;    0,550;    0,136
241,904;   31,572;   -0,178;   -2,045
242,502;   99,401;   -0,632;   -0,227
243,100;   46,515;   -0,087;   -0,955
243,698;    0,086;    0,732;    1,682
244,297;   26,008;   -0,632;    0,682
244,895;   24,684;   -0,269;   -2,318
245,493;   90,416;    2,186;   -0,591
246,091;  102,643;    1,368;   -1,318
246,689;   51,367;    1,004;    0,591
247,287;   36,150;    0,822;   -1,136
247,885;   24,222;   -1,451;    1,227
248,483;   10,387;    1,822;   -0,500
249,081;   51,804;    0,185;    1,591
249,679;   63,003;   -0,178;    1,682
250,277;    9,742;   -1,723;    0,864
250,875;   47,882;   -1,087;   -1,045
251,473;   12,713;   -1,178;    0,500
252,071;   51,115;    1,459;    1,045
252,669;   22,126;   -1,814;    0,318
253,267;    2,431;   -0,087;    0,773
253,864;   21,604;   -0,360;    0,682
254,462;   66,211;    1,640;    1,591
255,060;    3,011;   -0,269;    1,318
255,658;   -0,328;    0,822;   -0,136
256,255;   18,510;    0,186;   -2,045
256,853;   35,858;   -0,269;    1,409
257,451;   14,409;    0,822;    1,864
258,048;  177,482;    1,822;    1,864
258,646;   65,389;    1,731;   -1,045
259,243;  108,313;   -0,087;    2,227
259,841;   55,644;   -0,814;    0,318
260,438;    8,194;   -0,087;    0,864
261,036;   49,589;   -1,905;    1,409
261,633;    4,588;   -0,087;    2,227
262,231;   -1,217;    2,731;   -0,045
262,828;   -3,800;   -0,905;    1,136
263,425;    8,838;    0,913;   -0,591
264,023;    5,284;    0,186;    0,045
264,620;   50,200;   -0,360;   -0,318
265,217;   92,221;   -2,087;    3,136
265,815;   19,615;   -1,905;    2,136
266,412;   40,410;    0,731;    0,136
267,009;   34,042;   -1,451;    0,773
267,606;   66,298;    0,822;   -0,955
268,203;   10,726;   -0,269;   -0,591
268,801;   20,245;    1,731;    0,591
269,398;   -2,463;   -0,360;    2,500
269,995;   33,200;    0,277;    1,591
270,592;   19,763;   -0,632;   -0,500
271,189;   -2,341;    0,186;    0,409
271,786;   -9,127;   -0,632;    1,227
272,383;   52,051;   -1,087;    0,227
272,980;   12,017;    0,277;    0,318
273,577;   -0,734;    0,004;    1,227
274,174;   -7,870;    0,822;    2,591
274,771;   40,763;   -0,814;   -0,773
275,367;  198,626;    2,277;    1,409
275,964;   90,005;    0,731;   -0,500
276,561;    8,410;    1,549;   -1,045
277,158;   -9,088;    0,095;   -1,773
277,755;   76,804;    2,185;    0,409
278,351;   47,567;   -0,451;   -1,500
278,948;   60,315;   -0,815;    0,045
279,545;   38,394;   -1,360;    2,318
280,141;   75,758;   -1,723;   -2,045
280,738;   81,119;   -0,451;   -0,136
281,334;   17,991;   -1,633;    0,591
281,931;    9,715;   -0,087;   -1,318
282,528;   55,456;    0,822;   -0,500
283,124;   78,393;   -1,087;   -0,500
283,721;   74,701;   -0,451;    1,409
284,317;   27,146;    0,185;    2,500
284,913;   80,768;   -1,360;    0,591
285,510;  135,677;    0,640;   -0,318
286,106;   89,689;   -2,269;   -0,955
286,703;   40,909;   -0,360;    1,955
287,299;   18,644;   -1,451;   -0,591
287,895;   22,232;    0,822;   -1,045
288,491;    5,991;    0,186;    2,136
289,088;   40,356;   -2,360;    2,409
289,684;   48,217;   -1,723;    1,500
290,280;  104,293;    0,368;    0,682
290,876;   87,256;    1,822;    5,500
291,472;   56,489;    1,276;    2,227
292,068;   63,242;    1,367;    0,227
292,665;   31,826;    2,095;    0,773
293,261;    1,212;    0,276;    2,136
293,857;   55,195;    2,913;    2,136
294,453;   19,344;    3,550;    0,955
295,049;  107,754;   -0,268;    1,955
295,644;   48,369;    0,095;    0,136
296,240;    2,185;   -0,905;   -0,136
296,836;   38,924;   -0,995;    0,318
297,432;   69,163;    1,096;   -0,500
298,028;   75,317;    0,732;    0,773
298,624;   41,389;    1,459;    1,864
299,220;   28,962;    2,368;    0,591
299,815;   23,614;    1,005;   -0,409
300,411;   61,299;    0,914;    1,773
301,007;   81,034;    1,368;    0,227
301,602;   17,991;   -0,541;   -2,318
302,198;   70,634;    0,732;   -0,773
302,794;   27,465;    1,187;   -0,500
303,389;   -5,888;   -1,177;    1,045
303,985;    8,001;    0,550;    1,409
304,580;   62,734;    1,459;    1,591
305,176;   23,359;   -3,086;    0,136
305,771;  -25,123;   -1,268;   -1,227
306,367;  142,780;    4,095;    0,136
306,962;   53,718;    0,641;    1,500
307,558;   73,019;   -0,450;    0,136
308,153;   54,090;    1,095;   -1,136
308,748;   -1,509;   -0,814;    1,682
309,344;  128,812;   -0,632;   -1,318
309,939;  116,720;   -1,905;   -1,318
310,534;   26,857;   -0,086;   -1,682
311,130;   14,194;    0,459;   -2,500
311,725;    0,132;    1,004;   -0,500
312,320;   19,694;    2,459;    0,045
312,915;   48,315;    1,459;   -1,045
313,510;  127,258;    1,550;   -0,500
314,105;   31,866;    1,096;    1,409
314,700;   -4,105;   -3,086;   -1,045
315,295;   15,461;   -0,904;    0,045
315,890;    7,529;    1,277;    0,864
316,485;   43,685;   -0,359;   -0,318
317,080;    5,089;   -3,086;    1,591
317,675;  125,879;    2,005;   -0,682
318,270;  223,925;    5,550;    3,318
318,865;  144,648;    3,278;    3,045
319,460;   86,686;   -0,904;    0,591
320,055;   22,766;   -0,541;   -1,227
320,650;   18,171;   -1,995;   -0,591
321,244;   23,602;   -0,177;   -1,409
321,839;   16,361;   -1,541;   -0,227
322,434;   31,875;   -1,086;   -1,591
323,029;   18,792;    1,732;    1,591
323,623;    6,128;    1,550;    0,773
324,218;  103,040;    2,368;    1,409
324,812;   50,196;    1,096;    1,591
325,407;   50,141;   -0,814;    2,045
326,002;  117,844;    0,277;   -0,409
326,596;   78,612;    0,914;    1,318
327,191;   23,644;    0,823;   -1,045
327,785;   30,793;   -0,813;   -0,227
328,379;   11,494;    1,368;    0,136
328,974;   20,980;    0,914;   -3,955
329,568;   37,322;    0,186;   -2,409
330,163;   69,468;    2,096;    1,045
330,757;   13,937;    2,459;    1,591
331,351;   -4,435;    0,459;    0,682
331,945;   -5,266;    0,914;    1,409
332,540;   36,750;   -1,723;   -0,591
333,134;   28,731;   -1,086;    0,773
333,728;   47,355;    0,005;    0,318
334,322;   -6,846;   -1,177;   -0,864
334,916;   -1,443;    0,277;    0,955
335,510;   64,135;   -0,450;   -0,136
336,105;   47,190;   -1,086;    1,591
336,699;   10,307;   -1,086;    0,591
337,293;   28,337;   -1,723;    0,318
337,887;    2,452;   -2,723;    1,955
338,481;   52,596;    0,459;    0,591
339,074;   92,553;   -0,359;    2,682
339,668;   79,686;   -1,632;    1,227
340,262;  335,857;    1,732;    3,227
340,856;  139,743;    1,822;   -0,682
341,450;   19,835;    1,004;    1,864
342,044;   38,337;    1,459;    0,136
342,637;   81,347;    0,913;   -2,136
343,231;   40,290;   -2,360;    0,682
343,825;   26,939;   -1,086;   -0,591
344,419;   27,756;   -1,995;    0,500
345,012;  271,573;    2,459;    4,045
345,606;  166,429;    4,641;    1,591
346,199;   38,504;   -1,813;   -0,227
346,793;   78,728;    1,914;    2,045
347,386;   18,888;   -0,813;   -1,136
347,980;  -16,284;   -0,268;   -0,045
348,573;   19,081;    2,278;    0,409
349,167;  178,166;    5,278;    4,773
349,760;   83,296;    2,914;    2,682
350,354;   66,067;   -0,813;    1,136
350,947;   88,356;    1,096;    1,682
351,540;   41,380;   -0,358;   -1,409
352,134;   -3,945;    1,096;    1,136
352,727;    6,970;   -0,086;    1,136
353,320;    9,741;    0,005;    0,591
353,913;  -18,388;   -1,995;    1,864
354,507;   72,266;    0,823;   -1,227
355,100;   10,063;    0,460;    0,864
355,693;  231,475;    2,005;    2,409
356,286;  109,415;    0,823;    2,773
356,879;   43,121;   -0,722;    1,227
357,472;   41,618;   -0,904;    1,500
358,065;   54,075;   -0,722;    2,500
358,658;   -8,155;   -0,540;    2,318
359,251;   -5,602;   -1,631;   -0,591
359,844;   76,336;   -1,904;   -1,136
360,437;  100,584;   -2,995;    0,045
361,030;   22,184;    1,369;   -0,682
361,623;   33,391;    2,824;    0,318
362,215;  147,004;   -0,086;    2,045
362,808;   53,026;   -2,358;   -1,682
363,401;   18,604;   -2,449;    0,136
363,994;  134,994;   -0,631;   -1,500
364,586;   38,830;    0,824;   -1,500
365,179;   12,615;   -0,449;   -1,136
365,772;  -28,262;   -1,995;    2,045
366,364;   21,864;    1,915;   -3,227
366,957;   45,244;    2,279;   -0,045
367,549;   20,959;    2,188;   -0,864
368,142;   35,142;    1,825;   -1,500
368,734;    5,720;    0,734;   -2,136
369,327;  -18,894;    1,643;   -0,500
369,919;    9,319;   -1,538;    0,409
370,512;   12,723;   -1,083;   -0,500
371,104;  203,381;   -0,901;    1,591
371,696;  217,590;    1,191;   -0,955
372,289;  113,422;    0,373;    1,136
372,881;   78,619;   -2,080;    1,318
373,473;    0,829;   -2,170;    1,136
374,066;   54,656;   -0,169;    0,500
374,658;   42,924;    0,378;    1,136
375,250;  -10,859;    0,653;   -1,409
375,842;   29,435;    0,473;   -0,045
376,434;  -11,751;   -0,435;   -0,409
377,026;  -32,892;    0,204;   -2,500
377,618;    6,583;   -0,158;   -0,682
378,210;  -50,656;   -0,338;   -1,955
378,802;  -57,988;    0,754;   -0,591
379,394;  309,298;    1,846;    0,682
379,986;   64,277;    1,393;   -0,955
380,578;  -25,129;   -0,153;    0,773
381,170;  214,707;   -0,972;    0,045
381,762;  130,809;    0,755;    1,409
382,354;   93,011;   -0,065;   -1,318
382,945;   11,619;   -2,976;    0,318
383,537;  -17,641;   -2,705;   -1,955
384,129;  -17,420;   -2,160;   -1,136
384,721;   93,936;   -0,252;    0,955
385,312;   33,199;   -0,161;   -0,955
385,904;  105,514;   -2,706;    1,591
386,496;   27,028;   -0,979;    1,045
387,087;  151,807;    1,022;    2,500
387,679;   91,339;   -1,160;    0,045
388,270;   56,529;    2,840;    2,045
388,862;   33,618;    1,295;   -0,318
389,453;   28,946;   -0,887;    1,045
390,045;   29,096;   -0,705;   -2,682
390,636;  -78,306;    0,204;   -0,591
391,227;  -15,001;   -0,523;   -0,045
391,819;  -43,485;    0,204;    0,773
392,410;  203,388;    1,022;    0,045
393,001;   31,767;   -0,979;   -1,591
393,593;   79,943;    1,930;   -0,045
394,184;  129,319;    1,385;   -0,409
394,775;   21,173;    1,839;    2,136
395,366;  -54,443;    1,385;    0,773
395,957;   97,063;    0,113;    0,136
396,548;   -3,207;   -0,342;    2,682
397,139;   91,285;   -2,433;    0,591
397,730;   20,336;   -1,888;    0,955
398,321;   39,241;   -1,252;    0,955
398,912;  -15,244;   -0,615;    0,136
399,503;  -22,674;   -3,524;   -1,409
400,094;   21,506;    0,294;    1,682
400,685;   14,985;   -0,433;    0,045
401,276;  -22,135;    0,930;   -0,955
401,867;  -45,248;   -0,888;    0,773
402,458;  -84,082;   -2,251;   -2,318
403,048;   41,232;    1,112;    0,591
403,639;   -0,153;    0,840;    0,864
404,230;   93,089;    2,476;    0,318
404,821;  154,507;   -0,615;    0,045
405,411;   62,695;    1,203;   -2,591
406,002;   -8,729;   -1,252;   -1,136
406,592;  187,452;    2,294;    0,045
407,183;   69,511;    0,566;   -1,500
407,774;   45,706;    3,475;   -0,136
408,364;    7,369;    0,930;    0,409
408,954;  112,832;    0,384;    1,227
409,545;  113,185;    1,021;    1,045
410,135;   75,831;    1,293;    0,500
410,726;   22,679;    1,838;    0,318
411,316;  193,336;    0,111;    0,773
411,906;   52,629;   -0,253;   -0,409
412,497;   60,436;   -1,070;   -0,045
413,087;    8,233;   -1,980;   -0,227
413,677;  -56,016;   -0,707;    3,864
414,267;  -62,608;    0,656;    1,409
414,857;  -83,041;   -2,980;    4,227
415,448;  -75,626;    0,839;    0,500
416,038;  -40,667;    0,020;   -0,591
416,628;   -9,118;   -0,889;    0,409
417,218;   37,719;    0,565;    3,318
417,808;  182,923;    0,202;   -0,409
418,398;   69,594;    0,020;    2,682
418,988;  -33,874;    2,020;    0,591
419,578;   56,974;   -0,707;    1,409
420,168;   -8,273;   -1,343;   -0,955
420,757;  123,860;   -1,343;   -1,500
421,347;   24,387;    0,111;   -0,227
421,937;   -3,592;    2,292;    1,409
422,527;  119,273;    0,838;   -0,773
423,116;  253,531;   -0,253;   -0,045
423,706;   -4,454;   -1,889;    0,318
424,296;  -44,006;    1,384;    0,682
424,885;   73,630;   -0,071;   -3,045
425,475;   43,775;    1,474;   -2,864
426,065;  -54,292;   -0,980;   -0,318
426,654;  -66,717;   -0,435;   -0,318
427,244;  174,185;    0,020;    1,409
427,833;  143,069;    1,383;   -0,500
428,423;   18,485;   -0,526;    1,136
429,012;   24,764;   -0,344;   -1,136
429,601;  145,482;   -1,344;    0,136
430,191;   48,602;    1,292;    4,318
430,780;  -37,631;   -0,344;   -0,409
431,369;  136,395;    0,746;   -0,045
431,959;   23,990;   -1,254;    0,500
432,548;  -31,422;   -1,163;   -0,045
433,137;  -86,652;   -1,254;   -1,318
433,726;  -30,139;    0,292;    0,500
434,315;    4,953;   -0,526;    2,409
434,905;  104,765;   -1,254;    1,409
435,494;   99,816;    0,746;    0,955
436,083;  -22,698;   -0,981;   -0,955
436,672;   66,982;    0,110;    0,500
437,261;   18,575;    0,292;   -1,955
437,850;  234,599;    1,383;    0,682
438,439;  278,882;    3,291;    1,955
439,027;  382,002;    3,655;    1,773
439,616;  306,288;    2,927;    1,227
440,205;  101,188;    0,200;   -2,136
440,794;   50,578;    2,109;   -0,045
441,383;  -10,999;   -1,346;   -0,591
441,971;  -38,014;   -2,436;    0,591
442,560;  -29,077;    0,563;   -1,773
443,149; -110,028;    0,379;   -1,318
443,737;  -68,408;   -0,074;   -2,318
444,326;  -45,885;    0,018;    0,318
444,915;    7,856;   -1,982;    0,864
445,503;    0,998;   -2,891;   -0,318
446,092;  247,754;    0,382;    2,136
446,680;  184,899;    0,382;    0,318
447,269;   98,628;   -0,346;   -0,318
447,857;   83,245;    0,018;   -1,773
448,445;   44,302;    0,563;    1,318
449,034;  -19,234;   -1,528;   -1,136
449,622;   -7,230;   -1,073;    3,500
450,210;  255,471;    2,017;    2,227
450,799;  180,405;    0,290;   -0,591
451,387;  135,193;    1,381;   -0,591
451,975;  116,607;    2,654;    0,864
452,563;  196,602;    3,472;    2,318
453,151;   29,707;   -0,528;   -1,227
453,739;   75,459;   -1,347;    0,136
454,328;  172,381;    2,381;   -2,136
454,916;  109,288;    2,562;   -0,136
455,504;  121,629;    1,017;    1,227
456,092;   17,341;    0,017;   -1,591
456,679;  -11,861;    1,472;    0,682
457,267;  385,393;    4,017;    1,045
457,855;   76,495;    1,017;    1,409
458,443;  -59,236;   -0,165;    1,682
459,031;   94,255;    0,108;    2,409
459,619;   52,086;   -1,801;    2,864
460,206;  -34,123;    0,835;    2,045
460,794;  -34,495;   -2,983;   -0,227
461,382;   12,099;   -0,529;   -0,864
461,970;   16,945;    1,198;    1,864
462,557;  -55,576;   -0,711;   -0,682
463,145;   51,989;   -3,165;   -1,682
463,732;  281,195;    2,016;   -1,045
464,320;   71,495;   -0,075;   -3,045
464,907;  203,795;    2,743;   -0,773
465,495;  118,027;    0,743;   -1,227
466,082;   44,516;   -1,984;   -0,045
466,670;   69,803;   -2,529;    1,227
467,257;  -28,615;   -1,711;    2,045
467,844;   59,721;   -0,075;    0,045
468,432;   41,131;    0,834;    3,500
469,019;    8,291;    0,925;   -1,773
469,606;   87,838;    0,470;    3,682
470,193;  118,028;   -1,439;    0,227
470,780;   66,892;   -2,075;    0,864
471,368;    1,170;   -1,257;   -0,773
471,955;  109,046;    1,379;   -0,682
472,542;   66,990;    0,652;   -1,136
473,129;  -43,963;   -0,166;    0,136
473,716;  -31,475;    1,470;    0,591
474,303;    0,078;    0,652;   -0,864
474,890;    5,915;   -1,439;   -0,500
475,477;  102,931;   -1,621;    0,409
476,064;   13,217;    1,106;   -1,591
476,650;  128,669;    0,288;    0,318
477,237;   43,123;   -0,258;    0,955
477,824;   22,086;   -1,076;    0,864
478,411;  -68,201;   -1,894;   -0,318
478,997;  -68,664;    0,560;   -0,773
479,584; -114,860;    1,196;   -0,409
480,171;   47,188;   -0,440;   -0,773
480,757;  111,862;    2,651;    0,773
481,344;    7,345;    0,469;    0,409
481,931;  -72,121;    1,105;    1,045
482,517;   44,302;   -1,258;    0,318
483,104;  122,018;    1,106;    2,864
483,690;   -1,062;   -1,804;    0,045
484,276;  -22,861;   -0,895;    0,227
484,863;  175,820;    2,469;    1,136
485,449;   36,750;   -0,077;    0,318
486,035;   -5,750;   -1,986;   -0,136
486,622;   80,629;   -0,895;    0,045
487,208;    0,284;    1,378;    1,500
487,794;  -76,706;    0,741;    0,318
488,380;  -71,768;    0,105;   -1,409
488,967;  -71,537;   -1,168;   -0,409
489,553;  -50,290;   -1,895;   -1,409
490,139;   20,231;    1,559;    0,773
490,725;  -49,206;    0,741;   -0,227
491,311;   -2,437;    3,287;    3,045
491,897;  -16,063;   -0,986;    1,500
492,483;  -11,366;    0,105;    1,227
493,069;  402,557;    3,923;    0,864
493,655;  130,202;    1,650;    0,682
494,241;    5,244;    1,377;   -0,955
494,826;   11,252;    0,287;   -1,045
495,412;   79,647;    2,559;   -0,682
495,998;   -2,624;   -0,805;   -0,318
496,584;   52,633;    0,377;    1,045
497,169;   63,733;    1,014;   -0,682
497,755;    1,558;    0,650;    1,227
498,341;  122,911;    0,559;    0,318
498,926;  247,028;    1,832;    1,955
499,512;   -3,019;    1,286;    2,955
500,097;   -4,960;    0,195;   -0,318
500,683;   12,724;   -0,350;    2,136
501,268;  -30,237;   -0,169;   -0,955
501,854;   -9,771;   -0,169;    1,227
502,439;  -25,943;   -0,624;   -1,773
503,024;   -0,046;    0,195;    0,500
503,610;   32,338;   -0,078;   -0,682
504,195;  -18,682;    0,558;    1,955
504,780;   65,413;    2,922;    1,227
505,366;  142,665;    3,013;    2,864
505,951;   76,025;    0,740;    1,045
506,536;    1,580;   -3,260;   -3,682
507,121;   57,750;    0,285;   -0,318
507,706;    9,943;    2,376;    1,045
508,291;  -33,426;    2,649;    1,136
508,876;  -38,287;   -0,988;    2,591
509,461;   -4,726;   -0,169;   -0,773
510,046;   39,200;    0,194;    0,318
510,631;   46,684;   -0,351;   -0,773
511,216;  -25,115;    2,467;   -0,500
511,801;   17,651;   -0,442;    2,591
512,386;   37,681;    0,740;    0,500
512,971;   54,873;   -2,988;    0,955
513,555;   85,682;   -0,897;   -1,500
514,140;   46,739;   -0,442;   -3,136
514,725;  145,187;   -0,715;   -1,136
515,309;   66,620;   -0,533;    0,318
515,894;  -15,779;   -0,624;   -2,227
516,479;   20,075;   -0,624;   -0,955
517,063;   20,679;    0,376;    1,227
517,648;  -21,852;    1,012;   -1,136
518,232;  -42,553;   -0,261;   -1,409
518,817;   38,059;   -0,079;    1,682
519,401;  125,733;    2,194;    0,591
519,985;  107,341;    1,103;    1,136
520,570;    6,256;    0,830;   -1,955
521,154;   91,729;    2,102;    0,591
521,738;  229,376;   -2,352;    2,409
522,323;  104,617;   -0,170;    1,682
522,907;  129,606;    0,466;   -0,136
523,491;   79,071;    0,557;    0,955
524,075;   82,774;    2,284;    0,591
524,659;  309,017;    1,466;    0,591
525,243;  302,154;    1,739;    0,409
525,827;  289,837;    0,648;   -0,045
526,411;  363,654;   -1,989;   -0,136
526,995;  582,931;   -0,352;    1,409
527,579;  760,701;   -0,443;   -1,045
528,163;  780,154;    0,375;   -1,500
528,747; 1095,681;    2,466;   -0,773
529,331; 1170,967;   -0,080;   -1,409
529,915; 1121,738;    1,738;    0,955
530,499; 1449,615;   -0,807;    1,227
531,082; 1793,603;   -0,534;    1,591
531,666; 2019,370;    1,374;    0,773
532,250; 2319,748;    1,284;    2,682
532,833; 2767,957;    0,920;    2,773
533,417; 2917,995;   -1,807;    0,864
534,001; 3246,459;    1,647;   -0,318
534,584; 3905,112;    0,374;    0,500
535,168; 4166,741;    0,465;    1,409
535,751; 4675,405;    0,647;    0,045
536,334; 4677,437;   -0,898;   -0,409
536,918; 5460,095;    0,011;    1,591
537,501; 5857,600;   -0,899;    1,318
538,085; 6250,988;   -0,444;    1,045
538,668; 6683,237;    0,829;    2,409
539,251; 7394,758;    1,829;    3,773
539,834; 7828,289;    0,101;    0,773
540,418; 8149,967;   -1,990;    4,318
541,001; 8529,270;   -0,990;    1,773
541,584; 8818,772;    2,101;    2,227
542,167; 8887,922;    1,374;    2,955
542,750; 9258,986;    1,919;   -0,773
543,333; 9178,983;    0,555;    2,136
543,916;10110,389;    0,192;    2,500
544,499;10789,030;   -1,354;    0,227
545,082;11076,828;    1,374;    3,591
545,665;11456,376;    1,919;    1,500
546,248;11944,892;    1,010;   -0,318
546,830;11878,842;   -0,445;    1,955
547,413;12408,439;    1,010;   -0,773
547,996;13020,364;    0,555;    0,500
548,579;12994,303;    0,919;    0,955
549,161;12993,282;    1,828;    2,682
549,744;12910,675;   -0,809;    0,409
550,326;13555,864;   -0,809;   -1,136
550,909;13517,065;    2,737;    0,591
551,492;14002,843;   -0,263;    0,227
552,074;13932,217;   -0,173;   -1,318
552,657;14565,371;    2,373;    0,045
553,239;14476,752;   -0,173;   -0,773
553,821;14491,862;   -1,082;    1,045
554,404;14127,608;    1,282;    1,136
554,986;14607,470;    0,464;    1,045
555,568;15225,851;    1,191;   -0,955
556,151;14587,191;    1,191;   -0,227
556,733;14842,906;   -0,264;   -0,864
557,315;15367,203;    0,100;    0,500
557,897;15192,521;    0,554;   -0,500
558,479;15367,378;   -1,991;    1,318
559,061;15620,941;   -0,719;   -0,864
559,643;15991,041;   -0,264;    0,045
560,225;16385,376;    1,645;    2,864
560,807;16439,495;    0,918;    0,318
561,389;15975,758;    0,554;    2,318
561,971;16748,441;    0,463;    2,136
562,553;16630,249;   -1,628;    1,591
563,135;16827,815;   -0,537;    1,136
563,717;16479,689;    3,372;    1,136
564,298;17141,574;    3,645;   -0,045
564,880;16991,789;    0,645;   -1,409
565,462;17160,062;    0,645;    1,318
566,043;18288,974;   -0,446;    2,318
566,625;17883,789;    1,918;    1,227
567,207;17755,036;    1,099;    1,682
567,788;18821,326;   -1,264;    1,500
568,370;19629,476;    1,917;   -0,500
568,951;19522,593;    0,190;    0,227
569,533;20384,799;   -0,628;   -0,500
570,114;20799,493;   -0,446;    0,682
570,695;21314,543;   -0,174;   -1,318
571,277;21759,495;   -0,265;   -1,682
571,858;22510,490;    2,008;   -1,136
572,439;23415,048;    1,554;   -1,045
573,021;23577,544;    2,099;   -2,773
573,602;24087,315;   -1,265;    0,318
574,183;24957,421;   -2,083;    2,227
574,764;25075,470;   -1,629;    0,409
575,345;25653,782;    0,917;   -0,136
575,926;26240,056;   -0,356;    0,136
576,507;26226,948;    1,099;   -0,227
577,088;27358,189;    3,099;    1,682
577,669;27408,862;    0,735;    1,955
578,250;28163,512;    0,644;   -1,045
578,831;28799,149;   -1,356;   -2,227
579,412;29046,020;   -0,810;    0,955
579,993;29998,363;    1,008;    0,227
580,573;30342,034;   -0,629;   -0,955
581,154;29375,170;    0,735;   -0,591
581,735;30249,373;    0,644;    0,773
582,315;29752,100;   -0,629;    2,136
582,896;30057,470;   -0,174;    1,227
583,477;29623,557;    0,189;    1,227
584,057;29819,968;    0,553;    0,955
584,638;30138,090;    2,553;    2,318
585,218;30180,961;   -0,538;    2,682
585,799;30373,327;    0,281;   -0,227
586,379;30361,916;    0,372;    1,591
586,959;29209,757;    0,735;    0,318
587,540;28583,589;   -0,629;    2,227
588,120;28186,358;    1,007;   -0,045
588,700;27262,488;    2,553;    2,136
589,281;27617,335;    0,462;   -0,955
589,861;27543,388;    0,099;   -1,682
590,441;27367,797;    2,371;   -2,682
591,021;26427,996;   -0,265;   -2,591
591,601;26670,195;   -0,537;    0,500
592,181;26715,667;   -0,719;   -0,773
592,761;26011,968;    0,007;    1,409
593,341;26026,358;   -0,901;    0,045
593,921;26095,521;   -0,265;    1,591
594,501;25938,425;   -0,538;    1,318
595,081;25820,545;    0,917;   -0,318
595,661;26249,008;   -1,447;    0,955
596,240;26780,409;   -0,537;    0,136
596,820;26376,372;    0,372;    1,955
597,400;26563,938;    2,008;    0,773
597,980;26798,502;    2,008;    1,045
598,559;26837,200;    2,735;   -0,227
599,139;26576,494;   -0,174;   -1,227
599,718;26476,585;   -0,174;   -0,409
600,298;26744,959;    0,735;    0,682
600,877;27023,513;    2,917;    1,409
601,457;27325,021;    2,281;    1,136
602,036;27164,828;    0,190;    2,045
602,616;27400,044;    0,644;    1,682
603,195;27781,836;   -0,355;    3,500
603,774;27388,644;   -0,901;    2,045
604,354;27204,256;    0,826;   -0,500
604,933;26752,457;    0,463;    1,864
605,512;26899,872;    3,554;    0,591
606,091;26994,052;   -0,537;    3,773
606,671;27842,721;    0,281;    0,773
607,250;26988,910;    1,644;    3,136
607,829;27154,281;    2,372;    3,227
608,408;27045,650;    1,190;    2,591
608,987;26093,629;    1,281;    3,409
609,566;26427,103;   -1,265;   -2,500
610,145;26541,884;   -1,082;    0,682
610,723;26949,839;    4,372;    6,864
611,302;26269,596;   -0,446;    1,682
611,881;25761,898;    5,008;   11,227
612,460;26583,423;    1,645;    3,955
613,039;27037,200;   -0,082;    2,045
613,617;25793,600;    1,736;    4,773
614,196;25987,363;    1,099;    1,227
614,775;26345,161;    1,009;    2,409
615,353;26256,636;    0,736;    0,864
615,932;26037,160;    0,100;    2,409
616,510;26631,612;    0,554;    0,591
617,089;26183,231;    7,100;   17,591
617,667;25952,073;    2,372;    6,136
618,246;25786,425;   -1,537;    1,318
618,824;25961,044;   -3,355;   -0,955
619,402;25578,957;   -2,900;   -1,773
619,981;26033,637;   -0,173;   -1,045
620,559;25894,664;    0,009;    1,682
621,137;25430,382;   -0,718;    1,864
621,715;25473,155;   -1,173;   -0,682
622,293;25422,892;   -0,537;   -0,773
622,871;25909,203;   -0,718;    0,500
623,450;25460,120;    0,373;   -0,864
624,028;25364,328;    0,191;   -0,955
624,606;25011,138;   -1,718;    1,682
625,183;25435,420;   -1,536;   -1,136
625,761;25040,326;    1,009;    1,136
626,339;25345,761;    1,373;    2,591
626,917;25765,795;   -0,172;   -0,045
627,495;25784,656;   -0,354;    1,318
628,073;25280,633;   -0,263;    2,864
628,650;24978,052;    0,100;    2,136
629,228;25392,319;    0,373;    4,409
629,806;24827,968;    2,282;    1,136
630,383;25116,330;    1,464;   -0,318
630,961;24874,272;    2,555;   -0,955
631,539;24691,291;    2,464;    0,227
632,116;23979,272;   11,373;   15,409
632,694;24550,610;    2,555;    6,500
633,271;24908,162;    0,828;    2,682
633,848;24864,758;    1,828;    2,045
634,426;24880,549;   -1,081;    1,773
635,003;23993,660;    1,101;   -0,409
635,580;24344,737;    1,192;    3,682
636,158;24928,261;    3,737;    1,227
636,735;24891,285;    0,555;   -0,500
637,312;25040,108;   -0,809;   -0,682
637,889;25123,136;   -4,354;   -0,682
638,466;24591,806;   -3,990;   -0,409
639,043;24600,369;    2,101;   -1,136
639,620;24935,516;   -2,262;   -0,955
640,197;25273,745;    1,100;    1,682
640,774;25397,890;   -0,172;    1,136
641,351;25806,399;    0,737;    1,136
641,928;25233,726;   -0,627;    1,409
642,505;24916,417;    0,828;   -0,500
643,082;25032,380;   -1,718;    1,227
643,658;24079,889;   -0,718;    1,500
644,235;24824,579;    1,191;    2,500
644,812;25132,270;    1,918;    0,773
645,388;24858,961;   -0,991;    1,409
645,965;24960,378;   -0,809;    1,682
646,542;25078,978;   -1,445;   -0,227
647,118;25043,941;    1,009;   -0,955
647,695;25320,632;   -0,263;    1,136
648,271;25247,050;   -0,536;    0,500
648,848;25592,922;    0,736;    2,227
649,424;25453,431;    0,827;    1,318
650,000;25166,031;   -0,354;   -1,045
650,577;25013,267;   -0,627;   -0,955
651,153;25519,867;   -1,809;    0,955
651,729;26465,194;    1,191;    0,864
652,305;26761,339;    0,645;    2,773
652,881;31353,575;   -0,082;    1,136
653,458;38172,538;    1,100;    0,227
654,034;41854,320;    0,282;    1,591
654,610;43238,101;    0,554;    0,773
655,186;44579,701;    0,645;    3,045
655,762;44236,573;   -0,991;    0,409
656,338;44182,173;    0,100;    0,136
656,913;45190,773;   -0,082;    0,409
657,489;44405,281;    0,827;   -0,318
658,065;44332,517;   -0,173;   -1,591
658,641;44982,935;   -0,900;   -0,864
659,217;44369,171;   -0,991;    0,409
659,792;43734,044;    0,645;   -0,409
660,368;43902,734;   -2,173;   -0,682
660,944;43539,879;   -2,082;    1,227
661,519;38889,843;   -0,628;    0,409
662,095;32953,988;   -1,719;    0,591
662,670;28518,497;    1,281;   -0,136
663,246;27455,278;    1,009;   -0,409
663,821;26802,060;    0,281;    1,682
664,396;26298,750;    0,009;    1,864
664,972;26617,441;    0,009;   -0,500
665,547;26918,041;    1,372;    0,136
666,122;26928,549;   -1,082;    0,318
666,698;27220,604;   -0,173;    0,318
667,273;26582,749;   -0,173;    0,136
667,848;27407,349;    2,372;    1,500
668,423;27206,312;    2,190;    2,318
668,998;27724,457;    2,827;   -0,682
669,573;28263,057;   -3,264;   -1,500
670,148;28144,656;   -1,446;   -0,682
670,723;27961,438;   -1,810;    0,318
671,298;28350,492;    2,372;    1,045
671,873;28458,728;   -0,082;   -0,136
672,448;28405,055;    0,645;    0,136
673,023;28772,291;   -1,992;   -0,227
673,597;29081,073;    0,827;    2,318
674,172;28846,945;   -0,355;    0,318
674,747;28341,545;    0,372;   -1,045
675,321;28170,963;   -0,628;    3,318
675,896;27722,199;    0,645;    1,045
676,471;28816,162;    2,645;    1,591
677,045;28568,671;   -1,264;    0,682
677,620;28614,907;    0,190;    1,136
678,194;28918,779;   -2,628;    1,136
678,769;28559,561;   -1,083;   -0,318
679,343;28771,161;   -0,628;    1,773
679,917;28629,578;   -1,446;    1,955
680,492;28701,087;    0,826;    3,227
681,066;28808,869;    3,372;    0,409
681,640;28867,377;    1,463;   -0,318
682,214;29729,886;    0,735;    0,500
682,788;29249,668;   -1,356;   -0,773
683,363;29178,813;   -1,810;    1,682
683,937;28857,867;   -1,719;   -0,318
684,511;29655,558;    0,463;   -0,591
685,085;29312,612;   -1,356;    0,318
685,659;29069,575;   -2,538;    0,864
686,232;29346,720;   -0,356;   -0,318
686,806;29056,684;   -0,901;    0,409
687,380;29773,374;   -0,174;    0,591
687,954;29944,065;   -1,174;    1,136
688,528;29677,665;   -0,719;    1,955
689,101;30437,173;   -3,992;    1,045
689,675;30025,682;   -0,356;   -0,136
690,249;29401,827;   -0,719;    0,409
690,822;29684,336;    0,280;    0,318
691,396;29832,027;   -0,265;    1,227
691,969;29280,808;    1,280;    0,136
692,543;29695,590;   -0,447;   -1,955
693,116;29363,462;   -0,265;   -1,409
693,690;29275,335;    0,099;    0,500
694,263;29794,753;   -1,083;    2,955
694,836;29856,352;    1,371;    3,591
695,410;28527,043;   -0,265;    1,773
695,983;28957,733;    0,189;    0,591
696,556;28946,060;   -0,447;   -1,045
697,129;29331,024;   -0,356;    1,409
697,703;28942,532;   -1,629;    1,955
698,276;28912,223;    1,462;   -0,773
698,849;28790,277;    1,280;    1,409
699,422;29176,241;   -1,083;    0,591
699,995;28858,386;    0,007;    0,136
700,568;29331,531;   -0,629;    3,045
701,140;29379,858;   -2,811;    1,682
701,713;29097,367;   -0,174;    2,409
702,286;28841,875;   -0,538;    0,864
702,859;28760,930;   -0,902;   -0,591
703,432;27908,529;    0,825;    0,682
704,004;28390,129;    0,462;    0,318
704,577;28277,092;   -0,629;    0,136
705,150;28823,056;    0,189;    2,500
705,722;28597,383;   -0,356;   -3,227
706,295;28387,255;   -0,175;   -0,591
706,867;28288,764;   -0,175;    1,955
707,440;28446,545;   -1,720;   -0,409
708,012;28735,781;    0,462;    0,591
708,584;28664,199;    2,462;    0,227
709,157;28952,526;    1,825;   -0,591
709,729;28605,671;    2,280;    2,045
710,301;29478,362;    0,734;    0,045
710,874;29447,144;   -1,447;   -0,227
711,446;28355,834;    0,371;    0,864
712,018;28208,707;    0,098;    0,500
712,590;27931,124;   -1,993;    1,682
713,162;28488,997;    0,825;    1,318
713,734;28770,506;    1,825;   -2,045
714,306;28685,924;   -1,902;   -0,409
714,878;27363,887;    0,825;    0,864
715,450;28194,487;    0,643;    0,864
716,022;28405,268;    1,552;    1,318
716,593;28565,322;    0,189;    0,591
717,165;28503,467;   -3,175;   -1,227
717,737;28200,976;    0,280;    0,409
718,309;27901,849;    0,280;   -0,045
718,880;27830,176;   -0,539;   -1,409
719,452;28050,139;   -0,175;   -1,591
720,024;27653,739;    0,734;   -0,591
720,595;28202,702;   -2,902;    0,955
721,167;27778,302;    0,370;   -2,045
721,738;27285,265;   -0,812;   -1,045
722,309;27259,137;   -0,993;   -1,227
722,881;27038,373;   -1,357;    0,773
723,452;27694,700;   -2,630;    2,864
724,023;27899,209;   -0,721;    2,682
724,595;27637,718;    0,007;    0,682
725,166;27341,227;    0,007;   -0,409
725,737;27020,736;    1,734;    0,227
726,308;27107,426;   -0,266;    0,318
726,879;27581,571;   -1,630;    1,227
727,450;27397,080;    0,552;   -0,045
728,021;27387,771;    3,097;    0,682
728,592;27190,461;    0,734;    0,500
729,163;27491,243;    0,643;   -0,136
729,734;27520,297;    0,188;   -0,227
730,305;27884,715;    1,734;    0,136
730,876;28257,860;    0,188;    2,955
731,447;27961,732;    2,188;    2,682
732,017;28066,423;    1,097;    1,864
732,588;27551,841;    0,734;    1,227
733,159;27739,077;    0,643;   -1,045
733,729;27538,404;    0,006;    0,409
734,300;26875,731;    0,915;    0,864
734,870;27284,785;    3,461;    0,591
735,441;27854,748;    0,370;   -0,591
736,011;27580,621;    0,643;   -1,591
736,582;27535,221;   -0,812;    0,045
737,152;27034,638;   -1,721;   -2,045
737,722;27480,784;   -0,267;   -0,682
738,293;27162,111;   -1,358;    1,318
738,863;27049,438;    2,461;    2,318
739,433;26842,492;    5,279;    0,318
740,003;27459,273;   -0,994;   -0,682
740,573;26845,509;    2,097;   -1,591
741,143;26829,018;   -1,085;    0,318
741,713;27600,527;    1,188;   -0,500
742,283;27333,127;    0,915;    1,591
742,853;27071,908;    1,915;    1,591
743,423;26542,508;    1,733;    0,045
743,993;26680,198;   -0,358;    1,500
744,563;26077,434;    0,097;   -0,864
745,133;26020,761;   -0,812;   -0,864
745,702;26676,907;   -0,267;    1,773
746,272;25892,870;   -0,176;    0,591
746,842;25645,924;   -1,358;   -0,591
747,411;26088,615;   -0,267;   -0,318
747,981;26275,305;    0,097;    0,500
748,551;26290,269;    2,278;   -1,045
749,120;26226,050;    0,642;   -0,227
749,690;26615,468;   -0,631;    2,409
750,259;26900,977;    1,369;    2,955
750,828;26853,849;    1,551;   -1,955
751,398;27095,994;    1,278;   -0,045
751,967;26638,049;    2,187;    0,409
752,536;26806,557;   -0,813;   -0,227
753,105;27195,521;    0,096;    0,227
753,675;26991,666;    0,096;    1,773
754,244;26968,266;   -0,904;    3,591
754,813;26974,593;    0,551;    1,227
755,382;26600,829;    0,460;    0,955
755,951;27154,610;    1,551;    3,682
756,520;26677,301;   -0,085;    1,864
757,089;27243,628;    0,278;    0,500
757,658;27404,682;    1,733;    1,227
758,227;27384,009;    1,096;    0,318
758,795;27713,336;    1,187;    1,136
759,364;27917,390;   -0,086;   -0,591
759,933;26917,899;   -1,176;   -0,045
760,501;26452,589;    0,733;   -1,318
761,070;26935,735;   -2,813;   -1,409
761,639;27641,334;   -1,904;    1,318
762,207;27028,389;    1,551;   -0,955
762,776;26913,079;    0,369;    0,864
763,344;26880,406;   -0,995;    0,591
763,913;25959,097;   -0,722;    1,409
764,481;26720,605;    1,005;   -0,136
765,049;26508,842;   -1,358;    1,409
765,618;26406,441;   -0,086;    0,318
766,186;26509,223;    0,278;    0,136
766,754;26670,459;    0,005;    1,864
767,322;25665,058;   -1,995;    0,409
767,890;25700,204;   -0,722;   -1,773
768,459;26117,167;   -2,177;   -0,318
769,027;26296,494;    1,641;    3,409
769,595;25243,457;    3,278;    2,591
770,163;25675,148;    3,823;    2,955
770,730;25437,748;    0,732;   -0,136
771,298;25273,347;    0,187;   -1,409
771,866;25334,220;   -1,541;    4,955
772,434;25649,001;   -0,631;   -1,864
773,002;25852,328;    0,005;    0,682
773,569;25478,110;    0,914;    1,682
774,137;25322,709;   -0,268;   -0,045
774,705;26109,400;    0,278;   -0,136
775,272;25604,818;    0,641;    0,682
775,840;25339,690;   -0,177;    2,682
776,407;24894,290;    0,277;    1,955
776,975;24525,617;   -0,632;    0,318
777,542;25495,489;   -1,086;   -0,045
778,110;25371,544;   -1,268;   -0,045
778,677;25030,780;   -2,359;   -0,864
779,244;24755,107;    2,186;    1,045
779,812;24909,979;    1,823;    0,864
780,379;24788,488;    0,005;    1,136
780,946;24986,451;    1,005;   -0,773
781,513;25327,687;   -1,450;    0,318
782,080;24676,378;   -0,086;    2,864
782,647;25411,250;   -0,268;    3,045
783,214;25007,486;   -0,177;    3,864
783,781;24649,177;   -0,723;   -0,682
784,348;24474,413;   -0,632;    1,500
784,915;24935,740;   -3,177;    0,318
785,482;24717,794;    1,368;    2,591
786,049;25138,303;    0,186;   -0,591
786,615;25284,812;    0,277;   -0,955
787,182;25026,775;    0,186;   -0,682
787,749;24728,284;   -2,814;    1,409
788,315;24032,247;   -1,632;   -0,409
788,882;24345,756;    1,550;   -1,227
789,448;25018,537;    1,732;   -0,955
790,015;25068,864;    1,095;    3,227
790,581;24589,009;    1,459;    0,227
791,148;24534,973;    0,641;    1,045
791,714;24703,209;   -0,541;    3,136
792,280;24401,718;    0,186;    1,591
792,847;23989,135;    0,550;    2,500
793,413;24554,735;   -0,269;   -0,318
793,979;24081,517;    3,459;   -1,318
794,545;24203,662;    4,459;    2,682
795,111;23563,625;    2,186;    1,318
795,678;23726,134;    0,731;   -1,682
796,244;23431,370;    3,368;    0,136
796,810;23959,970;    1,731;    0,773
797,375;23690,751;    0,549;   -2,136
797,941;23715,987;   -0,541;    0,591
798,507;23830,769;   -0,451;   -0,955
799,073;23404,550;   -0,360;    0,591
799,639;23416,605;   -2,632;    3,136
800,205;23496,022;    0,095;    2,682
800,770;23002,622;    0,640;    1,773
801,336;23087,949;    1,368;   -0,955
801,901;22811,276;    4,549;    3,136
802,467;23384,058;   -0,542;    2,045
803,033;22656,657;   -0,087;    0,864
803,598;22919,984;    1,913;   -1,045
804,163;22911,584;    1,095;   -0,318
804,729;22869,274;   -0,178;    1,136
805,294;23302,874;    0,822;    2,227
805,859;23045,837;    0,731;   -0,409
806,425;22546,892;    1,186;    2,682
806,990;22213,037;    2,186;    4,318
807,555;22748,727;   -1,451;    2,591
808,120;22585,327;    0,822;   -0,409
808,685;22658,836;    0,185;   -2,500
809,250;22170,072;    0,004;   -0,500
809,815;22476,035;    1,913;    0,682
810,380;22998,726;   -0,269;    1,591
810,945;23535,507;   -1,087;    2,045
811,510;22710,471;    2,094;    1,591
812,075;22450,525;   -0,633;   -1,409
812,640;22484,579;    2,003;    1,409
813,204;22501,815;    0,822;   -0,227
813,769;23057,415;    2,094;   -0,045
814,334;22455,651;    0,458;    0,864
814,898;22480,978;    0,367;    0,591
815,463;22332,669;    1,276;   -0,773
816,027;22274,541;   -0,724;   -2,318
816,592;22341,868;    0,640;   -2,045
817,156;21922,559;    2,094;    1,136
817,721;21799,340;    4,276;    2,318
818,285;21736,031;    2,912;    1,500
818,849;22389,267;   -1,451;    1,682
819,414;22292,139;   -0,269;    2,955
819,978;21844,375;   -1,269;    1,773
820,542;22428,066;    2,003;    0,500
821,106;22135,938;   -0,815;    0,682
821,670;22234,538;   -0,815;    2,591
822,234;21983,592;   -0,270;    1,409
822,798;21335,283;    0,003;    0,500
823,362;21255,337;   -0,633;    4,227
823,926;20593,119;    0,094;    1,136
824,490;20802,900;   -0,997;   -0,682
825,054;21304,045;   -0,088;   -1,136
825,618;20959,736;   -1,542;   -1,500
826,181;20900,335;    0,458;   -1,318
826,745;20785,572;    1,367;   -1,045
827,309;21110,898;    1,185;    1,318
827,872;20516,680;    1,367;    0,955
828,436;21514,552;    1,185;   -0,773
828,999;21520,698;   -0,997;    1,227
829,563;20393,115;   -0,179;    1,136
830,126;20199,988;   -0,179;   -0,591
830,690;20217,315;   -1,997;    2,864
831,253;19713,096;   -0,543;    2,227
831,816;19858,787;   -1,906;    0,500
832,380;19795,387;    0,185;    0,864
832,943;20017,532;   -1,361;   -0,500
833,506;19473,768;    2,639;   -1,227
834,069;20281,549;    3,912;   -0,955
834,632;20367,422;    1,730;    1,318
835,195;20247,749;    1,003;    0,955
835,758;19442,167;   -0,997;    1,955
836,321;19302,312;    0,730;   -1,045
836,884;19398,821;   -0,725;   -0,955
837,447;19417,238;   -2,816;    1,773
838,010;19685,293;    0,366;    3,227
838,573;19991,074;   -1,179;    0,773
839,135;19902,401;   -1,361;   -0,955
839,698;19363,546;    1,275;    0,409
840,261;18904,873;    1,003;   -0,227
840,823;18745,018;   -0,543;    0,864
841,386;19045,073;   -0,452;   -2,409
841,948;18943,945;   -1,361;    1,773
842,511;18643,272;    0,912;    1,682
843,073;18789,508;    1,912;    0,227
843,636;18606,926;   -0,361;   -0,227
844,198;18546,707;    0,911;    0,591
844,760;18656,489;    1,093;    1,955
845,322;18317,907;    0,548;    1,136
845,885;18748,143;    0,730;    0,591
846,447;19182,288;   -1,998;    0,227
847,009;18727,888;    1,911;   -0,682
847,571;19041,578;    0,820;   -2,045
848,133;19157,178;   -1,089;   -1,864
848,695;19005,869;   -0,543;    1,409
849,257;18547,559;   -1,089;   -1,682
849,819;18710,704;   -0,998;   -0,409
850,381;18760,577;   -0,725;   -0,864
850,942;19126,267;    1,093;   -0,591
851,504;19092,867;    1,184;    0,227
852,066;19143,103;    1,275;   -1,591
852,628;18675,794;   -0,180;    1,955
853,189;18247,302;    1,638;    2,682
853,751;18328,993;   -0,907;    1,409
854,312;18124,047;   -0,453;   -1,682
854,874;18691,192;   -2,089;   -0,773
855,435;19175,247;   -0,907;   -1,682
855,997;19285,301;   -1,816;   -0,136
856,558;18580,264;    0,366;    1,773
857,119;18688,228;    0,820;    2,864
857,681;18392,100;    0,002;    0,318
858,242;18420,609;    1,911;   -2,136
858,803;18864,754;    0,456;   -0,773
859,364;19469,808;    0,184;   -4,773
859,925;18765,953;   -2,453;   -0,955
860,486;18681,917;   -0,453;   -0,955
861,047;18414,607;   -0,544;   -1,227
861,608;18181,571;   -1,089;   -0,773
862,169;18330,625;    0,638;   -0,045
862,730;18082,315;    0,456;    1,409
863,291;18349,097;   -0,635;   -0,500
863,852;18766,333;   -0,635;    1,955
864,412;18202,842;   -0,271;   -0,864
864,973;16736,805;   -0,089;    0,500
865,534;16640,859;   -1,726;    0,227
866,094;18137,823;    1,820;    0,227
866,655;17793,786;    1,274;    3,318
867,215;18069,840;    0,274;    0,136
867,776;17907,894;    0,547;   -0,136
868,336;18035,040;   -1,453;    0,136
868,897;17500,730;    2,638;    1,682
869,457;17279,966;    1,365;    0,318
870,017;17497,930;    0,547;   -1,227
870,578;17986,711;   -0,817;    0,773
871,138;17650,493;   -2,089;   -0,955
871,698;17192,547;   -0,817;   -1,318
872,258;17059,147;   -0,453;   -2,864
872,818;17453,837;    2,729;    0,045
873,378;17407,346;    0,638;    1,045
873,938;16940,673;    0,547;    0,500
874,498;17313,091;    0,274;   -1,955
875,058;17221,600;    2,183;    1,773
875,618;17034,472;    1,910;   -2,682
876,177;16982,526;    1,274;    0,136
876,737;16596,944;   -0,090;    1,955
877,297;16618,089;    0,183;    1,955
877,856;16642,053;   -0,362;    0,318
878,416;16570,925;    1,183;   -0,136
878,976;16831,888;   -1,817;    0,409
879,535;16994,579;    0,092;    3,136
880,095;16693,179;   -0,544;    0,045
880,654;16841,596;   -1,090;    1,318
881,213;16926,196;    2,456;    1,500
881,773;16595,069;    2,637;    2,682
882,332;16957,396;    3,365;    5,136
882,891;16759,995;    3,092;    2,136
883,451;17247,959;   -1,272;    1,682
884,010;16691,286;   -2,908;   -0,409
884,569;16784,703;   -0,999;   -0,045
885,128;16957,667;    2,819;   -1,864
885,687;17003,175;    4,455;    0,682
886,246;16666,412;    1,455;    2,136
886,805;16456,829;    2,455;    2,045
887,364;16727,975;   -0,999;   -0,500
887,922;17085,756;   -1,181;    0,045
888,481;16591,447;   -1,545;    0,591
889,040;16913,774;    1,183;    2,136
889,599;17599,464;    2,455;    1,409
890,157;17680,973;    1,455;    2,409
890,716;17304,936;   -0,090;    0,227
891,274;17113,354;    0,092;   -1,136
891,833;17546,863;    1,546;    0,864
892,391;17420,735;   -0,454;    0,500
892,950;17541,517;    1,819;   -0,773
893,508;17900,935;    0,455;   -0,409
894,067;17199,898;    0,637;    0,136
894,625;17114,316;   -0,636;   -1,500
895,183;17353,007;   -0,363;   -0,682
895,741;17216,152;    1,728;   -1,773
896,299;17088,115;   -0,545;   -2,409
896,858;17294,533;    0,819;   -1,591
897,416;17390,769;    2,728;   -1,318
897,974;17138,732;    1,819;    0,318
898,532;17262,514;    6,091;    2,682
899,089;17155,477;    2,091;   -0,682
899,647;17220,441;   -1,454;    1,318
900,205;16924,040;    1,182;    1,045
900,763;17115,367;   -0,454;    0,227
901,321;17156,421;    2,364;   -1,409
901,878;16547,839;   -1,000;   -0,773
902,436;16409,075;   -1,363;    1,318
902,994;16814,402;    4,728;    3,682
903,551;16265,911;    0,728;    0,409
904,109;16630,874;    0,182;   -1,409
904,666;16206,020;    2,455;    1,045
905,224;16052,165;    0,182;   -0,409
905,781;15837,764;    0,727;   -0,318
906,338;15894,364;   -1,363;    1,045
906,895;15831,237;    0,637;    2,045
907,453;15760,109;    1,727;    1,136
908,010;15786,254;   -0,909;    0,409
908,567;15426,217;    1,273;    0,591
909,124;14915,363;    0,364;   -1,500
909,681;14971,326;   -2,909;    0,682
910,238;15166,016;    0,636;   -1,318
910,795;15488,071;   -0,273;   -1,136
911,352;15091,162;   -2,909;   -2,682
911,909;14513,434;   -1,364;   -0,864
912,466;15022,798;   -3,182;    1,500
913,022;14559,253;   -1,636;    0,500
913,579;14932,343;   -0,909;    2,045
914,136;14587,253;    1,636;    0,955
914,692;14941,889;    0,091;   -1,227
915,249;14532,071;    1,455;    0,409
915,806;14746,162;    0,182;    1,955
916,362;14487,707;    1,909;    1,864
916,918;14108,071;    2,000;    1,045
917,475;14080,253;   -1,182;    0,955
918,031;14121,798;    3,364;   -0,045
918,587;13570,071;   -0,909;   -0,318
919,144;13814,525;   -2,273;    0,227
919,700;14105,798;    1,727;    0,773
920,256;13687,889;    0,727;    0,045
920,812;13285,071;   -0,727;   -1,045
921,368;13327,616;   -1,727;   -1,045
921,924;12975,616;    0,182;   -0,136
922,480;12546,343;   -0,545;    1,227
923,036;13179,889;    1,273;    1,955
923,592;13104,162;    0,455;    0,318
924,148;13020,253;    0,455;   -0,955
924,704;12313,253;   -1,364;   -0,409
925,259;12600,707;   -0,273;    0,591
925,815;12355,525;    1,455;    0,500
926,371;11873,525;    2,909;    1,409
926,926;11744,889;    2,091;    0,591
927,482;11412,525;   -1,364;    0,773
928,037;11286,616;    0,909;    2,045
928,593;11557,253;    1,636;    1,045
929,148;11383,434;   -1,818;   -1,500
929,704;10888,253;   -1,455;   -0,500
930,259;11117,980;    0,091;   -0,136
930,814;10178,798;   -0,818;    1,955
931,369; 9856,707;    1,091;   -0,773
931,925; 9736,707;   -0,091;    0,136
932,480; 9637,980;   -2,818;   -2,591
933,035; 9526,162;    0,545;   -0,318
933,590; 9287,525;    0,364;   -1,773
934,145; 8956,980;   -1,364;   -0,318
934,700; 9283,162;    0,455;   -0,591
935,255; 9093,980;   -0,091;    0,045
935,809; 8392,253;    3,182;    0,864
936,364; 7513,434;   -0,455;   -0,136
936,919; 7483,343;    0,455;   -1,773
937,474; 7354,253;    1,455;    0,136
938,028; 7121,071;   -1,636;    1,136
938,583; 6588,798;    1,818;    4,682
939,138; 6867,162;    2,091;    2,136
939,692; 6298,071;    1,636;   -1,136
940,247; 5984,889;   -0,727;   -1,045
940,801; 5538,798;   -0,636;    0,227
941,355; 5458,434;   -0,364;    2,591
941,910; 5103,162;   -0,273;   -2,136
942,464; 5236,798;   -0,818;   -0,318
943,018; 5001,343;    1,000;   -0,227
943,572; 4931,343;    2,545;   -0,682
944,126; 4362,434;    0,091;   -0,409
944,681; 4250,798;    3,091;    0,227
945,235; 4249,798;    1,000;   -0,591
945,789; 4178,889;    0,364;   -1,864
946,342; 4272,434;    0,455;   -0,591
946,896; 4082,343;   -2,273;    0,955
947,450; 3843,253;    1,545;   -0,227
948,004; 4050,525;    1,727;   -0,045
948,558; 4044,253;    0,273;   -0,864
949,111; 3968,162;   -0,273;   -0,318
949,665; 3981,707;    1,636;   -0,682
950,219; 3861,071;   -0,091;   -1,045
950,772; 3940,162;   -1,909;    1,864
951,326; 3845,343;    0,545;   -0,955
951,879; 3972,434;    0,727;   -2,318
952,433; 3988,162;    0,000;    2,227
952,986; 3806,889;    2,909;    0,682
953,539; 3756,525;   -0,273;    0,591
954,093; 3687,253;    0,545;   -1,318
954,646; 3834,162;    0,909;    1,318
955,199; 3649,253;    0,000;   -0,500
955,752; 3538,707;   -0,455;    1,773
956,305; 3497,434;   -0,091;    2,955
956,858; 3660,889;    0,818;   -0,318
957,411; 3817,889;   -0,545;    2,136
957,964; 3654,525;    1,364;    2,136
958,517; 3648,162;   -1,545;    3,136
959,070; 3477,889;   -0,455;    1,955
959,623; 3564,980;    1,091;    1,500
960,176; 3329,980;    1,727;    2,045
960,728; 3305,889;   -2,727;    0,773
961,281; 3360,253;    0,545;    0,500
961,834; 3397,162;   -0,909;    0,864
962,386; 3307,253;    1,727;    1,045
962,939; 3245,889;    0,364;   -0,318
963,491; 3379,980;    0,455;    1,136
964,043; 3250,980;    1,182;    2,409
964,596; 3383,162;   -1,000;    2,227
965,148; 3224,616;   -1,000;    1,773
965,700; 3125,980;    1,091;   -0,227
966,253; 3304,162;   -0,636;    0,318
966,805; 3138,162;   -2,273;    0,773
967,357; 3175,798;    1,091;   -1,500
967,909; 3133,616;    0,455;   -1,227
968,461; 3269,707;    0,545;    3,136
969,013; 3196,343;   -0,182;   -0,864
969,565; 3257,525;   -0,455;   -1,136
970,117; 3313,616;   -0,364;    1,045
970,669; 3144,343;    0,182;   -0,136
971,220; 3023,162;   -0,455;   -1,500
971,772; 2944,980;   -0,636;   -0,318
972,324; 3072,707;    0,091;   -0,500
972,876; 3023,980;    0,818;   -0,045
973,427; 3165,980;    1,909;   -1,045
973,979; 3121,525;   -0,727;   -2,500
974,530; 3158,434;    1,818;    1,318
975,082; 3159,071;   -0,545;    1,682
975,633; 3042,071;    1,091;    1,682
976,184; 3193,162;    0,909;    0,773
976,736; 2981,798;    0,091;    0,227
977,287; 2803,434;   -0,909;   -0,500
977,838; 2975,707;    0,909;   -0,318
978,389; 3017,980;   -1,000;   -0,500
978,940; 2901,616;    0,545;   -0,409
979,491; 2931,525;    0,091;   -0,500
980,042; 2885,162;    0,182;    3,045
980,593; 2946,434;   -2,545;    0,227
981,144; 3005,616;    2,545;   -0,500
981,695; 2961,434;    1,455;    1,500
982,246; 2918,616;   -0,273;    1,045
982,797; 3085,253;   -1,727;    0,682
983,347; 3186,889;    0,364;    0,591
983,898; 3367,343;    3,091;    0,409
984,449; 3172,980;    2,182;    0,773
984,999; 3061,162;    1,455;   -1,136
985,550; 2847,434;    0,182;   -0,318
986,100; 2893,798;   -0,455;   -0,318
986,651; 2924,707;   -0,818;    0,045
987,201; 2885,980;   -1,000;   -0,591
987,751; 2983,889;    0,818;    2,864
988,302; 2970,525;    2,636;    1,500
988,852; 2999,980;    0,455;   -1,136
989,402; 3039,525;    0,091;    0,682
989,952; 2947,980;   -2,182;    0,864
990,502; 3048,798;   -0,091;    0,682
991,052; 3013,343;   -0,727;    0,045
991,602; 2885,162;   -2,909;    1,318
992,152; 2886,253;    0,455;    0,682
992,702; 2853,889;    1,364;   -0,045
993,252; 2788,707;   -3,000;   -0,500
993,802; 2882,434;   -0,273;    1,318
994,352; 3110,525;   -1,545;    1,136
994,901; 3180,616;   -0,182;    3,227
995,451; 3106,525;   -0,182;    0,318
996,000; 3205,071;    1,636;    0,318
996,550; 2919,707;    2,273;    0,227
997,100; 2906,071;    1,273;   -0,045
997,649; 3188,707;    2,182;    0,955
998,198; 2821,525;    1,727;   -1,500
998,748; 3017,525;    1,091;   -2,318
999,297; 2918,434;   -0,818;   -0,409
999,846; 2997,162;    1,000;   -0,773
1000,395; 3049,434;   -0,818;    0,500
1000,945; 2993,253;    1,818;   -0,773
1001,494; 3073,616;    2,364;    0,682
1002,043; 3058,071;    4,636;    0,864
1002,592; 2912,707;   -1,091;    1,955
1003,141; 3053,889;   -0,455;   -0,682
1003,690; 2911,980;    1,727;    0,500
1004,238; 2984,980;    1,455;   -0,045
1004,787; 2639,525;    1,364;    1,227
1005,336; 2878,343;    0,364;    0,682
1005,885; 3016,253;    1,364;   -2,773
1006,433; 3160,434;    0,545;    0,955
1006,982; 3208,343;    0,455;    1,682
1007,531; 3109,343;   -1,818;   -0,227
1008,079; 3057,798;   -2,273;    0,500
1008,627; 3205,253;   -1,455;    0,409
1009,176; 2936,616;    0,000;   -1,955
1009,724; 3002,525;    1,091;    0,864
1010,273; 3058,434;    1,273;    0,500
1010,821; 3155,889;    0,091;    1,409
1011,369; 2885,434;   -1,364;    1,318
1011,917; 2877,616;   -1,364;   -0,591
1012,465; 3158,343;    1,273;   -1,591
1013,013; 3254,434;    2,091;   -1,682
1013,561; 3127,253;    0,455;   -0,773
1014,109; 3187,889;   -1,909;    1,682
1014,657; 3073,162;    0,364;    0,591
1015,205; 3190,616;    1,636;   -0,955
1015,753; 3237,616;   -0,545;   -1,409
1016,301; 3278,798;   -2,636;    3,045
1016,848; 3262,253;   -1,273;    0,409
1017,396; 3297,616;    2,545;    0,045
1017,944; 3416,980;    1,182;    1,864
1018,491; 3190,525;    0,273;    1,409
1019,039; 3339,616;    0,455;    0,591
1019,586; 3246,616;   -1,364;    1,682
1020,134; 3350,434;    0,455;    1,500
1020,681; 3364,616;    0,182;   -1,136
1021,228; 3382,071;    2,909;   -2,227
1021,776; 3217,980;    1,182;   -1,136
1022,323; 3432,798;    0,455;    0,773
1022,870; 3380,071;   -1,000;   -0,045
1023,417; 3265,253;    2,636;    1,864
1023,964; 3403,071;    2,636;    1,227
1024,511; 3245,434;    1,000;    0,773
1025,058; 3044,253;    3,182;   -0,045
1025,605; 3105,253;   -2,273;    3,136
1026,152; 3319,980;    1,727;   -0,591
1026,699; 3057,434;    1,818;    1,318
1027,245; 3216,162;   -0,091;    0,318
1027,792; 3410,980;   -1,000;    1,409
1028,339; 3307,253;    2,364;   -0,045
1028,885; 3159,343;    1,000;   -0,227
1029,432; 3084,525;   -0,091;    0,227
1029,978; 3142,707;   -1,000;   -1,591
1030,525; 3067,434;    1,000;    0,409
1031,071; 3300,343;   -1,364;    1,136
1031,618; 3404,162;    0,364;    1,682
1032,164; 3199,616;   -0,091;    3,045
1032,710; 3263,434;    1,636;   -1,500
1033,256; 3164,343;   -0,636;   -0,136
1033,803; 3136,889;   -0,545;    1,500
1034,349; 2860,889;   -1,364;    0,136
1034,895; 3001,616;    0,000;   -0,318
1035,441; 2993,253;   -0,818;    0,318
1035,987; 2994,707;   -2,364;   -0,682
1036,533; 2992,889;   -1,455;   -0,955
1037,078; 3188,343;    1,455;    1,682
1037,624; 3023,343;    2,455;   -0,955
1038,170; 3054,707;    0,455;   -0,318
1038,716; 2951,525;    1,636;   -0,409
1039,261; 2872,616;   -2,273;   -0,773
1039,807; 2811,162;   -0,091;    3,409
1040,352; 2879,798;   -1,909;   -0,318
1040,898; 2920,071;   -1,545;   -0,682
1041,443; 2828,434;   -1,455;   -2,591
1041,989; 2854,616;    1,091;    1,591
1042,534; 2723,798;   -0,364;    2,591
1043,079; 2848,707;    2,909;    0,955
1043,625; 2636,889;    1,818;    0,500
1044,170; 2678,071;   -1,364;    1,045
1044,715; 2932,434;    2,455;    0,955
1045,260; 2763,707;    2,182;   -0,955
1045,805; 2806,162;    1,182;   -0,591
1046,350; 2735,525;    1,364;   -0,409
1046,895; 2690,707;    2,909;    1,591
1047,440; 2634,707;    5,364;    0,409
1047,985; 2535,434;    2,818;   -0,955
1048,530; 2452,343;    1,545;    1,227
1049,074; 2526,980;    0,000;    0,318
1049,619; 2503,798;   -1,364;    1,955
1050,164; 2311,616;    0,455;    0,227
1050,708; 2344,798;   -0,455;    0,045
1051,253; 2713,889;    1,273;   -2,227
1051,797; 2423,253;    0,818;   -1,318
1052,342; 2428,889;   -1,182;    1,045
1052,886; 2438,707;    0,364;   -1,409
1053,430; 2299,707;   -1,364;    0,136
1053,975; 2309,343;   -0,818;   -0,318
1054,519; 2296,525;   -0,727;    3,227
1055,063; 2317,071;    0,909;    1,318
1055,607; 2190,616;   -0,182;    0,227
1056,151; 2222,071;    2,909;    1,682
1056,695; 2139,071;    2,273;   -1,136
1057,239; 2224,616;   -1,727;   -0,682
1057,783; 2239,343;    0,818;   -1,500
1058,327; 2177,798;    0,000;    1,409
1058,871; 2393,071;   -0,545;    1,318
1059,415; 2110,071;   -0,818;   -0,045
1059,958; 2376,889;    1,455;    2,591
1060,502; 2098,434;   -1,000;   -0,773
1061,046; 1995,889;    0,364;   -0,955
1061,589; 1974,707;   -3,000;   -1,136
1062,133; 1833,798;   -1,273;    1,864
1062,676; 1794,343;    1,182;    0,864
1063,220; 1795,889;    1,091;    0,500
1063,763; 1819,343;    0,909;    1,136
1064,306; 1898,162;   -0,909;    1,864
1064,849; 1790,162;   -0,909;    0,591
1065,393; 1782,707;    2,000;   -1,500
1065,936; 1888,980;    0,182;   -0,409
1066,479; 1795,616;   -1,455;    1,318
1067,022; 1818,616;   -0,273;   -0,227
1067,565; 1698,980;   -0,091;   -1,318
1068,108; 1732,616;    0,727;   -0,591
1068,651; 1711,253;   -0,636;    1,409
1069,194; 1636,980;   -0,455;   -1,682
1069,736; 1645,616;   -1,273;    0,955
1070,279; 1611,616;   -1,364;   -0,500
1070,822; 1669,071;   -2,000;   -0,318
1071,364; 1763,798;   -0,364;    1,318
1071,907; 1580,616;   -0,727;    3,227
1072,450; 1476,343;    0,000;   -0,045
1072,992; 1475,980;   -0,273;    3,136
1073,535; 1622,162;    2,091;    2,136
1074,077; 1405,434;   -0,727;    2,045
1074,619; 1377,889;   -1,364;    0,591
1075,161; 1404,980;   -1,091;    1,500
1075,704; 1591,798;    1,545;    1,227
1076,246; 1393,616;   -0,182;    0,682
1076,788; 1315,434;   -0,364;    1,773
1077,330; 1387,980;    1,273;    2,136
1077,872; 1347,707;    0,909;    0,955
1078,414; 1570,616;    2,727;    0,773
1078,956; 1310,343;    1,273;   -0,227
1079,498; 1564,525;    1,636;    0,318
1080,040; 1275,889;    1,909;   -1,318
1080,581; 1220,071;    1,636;   -0,318
1081,123; 1154,889;    0,091;   -0,773
1081,665; 1197,525;   -1,182;   -0,955
1082,206; 1499,525;    1,364;   -0,500
1082,748; 1340,253;    0,727;    2,045
1083,289; 1214,889;   -2,000;    1,318
1083,831; 1130,434;   -0,545;    0,227
1084,372; 1169,434;    0,000;    0,591
1084,913; 1175,162;    1,091;    0,864
1085,455; 1148,798;   -1,909;   -2,045
1085,996; 1105,525;   -2,273;    0,136
1086,537; 1120,889;   -0,091;    0,864
1087,078; 1160,343;   -0,909;   -2,136
1087,619; 1204,162;   -1,273;    0,227
1088,160; 1122,525;    0,000;    1,318
1088,701; 1112,889;   -1,091;    0,682
1089,242; 1060,616;    1,364;   -2,227
1089,783; 1159,071;   -0,273;    1,409
1090,324; 1108,616;    0,455;    0,682
1090,865;  994,616;    2,727;   -0,409
1091,405;  953,253;    0,727;    2,227
1091,946;  969,525;    0,182;   -0,955
1092,487;  896,162;    0,818;   -1,409
1093,027; 1072,343;   -1,364;   -1,500
1093,568;  933,889;   -0,364;    1,227
1094,108; 1038,162;    0,273;    1,773
1094,649;  971,434;   -1,182;    0,136
1095,189;  905,616;   -0,636;   -0,682
1095,729;  849,980;   -0,091;    0,955
1096,269;  849,253;    0,727;   -0,955
1096,810; 1186,071;   -1,364;    0,500
1097,350; 1008,525;    1,364;   -0,773
1097,890;  904,071;    0,364;    1,227
1098,430; 1149,525;    2,364;    2,864
1098,970; 1029,343;    2,182;    1,682
1099,510;  894,525;    0,545;   -2,318
1100,050;  812,343;    1,000;   -1,591
1100,589;  781,253;   -0,727;   -0,318
1101,129;  901,525;    0,818;   -0,955
1101,669; 1064,525;    1,727;    2,136
1102,209;  883,162;   -0,091;    2,227
1102,748;  840,980;    0,000;    0,955
1103,288;  819,253;    1,273;   -1,227
1103,827;  854,616;    3,091;   -2,227
1104,367;  730,798;   -0,091;   -2,409
1104,906;  694,253;    1,364;   -1,136
1105,445;  764,980;    0,636;   -1,136
1105,985;  713,525;   -0,727;    1,500
1106,524;  770,707;   -1,727;   -0,682
1107,063;  737,071;   -2,727;    1,409
1107,602;  716,980;   -1,909;   -1,500
1108,141;  633,980;   -1,909;    1,500
1108,680;  731,343;   -3,455;   -0,591
1109,219;  666,525;   -0,909;   -0,500
1109,758;  674,071;    0,455;    0,682
1110,297;  653,616;    1,000;   -0,682
1110,836;  595,434;   -0,727;    0,955
1111,375;  750,980;   -2,545;    0,409
1111,913;  762,980;   -1,000;    0,773
1112,452;  701,162;   -0,273;    0,136
1112,991;  581,798;    1,091;    1,955
1113,529;  548,980;   -0,818;   -0,045
1114,068;  610,071;   -0,273;    2,955
1114,606;  509,162;   -0,364;   -0,955
1115,144;  678,434;   -1,273;    1,045
1115,683;  620,889;   -0,727;    0,318
1116,221;  665,253;   -0,455;   -0,864
1116,759;  574,798;    0,636;   -0,864
1117,297;  772,071;    0,000;    1,864
1117,836;  576,253;   -2,182;   -1,227
1118,374;  580,707;    0,182;   -0,682
1118,912;  529,889;    0,909;    2,682
1119,450;  513,980;    1,000;    0,864
1119,988;  575,707;    1,545;    2,136
1120,525; 1032,980;    5,091;    3,318
1121,063;  720,162;    1,182;    1,864
1121,601;  521,707;   -0,909;   -1,227
1122,139;  486,343;   -0,727;   -2,045
1122,676;  695,616;   -0,727;    2,773
1123,214;  616,162;   -1,182;    4,409
1123,751;  424,980;    1,727;    2,227
1124,289;  559,707;   -0,091;   -0,409
1124,826;  424,162;    1,727;    0,227
1125,364;  352,162;    1,727;   -0,955
1125,901;  545,343;    1,182;    1,227
1126,438;  665,889;    0,818;    0,955
1126,975;  389,798;   -0,727;   -0,773
1127,513;  455,071;    0,273;    2,136
1128,050;  359,889;    1,636;   -0,682
1128,587;  460,616;    2,000;   -0,227
1129,124;  510,980;    0,091;    1,318
1129,661;  361,525;    0,273;    0,227
1130,198;  535,162;    1,636;    0,773
1130,734;  470,980;    0,182;    1,409
1131,271;  321,253;   -0,909;    0,864
1131,808;  496,253;    2,909;    3,045
1132,345;  373,071;    1,545;    0,318
1132,881;  252,343;   -1,545;   -1,864
1133,418;  386,434;    0,727;   -1,136
1133,954;  329,889;    2,455;   -2,682
1134,491;  404,889;    1,364;   -0,773
1135,027;  297,434;    2,364;    0,864
1135,564;  385,980;    0,273;    2,955
1136,100;  368,071;    0,364;    2,136
1136,636;  260,616;   -1,273;   -1,045
1137,172;  357,253;    0,000;   -1,045
1137,708;  278,798;   -1,364;   -1,045
1138,245;  278,707;    1,273;   -1,227
1138,781;  235,798;    1,091;   -3,318
1139,317;  310,889;    1,273;   -1,409
1139,852;  287,162;    3,091;    0,136
1140,388;  417,071;   -1,182;   -0,409
1140,924;  291,343;   -1,091;   -2,227
1141,460;  233,889;   -1,636;    0,136
1141,996;  162,889;   -1,364;    2,682
1142,531;  200,889;    1,364;    3,318
1143,067;  427,343;    1,182;    1,045
1143,602;  485,889;   -0,091;   -0,318
1144,138;  334,980;   -2,636;    1,045
1144,673;  193,253;   -1,455;    1,409
1145,209;  261,343;   -1,909;   -0,318
1145,744;  185,798;   -0,727;    0,864
1146,279;  317,889;    1,818;   -0,136
1146,815;  230,616;    1,545;   -2,682
1147,350;  275,525;   -1,364;    0,045
1147,885;  183,798;   -0,818;   -1,318
1148,420;  186,798;   -2,273;    0,773
1148,955;  172,253;   -1,727;    1,864
1149,490;  197,071;   -0,909;   -1,591
1150,025;  171,707;    0,455;   -1,773
1150,560;  294,798;    1,091;   -0,955
1151,094;  265,980;    1,455;   -0,591
1151,629;  272,071;    1,636;    0,864
1152,164;  185,889;    1,364;    1,318
1152,698;  136,525;   -0,182;   -0,136
1153,233;  103,889;    0,091;   -0,682
1153,767;  163,798;   -3,000;   -2,318
1154,302;  204,253;   -1,455;    1,773
1154,836;  200,434;   -0,455;   -2,136
1155,371;  254,889;   -1,364;    3,682
1155,905;  212,798;   -0,636;    1,682
1156,439;  179,525;   -0,636;   -0,500
1156,973;  205,707;    0,364;    0,318
1157,507;  140,525;   -0,364;    0,682
1158,042;  168,889;   -0,727;    1,045
1158,576;  218,707;    0,182;    1,773
1159,110;  214,434;   -0,818;    2,409
1159,643;  177,980;    0,636;   -0,045
1160,177;  114,616;   -1,545;    1,500

