
Integration time [ms]:   0,040
Averaging Nr. [scans]: 11
Smoothing Nr. [pixels]: 0
Data measured with spectrometer [name]: 7318044SP
Wave   ;Sample   ;Dark     ;Reference
[nm]   ;[counts] ;[counts] ;[counts] 

186,757;   20,831;   31,551;    1,318
187,357;   57,967;   22,551;    0,955
187,958;   43,869;   15,460;   -1,591
188,558;   86,455;    8,915;   -1,227
189,159;   44,986;    6,733;   -4,500
189,759;   12,584;    7,278;   -3,591
190,360;   22,827;    2,824;   -2,136
190,960;   62,090;    2,915;   -4,136
191,560;   74,508;    3,189;   -6,591
192,161;  329,806;    4,372;   -3,500
192,761;  167,692;    4,010;   -3,227
193,361;  118,878;    1,556;   -3,773
193,962;  174,237;    2,010;   -2,682
194,562;   86,694;    1,189;   -3,955
195,162;  121,308;   -2,448;   -2,227
195,762;  297,984;   -3,176;   -0,045
196,362;  237,059;    1,370;   -2,500
196,963;   89,744;    2,006;   -0,864
197,563;  171,371;    1,551;   -0,955
198,163;  122,986;    0,096;   -0,682
198,763;  139,457;    1,733;   -0,500
199,363;  248,353;    3,096;   -0,500
199,963;  205,917;    0,369;    0,409
200,563;  170,759;    2,823;   -1,409
201,163;  148,710;    3,277;   -0,227
201,763;  250,496;    3,732;    0,318
202,363;  189,429;    1,459;    1,500
202,963;  305,595;    1,459;    1,045
203,563;  419,467;    0,277;    0,500
204,162;  255,129;    2,096;   -1,864
204,762;  241,853;    0,550;    0,591
205,362;  203,987;    3,004;    1,955
205,962;  312,340;    3,096;    1,955
206,562;  314,781;    1,823;    2,318
207,161;  280,344;   -0,087;    0,318
207,761;  434,177;    1,277;    2,409
208,361;  306,959;   -0,268;    1,409
208,960;  429,723;    0,459;    1,500
209,560;  499,144;    1,277;    1,591
210,160;  478,148;    0,550;    1,864
210,759;  440,117;    4,186;    1,227
211,359;  444,420;    1,459;    1,045
211,958;  712,348;    1,277;    2,045
212,558;  806,583;    1,732;    1,864
213,157;  638,028;    1,822;    1,500
213,757; 1096,549;    3,822;   -0,227
214,356;  778,117;    1,277;   -0,409
214,956; 1128,721;    3,095;    0,409
215,555;  742,035;    2,095;    2,136
216,154;  679,976;   -2,723;   -0,591
216,754;  680,964;    0,277;    0,773
217,353;  829,800;   -0,268;   -1,045
217,952;  679,225;   -0,178;    0,318
218,552;  918,231;    1,368;   -0,773
219,151;  812,885;    0,277;    0,955
219,750;  823,250;    0,004;   -0,227
220,349;  959,958;   -0,451;    1,045
220,948; 1018,773;   -1,360;    1,136
221,548; 1055,376;    0,913;    1,227
222,147; 1162,104;   -0,087;   -0,409
222,746; 1454,663;   -0,451;   -0,955
223,345; 1332,603;    0,731;    0,500
223,944; 1334,270;   -0,451;    0,773
224,543; 1533,916;    1,004;   -1,409
225,142; 1652,606;    0,094;    0,136
225,741; 1552,100;   -0,814;    1,045
226,340; 1581,436;   -0,451;   -0,955
226,939; 2047,091;   -0,996;   -0,136
227,538; 2028,022;   -0,360;   -0,773
228,137; 2187,645;   -0,814;    0,864
228,735; 2359,912;   -0,541;    1,227
229,334; 2099,444;   -0,905;   -0,227
229,933; 2459,431;    0,459;    0,591
230,532; 2576,628;    1,186;   -0,409
231,131; 2645,429;    1,732;    0,318
231,729; 2804,763;   -2,450;   -2,318
232,328; 2946,439;   -0,723;   -1,500
232,927; 3030,359;    1,004;   -0,500
233,525; 3171,836;    3,640;    0,045
234,124; 3374,232;    2,368;   -1,591
234,723; 3413,101;    0,913;   -1,045
235,321; 3590,987;    2,277;    0,136
235,920; 3851,224;    1,186;   -1,227
236,518; 4108,565;    3,459;    0,318
237,117; 4279,713;    0,004;   -0,227
237,715; 4473,237;    0,640;   -0,500
238,314; 4505,647;   -0,087;   -2,318
238,912; 4600,498;   -0,723;   -1,409
239,510; 4678,745;    0,459;   -1,227
240,109; 4896,250;    0,004;    3,773
240,707; 4921,431;   -0,996;    1,227
241,305; 5308,143;    0,550;    0,136
241,904; 5503,871;   -0,178;   -2,045
242,502; 5466,708;   -0,632;   -0,227
243,100; 5424,497;   -0,087;   -0,955
243,698; 5669,566;    0,732;    1,682
244,297; 5851,542;   -0,632;    0,682
244,895; 5691,520;   -0,269;   -2,318
245,493; 6049,459;    2,186;   -0,591
246,091; 6070,947;    1,368;   -1,318
246,689; 6059,486;    1,004;    0,591
247,287; 6230,811;    0,822;   -1,136
247,885; 6528,209;   -1,451;    1,227
248,483; 6650,591;    1,822;   -0,500
249,081; 6812,478;    0,185;    1,591
249,679; 6956,213;   -0,178;    1,682
250,277; 7202,529;   -1,723;    0,864
250,875; 7195,230;   -1,087;   -1,045
251,473; 7245,115;   -1,178;    0,500
252,071; 7429,500;    1,459;    1,045
252,669; 7599,997;   -1,814;    0,318
253,267; 7850,211;   -0,087;    0,773
253,864; 7830,629;   -0,360;    0,682
254,462; 7686,009;    1,640;    1,591
255,060; 7653,432;   -0,269;    1,318
255,658; 8004,997;    0,822;   -0,136
256,255; 8426,169;    0,186;   -2,045
256,853; 8298,391;   -0,269;    1,409
257,451; 8295,810;    0,822;    1,864
258,048; 8557,052;    1,822;    1,864
258,646; 8300,912;    1,731;   -1,045
259,243; 8494,119;   -0,087;    2,227
259,841; 8583,517;   -0,814;    0,318
260,438; 8470,456;   -0,087;    0,864
261,036; 9196,580;   -1,905;    1,409
261,633; 9083,737;   -0,087;    2,227
262,231; 8825,829;    2,731;   -0,045
262,828; 8903,173;   -0,905;    1,136
263,425; 8998,039;    0,913;   -0,591
264,023; 9270,887;    0,186;    0,045
264,620; 8805,263;   -0,360;   -0,318
265,217; 9172,913;   -2,087;    3,136
265,815; 9302,102;   -1,905;    2,136
266,412; 9027,743;    0,731;    0,136
267,009; 9097,713;   -1,451;    0,773
267,606; 8961,275;    0,822;   -0,955
268,203; 8939,729;   -0,269;   -0,591
268,801; 9286,660;    1,731;    0,591
269,398; 9575,897;   -0,360;    2,500
269,995; 9541,355;    0,277;    1,591
270,592; 9315,931;   -0,632;   -0,500
271,189; 9530,293;    0,186;    0,409
271,786; 9687,078;   -0,632;    1,227
272,383; 9470,684;   -1,087;    0,227
272,980; 9671,875;    0,277;    0,318
273,577;10161,947;    0,004;    1,227
274,174; 9708,914;    0,822;    2,591
274,771; 9714,725;   -0,814;   -0,773
275,367; 9850,577;    2,277;    1,409
275,964; 9807,626;    0,731;   -0,500
276,561; 9912,653;    1,549;   -1,045
277,158;10154,849;    0,095;   -1,773
277,755;10283,933;    2,185;    0,409
278,351; 9660,451;   -0,451;   -1,500
278,948; 9995,985;   -0,815;    0,045
279,545;10000,851;   -1,360;    2,318
280,141;10630,785;   -1,723;   -2,045
280,738;10502,076;   -0,451;   -0,136
281,334;10757,533;   -1,633;    0,591
281,931;10175,708;   -0,087;   -1,318
282,528;10229,164;    0,822;   -0,500
283,124;10978,191;   -1,087;   -0,500
283,721;10883,592;   -0,451;    1,409
284,317;10686,688;    0,185;    2,500
284,913;11253,663;   -1,360;    0,591
285,510;11415,390;    0,640;   -0,318
286,106;11457,549;   -2,269;   -0,955
286,703;11061,934;   -0,360;    1,955
287,299;11286,789;   -1,451;   -0,591
287,895;11497,932;    0,822;   -1,045
288,491;12057,352;    0,186;    2,136
289,088;11758,194;   -2,360;    2,409
289,684;11847,997;   -1,723;    1,500
290,280;11862,675;    0,368;    0,682
290,876;11976,406;    1,822;    5,500
291,472;11856,881;    1,276;    2,227
292,068;11950,289;    1,367;    0,227
292,665;11672,062;    2,095;    0,773
293,261;11234,215;    0,276;    2,136
293,857;11657,936;    2,913;    2,136
294,453;11581,425;    3,550;    0,955
295,049;11441,326;   -0,268;    1,955
295,644;11498,106;    0,095;    0,136
296,240;11367,421;   -0,905;   -0,136
296,836;11421,647;   -0,995;    0,318
297,432;11707,475;    1,096;   -0,500
298,028;11758,086;    0,732;    0,773
298,624;12210,029;    1,459;    1,864
299,220;12463,759;    2,368;    0,591
299,815;12098,990;    1,005;   -0,409
300,411;11877,963;    0,914;    1,773
301,007;11882,612;    1,368;    0,227
301,602;11957,809;   -0,541;   -2,318
302,198;12108,641;    0,732;   -0,773
302,794;12508,253;    1,187;   -0,500
303,389;12601,181;   -1,177;    1,045
303,985;12660,895;    0,550;    1,409
304,580;12616,610;    1,459;    1,591
305,176;12572,021;   -3,086;    0,136
305,771;12486,383;   -1,268;   -1,227
306,367;12369,667;    4,095;    0,136
306,962;12721,536;    0,641;    1,500
307,558;12453,835;   -0,450;    0,136
308,153;12384,845;    1,095;   -1,136
308,748;12591,321;   -0,814;    1,682
309,344;12594,154;   -0,632;   -1,318
309,939;12693,039;   -1,905;   -1,318
310,534;12955,551;   -0,086;   -1,682
311,130;12881,847;    0,459;   -2,500
311,725;12607,533;    1,004;   -0,500
312,320;12897,971;    2,459;    0,045
312,915;12783,466;    1,459;   -1,045
313,510;12887,572;    1,550;   -0,500
314,105;13361,365;    1,096;    1,409
314,700;12779,051;   -3,086;   -1,045
315,295;12416,065;   -0,904;    0,045
315,890;11948,251;    1,277;    0,864
316,485;12352,546;   -0,359;   -0,318
317,080;12467,276;   -3,086;    1,591
317,675;13033,432;    2,005;   -0,682
318,270;12430,854;    5,550;    3,318
318,865;12435,575;    3,278;    3,045
319,460;12277,140;   -0,904;    0,591
320,055;12519,304;   -0,541;   -1,227
320,650;12149,149;   -1,995;   -0,591
321,244;12182,790;   -0,177;   -1,409
321,839;13140,343;   -1,541;   -0,227
322,434;13043,789;   -1,086;   -1,591
323,029;12647,554;    1,732;    1,591
323,623;12513,412;    1,550;    0,773
324,218;12252,601;    2,368;    1,409
324,812;12134,623;    1,096;    1,591
325,407;11959,776;   -0,814;    2,045
326,002;11874,666;    0,277;   -0,409
326,596;12188,032;    0,914;    1,318
327,191;12391,725;    0,823;   -1,045
327,785;11961,123;   -0,813;   -0,227
328,379;12179,667;    1,368;    0,136
328,974;12011,790;    0,914;   -3,955
329,568;12203,116;    0,186;   -2,409
330,163;11998,781;    2,096;    1,045
330,757;12385,350;    2,459;    1,591
331,351;11693,314;    0,459;    0,682
331,945;11968,792;    0,914;    1,409
332,540;11556,138;   -1,723;   -0,591
333,134;11726,785;   -1,086;    0,773
333,728;11975,197;    0,005;    0,318
334,322;12306,687;   -1,177;   -0,864
334,916;11590,549;    0,277;    0,955
335,510;11956,333;   -0,450;   -0,136
336,105;12179,089;   -1,086;    1,591
336,699;11902,884;   -1,086;    0,591
337,293;11824,595;   -1,723;    0,318
337,887;11979,731;   -2,723;    1,955
338,481;12071,619;    0,459;    0,591
339,074;12203,270;   -0,359;    2,682
339,668;12001,297;   -1,632;    1,227
340,262;12288,642;    1,732;    3,227
340,856;11795,852;    1,822;   -0,682
341,450;11170,785;    1,004;    1,864
342,044;12083,686;    1,459;    0,136
342,637;11831,795;    0,913;   -2,136
343,231;11687,330;   -2,360;    0,682
343,825;11655,787;   -1,086;   -0,591
344,419;11605,284;   -1,995;    0,500
345,012;11369,533;    2,459;    4,045
345,606;11405,463;    4,641;    1,591
346,199;11263,141;   -1,813;   -0,227
346,793;10737,168;    1,914;    2,045
347,386;10918,948;   -0,813;   -1,136
347,980;10918,762;   -0,268;   -0,045
348,573;10698,720;    2,278;    0,409
349,167;10364,029;    5,278;    4,773
349,760;10716,438;    2,914;    2,682
350,354;10733,175;   -0,813;    1,136
350,947;10451,339;    1,096;    1,682
351,540;10093,086;   -0,358;   -1,409
352,134;10025,106;    1,096;    1,136
352,727;10127,639;   -0,086;    1,136
353,320; 9939,079;    0,005;    0,591
353,913; 9791,604;   -1,995;    1,864
354,507; 9972,635;    0,823;   -1,227
355,100; 9964,234;    0,460;    0,864
355,693; 9206,638;    2,005;    2,409
356,286; 9241,736;    0,823;    2,773
356,879; 9600,087;   -0,722;    1,227
357,472; 9175,774;   -0,904;    1,500
358,065; 9386,550;   -0,722;    2,500
358,658; 9319,080;   -0,540;    2,318
359,251; 8983,638;   -1,631;   -0,591
359,844; 8404,077;   -1,904;   -1,136
360,437; 8611,578;   -2,995;    0,045
361,030; 8882,879;    1,369;   -0,682
361,623; 8482,014;    2,824;    0,318
362,215; 8529,109;   -0,086;    2,045
362,808; 8344,783;   -2,358;   -1,682
363,401; 8534,841;   -2,449;    0,136
363,994; 8271,116;   -0,631;   -1,500
364,586; 8212,512;    0,824;   -1,500
365,179; 8406,613;   -0,449;   -1,136
365,772; 7882,007;   -1,995;    2,045
366,364; 8177,072;    1,915;   -3,227
366,957; 8386,874;    2,279;   -0,045
367,549; 8425,740;    2,188;   -0,864
368,142; 8053,492;    1,825;   -1,500
368,734; 8236,484;    0,734;   -2,136
369,327; 8201,546;    1,643;   -0,500
369,919; 8147,125;   -1,538;    0,409
370,512; 7931,493;   -1,083;   -0,500
371,104; 7666,648;   -0,901;    1,591
371,696; 7858,313;    1,191;   -0,955
372,289; 7949,613;    0,373;    1,136
372,881; 8099,963;   -2,080;    1,318
373,473; 8046,016;   -2,170;    1,136
374,066; 7805,651;   -0,169;    0,500
374,658; 7644,675;    0,378;    1,136
375,250; 8006,859;    0,653;   -1,409
375,842; 7875,498;    0,473;   -0,045
376,434; 7770,158;   -0,435;   -0,409
377,026; 8340,762;    0,204;   -2,500
377,618; 8225,831;   -0,158;   -0,682
378,210; 8073,263;   -0,338;   -1,955
378,802; 7922,779;    0,754;   -0,591
379,394; 7885,989;    1,846;    0,682
379,986; 8518,160;    1,393;   -0,955
380,578; 8625,589;   -0,153;    0,773
381,170; 7908,593;   -0,972;    0,045
381,762; 7884,494;    0,755;    1,409
382,354; 8074,090;   -0,065;   -1,318
382,945; 8186,101;   -2,976;    0,318
383,537; 8334,842;   -2,705;   -1,955
384,129; 8336,494;   -2,160;   -1,136
384,721; 8524,638;   -0,252;    0,955
385,312; 8461,460;   -0,161;   -0,955
385,904; 8540,785;   -2,706;    1,591
386,496; 7901,299;   -0,979;    1,045
387,087; 8044,735;    1,022;    2,500
387,679; 8102,371;   -1,160;    0,045
388,270; 8252,863;    2,840;    2,045
388,862; 8358,632;    1,295;   -0,318
389,453; 8261,024;   -0,887;    1,045
390,045; 8529,991;   -0,705;   -2,682
390,636; 8463,790;    0,204;   -0,591
391,227; 8303,912;   -0,523;   -0,045
391,819; 8402,291;    0,204;    0,773
392,410; 8481,228;    1,022;    0,045
393,001; 8431,433;   -0,979;   -1,591
393,593; 8740,923;    1,930;   -0,045
394,184; 8599,445;    1,385;   -0,409
394,775; 8523,393;    1,839;    2,136
395,366; 8701,953;    1,385;    0,773
395,957; 8726,182;    0,113;    0,136
396,548; 9024,527;   -0,342;    2,682
397,139; 9361,185;   -2,433;    0,591
397,730; 9108,363;   -1,888;    0,955
398,321; 9144,422;   -1,252;    0,955
398,912; 9182,050;   -0,615;    0,136
399,503; 9208,434;   -3,524;   -1,409
400,094; 8634,930;    0,294;    1,682
400,685; 8509,430;   -0,433;    0,045
401,276; 8609,743;    0,930;   -0,955
401,867; 8930,862;   -0,888;    0,773
402,458; 9036,971;   -2,251;   -2,318
403,048; 9032,361;    1,112;    0,591
403,639; 8612,166;    0,840;    0,864
404,230; 8876,133;    2,476;    0,318
404,821; 8786,888;   -0,615;    0,045
405,411; 8914,125;    1,203;   -2,591
406,002; 8491,224;   -1,252;   -1,136
406,592; 8337,563;    2,294;    0,045
407,183; 8653,257;    0,566;   -1,500
407,774; 8579,052;    3,475;   -0,136
408,364; 8925,326;    0,930;    0,409
408,954; 8493,545;    0,384;    1,227
409,545; 8602,981;    1,021;    1,045
410,135; 8108,156;    1,293;    0,500
410,726; 8249,957;    1,838;    0,318
411,316; 8637,880;    0,111;    0,773
411,906; 8300,687;   -0,253;   -0,409
412,497; 7790,669;   -1,070;   -0,045
413,087; 8408,747;   -1,980;   -0,227
413,677; 8798,080;   -0,707;    3,864
414,267; 8633,750;    0,656;    1,409
414,857; 8643,060;   -2,980;    4,227
415,448; 8947,629;    0,839;    0,500
416,038; 8638,692;    0,020;   -0,591
416,628; 8571,334;   -0,889;    0,409
417,218; 8029,390;    0,565;    3,318
417,808; 8305,154;    0,202;   -0,409
418,398; 8806,557;    0,020;    2,682
418,988; 8835,647;    2,020;    0,591
419,578; 9105,540;   -0,707;    1,409
420,168; 9436,700;   -1,343;   -0,955
420,757; 9035,025;   -1,343;   -1,500
421,347; 8720,966;    0,111;   -0,227
421,937; 8881,162;    2,292;    1,409
422,527; 8830,153;    0,838;   -0,773
423,116; 8655,856;   -0,253;   -0,045
423,706; 8988,087;   -1,889;    0,318
424,296; 8976,165;    1,384;    0,682
424,885; 9400,529;   -0,071;   -3,045
425,475; 9694,714;    1,474;   -2,864
426,065; 9613,279;   -0,980;   -0,318
426,654; 9185,874;   -0,435;   -0,318
427,244; 9353,589;    0,020;    1,409
427,833; 8784,182;    1,383;   -0,500
428,423; 9291,590;   -0,526;    1,136
429,012;10063,033;   -0,344;   -1,136
429,601; 9531,425;   -1,344;    0,136
430,191; 9744,931;    1,292;    4,318
430,780; 9406,116;   -0,344;   -0,409
431,369; 9348,704;    0,746;   -0,045
431,959; 9976,496;   -1,254;    0,500
432,548; 9756,365;   -1,163;   -0,045
433,137; 9921,349;   -1,254;   -1,318
433,726;10437,293;    0,292;    0,500
434,315; 9778,408;   -0,526;    2,409
434,905; 9884,146;   -1,254;    1,409
435,494; 9774,325;    0,746;    0,955
436,083;10241,837;   -0,981;   -0,955
436,672;10139,913;    0,110;    0,500
437,261; 9674,291;    0,292;   -1,955
437,850; 9802,923;    1,383;    0,682
438,439; 9784,668;    3,291;    1,955
439,027; 9647,809;    3,655;    1,773
439,616;10002,785;    2,927;    1,227
440,205; 9864,634;    0,200;   -2,136
440,794; 9961,817;    2,109;   -0,045
441,383;10215,487;   -1,346;   -0,591
441,971;10074,552;   -2,436;    0,591
442,560; 9957,644;    0,563;   -1,773
443,149; 9711,719;    0,379;   -1,318
443,737; 9849,790;   -0,074;   -2,318
444,326;10113,845;    0,018;    0,318
444,915;10173,483;   -1,982;    0,864
445,503;10570,504;   -2,891;   -0,318
446,092; 9804,282;    0,382;    2,136
446,680;10389,558;    0,382;    0,318
447,269;10563,127;   -0,346;   -0,318
447,857;10336,071;    0,018;   -1,773
448,445;10441,147;    0,563;    1,318
449,034;10630,687;   -1,528;   -1,136
449,622;10760,239;   -1,073;    3,500
450,210;10000,873;    2,017;    2,227
450,799;10570,826;    0,290;   -0,591
451,387;10514,999;    1,381;   -0,591
451,975;10145,385;    2,654;    0,864
452,563;10223,603;    3,472;    2,318
453,151;10259,330;   -0,528;   -1,227
453,739;10194,010;   -1,347;    0,136
454,328;10038,805;    2,381;   -2,136
454,916; 9739,938;    2,562;   -0,136
455,504; 9924,967;    1,017;    1,227
456,092;10119,281;    0,017;   -1,591
456,679;10102,450;    1,472;    0,682
457,267;10040,484;    4,017;    1,045
457,855;10226,891;    1,017;    1,409
458,443; 9989,950;   -0,165;    1,682
459,031;10114,129;    0,108;    2,409
459,619;10571,651;   -1,801;    2,864
460,206;10742,467;    0,835;    2,045
460,794;10801,133;   -2,983;   -0,227
461,382;11059,263;   -0,529;   -0,864
461,970;10610,016;    1,198;    1,864
462,557;10648,400;   -0,711;   -0,682
463,145;10800,662;   -3,165;   -1,682
463,732;10960,772;    2,016;   -1,045
464,320;10926,318;   -0,075;   -3,045
464,907;10598,775;    2,743;   -0,773
465,495;10486,953;    0,743;   -1,227
466,082;10638,877;   -1,984;   -0,045
466,670;10593,903;   -2,529;    1,227
467,257;10992,147;   -1,711;    2,045
467,844;11115,327;   -0,075;    0,045
468,432;11155,202;    0,834;    3,500
469,019;10635,528;    0,925;   -1,773
469,606;11150,668;    0,470;    3,682
470,193;10948,497;   -1,439;    0,227
470,780;10491,919;   -2,075;    0,864
471,368;10853,156;   -1,257;   -0,773
471,955;10631,008;    1,379;   -0,682
472,542;10264,386;    0,652;   -1,136
473,129;10480,923;   -0,166;    0,136
473,716;10211,210;    1,470;    0,591
474,303;10431,950;    0,652;   -0,864
474,890;10757,004;   -1,439;   -0,500
475,477;10775,326;   -1,621;    0,409
476,064;10665,235;    1,106;   -1,591
476,650;10602,345;    0,288;    0,318
477,237;10424,799;   -0,258;    0,955
477,824;10590,142;   -1,076;    0,864
478,411;10655,117;   -1,894;   -0,318
478,997;10856,716;    0,560;   -0,773
479,584;10918,872;    1,196;   -0,409
480,171;11607,887;   -0,440;   -0,773
480,757;11242,271;    2,651;    0,773
481,344;11549,958;    0,469;    0,409
481,931;11100,616;    1,105;    1,045
482,517;12157,676;   -1,258;    0,318
483,104;12778,749;    1,106;    2,864
483,690;13094,222;   -1,804;    0,045
484,276;13488,301;   -0,895;    0,227
484,863;13198,038;    2,469;    1,136
485,449;13823,323;   -0,077;    0,318
486,035;13807,745;   -1,986;   -0,136
486,622;14236,613;   -0,895;    0,045
487,208;14220,123;    1,378;    1,500
487,794;14007,274;    0,741;    0,318
488,380;14134,052;    0,105;   -1,409
488,967;14249,478;   -1,168;   -0,409
489,553;14272,956;   -1,895;   -1,409
490,139;14459,572;    1,559;    0,773
490,725;13839,876;    0,741;   -0,227
491,311;13399,904;    3,287;    3,045
491,897;12714,104;   -0,986;    1,500
492,483;12482,732;    0,105;    1,227
493,069;12236,279;    3,923;    0,864
493,655;12238,430;    1,650;    0,682
494,241;12183,276;    1,377;   -0,955
494,826;12619,859;    0,287;   -1,045
495,412;12064,527;    2,559;   -0,682
495,998;12185,120;   -0,805;   -0,318
496,584;12363,616;    0,377;    1,045
497,169;12367,289;    1,014;   -0,682
497,755;12301,392;    0,650;    1,227
498,341;12843,465;    0,559;    0,318
498,926;12411,624;    1,832;    1,955
499,512;12639,879;    1,286;    2,955
500,097;12764,848;    0,195;   -0,318
500,683;12713,136;   -0,350;    2,136
501,268;13099,363;   -0,169;   -0,955
501,854;12813,860;   -0,169;    1,227
502,439;12713,763;   -0,624;   -1,773
503,024;12935,969;    0,195;    0,500
503,610;13000,528;   -0,078;   -0,682
504,195;13043,175;    0,558;    1,955
504,780;13135,751;    2,922;    1,227
505,366;12938,077;    3,013;    2,864
505,951;12668,706;    0,740;    1,045
506,536;12709,246;   -3,260;   -3,682
507,121;12726,748;    0,285;   -0,318
507,706;13249,131;    2,376;    1,045
508,291;13662,166;    2,649;    1,136
508,876;13105,817;   -0,988;    2,591
509,461;12552,503;   -0,169;   -0,773
510,046;12984,510;    0,194;    0,318
510,631;13213,040;   -0,351;   -0,773
511,216;12845,641;    2,467;   -0,500
511,801;13204,505;   -0,442;    2,591
512,386;13536,422;    0,740;    0,500
512,971;13509,415;   -2,988;    0,955
513,555;13045,809;   -0,897;   -1,500
514,140;13856,158;   -0,442;   -3,136
514,725;13861,690;   -0,715;   -1,136
515,309;13974,744;   -0,533;    0,318
515,894;13424,432;   -0,624;   -2,227
516,479;13875,040;   -0,624;   -0,955
517,063;13722,166;    0,376;    1,227
517,648;13842,645;    1,012;   -1,136
518,232;13550,894;   -0,261;   -1,409
518,817;13858,783;   -0,079;    1,682
519,401;14056,713;    2,194;    0,591
519,985;13585,209;    1,103;    1,136
520,570;13456,445;    0,830;   -1,955
521,154;13716,682;    2,102;    0,591
521,738;13899,040;   -2,352;    2,409
522,323;14478,372;   -0,170;    1,682
522,907;14230,897;    0,466;   -0,136
523,491;13915,371;    0,557;    0,955
524,075;13917,260;    2,284;    0,591
524,659;14005,186;    1,466;    0,591
525,243;13450,062;    1,739;    0,409
525,827;13685,779;    0,648;   -0,045
526,411;14584,731;   -1,989;   -0,136
526,995;14790,580;   -0,352;    1,409
527,579;14393,994;   -0,443;   -1,045
528,163;14709,763;    0,375;   -1,500
528,747;14642,459;    2,466;   -0,773
529,331;14941,914;   -0,080;   -1,409
529,915;15133,990;    1,738;    0,955
530,499;15145,503;   -0,807;    1,227
531,082;14834,799;   -0,534;    1,591
531,666;14245,504;    1,374;    0,773
532,250;14931,075;    1,284;    2,682
532,833;15279,895;    0,920;    2,773
533,417;15165,940;   -1,807;    0,864
534,001;15157,182;    1,647;   -0,318
534,584;15810,255;    0,374;    0,500
535,168;15653,243;    0,465;    1,409
535,751;15740,906;    0,647;    0,045
536,334;15202,963;   -0,898;   -0,409
536,918;15766,522;    0,011;    1,591
537,501;15860,246;   -0,899;    1,318
538,085;15880,472;   -0,444;    1,045
538,668;16068,270;    0,829;    2,409
539,251;16366,614;    1,829;    3,773
539,834;16411,952;    0,101;    0,773
540,418;16308,069;   -1,990;    4,318
541,001;16443,896;   -0,990;    1,773
541,584;16434,431;    2,101;    2,227
542,167;16091,400;    1,374;    2,955
542,750;16284,488;    1,919;   -0,773
543,333;15890,299;    0,555;    2,136
543,916;16676,739;    0,192;    2,500
544,499;17272,497;   -1,354;    0,227
545,082;17274,483;    1,374;    3,591
545,665;17441,284;    1,919;    1,500
546,248;17842,845;    1,010;   -0,318
546,830;17505,327;   -0,445;    1,955
547,413;17888,893;    1,010;   -0,773
547,996;18418,760;    0,555;    0,500
548,579;18191,016;    0,919;    0,955
549,161;17996,548;    1,828;    2,682
549,744;17765,895;   -0,809;    0,409
550,326;18271,090;   -0,809;   -1,136
550,909;18078,600;    2,737;    0,591
551,492;18475,416;   -0,263;    0,227
552,074;18244,137;   -0,173;   -1,318
552,657;18825,747;    2,373;    0,045
553,239;18559,778;   -0,173;   -0,773
553,821;18506,380;   -1,082;    1,045
554,404;17967,527;    1,282;    1,136
554,986;18361,511;    0,464;    1,045
555,568;18975,088;    1,191;   -0,955
556,151;18155,250;    1,191;   -0,227
556,733;18413,025;   -0,264;   -0,864
557,315;18911,408;    0,100;    0,500
557,897;18695,714;    0,554;   -0,500
558,479;18793,031;   -1,991;    1,318
559,061;18952,492;   -0,719;   -0,864
559,643;19262,827;   -0,264;    0,045
560,225;19645,983;    1,645;    2,864
560,807;19690,645;    0,918;    0,318
561,389;19162,377;    0,554;    2,318
561,971;19953,070;    0,463;    2,136
562,553;19730,804;   -1,628;    1,591
563,135;19867,181;   -0,537;    1,136
563,717;19456,142;    3,372;    1,136
564,298;20200,874;    3,645;   -0,045
564,880;19975,384;    0,645;   -1,409
565,462;20120,202;    0,645;    1,318
566,043;21299,755;   -0,446;    2,318
566,625;20814,839;    1,918;    1,227
567,207;20656,589;    1,099;    1,682
567,788;21850,984;   -1,264;    1,500
568,370;22671,199;    1,917;   -0,500
568,951;22529,631;    0,190;    0,227
569,533;23433,014;   -0,628;   -0,500
570,114;23873,571;   -0,446;    0,682
570,695;24436,634;   -0,174;   -1,318
571,277;25017,254;   -0,265;   -1,682
571,858;25723,679;    2,008;   -1,136
572,439;26646,565;    1,554;   -1,045
573,021;26862,020;    2,099;   -2,773
573,602;27418,393;   -1,265;    0,318
574,183;28341,443;   -2,083;    2,227
574,764;28498,119;   -1,629;    0,409
575,345;29060,915;    0,917;   -0,136
575,926;29693,485;   -0,356;    0,136
576,507;29699,478;    1,099;   -0,227
577,088;30810,900;    3,099;    1,682
577,669;30804,805;    0,735;    1,955
578,250;31635,988;    0,644;   -1,045
578,831;32349,714;   -1,356;   -2,227
579,412;32569,967;   -0,810;    0,955
579,993;33467,226;    1,008;    0,227
580,573;33823,174;   -0,629;   -0,955
581,154;32791,844;    0,735;   -0,591
581,735;33655,130;    0,644;    0,773
582,315;33136,221;   -0,629;    2,136
582,896;33450,028;   -0,174;    1,227
583,477;32866,451;    0,189;    1,227
584,057;33100,285;    0,553;    0,955
584,638;33396,681;    2,553;    2,318
585,218;33324,545;   -0,538;    2,682
585,799;33466,982;    0,281;   -0,227
586,379;33479,718;    0,372;    1,591
586,959;32216,507;    0,735;    0,318
587,540;31538,780;   -0,629;    2,227
588,120;31034,625;    1,007;   -0,045
588,700;29966,785;    2,553;    2,136
589,281;30291,473;    0,462;   -0,955
589,861;30202,270;    0,099;   -1,682
590,441;30051,304;    2,371;   -2,682
591,021;28996,311;   -0,265;   -2,591
591,601;29233,889;   -0,537;    0,500
592,181;29227,169;   -0,719;   -0,773
592,761;28526,648;    0,007;    1,409
593,341;28408,105;   -0,901;    0,045
593,921;28358,504;   -0,265;    1,591
594,501;28255,994;   -0,538;    1,318
595,081;28131,160;    0,917;   -0,318
595,661;28498,106;   -1,447;    0,955
596,240;29021,739;   -0,537;    0,136
596,820;28702,289;    0,372;    1,955
597,400;28886,574;    2,008;    0,773
597,980;29093,631;    2,008;    1,045
598,559;29115,465;    2,735;   -0,227
599,139;28837,957;   -0,174;   -1,227
599,718;28733,411;   -0,174;   -0,409
600,298;28914,042;    0,735;    0,682
600,877;29144,377;    2,917;    1,409
601,457;29455,563;    2,281;    1,136
602,036;29349,973;    0,190;    2,045
602,616;29599,261;    0,644;    1,682
603,195;29969,829;   -0,355;    3,500
603,774;29480,834;   -0,901;    2,045
604,354;29371,633;    0,826;   -0,500
604,933;28826,870;    0,463;    1,864
605,512;28938,619;    3,554;    0,591
606,091;28997,298;   -0,537;    3,773
606,671;29838,718;    0,281;    0,773
607,250;28919,731;    1,644;    3,136
607,829;29158,041;    2,372;    3,227
608,408;28994,799;    1,190;    2,591
608,987;28043,968;    1,281;    3,409
609,566;28322,112;   -1,265;   -2,500
610,145;28439,870;   -1,082;    0,682
610,723;28850,109;    4,372;    6,864
611,302;28070,002;   -0,446;    1,682
611,881;27591,416;    5,008;   11,227
612,460;28414,221;    1,645;    3,955
613,039;28846,037;   -0,082;    2,045
613,617;27516,826;    1,736;    4,773
614,196;27721,799;    1,099;    1,227
614,775;28119,992;    1,009;    2,409
615,353;28060,254;    0,736;    0,864
615,932;27762,331;    0,100;    2,409
616,510;28352,349;    0,554;    0,591
617,089;27857,136;    7,100;   17,591
617,667;27538,519;    2,372;    6,136
618,246;27462,386;   -1,537;    1,318
618,824;27628,378;   -3,355;   -0,955
619,402;27166,294;   -2,900;   -1,773
619,981;27693,394;   -0,173;   -1,045
620,559;27547,123;    0,009;    1,682
621,137;27004,310;   -0,718;    1,864
621,715;27030,459;   -1,173;   -0,682
622,293;26942,272;   -0,537;   -0,773
622,871;27408,771;   -0,718;    0,500
623,450;27026,536;    0,373;   -0,864
624,028;26901,059;    0,191;   -0,955
624,606;26535,840;   -1,718;    1,682
625,183;26935,538;   -1,536;   -1,136
625,761;26508,350;    1,009;    1,136
626,339;26780,475;    1,373;    2,591
626,917;27193,127;   -0,172;   -0,045
627,495;27291,088;   -0,354;    1,318
628,073;26679,662;   -0,263;    2,864
628,650;26399,599;    0,100;    2,136
629,228;26836,271;    0,373;    4,409
629,806;26199,248;    2,282;    1,136
630,383;26429,018;    1,464;   -0,318
630,961;26214,553;    2,555;   -0,955
631,539;25991,973;    2,464;    0,227
632,116;25304,098;   11,373;   15,409
632,694;25851,121;    2,555;    6,500
633,271;26264,044;    0,828;    2,682
633,848;26120,495;    1,828;    2,045
634,426;26166,948;   -1,081;    1,773
635,003;25311,236;    1,101;   -0,409
635,580;25622,120;    1,192;    3,682
636,158;26161,718;    3,737;    1,227
636,735;26177,712;    0,555;   -0,500
637,312;26316,040;   -0,809;   -0,682
637,889;26356,976;   -4,354;   -0,682
638,466;25860,628;   -3,990;   -0,409
639,043;25862,023;    2,101;   -1,136
639,620;26193,712;   -2,262;   -0,955
640,197;26509,014;    1,100;    1,682
640,774;26608,712;   -0,172;    1,136
641,351;27078,409;    0,737;    1,136
641,928;26476,833;   -0,627;    1,409
642,505;26099,258;    0,828;   -0,500
643,082;26187,682;   -1,718;    1,227
643,658;25217,289;   -0,718;    1,500
644,235;25962,168;    1,191;    2,500
644,812;26293,229;    1,918;    0,773
645,388;26068,562;   -0,991;    1,409
645,965;26201,169;   -0,809;    1,682
646,542;26214,321;   -1,445;   -0,227
647,118;26159,018;    1,009;   -0,955
647,695;26488,170;   -0,263;    1,136
648,271;26381,594;   -0,536;    0,500
648,848;26702,746;    0,736;    2,227
649,424;26542,716;    0,827;    1,318
650,000;26299,050;   -0,354;   -1,045
650,577;26127,747;   -0,627;   -0,955
651,153;26580,899;   -1,809;    0,955
651,729;27622,959;    1,191;    0,864
652,305;27955,748;    0,645;    2,773
652,881;32833,990;   -0,082;    1,136
653,458;40051,869;    1,100;    0,227
654,034;43897,294;    0,282;    1,591
654,610;45378,900;    0,554;    0,773
655,186;46652,507;    0,645;    3,045
655,762;46303,204;   -0,991;    0,409
656,338;46218,901;    0,100;    0,136
656,913;47275,598;   -0,082;    0,409
657,489;46574,023;    0,827;   -0,318
658,065;46497,266;   -0,173;   -1,591
658,641;47090,781;   -0,900;   -0,864
659,217;46343,115;   -0,991;    0,409
659,792;45788,903;    0,645;   -0,409
660,368;45958,418;   -2,173;   -0,682
660,944;45505,116;   -2,082;    1,227
661,519;40611,176;   -0,628;    0,409
662,095;34369,601;   -1,719;    0,591
662,670;29746,207;    1,281;   -0,136
663,246;28623,359;    1,009;   -0,409
663,821;27914,966;    0,281;    1,682
664,396;27397,845;    0,009;    1,864
664,972;27715,815;    0,009;   -0,500
665,547;27960,694;    1,372;    0,136
666,122;28045,482;   -1,082;    0,318
666,698;28317,179;   -0,173;    0,318
667,273;27634,058;   -0,173;    0,136
667,848;28460,301;    2,372;    1,500
668,423;28255,725;    2,190;    2,318
668,998;28882,332;    2,827;   -0,682
669,573;29355,120;   -3,264;   -1,500
670,148;29227,272;   -1,446;   -0,682
670,723;29047,151;   -1,810;    0,318
671,298;29398,575;    2,372;    1,045
671,873;29493,091;   -0,082;   -0,136
672,448;29450,879;    0,645;    0,136
673,023;29838,303;   -1,992;   -0,227
673,597;30127,637;    0,827;    2,318
674,172;29908,607;   -0,355;    0,318
674,747;29418,395;    0,372;   -1,045
675,321;29280,547;   -0,628;    3,318
675,896;28837,790;    0,645;    1,045
676,471;29838,578;    2,645;    1,591
677,045;29566,821;   -1,264;    0,682
677,620;29673,427;    0,190;    1,136
678,194;29947,306;   -2,628;    1,136
678,769;29564,185;   -1,083;   -0,318
679,343;29778,882;   -0,628;    1,773
679,917;29659,307;   -1,446;    1,955
680,492;29786,550;    0,826;    3,227
681,066;29836,792;    3,372;    0,409
681,640;29896,762;    1,463;   -0,318
682,214;30737,369;    0,735;    0,500
682,788;30254,066;   -1,356;   -0,773
683,363;30185,400;   -1,810;    1,682
683,937;29901,915;   -1,719;   -0,318
684,511;30668,158;    0,463;   -0,591
685,085;30338,946;   -1,356;    0,318
685,659;30119,461;   -2,538;    0,864
686,232;30390,977;   -0,356;   -0,318
686,806;30123,947;   -0,901;    0,409
687,380;30776,826;   -0,174;    0,591
687,954;30971,068;   -1,174;    1,136
688,528;30713,493;   -0,719;    1,955
689,101;31467,190;   -3,992;    1,045
689,675;31038,888;   -0,356;   -0,136
690,249;30425,585;   -0,719;    0,409
690,822;30730,282;    0,280;    0,318
691,396;30854,525;   -0,265;    1,227
691,969;30283,586;    1,280;    0,136
692,543;30705,010;   -0,447;   -1,955
693,116;30380,798;   -0,265;   -1,409
693,690;30206,587;    0,099;    0,500
694,263;30797,102;   -1,083;    2,955
694,836;30836,708;    1,371;    3,591
695,410;29459,406;   -0,265;    1,773
695,983;29953,921;    0,189;    0,591
696,556;29951,709;   -0,447;   -1,045
697,129;30355,225;   -0,356;    1,409
697,703;29997,922;   -1,629;    1,955
698,276;29942,074;    1,462;   -0,773
698,849;29718,044;    1,280;    1,409
699,422;30071,832;   -1,083;    0,591
699,995;29744,165;    0,007;    0,136
700,568;30269,317;   -0,629;    3,045
701,140;30286,651;   -2,811;    1,682
701,713;30018,348;   -0,174;    2,409
702,286;29782,409;   -0,538;    0,864
702,859;29678,924;   -0,902;   -0,591
703,432;28850,167;    0,825;    0,682
704,004;29360,046;    0,462;    0,318
704,577;29223,380;   -0,629;    0,136
705,150;29762,077;    0,189;    2,500
705,722;29526,865;   -0,356;   -3,227
706,295;29353,290;   -0,175;   -0,591
706,867;29200,442;   -0,175;    1,955
707,440;29379,048;   -1,720;   -0,409
708,012;29676,109;    0,462;    0,591
708,584;29565,988;    2,462;    0,227
709,157;29851,958;    1,825;   -0,591
709,729;29522,473;    2,280;    2,045
710,301;30411,352;    0,734;    0,045
710,874;30402,868;   -1,447;   -0,227
711,446;29248,020;    0,371;    0,864
712,018;29174,262;    0,098;    0,500
712,590;28882,051;   -1,993;    1,682
713,162;29451,839;    0,825;    1,318
713,734;29684,445;    1,825;   -2,045
714,306;29536,779;   -1,902;   -0,409
714,878;28202,294;    0,825;    0,864
715,450;29095,082;    0,643;    0,864
716,022;29315,961;    1,552;    1,318
716,593;29436,659;    0,189;    0,591
717,165;29388,992;   -3,175;   -1,227
717,737;29072,326;    0,280;    0,409
718,309;28732,296;    0,280;   -0,045
718,880;28684,175;   -0,539;   -1,409
719,452;28957,872;   -0,175;   -1,591
720,024;28544,115;    0,734;   -0,591
720,595;29037,539;   -2,902;    0,955
721,167;28635,873;    0,370;   -2,045
721,738;28160,570;   -0,812;   -1,045
722,309;28155,540;   -0,993;   -1,227
722,881;27896,692;   -1,357;    0,773
723,452;28516,389;   -2,630;    2,864
724,023;28734,178;   -0,721;    2,682
724,595;28479,238;    0,007;    0,682
725,166;28236,845;    0,007;   -0,409
725,737;27879,451;    1,734;    0,227
726,308;27968,239;   -0,266;    0,318
726,879;28423,027;   -1,630;    1,227
727,450;28295,725;    0,552;   -0,045
728,021;28233,877;    3,097;    0,682
728,592;28029,846;    0,734;    0,500
729,163;28320,180;    0,643;   -0,136
729,734;28368,514;    0,188;   -0,227
730,305;28724,938;    1,734;    0,136
730,876;29047,181;    0,188;    2,955
731,447;28823,515;    2,188;    2,682
732,017;28928,757;    1,097;    1,864
732,588;28376,273;    0,734;    1,227
733,159;28622,334;    0,643;   -1,045
733,729;28402,485;    0,006;    0,409
734,300;27684,637;    0,915;    0,864
734,870;28147,880;    3,461;    0,591
735,441;28727,577;    0,370;   -0,591
736,011;28467,638;    0,643;   -1,591
736,582;28421,154;   -0,812;    0,045
737,152;27912,578;   -1,721;   -2,045
737,722;28315,366;   -0,267;   -0,682
738,293;28006,791;   -1,358;    1,318
738,863;27867,670;    2,461;    2,318
739,433;27667,367;    5,279;    0,318
740,003;28299,155;   -0,994;   -0,682
740,573;27734,762;    2,097;   -1,591
741,143;27679,459;   -1,085;    0,318
741,713;28483,429;    1,188;   -0,500
742,283;28141,672;    0,915;    1,591
742,853;27939,732;    1,915;    1,591
743,423;27380,339;    1,733;    0,045
743,993;27485,036;   -0,358;    1,500
744,563;26851,370;    0,097;   -0,864
745,133;26831,431;   -0,812;   -0,864
745,702;27509,946;   -0,267;    1,773
746,272;26720,461;   -0,176;    0,591
746,842;26505,522;   -1,358;   -0,591
747,411;26936,401;   -0,267;   -0,318
747,981;27108,917;    0,097;    0,500
748,551;27097,614;    2,278;   -1,045
749,120;26969,675;    0,642;   -0,227
749,690;27352,918;   -0,631;    2,409
750,259;27703,160;    1,369;    2,955
750,828;27621,130;    1,551;   -1,955
751,398;27910,373;    1,278;   -0,045
751,967;27395,252;    2,187;    0,409
752,536;27588,768;   -0,813;   -0,227
753,105;28012,192;    0,096;    0,227
753,675;27812,526;    0,096;    1,773
754,244;27744,132;   -0,904;    3,591
754,813;27798,648;    0,551;    1,227
755,382;27386,618;    0,460;    0,955
755,951;27961,315;    1,551;    3,682
756,520;27469,467;   -0,085;    1,864
757,089;28087,346;    0,278;    0,500
757,658;28209,498;    1,733;    1,227
758,227;28168,468;    1,096;    0,318
758,795;28505,437;    1,187;    1,136
759,364;28734,135;   -0,086;   -0,591
759,933;27753,832;   -1,176;   -0,045
760,501;27245,984;    0,733;   -1,318
761,070;27724,227;   -2,813;   -1,409
761,639;28393,197;   -1,904;    1,318
762,207;27780,348;    1,551;   -0,955
762,776;27707,227;    0,369;    0,864
763,344;27712,016;   -0,995;    0,591
763,913;26760,349;   -0,722;    1,409
764,481;27453,956;    1,005;   -0,136
765,049;27271,926;   -1,358;    1,409
765,618;27134,805;   -0,086;    0,318
766,186;27248,502;    0,278;    0,136
766,754;27465,835;    0,005;    1,864
767,322;26494,987;   -1,995;    0,409
767,890;26469,685;   -0,722;   -1,773
768,459;26871,200;   -2,177;   -0,318
769,027;27052,715;    1,641;    3,409
769,595;26013,231;    3,278;    2,591
770,163;26430,837;    3,823;    2,955
770,730;26142,807;    0,732;   -0,136
771,298;25975,414;    0,187;   -1,409
771,866;26057,020;   -1,541;    4,955
772,434;26419,717;   -0,631;   -1,864
773,002;26542,142;    0,005;    0,682
773,569;26186,475;    0,914;    1,682
774,137;26065,627;   -0,268;   -0,045
774,705;26868,597;    0,278;   -0,136
775,272;26324,022;    0,641;    0,682
775,840;26063,992;   -0,177;    2,682
776,407;25624,507;    0,277;    1,955
776,975;25283,204;   -0,632;    0,318
777,542;26256,720;   -1,086;   -0,045
778,110;26053,144;   -1,268;   -0,045
778,677;25729,751;   -2,359;   -0,864
779,244;25490,357;    2,186;    1,045
779,812;25622,054;    1,823;    0,864
780,379;25465,024;    0,005;    1,136
780,946;25686,176;    1,005;   -0,773
781,513;26027,873;   -1,450;    0,318
782,080;25454,752;   -0,086;    2,864
782,647;26184,904;   -0,268;    3,045
783,214;25715,601;   -0,177;    3,864
783,781;25323,026;   -0,723;   -0,682
784,348;25202,087;   -0,632;    1,500
784,915;25676,511;   -3,177;    0,318
785,482;25407,481;    1,368;    2,591
786,049;25891,088;    0,186;   -0,591
786,615;26039,058;    0,277;   -0,955
787,182;25734,482;    0,186;   -0,682
787,749;25416,725;   -2,814;    1,409
788,315;24773,604;   -1,632;   -0,409
788,882;25059,574;    1,550;   -1,227
789,448;25722,271;    1,732;   -0,955
790,015;25763,332;    1,095;    3,227
790,581;25351,029;    1,459;    0,227
791,148;25257,999;    0,641;    1,045
791,714;25462,333;   -0,541;    3,136
792,280;25105,212;    0,186;    1,591
792,847;24671,637;    0,550;    2,500
793,413;25243,607;   -0,269;   -0,318
793,979;24716,213;    3,459;   -1,318
794,545;24860,910;    4,459;    2,682
795,111;24276,880;    2,186;    1,318
795,678;24442,305;    0,731;   -1,682
796,244;24058,911;    3,368;    0,136
796,810;24589,336;    1,731;    0,773
797,375;24318,669;    0,549;   -2,136
797,941;24363,730;   -0,541;    0,591
798,507;24524,791;   -0,451;   -0,955
799,073;24045,397;   -0,360;    0,591
799,639;24119,004;   -2,632;    3,136
800,205;24163,974;    0,095;    2,682
800,770;23702,944;    0,640;    1,773
801,336;23801,914;    1,368;   -0,955
801,901;23477,793;    4,549;    3,136
802,467;24038,217;   -0,542;    2,045
803,033;23383,642;   -0,087;    0,864
803,598;23603,066;    1,913;   -1,045
804,163;23597,218;    1,095;   -0,318
804,729;23521,097;   -0,178;    1,136
805,294;23952,885;    0,822;    2,227
805,859;23696,310;    0,731;   -0,409
806,425;23177,734;    1,186;    2,682
806,990;22845,341;    2,186;    4,318
807,555;23390,856;   -1,451;    2,591
808,120;23251,463;    0,822;   -0,409
808,685;23299,523;    0,185;   -2,500
809,250;22812,584;    0,004;   -0,500
809,815;23062,736;    1,913;    0,682
810,380;23607,161;   -0,269;    1,591
810,945;24212,949;   -1,087;    2,045
811,510;23327,192;    2,094;    1,591
812,075;23105,252;   -0,633;   -1,409
812,640;23149,404;    2,003;    1,409
813,204;23174,283;    0,822;   -0,227
813,769;23620,435;    2,094;   -0,045
814,334;23084,041;    0,458;    0,864
814,898;23114,193;    0,367;    0,591
815,463;22985,163;    1,276;   -0,773
816,027;22916,497;   -0,724;   -2,318
816,592;23018,558;    0,640;   -2,045
817,156;22454,073;    2,094;    1,136
817,721;22380,134;    4,276;    2,318
818,285;22375,195;    2,912;    1,500
818,849;22993,801;   -1,451;    1,682
819,414;22870,044;   -0,269;    2,955
819,978;22443,741;   -1,269;    1,773
820,542;23035,439;    2,003;    0,500
821,106;22748,318;   -0,815;    0,682
821,670;22813,379;   -0,815;    2,591
822,234;22522,348;   -0,270;    1,409
822,798;21928,864;    0,003;    0,500
823,362;21872,470;   -0,633;    4,227
823,926;21151,440;    0,094;    1,136
824,490;21412,865;   -0,997;   -0,682
825,054;21845,562;   -0,088;   -1,136
825,618;21486,805;   -1,542;   -1,500
826,181;21411,047;    0,458;   -1,318
826,745;21323,654;    1,367;   -1,045
827,309;21684,987;    1,185;    1,318
827,872;21039,321;    1,367;    0,955
828,436;22076,291;    1,185;   -0,773
828,999;22101,806;   -0,997;    1,227
829,563;20876,776;   -0,179;    1,136
830,126;20717,110;   -0,179;   -0,591
830,690;20719,080;   -1,997;    2,864
831,253;20240,323;   -0,543;    2,227
831,816;20435,384;   -1,906;    0,500
832,380;20382,808;    0,185;    0,864
832,943;20527,960;   -1,361;   -0,500
833,506;20014,748;    2,639;   -1,227
834,069;20790,809;    3,912;   -0,955
834,632;20860,506;    1,730;    1,318
835,195;20767,113;    1,003;    0,955
835,758;19921,810;   -0,997;    1,955
836,321;19809,416;    0,730;   -1,045
836,884;19885,204;   -0,725;   -0,955
837,447;19908,174;   -2,816;    1,773
838,010;20203,144;    0,366;    3,227
838,573;20479,024;   -1,179;    0,773
839,135;20391,993;   -1,361;   -0,955
839,698;19887,327;    1,275;    0,409
840,261;19379,479;    1,003;   -0,227
840,823;19241,994;   -0,543;    0,864
841,386;19510,601;   -0,452;   -2,409
841,948;19403,480;   -1,361;    1,773
842,511;19158,904;    0,912;    1,682
843,073;19282,965;    1,912;    0,227
843,636;19109,844;   -0,361;   -0,227
844,198;19032,632;    0,911;    0,591
844,760;19134,148;    1,093;    1,955
845,322;18821,027;    0,548;    1,136
845,885;19315,542;    0,730;    0,591
846,447;19696,876;   -1,998;    0,227
847,009;19267,301;    1,911;   -0,682
847,571;19580,452;    0,820;   -2,045
848,133;19731,604;   -1,089;   -1,864
848,695;19534,301;   -0,543;    1,409
849,257;19077,635;   -1,089;   -1,682
849,819;19232,787;   -0,998;   -0,409
850,381;19246,939;   -0,725;   -0,864
850,942;19654,545;    1,093;   -0,591
851,504;19594,697;    1,184;    0,227
852,066;19601,849;    1,275;   -1,591
852,628;19126,909;   -0,180;    1,955
853,189;18729,425;    1,638;    2,682
853,751;18872,031;   -0,907;    1,409
854,312;18652,638;   -0,453;   -1,682
854,874;19120,153;   -2,089;   -0,773
855,435;19680,578;   -0,907;   -1,682
855,997;19850,093;   -1,816;   -0,136
856,558;19120,518;    0,366;    1,773
857,119;19194,306;    0,820;    2,864
857,681;18871,821;    0,002;    0,318
858,242;18934,518;    1,911;   -2,136
858,803;19386,943;    0,456;   -0,773
859,364;19941,367;    0,184;   -4,773
859,925;19259,247;   -2,453;   -0,955
860,486;19130,307;   -0,453;   -0,955
861,047;18879,914;   -0,544;   -1,227
861,608;18669,520;   -1,089;   -0,773
862,169;18801,217;    0,638;   -0,045
862,730;18579,006;    0,456;    1,409
863,291;18820,885;   -0,635;   -0,500
863,852;19176,764;   -0,635;    1,955
864,412;18624,097;   -0,271;   -0,864
864,973;17249,613;   -0,089;    0,500
865,534;17119,946;   -1,726;    0,227
866,094;18590,644;    1,820;    0,227
866,655;18232,795;    1,274;    3,318
867,215;18517,856;    0,274;    0,136
867,776;18349,463;    0,547;   -0,136
868,336;18470,796;   -1,453;    0,136
868,897;17935,403;    2,638;    1,682
869,457;17676,100;    1,365;    0,318
870,017;17898,434;    0,547;   -1,227
870,578;18416,404;   -0,817;    0,773
871,138;18101,555;   -2,089;   -0,955
871,698;17655,889;   -0,817;   -1,318
872,258;17553,586;   -0,453;   -2,864
872,818;17923,465;    2,729;    0,045
873,378;17874,072;    0,638;    1,045
873,938;17419,951;    0,547;    0,500
874,498;17775,830;    0,274;   -1,955
875,058;17640,527;    2,183;    1,773
875,618;17475,952;    1,910;   -2,682
876,177;17436,103;    1,274;    0,136
876,737;16986,528;   -0,090;    1,955
877,297;17051,498;    0,183;    1,955
877,856;17020,741;   -0,362;    0,318
878,416;16987,529;    1,183;   -0,136
878,976;17205,499;   -1,817;    0,409
879,535;17401,014;    0,092;    3,136
880,095;17124,166;   -0,544;    0,045
880,654;17225,136;   -1,090;    1,318
881,213;17329,651;    2,456;    1,500
881,773;17005,167;    2,637;    2,682
882,332;17396,228;    3,365;    5,136
882,891;17215,834;    3,092;    2,136
883,451;17700,531;   -1,272;    1,682
884,010;17112,683;   -2,908;   -0,409
884,569;17203,471;   -0,999;   -0,045
885,128;17309,350;    2,819;   -1,864
885,687;17407,502;    4,455;    0,682
886,246;17108,745;    1,455;    2,136
886,805;16887,715;    2,455;    2,045
887,364;17220,139;   -0,999;   -0,500
887,922;17535,019;   -1,181;    0,045
888,481;16999,807;   -1,545;    0,591
889,040;17304,868;    1,183;    2,136
889,599;18003,383;    2,455;    1,409
890,157;18069,626;    1,455;    2,409
890,716;17767,505;   -0,090;    0,227
891,274;17632,202;    0,092;   -1,136
891,833;18037,172;    1,546;    0,864
892,391;17930,415;   -0,454;    0,500
892,950;17978,567;    1,819;   -0,773
893,508;18330,627;    0,455;   -0,409
894,067;17689,779;    0,637;    0,136
894,625;17598,658;   -0,636;   -1,500
895,183;17806,356;   -0,363;   -0,682
895,741;17711,507;    1,728;   -1,773
896,299;17516,841;   -0,545;   -2,409
896,858;17703,356;    0,819;   -1,591
897,416;17850,236;    2,728;   -1,318
897,974;17584,933;    1,819;    0,318
898,532;17755,266;    6,091;    2,682
899,089;17639,873;    2,091;   -0,682
899,647;17657,752;   -1,454;    1,318
900,205;17387,267;    1,182;    1,045
900,763;17578,783;   -0,454;    0,227
901,321;17610,844;    2,364;   -1,409
901,878;17019,359;   -1,000;   -0,773
902,436;16874,511;   -1,363;    1,318
902,994;17261,026;    4,728;    3,682
903,551;16692,996;    0,728;    0,409
904,109;17120,784;    0,182;   -1,409
904,666;16660,754;    2,455;    1,045
905,224;16483,543;    0,182;   -0,409
905,781;16225,694;    0,727;   -0,318
906,338;16311,119;   -1,363;    1,045
906,895;16247,634;    0,637;    2,045
907,453;16170,513;    1,727;    1,136
908,010;16208,483;   -0,909;    0,409
908,567;15854,817;    1,273;    0,591
909,124;15359,151;    0,364;   -1,500
909,681;15427,848;   -2,909;    0,682
910,238;15538,272;    0,636;   -1,318
910,795;15830,788;   -0,273;   -1,136
911,352;15451,606;   -2,909;   -2,682
911,909;14875,152;   -1,364;   -0,864
912,466;15391,970;   -3,182;    1,500
913,022;14934,788;   -1,636;    0,500
913,579;15285,879;   -0,909;    2,045
914,136;14994,333;    1,636;    0,955
914,692;15313,788;    0,091;   -1,227
915,249;14935,424;    1,455;    0,409
915,806;15163,697;    0,182;    1,955
916,362;14932,788;    1,909;    1,864
916,918;14495,879;    2,000;    1,045
917,475;14404,788;   -1,182;    0,955
918,031;14456,970;    3,364;   -0,045
918,587;13942,061;   -0,909;   -0,318
919,144;14148,424;   -2,273;    0,227
919,700;14479,333;    1,727;    0,773
920,256;14064,788;    0,727;    0,045
920,812;13668,152;   -0,727;   -1,045
921,368;13659,606;   -1,727;   -1,045
921,924;13325,152;    0,182;   -0,136
922,480;12875,879;   -0,545;    1,227
923,036;13488,970;    1,273;    1,955
923,592;13401,152;    0,455;    0,318
924,148;13349,061;    0,455;   -0,955
924,704;12650,333;   -1,364;   -0,409
925,259;12899,333;   -0,273;    0,591
925,815;12655,515;    1,455;    0,500
926,371;12139,606;    2,909;    1,409
926,926;12052,061;    2,091;    0,591
927,482;11707,152;   -1,364;    0,773
928,037;11564,061;    0,909;    2,045
928,593;11885,424;    1,636;    1,045
929,148;11730,788;   -1,818;   -1,500
929,704;11193,970;   -1,455;   -0,500
930,259;11424,424;    0,091;   -0,136
930,814;10452,970;   -0,818;    1,955
931,369;10131,242;    1,091;   -0,773
931,925;10003,333;   -0,091;    0,136
932,480; 9915,424;   -2,818;   -2,591
933,035; 9787,879;    0,545;   -0,318
933,590; 9549,788;    0,364;   -1,773
934,145; 9188,152;   -1,364;   -0,318
934,700; 9501,606;    0,455;   -0,591
935,255; 9330,333;   -0,091;    0,045
935,809; 8599,515;    3,182;    0,864
936,364; 7692,606;   -0,455;   -0,136
936,919; 7659,970;    0,455;   -1,773
937,474; 7542,879;    1,455;    0,136
938,028; 7284,061;   -1,636;    1,136
938,583; 6768,879;    1,818;    4,682
939,138; 7022,970;    2,091;    2,136
939,692; 6477,242;    1,636;   -1,136
940,247; 6176,788;   -0,727;   -1,045
940,801; 5746,788;   -0,636;    0,227
941,355; 5617,606;   -0,364;    2,591
941,910; 5232,788;   -0,273;   -2,136
942,464; 5333,515;   -0,818;   -0,318
943,018; 5122,242;    1,000;   -0,227
943,572; 5078,697;    2,545;   -0,682
944,126; 4496,424;    0,091;   -0,409
944,681; 4365,697;    3,091;    0,227
945,235; 4345,515;    1,000;   -0,591
945,789; 4306,242;    0,364;   -1,864
946,342; 4385,879;    0,455;   -0,591
946,896; 4188,333;   -2,273;    0,955
947,450; 3936,970;    1,545;   -0,227
948,004; 4135,879;    1,727;   -0,045
948,558; 4161,970;    0,273;   -0,864
949,111; 4088,424;   -0,273;   -0,318
949,665; 4100,879;    1,636;   -0,682
950,219; 3956,515;   -0,091;   -1,045
950,772; 4061,152;   -1,909;    1,864
951,326; 3948,242;    0,545;   -0,955
951,879; 4061,061;    0,727;   -2,318
952,433; 4074,333;    0,000;    2,227
952,986; 3913,606;    2,909;    0,682
953,539; 3878,333;   -0,273;    0,591
954,093; 3796,424;    0,545;   -1,318
954,646; 3926,697;    0,909;    1,318
955,199; 3750,152;    0,000;   -0,500
955,752; 3635,697;   -0,455;    1,773
956,305; 3588,152;   -0,091;    2,955
956,858; 3746,242;    0,818;   -0,318
957,411; 3896,788;   -0,545;    2,136
957,964; 3745,788;    1,364;    2,136
958,517; 3725,515;   -1,545;    3,136
959,070; 3566,515;   -0,455;    1,955
959,623; 3645,242;    1,091;    1,500
960,176; 3389,970;    1,727;    2,045
960,728; 3391,242;   -2,727;    0,773
961,281; 3442,152;    0,545;    0,500
961,834; 3482,788;   -0,909;    0,864
962,386; 3388,515;    1,727;    1,045
962,939; 3344,515;    0,364;   -0,318
963,491; 3483,515;    0,455;    1,136
964,043; 3344,788;    1,182;    2,409
964,596; 3494,879;   -1,000;    2,227
965,148; 3315,424;   -1,000;    1,773
965,700; 3211,788;    1,091;   -0,227
966,253; 3377,515;   -0,636;    0,318
966,805; 3215,970;   -2,273;    0,773
967,357; 3249,606;    1,091;   -1,500
967,909; 3215,061;    0,455;   -1,227
968,461; 3329,788;    0,545;    3,136
969,013; 3250,697;   -0,182;   -0,864
969,565; 3344,424;   -0,455;   -1,136
970,117; 3387,242;   -0,364;    1,045
970,669; 3233,061;    0,182;   -0,136
971,220; 3114,606;   -0,455;   -1,500
971,772; 3016,061;   -0,636;   -0,318
972,324; 3150,606;    0,091;   -0,500
972,876; 3078,697;    0,818;   -0,045
973,427; 3223,606;    1,909;   -1,045
973,979; 3205,424;   -0,727;   -2,500
974,530; 3234,788;    1,818;    1,318
975,082; 3239,606;   -0,545;    1,682
975,633; 3132,697;    1,091;    1,682
976,184; 3273,515;    0,909;    0,773
976,736; 3066,788;    0,091;    0,227
977,287; 2856,606;   -0,909;   -0,500
977,838; 3036,515;    0,909;   -0,318
978,389; 3116,242;   -1,000;   -0,500
978,940; 2993,242;    0,545;   -0,409
979,491; 3011,333;    0,091;   -0,500
980,042; 2963,606;    0,182;    3,045
980,593; 3021,424;   -2,545;    0,227
981,144; 3055,061;    2,545;   -0,500
981,695; 3031,515;    1,455;    1,500
982,246; 3002,970;   -0,273;    1,045
982,797; 3158,061;   -1,727;    0,682
983,347; 3244,697;    0,364;    0,591
983,898; 3412,152;    3,091;    0,409
984,449; 3235,515;    2,182;    0,773
984,999; 3160,061;    1,455;   -1,136
985,550; 2922,788;    0,182;   -0,318
986,100; 2959,970;   -0,455;   -0,318
986,651; 2994,879;   -0,818;    0,045
987,201; 2968,879;   -1,000;   -0,591
987,751; 3065,515;    0,818;    2,864
988,302; 3048,606;    2,636;    1,500
988,852; 3064,061;    0,455;   -1,136
989,402; 3116,061;    0,091;    0,682
989,952; 3017,788;   -2,182;    0,864
990,502; 3122,970;   -0,091;    0,682
991,052; 3081,061;   -0,727;    0,045
991,602; 2948,061;   -2,909;    1,318
992,152; 2950,333;    0,455;    0,682
992,702; 2927,697;    1,364;   -0,045
993,252; 2858,606;   -3,000;   -0,500
993,802; 2936,061;   -0,273;    1,318
994,352; 3163,788;   -1,545;    1,136
994,901; 3260,606;   -0,182;    3,227
995,451; 3169,152;   -0,182;    0,318
996,000; 3259,515;    1,636;    0,318
996,550; 2990,515;    2,273;    0,227
997,100; 2986,061;    1,273;   -0,045
997,649; 3266,879;    2,182;    0,955
998,198; 2893,970;    1,727;   -1,500
998,748; 3082,606;    1,091;   -2,318
999,297; 2995,879;   -0,818;   -0,409
999,846; 3040,879;    1,000;   -0,773
1000,395; 3102,515;   -0,818;    0,500
1000,945; 3060,788;    1,818;   -0,773
1001,494; 3154,242;    2,364;    0,682
1002,043; 3113,970;    4,636;    0,864
1002,592; 2962,788;   -1,091;    1,955
1003,141; 3127,788;   -0,455;   -0,682
1003,690; 2982,152;    1,727;    0,500
1004,238; 3069,061;    1,455;   -0,045
1004,787; 2718,697;    1,364;    1,227
1005,336; 2926,242;    0,364;    0,682
1005,885; 3090,333;    1,364;   -2,773
1006,433; 3231,061;    0,545;    0,955
1006,982; 3273,424;    0,455;    1,682
1007,531; 3194,697;   -1,818;   -0,227
1008,079; 3154,606;   -2,273;    0,500
1008,627; 3292,152;   -1,455;    0,409
1009,176; 3026,242;    0,000;   -1,955
1009,724; 3077,061;    1,091;    0,864
1010,273; 3115,424;    1,273;    0,500
1010,821; 3213,515;    0,091;    1,409
1011,369; 2949,515;   -1,364;    1,318
1011,917; 2939,697;   -1,364;   -0,591
1012,465; 3231,970;    1,273;   -1,591
1013,013; 3340,970;    2,091;   -1,682
1013,561; 3220,061;    0,455;   -0,773
1014,109; 3277,152;   -1,909;    1,682
1014,657; 3150,333;    0,364;    0,591
1015,205; 3264,152;    1,636;   -0,955
1015,753; 3304,879;   -0,545;   -1,409
1016,301; 3357,697;   -2,636;    3,045
1016,848; 3343,970;   -1,273;    0,409
1017,396; 3385,242;    2,545;    0,045
1017,944; 3508,515;    1,182;    1,864
1018,491; 3253,697;    0,273;    1,409
1019,039; 3398,242;    0,455;    0,591
1019,586; 3321,242;   -1,364;    1,682
1020,134; 3422,970;    0,455;    1,500
1020,681; 3464,061;    0,182;   -1,136
1021,228; 3474,515;    2,909;   -2,227
1021,776; 3286,788;    1,182;   -1,136
1022,323; 3514,788;    0,455;    0,773
1022,870; 3441,424;   -1,000;   -0,045
1023,417; 3335,788;    2,636;    1,864
1023,964; 3484,333;    2,636;    1,227
1024,511; 3328,788;    1,000;    0,773
1025,058; 3125,606;    3,182;   -0,045
1025,605; 3177,242;   -2,273;    3,136
1026,152; 3392,515;    1,727;   -0,591
1026,699; 3137,424;    1,818;    1,318
1027,245; 3291,788;   -0,091;    0,318
1027,792; 3496,970;   -1,000;    1,409
1028,339; 3392,061;    2,364;   -0,045
1028,885; 3224,333;    1,000;   -0,227
1029,432; 3168,515;   -0,091;    0,227
1029,978; 3235,788;   -1,000;   -1,591
1030,525; 3147,606;    1,000;    0,409
1031,071; 3398,515;   -1,364;    1,136
1031,618; 3508,515;    0,364;    1,682
1032,164; 3284,242;   -0,091;    3,045
1032,710; 3338,879;    1,636;   -1,500
1033,256; 3248,970;   -0,636;   -0,136
1033,803; 3223,788;   -0,545;    1,500
1034,349; 2933,697;   -1,364;    0,136
1034,895; 3086,515;    0,000;   -0,318
1035,441; 3067,515;   -0,818;    0,318
1035,987; 3067,606;   -2,364;   -0,682
1036,533; 3058,697;   -1,455;   -0,955
1037,078; 3262,061;    1,455;    1,682
1037,624; 3082,788;    2,455;   -0,955
1038,170; 3108,061;    0,455;   -0,318
1038,716; 3021,697;    1,636;   -0,409
1039,261; 2932,606;   -2,273;   -0,773
1039,807; 2882,152;   -0,091;    3,409
1040,352; 2947,242;   -1,909;   -0,318
1040,898; 2991,333;   -1,545;   -0,682
1041,443; 2902,788;   -1,455;   -2,591
1041,989; 2906,333;    1,091;    1,591
1042,534; 2790,970;   -0,364;    2,591
1043,079; 2920,697;    2,909;    0,955
1043,625; 2701,697;    1,818;    0,500
1044,170; 2752,061;   -1,364;    1,045
1044,715; 2992,424;    2,455;    0,955
1045,260; 2824,333;    2,182;   -0,955
1045,805; 2875,788;    1,182;   -0,591
1046,350; 2784,424;    1,364;   -0,409
1046,895; 2742,242;    2,909;    1,591
1047,440; 2704,424;    5,364;    0,409
1047,985; 2607,333;    2,818;   -0,955
1048,530; 2523,788;    1,545;    1,227
1049,074; 2590,061;    0,000;    0,318
1049,619; 2572,879;   -1,364;    1,955
1050,164; 2359,515;    0,455;    0,227
1050,708; 2401,424;   -0,455;    0,045
1051,253; 2754,697;    1,273;   -2,227
1051,797; 2470,697;    0,818;   -1,318
1052,342; 2492,061;   -1,182;    1,045
1052,886; 2485,424;    0,364;   -1,409
1053,430; 2357,970;   -1,364;    0,136
1053,975; 2362,424;   -0,818;   -0,318
1054,519; 2349,515;   -0,727;    3,227
1055,063; 2363,606;    0,909;    1,318
1055,607; 2248,424;   -0,182;    0,227
1056,151; 2265,333;    2,909;    1,682
1056,695; 2194,697;    2,273;   -1,136
1057,239; 2264,333;   -1,727;   -0,682
1057,783; 2267,788;    0,818;   -1,500
1058,327; 2209,333;    0,000;    1,409
1058,871; 2437,424;   -0,545;    1,318
1059,415; 2148,424;   -0,818;   -0,045
1059,958; 2410,606;    1,455;    2,591
1060,502; 2127,515;   -1,000;   -0,773
1061,046; 2045,424;    0,364;   -0,955
1061,589; 2011,242;   -3,000;   -1,136
1062,133; 1900,788;   -1,273;    1,864
1062,676; 1831,242;    1,182;    0,864
1063,220; 1826,424;    1,091;    0,500
1063,763; 1850,788;    0,909;    1,136
1064,306; 1934,061;   -0,909;    1,864
1064,849; 1824,697;   -0,909;    0,591
1065,393; 1834,697;    2,000;   -1,500
1065,936; 1942,788;    0,182;   -0,409
1066,479; 1827,788;   -1,455;    1,318
1067,022; 1835,515;   -0,273;   -0,227
1067,565; 1743,697;   -0,091;   -1,318
1068,108; 1763,424;    0,727;   -0,591
1068,651; 1746,879;   -0,636;    1,409
1069,194; 1684,242;   -0,455;   -1,682
1069,736; 1678,606;   -1,273;    0,955
1070,279; 1654,788;   -1,364;   -0,500
1070,822; 1710,424;   -2,000;   -0,318
1071,364; 1790,424;   -0,364;    1,318
1071,907; 1611,606;   -0,727;    3,227
1072,450; 1519,879;    0,000;   -0,045
1072,992; 1505,788;   -0,273;    3,136
1073,535; 1661,242;    2,091;    2,136
1074,077; 1453,879;   -0,727;    2,045
1074,619; 1402,333;   -1,364;    0,591
1075,161; 1435,515;   -1,091;    1,500
1075,704; 1611,152;    1,545;    1,227
1076,246; 1412,879;   -0,182;    0,682
1076,788; 1352,424;   -0,364;    1,773
1077,330; 1423,061;    1,273;    2,136
1077,872; 1377,879;    0,909;    0,955
1078,414; 1612,424;    2,727;    0,773
1078,956; 1327,061;    1,273;   -0,227
1079,498; 1598,424;    1,636;    0,318
1080,040; 1315,970;    1,909;   -1,318
1080,581; 1252,788;    1,636;   -0,318
1081,123; 1166,061;    0,091;   -0,773
1081,665; 1217,333;   -1,182;   -0,955
1082,206; 1518,061;    1,364;   -0,500
1082,748; 1370,970;    0,727;    2,045
1083,289; 1246,788;   -2,000;    1,318
1083,831; 1147,879;   -0,545;    0,227
1084,372; 1189,879;    0,000;    0,591
1084,913; 1193,879;    1,091;    0,864
1085,455; 1160,879;   -1,909;   -2,045
1085,996; 1133,606;   -2,273;    0,136
1086,537; 1167,152;   -0,091;    0,864
1087,078; 1190,970;   -0,909;   -2,136
1087,619; 1233,879;   -1,273;    0,227
1088,160; 1142,242;    0,000;    1,318
1088,701; 1134,061;   -1,091;    0,682
1089,242; 1061,061;    1,364;   -2,227
1089,783; 1163,424;   -0,273;    1,409
1090,324; 1121,242;    0,455;    0,682
1090,865; 1005,333;    2,727;   -0,409
1091,405;  984,970;    0,727;    2,227
1091,946; 1002,697;    0,182;   -0,955
1092,487;  928,242;    0,818;   -1,409
1093,027; 1100,152;   -1,364;   -1,500
1093,568;  953,970;   -0,364;    1,227
1094,108; 1047,152;    0,273;    1,773
1094,649;  983,061;   -1,182;    0,136
1095,189;  921,788;   -0,636;   -0,682
1095,729;  874,879;   -0,091;    0,955
1096,269;  875,788;    0,727;   -0,955
1096,810; 1195,970;   -1,364;    0,500
1097,350; 1016,606;    1,364;   -0,773
1097,890;  911,242;    0,364;    1,227
1098,430; 1169,697;    2,364;    2,864
1098,970; 1048,697;    2,182;    1,682
1099,510;  913,515;    0,545;   -2,318
1100,050;  839,515;    1,000;   -1,591
1100,589;  803,333;   -0,727;   -0,318
1101,129;  924,697;    0,818;   -0,955
1101,669; 1084,242;    1,727;    2,136
1102,209;  903,424;   -0,091;    2,227
1102,748;  859,152;    0,000;    0,955
1103,288;  848,242;    1,273;   -1,227
1103,827;  875,788;    3,091;   -2,227
1104,367;  757,515;   -0,091;   -2,409
1104,906;  714,788;    1,364;   -1,136
1105,445;  781,333;    0,636;   -1,136
1105,985;  731,606;   -0,727;    1,500
1106,524;  783,606;   -1,727;   -0,682
1107,063;  754,061;   -2,727;    1,409
1107,602;  729,152;   -1,909;   -1,500
1108,141;  647,424;   -1,909;    1,500
1108,680;  752,970;   -3,455;   -0,591
1109,219;  686,697;   -0,909;   -0,500
1109,758;  687,788;    0,455;    0,682
1110,297;  659,970;    1,000;   -0,682
1110,836;  600,333;   -0,727;    0,955
1111,375;  776,788;   -2,545;    0,409
1111,913;  786,697;   -1,000;    0,773
1112,452;  716,697;   -0,273;    0,136
1112,991;  603,333;    1,091;    1,955
1113,529;  555,242;   -0,818;   -0,045
1114,068;  630,424;   -0,273;    2,955
1114,606;  529,061;   -0,364;   -0,955
1115,144;  689,061;   -1,273;    1,045
1115,683;  626,606;   -0,727;    0,318
1116,221;  681,333;   -0,455;   -0,864
1116,759;  595,515;    0,636;   -0,864
1117,297;  786,697;    0,000;    1,864
1117,836;  587,515;   -2,182;   -1,227
1118,374;  592,970;    0,182;   -0,682
1118,912;  539,424;    0,909;    2,682
1119,450;  535,152;    1,000;    0,864
1119,988;  582,424;    1,545;    2,136
1120,525; 1038,333;    5,091;    3,318
1121,063;  733,242;    1,182;    1,864
1121,601;  540,424;   -0,909;   -1,227
1122,139;  498,970;   -0,727;   -2,045
1122,676;  695,152;   -0,727;    2,773
1123,214;  625,606;   -1,182;    4,409
1123,751;  437,606;    1,727;    2,227
1124,289;  565,606;   -0,091;   -0,409
1124,826;  427,879;    1,727;    0,227
1125,364;  352,697;    1,727;   -0,955
1125,901;  546,515;    1,182;    1,227
1126,438;  669,606;    0,818;    0,955
1126,975;  382,788;   -0,727;   -0,773
1127,513;  460,424;    0,273;    2,136
1128,050;  361,788;    1,636;   -0,682
1128,587;  459,697;    2,000;   -0,227
1129,124;  513,788;    0,091;    1,318
1129,661;  371,879;    0,273;    0,227
1130,198;  534,970;    1,636;    0,773
1130,734;  488,424;    0,182;    1,409
1131,271;  336,242;   -0,909;    0,864
1131,808;  513,061;    2,909;    3,045
1132,345;  374,697;    1,545;    0,318
1132,881;  255,879;   -1,545;   -1,864
1133,418;  398,152;    0,727;   -1,136
1133,954;  340,152;    2,455;   -2,682
1134,491;  412,061;    1,364;   -0,773
1135,027;  309,152;    2,364;    0,864
1135,564;  408,515;    0,273;    2,955
1136,100;  388,970;    0,364;    2,136
1136,636;  268,879;   -1,273;   -1,045
1137,172;  367,152;    0,000;   -1,045
1137,708;  281,970;   -1,364;   -1,045
1138,245;  295,333;    1,273;   -1,227
1138,781;  232,606;    1,091;   -3,318
1139,317;  304,333;    1,273;   -1,409
1139,852;  292,879;    3,091;    0,136
1140,388;  417,788;   -1,182;   -0,409
1140,924;  302,152;   -1,091;   -2,227
1141,460;  234,606;   -1,636;    0,136
1141,996;  168,788;   -1,364;    2,682
1142,531;  213,879;    1,364;    3,318
1143,067;  440,061;    1,182;    1,045
1143,602;  503,606;   -0,091;   -0,318
1144,138;  345,424;   -2,636;    1,045
1144,673;  203,606;   -1,455;    1,409
1145,209;  276,879;   -1,909;   -0,318
1145,744;  189,788;   -0,727;    0,864
1146,279;  338,152;    1,818;   -0,136
1146,815;  234,697;    1,545;   -2,682
1147,350;  281,606;   -1,364;    0,045
1147,885;  192,697;   -0,818;   -1,318
1148,420;  192,970;   -2,273;    0,773
1148,955;  168,061;   -1,727;    1,864
1149,490;  200,697;   -0,909;   -1,591
1150,025;  188,242;    0,455;   -1,773
1150,560;  297,152;    1,091;   -0,955
1151,094;  263,879;    1,455;   -0,591
1151,629;  273,061;    1,636;    0,864
1152,164;  196,515;    1,364;    1,318
1152,698;  149,606;   -0,182;   -0,136
1153,233;  107,424;    0,091;   -0,682
1153,767;  152,424;   -3,000;   -2,318
1154,302;  213,061;   -1,455;    1,773
1154,836;  199,697;   -0,455;   -2,136
1155,371;  266,606;   -1,364;    3,682
1155,905;  215,970;   -0,636;    1,682
1156,439;  174,788;   -0,636;   -0,500
1156,973;  209,970;    0,364;    0,318
1157,507;  152,697;   -0,364;    0,682
1158,042;  179,152;   -0,727;    1,045
1158,576;  229,879;    0,182;    1,773
1159,110;  220,242;   -0,818;    2,409
1159,643;  182,333;    0,636;   -0,045
1160,177;  120,152;   -1,545;    1,500

