
Integration time [ms]:   0,040
Averaging Nr. [scans]: 11
Smoothing Nr. [pixels]: 0
Data measured with spectrometer [name]: 7318044SP
Wave   ;Sample   ;Dark     ;Reference
[nm]   ;[counts] ;[counts] ;[counts] 

186,757;   17,156;   31,551;    1,318
187,357;   57,795;   22,551;    0,955
187,958;   38,599;   15,460;   -1,591
188,558;   78,693;    8,915;   -1,227
189,159;   46,808;    6,733;   -4,500
189,759;   17,772;    7,278;   -3,591
190,360;   18,912;    2,824;   -2,136
190,960;   55,529;    2,915;   -4,136
191,560;   76,122;    3,189;   -6,591
192,161;  322,061;    4,372;   -3,500
192,761;  162,111;    4,010;   -3,227
193,361;  112,695;    1,556;   -3,773
193,962;  167,309;    2,010;   -2,682
194,562;   85,394;    1,189;   -3,955
195,162;  125,962;   -2,448;   -2,227
195,762;  287,985;   -3,176;   -0,045
196,362;  233,675;    1,370;   -2,500
196,963;   90,146;    2,006;   -0,864
197,563;  161,879;    1,551;   -0,955
198,163;  113,340;    0,096;   -0,682
198,763;  122,478;    1,733;   -0,500
199,363;  234,641;    3,096;   -0,500
199,963;  197,330;    0,369;    0,409
200,563;  179,511;    2,823;   -1,409
201,163;  142,796;    3,277;   -0,227
201,763;  241,773;    3,732;    0,318
202,363;  179,236;    1,459;    1,500
202,963;  296,281;    1,459;    1,045
203,563;  417,172;    0,277;    0,500
204,162;  245,372;    2,096;   -1,864
204,762;  232,837;    0,550;    0,591
205,362;  199,275;    3,004;    1,955
205,962;  313,337;    3,096;    1,955
206,562;  310,175;    1,823;    2,318
207,161;  268,945;   -0,087;    0,318
207,761;  439,298;    1,277;    2,409
208,361;  306,199;   -0,268;    1,409
208,960;  402,853;    0,459;    1,500
209,560;  479,123;    1,277;    1,591
210,160;  458,333;    0,550;    1,864
210,759;  420,048;    4,186;    1,227
211,359;  433,190;    1,459;    1,045
211,958;  708,983;    1,277;    2,045
212,558;  793,956;    1,732;    1,864
213,157;  628,014;    1,822;    1,500
213,757; 1075,944;    3,822;   -0,227
214,356;  766,723;    1,277;   -0,409
214,956; 1110,470;    3,095;    0,409
215,555;  734,603;    2,095;    2,136
216,154;  670,271;   -2,723;   -0,591
216,754;  670,171;    0,277;    0,773
217,353;  808,046;   -0,268;   -1,045
217,952;  660,756;   -0,178;    0,318
218,552;  907,488;    1,368;   -0,773
219,151;  801,482;    0,277;    0,955
219,750;  794,813;    0,004;   -0,227
220,349;  936,024;   -0,451;    1,045
220,948;  992,995;   -1,360;    1,136
221,548; 1014,734;    0,913;    1,227
222,147; 1138,470;   -0,087;   -0,409
222,746; 1422,709;   -0,451;   -0,955
223,345; 1304,459;    0,731;    0,500
223,944; 1309,797;   -0,451;    0,773
224,543; 1489,739;    1,004;   -1,409
225,142; 1593,153;    0,094;    0,136
225,741; 1495,342;   -0,814;    1,045
226,340; 1519,941;   -0,451;   -0,955
226,939; 1978,280;   -0,996;   -0,136
227,538; 1951,269;   -0,360;   -0,773
228,137; 2103,030;   -0,814;    0,864
228,735; 2249,662;   -0,541;    1,227
229,334; 1999,926;   -0,905;   -0,227
229,933; 2369,907;    0,459;    0,591
230,532; 2501,127;    1,186;   -0,409
231,131; 2543,213;    1,732;    0,318
231,729; 2702,612;   -2,450;   -2,318
232,328; 2823,567;   -0,723;   -1,500
232,927; 2894,791;    1,004;   -0,500
233,525; 3028,920;    3,640;    0,045
234,124; 3249,004;    2,368;   -1,591
234,723; 3261,040;    0,913;   -1,045
235,321; 3420,807;    2,277;    0,136
235,920; 3661,071;    1,186;   -1,227
236,518; 3928,838;    3,459;    0,318
237,117; 4084,706;    0,004;   -0,227
237,715; 4255,899;    0,640;   -0,500
238,314; 4285,140;   -0,087;   -2,318
238,912; 4399,717;   -0,723;   -1,409
239,510; 4456,427;    0,459;   -1,227
240,109; 4635,333;    0,004;    3,773
240,707; 4689,505;   -0,996;    1,227
241,305; 5082,205;    0,550;    0,136
241,904; 5291,841;   -0,178;   -2,045
242,502; 5254,673;   -0,632;   -0,227
243,100; 5214,890;   -0,087;   -0,955
243,698; 5450,264;    0,732;    1,682
244,297; 5625,112;   -0,632;    0,682
244,895; 5463,798;   -0,269;   -2,318
245,493; 5822,811;    2,186;   -0,591
246,091; 5884,670;    1,368;   -1,318
246,689; 5835,393;    1,004;    0,591
247,287; 6018,538;    0,822;   -1,136
247,885; 6310,082;   -1,451;    1,227
248,483; 6432,411;    1,822;   -0,500
249,081; 6565,681;    0,185;    1,591
249,679; 6723,786;   -0,178;    1,682
250,277; 6996,869;   -1,723;    0,864
250,875; 6966,349;   -1,087;   -1,045
251,473; 6999,743;   -1,178;    0,500
252,071; 7243,957;    1,459;    1,045
252,669; 7394,615;   -1,814;    0,318
253,267; 7662,767;   -0,087;    0,773
253,864; 7640,357;   -0,360;    0,682
254,462; 7495,796;    1,640;    1,591
255,060; 7447,137;   -0,269;    1,318
255,658; 7780,251;    0,822;   -0,136
256,255; 8211,170;    0,186;   -2,045
256,853; 8087,446;   -0,269;    1,409
257,451; 8084,711;    0,822;    1,864
258,048; 8327,688;    1,822;    1,864
258,646; 8094,155;    1,731;   -1,045
259,243; 8270,264;   -0,087;    2,227
259,841; 8329,588;   -0,814;    0,318
260,438; 8219,600;   -0,087;    0,864
261,036; 8930,967;   -1,905;    1,409
261,633; 8830,078;   -0,087;    2,227
262,231; 8576,633;    2,731;   -0,045
262,828; 8650,208;   -0,905;    1,136
263,425; 8732,679;    0,913;   -0,591
264,023; 9015,137;    0,186;    0,045
264,620; 8542,419;   -0,360;   -0,318
265,217; 8928,165;   -2,087;    3,136
265,815; 9022,854;   -1,905;    2,136
266,412; 8779,265;    0,731;    0,136
267,009; 8838,524;   -1,451;    0,773
267,606; 8737,610;    0,822;   -0,955
268,203; 8717,107;   -0,269;   -0,591
268,801; 8988,642;    1,731;    0,591
269,398; 9298,309;   -0,360;    2,500
269,995; 9305,299;    0,277;    1,591
270,592; 9064,139;   -0,632;   -0,500
271,189; 9274,887;    0,186;    0,409
271,786; 9407,079;   -0,632;    1,227
272,383; 9218,339;   -1,087;    0,227
272,980; 9449,683;    0,277;    0,318
273,577; 9921,722;    0,004;    1,227
274,174; 9481,772;    0,822;    2,591
274,771; 9456,797;   -0,814;   -0,773
275,367; 9572,172;    2,277;    1,409
275,964; 9543,744;    0,731;   -0,500
276,561; 9615,628;    1,549;   -1,045
277,158; 9820,968;    0,095;   -1,773
277,755; 9992,226;    2,185;    0,409
278,351; 9398,333;   -0,451;   -1,500
278,948; 9740,736;   -0,815;    0,045
279,545; 9744,259;   -1,360;    2,318
280,141;10368,147;   -1,723;   -2,045
280,738;10248,788;   -0,451;   -0,136
281,334;10503,582;   -1,633;    0,591
281,931; 9869,970;   -0,087;   -1,318
282,528; 9970,162;    0,822;   -0,500
283,124;10667,887;   -1,087;   -0,500
283,721;10572,680;   -0,451;    1,409
284,317;10404,039;    0,185;    2,500
284,913;10970,384;   -1,360;    0,591
285,510;11164,112;    0,640;   -0,318
286,106;11175,567;   -2,269;   -0,955
286,703;10806,418;   -0,360;    1,955
287,299;10982,678;   -1,451;   -0,591
287,895;11201,269;    0,822;   -1,045
288,491;11786,127;    0,186;    2,136
289,088;11496,681;   -2,360;    2,409
289,684;11561,615;   -1,723;    1,500
290,280;11577,043;    0,368;    0,682
290,876;11682,656;    1,822;    5,500
291,472;11560,090;    1,276;    2,227
292,068;11661,940;    1,367;    0,227
292,665;11372,406;    2,095;    0,773
293,261;10948,077;    0,276;    2,136
293,857;11374,943;    2,913;    2,136
294,453;11321,539;    3,550;    0,955
295,049;11195,448;   -0,268;    1,955
295,644;11218,178;    0,095;    0,136
296,240;11137,797;   -0,905;   -0,136
296,836;11220,153;   -0,995;    0,318
297,432;11477,287;    1,096;   -0,500
298,028;11504,714;    0,732;    0,773
298,624;11938,530;    1,459;    1,864
299,220;12208,640;    2,368;    0,591
299,815;11852,303;    1,005;   -0,409
300,411;11623,357;    0,914;    1,773
301,007;11659,609;    1,368;    0,227
301,602;11695,949;   -0,541;   -2,318
302,198;11873,565;    0,732;   -0,773
302,794;12215,141;    1,187;   -0,500
303,389;12326,063;   -1,177;    1,045
303,985;12404,954;    0,550;    1,409
304,580;12355,136;    1,459;    1,591
305,176;12323,871;   -3,086;    0,136
305,771;12248,761;   -1,268;   -1,227
306,367;12098,306;    4,095;    0,136
306,962;12423,585;    0,641;    1,500
307,558;12161,340;   -0,450;    0,136
308,153;12094,512;    1,095;   -1,136
308,748;12336,998;   -0,814;    1,682
309,344;12314,610;   -0,632;   -1,318
309,939;12368,420;   -1,905;   -1,318
310,534;12612,833;   -0,086;   -1,682
311,130;12589,157;    0,459;   -2,500
311,725;12335,739;    1,004;   -0,500
312,320;12629,926;    2,459;    0,045
312,915;12489,838;    1,459;   -1,045
313,510;12568,502;    1,550;   -0,500
314,105;13084,173;    1,096;    1,409
314,700;12465,754;   -3,086;   -1,045
315,295;12100,500;   -0,904;    0,045
315,890;11676,031;    1,277;    0,864
316,485;12069,384;   -0,359;   -0,318
317,080;12152,776;   -3,086;    1,591
317,675;12685,658;    2,005;   -0,682
318,270;12080,860;    5,550;    3,318
318,865;12091,037;    3,278;    3,045
319,460;11962,008;   -0,904;    0,591
320,055;12197,511;   -0,541;   -1,227
320,650;11858,366;   -1,995;   -0,591
321,244;11917,897;   -0,177;   -1,409
321,839;12844,858;   -1,541;   -0,227
322,434;12700,926;   -1,086;   -1,591
323,029;12338,914;    1,732;    1,591
323,623;12175,817;    1,550;    0,773
324,218;11975,065;    2,368;    1,409
324,812;11878,781;    1,096;    1,591
325,407;11663,826;   -0,814;    2,045
326,002;11553,803;    0,277;   -0,409
326,596;11853,195;    0,914;    1,318
327,191;12056,690;    0,823;   -1,045
327,785;11629,286;   -0,813;   -0,227
328,379;11839,722;    1,368;    0,136
328,974;11650,844;    0,914;   -3,955
329,568;11874,727;    0,186;   -2,409
330,163;11703,773;    2,096;    1,045
330,757;12090,638;    2,459;    1,591
331,351;11376,439;    0,459;    0,682
331,945;11651,045;    0,914;    1,409
332,540;11238,898;   -1,723;   -0,591
333,134;11427,615;   -1,086;    0,773
333,728;11680,594;    0,005;    0,318
334,322;12032,835;   -1,177;   -0,864
334,916;11300,542;    0,277;    0,955
335,510;11610,371;   -0,450;   -0,136
336,105;11874,508;   -1,086;    1,591
336,699;11600,548;   -1,086;    0,591
337,293;11527,138;   -1,723;    0,318
337,887;11680,140;   -2,723;    1,955
338,481;11796,562;    0,459;    0,591
339,074;11948,901;   -0,359;    2,682
339,668;11749,847;   -1,632;    1,227
340,262;11968,743;    1,732;    3,227
340,856;11488,100;    1,822;   -0,682
341,450;10854,290;    1,004;    1,864
342,044;11788,319;    1,459;    0,136
342,637;11528,151;    0,913;   -2,136
343,231;11390,956;   -2,360;    0,682
343,825;11340,362;   -1,086;   -0,591
344,419;11318,981;   -1,995;    0,500
345,012;11113,609;    2,459;    4,045
345,606;11120,278;    4,641;    1,591
346,199;10990,433;   -1,813;   -0,227
346,793;10453,834;    1,914;    2,045
347,386;10654,654;   -0,813;   -1,136
347,980;10673,175;   -0,268;   -0,045
348,573;10431,708;    2,278;    0,409
349,167;10140,596;    5,278;    4,773
349,760;10472,546;    2,914;    2,682
350,354;10467,277;   -0,813;    1,136
350,947;10187,130;    1,096;    1,682
351,540; 9841,243;   -0,358;   -1,409
352,134; 9782,850;    1,096;    1,136
352,727; 9895,608;   -0,086;    1,136
353,320; 9693,814;    0,005;    0,591
353,913; 9536,781;   -1,995;    1,864
354,507; 9730,804;    0,823;   -1,227
355,100; 9711,413;    0,460;    0,864
355,693; 8947,975;    2,005;    2,409
356,286; 9006,210;    0,823;    2,773
356,879; 9365,555;   -0,722;    1,227
357,472; 8921,509;   -0,904;    1,500
358,065; 9160,588;   -0,722;    2,500
358,658; 9078,278;   -0,540;    2,318
359,251; 8721,650;   -1,631;   -0,591
359,844; 8213,211;   -1,904;   -1,136
360,437; 8387,845;   -2,995;    0,045
361,030; 8641,164;    1,369;   -0,682
361,623; 8211,257;    2,824;    0,318
362,215; 8277,515;   -0,086;    2,045
362,808; 8110,815;   -2,358;   -1,682
363,401; 8329,371;   -2,449;    0,136
363,994; 8040,935;   -0,631;   -1,500
364,586; 7956,292;    0,824;   -1,500
365,179; 8180,062;   -0,449;   -1,136
365,772; 7638,788;   -1,995;    2,045
366,364; 7972,411;    1,915;   -3,227
366,957; 8168,569;    2,279;   -0,045
367,549; 8185,638;    2,188;   -0,864
368,142; 7837,981;    1,825;   -1,500
368,734; 8040,062;    0,734;   -2,136
369,327; 7972,159;    1,643;   -0,500
369,919; 7897,707;   -1,538;    0,409
370,512; 7670,251;   -1,083;   -0,500
371,104; 7427,926;   -0,901;    1,591
371,696; 7612,138;    1,191;   -0,955
372,289; 7702,370;    0,373;    1,136
372,881; 7860,742;   -2,080;    1,318
373,473; 7795,690;   -2,170;    1,136
374,066; 7590,367;   -0,169;    0,500
374,658; 7418,621;    0,378;    1,136
375,250; 7792,832;    0,653;   -1,409
375,842; 7639,733;    0,473;   -0,045
376,434; 7513,379;   -0,435;   -0,409
377,026; 8077,554;    0,204;   -2,500
377,618; 7972,991;   -0,158;   -0,682
378,210; 7826,831;   -0,338;   -1,955
378,802; 7663,361;    0,754;   -0,591
379,394; 7624,171;    1,846;    0,682
379,986; 8213,338;    1,393;   -0,955
380,578; 8334,908;   -0,153;    0,773
381,170; 7672,010;   -0,972;    0,045
381,762; 7621,586;    0,755;    1,409
382,354; 7813,672;   -0,065;   -1,318
382,945; 7942,259;   -2,976;    0,318
383,537; 8090,084;   -2,705;   -1,955
384,129; 8092,535;   -2,160;   -1,136
384,721; 8280,122;   -0,252;    0,955
385,312; 8236,965;   -0,161;   -0,955
385,904; 8302,890;   -2,706;    1,591
386,496; 7669,192;   -0,979;    1,045
387,087; 7824,919;    1,022;    2,500
387,679; 7866,881;   -1,160;    0,045
388,270; 7994,778;    2,840;    2,045
388,862; 8102,699;    1,295;   -0,318
389,453; 7995,382;   -0,887;    1,045
390,045; 8278,077;   -0,705;   -2,682
390,636; 8201,016;    0,204;   -0,591
391,227; 8055,895;   -0,523;   -0,045
391,819; 8153,517;    0,204;    0,773
392,410; 8224,774;    1,022;    0,045
393,001; 8181,032;   -0,979;   -1,591
393,593; 8457,040;    1,930;   -0,045
394,184; 8319,132;    1,385;   -0,409
394,775; 8247,441;    1,839;    2,136
395,366; 8445,703;    1,385;    0,773
395,957; 8434,633;    0,113;    0,136
396,548; 8775,385;   -0,342;    2,682
397,139; 9077,570;   -2,433;    0,591
397,730; 8805,389;   -1,888;    0,955
398,321; 8837,951;   -1,252;    0,955
398,912; 8868,382;   -0,615;    0,136
399,503; 8955,769;   -3,524;   -1,409
400,094; 8402,599;    0,294;    1,682
400,685; 8256,056;   -0,433;    0,045
401,276; 8359,838;    0,930;   -0,955
401,867; 8662,378;   -0,888;    0,773
402,458; 8749,707;   -2,251;   -2,318
403,048; 8721,136;    1,112;    0,591
403,639; 8360,180;    0,840;    0,864
404,230; 8591,904;    2,476;    0,318
404,821; 8514,769;   -0,615;    0,045
405,411; 8632,881;    1,203;   -2,591
406,002; 8216,904;   -1,252;   -1,136
406,592; 8056,925;    2,294;    0,045
407,183; 8365,195;    0,566;   -1,500
407,774; 8304,015;    3,475;   -0,136
408,364; 8615,397;    0,930;    0,409
408,954; 8215,324;    0,384;    1,227
409,545; 8252,219;    1,021;    1,045
410,135; 7816,981;    1,293;    0,500
410,726; 7998,418;    1,838;    0,318
411,316; 8374,862;    0,111;    0,773
411,906; 8061,446;   -0,253;   -0,409
412,497; 7513,222;   -1,070;   -0,045
413,087; 8132,567;   -1,980;   -0,227
413,677; 8537,541;   -0,707;    3,864
414,267; 8341,855;    0,656;    1,409
414,857; 8346,518;   -2,980;    4,227
415,448; 8622,621;    0,839;    0,500
416,038; 8306,039;    0,020;   -0,591
416,628; 8283,800;   -0,889;    0,409
417,218; 7764,104;    0,565;    3,318
417,808; 8004,858;    0,202;   -0,409
418,398; 8485,439;    0,020;    2,682
418,988; 8538,794;    2,020;    0,591
419,578; 8761,808;   -0,707;    1,409
420,168; 9085,728;   -1,343;   -0,955
420,757; 8707,108;   -1,343;   -1,500
421,347; 8375,165;    0,111;   -0,227
421,937; 8534,274;    2,292;    1,409
422,527; 8471,150;    0,838;   -0,773
423,116; 8305,739;   -0,253;   -0,045
423,706; 8621,584;   -1,889;    0,318
424,296; 8606,575;    1,384;    0,682
424,885; 9036,302;   -0,071;   -3,045
425,475; 9317,642;    1,474;   -2,864
426,065; 9191,756;   -0,980;   -0,318
426,654; 8807,912;   -0,435;   -0,318
427,244; 8942,237;    0,020;    1,409
427,833; 8427,206;    1,383;   -0,500
428,423; 8913,922;   -0,526;    1,136
429,012; 9659,133;   -0,344;   -1,136
429,601; 9144,409;   -1,344;    0,136
430,191; 9371,325;    1,292;    4,318
430,780; 9005,535;   -0,344;   -0,409
431,369; 8945,141;    0,746;   -0,045
431,959; 9568,559;   -1,254;    0,500
432,548; 9315,877;   -1,163;   -0,045
433,137; 9474,749;   -1,254;   -1,318
433,726;10014,527;    0,292;    0,500
434,315; 9391,262;   -0,526;    2,409
434,905; 9447,655;   -1,254;    1,409
435,494; 9300,597;    0,746;    0,955
436,083; 9808,517;   -0,981;   -0,955
436,672; 9671,207;    0,110;    0,500
437,261; 9210,728;    0,292;   -1,955
437,850; 9314,379;    1,383;    0,682
438,439; 9318,058;    3,291;    1,955
439,027; 9166,276;    3,655;    1,773
439,616; 9496,124;    2,927;    1,227
440,205; 9390,735;    0,200;   -2,136
440,794; 9448,237;    2,109;   -0,045
441,383; 9689,954;   -1,346;   -0,591
441,971; 9551,572;   -2,436;    0,591
442,560; 9405,439;    0,563;   -1,773
443,149; 9153,913;    0,379;   -1,318
443,737; 9295,719;   -0,074;   -2,318
444,326; 9553,088;    0,018;    0,318
444,915; 9614,098;   -1,982;    0,864
445,503; 9979,230;   -2,891;   -0,318
446,092; 9242,903;    0,382;    2,136
446,680; 9761,151;    0,382;    0,318
447,269; 9927,160;   -0,346;   -0,318
447,857; 9725,158;    0,018;   -1,773
448,445; 9850,040;    0,563;    1,318
449,034;10072,954;   -1,528;   -1,136
449,622;10190,140;   -1,073;    3,500
450,210; 9380,423;    2,017;    2,227
450,799; 9940,273;    0,290;   -0,591
451,387; 9864,522;    1,381;   -0,591
451,975; 9503,291;    2,654;    0,864
452,563; 9596,270;    3,472;    2,318
453,151; 9652,127;   -0,528;   -1,227
453,739; 9596,914;   -1,347;    0,136
454,328; 9405,279;    2,381;   -2,136
454,916; 9140,473;    2,562;   -0,136
455,504; 9301,438;    1,017;    1,227
456,092; 9465,775;    0,017;   -1,591
456,679; 9436,757;    1,472;    0,682
457,267; 9380,301;    4,017;    1,045
457,855; 9526,868;    1,017;    1,409
458,443; 9303,521;   -0,165;    1,682
459,031; 9422,727;    0,108;    2,409
459,619; 9875,000;   -1,801;    2,864
460,206;10012,527;    0,835;    2,045
460,794;10103,712;   -2,983;   -0,227
461,382;10321,333;   -0,529;   -0,864
461,970; 9887,542;    1,198;    1,864
462,557; 9892,201;   -0,711;   -0,682
463,145;10082,120;   -3,165;   -1,682
463,732;10251,354;    2,016;   -1,045
464,320;10190,220;   -0,075;   -3,045
464,907; 9838,876;    2,743;   -0,773
465,495; 9728,149;    0,743;   -1,227
466,082; 9892,875;   -1,984;   -0,045
466,670; 9798,075;   -2,529;    1,227
467,257;10185,483;   -1,711;    2,045
467,844;10320,919;   -0,075;    0,045
468,432;10345,423;    0,834;    3,500
469,019; 9857,516;    0,925;   -1,773
469,606;10322,413;    0,470;    3,682
470,193;10159,724;   -1,439;    0,227
470,780; 9729,108;   -2,075;    0,864
471,368;10033,129;   -1,257;   -0,773
471,955; 9848,907;    1,379;   -0,682
472,542; 9512,692;    0,652;   -1,136
473,129; 9722,993;   -0,166;    0,136
473,716; 9429,930;    1,470;    0,591
474,303; 9639,303;    0,652;   -0,864
474,890; 9945,726;   -1,439;   -0,500
475,477; 9947,480;   -1,621;    0,409
476,064; 9830,337;    1,106;   -1,591
476,650; 9746,221;    0,288;    0,318
477,237; 9567,857;   -0,258;    0,955
477,824; 9748,279;   -1,076;    0,864
478,411; 9760,080;   -1,894;   -0,318
478,997; 9946,001;    0,560;   -0,773
479,584; 9987,103;    1,196;   -0,409
480,171;10672,686;   -0,440;   -0,773
480,757;10304,202;    2,651;    0,773
481,344;10583,117;    0,469;    0,409
481,931;10084,720;    1,105;    1,045
482,517;11096,568;   -1,258;    0,318
483,104;11617,253;    1,106;    2,864
483,690;11896,175;   -1,804;    0,045
484,276;12250,033;   -0,895;    0,227
484,863;11935,066;    2,469;    1,136
485,449;12579,841;   -0,077;    0,318
486,035;12532,072;   -1,986;   -0,136
486,622;12956,615;   -0,895;    0,045
487,208;12895,827;    1,378;    1,500
487,794;12754,217;    0,741;    0,318
488,380;12818,798;    0,105;   -1,409
488,967;12875,245;   -1,168;   -0,409
489,553;12951,569;   -1,895;   -1,409
490,139;13165,455;    1,559;    0,773
490,725;12595,932;    0,741;   -0,227
491,311;12196,605;    3,287;    3,045
491,897;11525,073;   -0,986;    1,500
492,483;11371,050;    0,105;    1,227
493,069;11160,514;    3,923;    0,864
493,655;11141,085;    1,650;    0,682
494,241;11103,031;    1,377;   -0,955
494,826;11519,473;    0,287;   -1,045
495,412;11031,051;    2,559;   -0,682
495,998;11192,279;   -0,805;   -0,318
496,584;11343,252;    0,377;    1,045
497,169;11354,270;    1,014;   -0,682
497,755;11321,672;    0,650;    1,227
498,341;11868,811;    0,559;    0,318
498,926;11484,941;    1,832;    1,955
499,512;11706,235;    1,286;    2,955
500,097;11843,356;    0,195;   -0,318
500,683;11831,302;   -0,350;    2,136
501,268;12230,889;   -0,169;   -0,955
501,854;11946,274;   -0,169;    1,227
502,439;11950,581;   -0,624;   -1,773
503,024;12200,914;    0,195;    0,500
503,610;12271,933;   -0,078;   -0,682
504,195;12288,287;    0,558;    1,955
504,780;12468,270;    2,922;    1,227
505,366;12314,880;    3,013;    2,864
505,951;12037,570;    0,740;    1,045
506,536;12100,302;   -3,260;   -3,682
507,121;12069,826;    0,285;   -0,318
507,706;12629,385;    2,376;    1,045
508,291;13070,666;    2,649;    1,136
508,876;12554,943;   -0,988;    2,591
509,461;12039,940;   -0,169;   -0,773
510,046;12486,681;    0,194;    0,318
510,631;12729,605;   -0,351;   -0,773
511,216;12391,818;    2,467;   -0,500
511,801;12771,739;   -0,442;    2,591
512,386;13107,518;    0,740;    0,500
512,971;13076,098;   -2,988;    0,955
513,555;12671,981;   -0,897;   -1,500
514,140;13456,408;   -0,442;   -3,136
514,725;13424,974;   -0,715;   -1,136
515,309;13584,583;   -0,533;    0,318
515,894;13023,093;   -0,624;   -2,227
516,479;13514,592;   -0,624;   -0,955
517,063;13331,552;    0,376;    1,227
517,648;13486,206;    1,012;   -1,136
518,232;13130,911;   -0,261;   -1,409
518,817;13498,798;   -0,079;    1,682
519,401;13740,375;    2,194;    0,591
519,985;13258,158;    1,103;    1,136
520,570;13144,725;    0,830;   -1,955
521,154;13420,846;    2,102;    0,591
521,738;13605,790;   -2,352;    2,409
522,323;14150,728;   -0,170;    1,682
522,907;13884,108;    0,466;   -0,136
523,491;13592,758;    0,557;    0,955
524,075;13618,644;    2,284;    0,591
524,659;13720,236;    1,466;    0,591
525,243;13193,740;    1,739;    0,409
525,827;13456,162;    0,648;   -0,045
526,411;14300,418;   -1,989;   -0,136
526,995;14493,340;   -0,352;    1,409
527,579;14065,687;   -0,443;   -1,045
528,163;14411,245;    0,375;   -1,500
528,747;14297,132;    2,466;   -0,773
529,331;14644,778;   -0,080;   -1,409
529,915;14906,104;    1,738;    0,955
530,499;14814,799;   -0,807;    1,227
531,082;14501,224;   -0,534;    1,591
531,666;13938,757;    1,374;    0,773
532,250;14628,654;    1,284;    2,682
532,833;14989,793;    0,920;    2,773
533,417;14828,107;   -1,807;    0,864
534,001;14814,042;    1,647;   -0,318
534,584;15543,349;    0,374;    0,500
535,168;15352,159;    0,465;    1,409
535,751;15390,702;    0,647;    0,045
536,334;14863,106;   -0,898;   -0,409
536,918;15427,124;    0,011;    1,591
537,501;15564,460;   -0,899;    1,318
538,085;15554,855;   -0,444;    1,045
538,668;15732,832;    0,829;    2,409
539,251;16064,991;    1,829;    3,773
539,834;16065,882;    0,101;    0,773
540,418;15968,493;   -1,990;    4,318
541,001;16086,335;   -0,990;    1,773
541,584;16098,877;    2,101;    2,227
542,167;15784,270;    1,374;    2,955
542,750;15977,251;    1,919;   -0,773
543,333;15587,185;    0,555;    2,136
543,916;16340,937;    0,192;    2,500
544,499;16968,404;   -1,354;    0,227
545,082;16998,931;    1,374;    3,591
545,665;17115,382;    1,919;    1,500
546,248;17437,276;    1,010;   -0,318
546,830;17120,222;   -0,445;    1,955
547,413;17529,566;    1,010;   -0,773
547,996;18055,683;    0,555;    0,500
548,579;17820,636;    0,919;    0,955
549,161;17646,254;    1,828;    2,682
549,744;17432,753;   -0,809;    0,409
550,326;17968,398;   -0,809;   -1,136
550,909;17726,611;    2,737;    0,591
551,492;18136,281;   -0,263;    0,227
552,074;17948,406;   -0,173;   -1,318
552,657;18477,924;    2,373;    0,045
553,239;18236,310;   -0,173;   -0,773
553,821;18156,675;   -1,082;    1,045
554,404;17633,888;    1,282;    1,136
554,986;18002,487;    0,464;    1,045
555,568;18621,418;    1,191;   -0,955
556,151;17833,759;    1,191;   -0,227
556,733;18040,464;   -0,264;   -0,864
557,315;18540,517;    0,100;    0,500
557,897;18342,649;    0,554;   -0,500
558,479;18447,780;   -1,991;    1,318
559,061;18570,914;   -0,719;   -0,864
559,643;18925,275;   -0,264;    0,045
560,225;19277,763;    1,645;    2,864
560,807;19261,820;    0,918;    0,318
561,389;18740,724;    0,554;    2,318
561,971;19573,803;    0,463;    2,136
562,553;19391,405;   -1,628;    1,591
563,135;19519,787;   -0,537;    1,136
563,717;19113,206;    3,372;    1,136
564,298;19803,373;    3,645;   -0,045
564,880;19545,624;    0,645;   -1,409
565,462;19708,897;    0,645;    1,318
566,043;20831,509;   -0,446;    2,318
566,625;20411,050;    1,918;    1,227
567,207;20271,494;    1,099;    1,682
567,788;21394,698;   -1,264;    1,500
568,370;22217,687;    1,917;   -0,500
568,951;22027,788;    0,190;    0,227
569,533;22928,386;   -0,628;   -0,500
570,114;23382,671;   -0,446;    0,682
570,695;23911,482;   -0,174;   -1,318
571,277;24411,172;   -0,265;   -1,682
571,858;25166,887;    2,008;   -1,136
572,439;26067,160;    1,554;   -1,045
573,021;26250,884;    2,099;   -2,773
573,602;26713,007;   -1,265;    0,318
574,183;27682,124;   -2,083;    2,227
574,764;27812,988;   -1,629;    0,409
575,345;28372,674;    0,917;   -0,136
575,926;29025,562;   -0,356;    0,136
576,507;28956,457;    1,099;   -0,227
577,088;30139,789;    3,099;    1,682
577,669;30078,024;    0,735;    1,955
578,250;30832,670;    0,644;   -1,045
578,831;31501,245;   -1,356;   -2,227
579,412;31787,183;   -0,810;    0,955
579,993;32683,710;    1,008;    0,227
580,573;33036,565;   -0,629;   -0,955
581,154;31980,424;    0,735;   -0,591
581,735;32871,261;    0,644;    0,773
582,315;32362,897;   -0,629;    2,136
582,896;32647,807;   -0,174;    1,227
583,477;32128,914;    0,189;    1,227
584,057;32358,315;    0,553;    0,955
584,638;32589,983;    2,553;    2,318
585,218;32596,397;   -0,538;    2,682
585,799;32780,847;    0,281;   -0,227
586,379;32703,789;    0,372;    1,591
586,959;31504,643;    0,735;    0,318
587,540;30810,681;   -0,629;    2,227
588,120;30379,384;    1,007;   -0,045
588,700;29340,585;    2,553;    2,136
589,281;29651,137;    0,462;   -0,955
589,861;29611,378;    0,099;   -1,682
590,441;29405,419;    2,371;   -2,682
591,021;28377,615;   -0,265;   -2,591
591,601;28641,971;   -0,537;    0,500
592,181;28649,531;   -0,719;   -0,773
592,761;27887,071;    0,007;    1,409
593,341;27749,879;   -0,901;    0,045
593,921;27782,030;   -0,265;    1,591
594,501;27712,220;   -0,538;    1,318
595,081;27521,053;    0,917;   -0,318
595,661;27892,707;   -1,447;    0,955
596,240;28452,821;   -0,537;    0,136
596,820;28084,496;    0,372;    1,955
597,400;28194,089;    2,008;    0,773
597,980;28414,727;    2,008;    1,045
598,559;28505,075;    2,735;   -0,227
599,139;28159,193;   -0,174;   -1,227
599,718;28037,557;   -0,174;   -0,409
600,298;28340,016;    0,735;    0,682
600,877;28538,831;    2,917;    1,409
601,457;28892,141;    2,281;    1,136
602,036;28729,240;    0,190;    2,045
602,616;28975,904;    0,644;    1,682
603,195;29305,682;   -0,355;    3,500
603,774;28841,587;   -0,901;    2,045
604,354;28748,382;    0,826;   -0,500
604,933;28249,413;    0,463;    1,864
605,512;28350,000;    3,554;    0,591
606,091;28415,801;   -0,537;    3,773
606,671;29203,660;    0,281;    0,773
607,250;28291,668;    1,644;    3,136
607,829;28543,384;    2,372;    3,227
608,408;28424,306;    1,190;    2,591
608,987;27424,985;    1,281;    3,409
609,566;27717,438;   -1,265;   -2,500
610,145;27844,426;   -1,082;    0,682
610,723;28269,385;    4,372;    6,864
611,302;27507,945;   -0,446;    1,682
611,881;26995,799;    5,008;   11,227
612,460;27851,144;    1,645;    3,955
613,039;28247,632;   -0,082;    2,045
613,617;26992,888;    1,736;    4,773
614,196;27175,813;    1,099;    1,227
614,775;27518,501;    1,009;    2,409
615,353;27442,874;    0,736;    0,864
615,932;27146,038;    0,100;    2,409
616,510;27763,769;    0,554;    0,591
617,089;27273,474;    7,100;   17,591
617,667;27037,951;    2,372;    6,136
618,246;26847,748;   -1,537;    1,318
618,824;27071,279;   -3,355;   -0,955
619,402;26668,738;   -2,900;   -1,773
619,981;27139,862;   -0,173;   -1,045
620,559;26979,426;    0,009;    1,682
621,137;26498,421;   -0,718;    1,864
621,715;26523,562;   -1,173;   -0,682
622,293;26421,658;   -0,537;   -0,773
622,871;26832,971;   -0,718;    0,500
623,450;26422,414;    0,373;   -0,864
624,028;26346,726;    0,191;   -0,955
624,606;25984,800;   -1,718;    1,682
625,183;26414,887;   -1,536;   -1,136
625,761;26053,065;    1,009;    1,136
626,339;26317,518;    1,373;    2,591
626,917;26703,152;   -0,172;   -0,045
627,495;26778,198;   -0,354;    1,318
628,073;26138,526;   -0,263;    2,864
628,650;25878,056;    0,100;    2,136
629,228;26291,882;    0,373;    4,409
629,806;25703,338;    2,282;    1,136
630,383;25958,775;    1,464;   -0,318
630,961;25709,097;    2,555;   -0,955
631,539;25459,917;    2,464;    0,227
632,116;24818,006;   11,373;   15,409
632,694;25441,966;    2,555;    6,500
633,271;25712,037;    0,828;    2,682
633,848;25579,281;    1,828;    2,045
634,426;25639,869;   -1,081;    1,773
635,003;24775,222;    1,101;   -0,409
635,580;25095,841;    1,192;    3,682
636,158;25664,025;    3,737;    1,227
636,735;25687,614;    0,555;   -0,500
637,312;25799,454;   -0,809;   -0,682
637,889;25916,542;   -4,354;   -0,682
638,466;25357,268;   -3,990;   -0,409
639,043;25339,443;    2,101;   -1,136
639,620;25666,680;   -2,262;   -0,955
640,197;26017,718;    1,100;    1,682
640,774;26095,048;   -0,172;    1,136
641,351;26506,558;    0,737;    1,136
641,928;25926,433;   -0,627;    1,409
642,505;25601,671;    0,828;   -0,500
643,082;25738,455;   -1,718;    1,227
643,658;24742,966;   -0,718;    1,500
644,235;25519,659;    1,191;    2,500
644,812;25783,715;    1,918;    0,773
645,388;25533,408;   -0,991;    1,409
645,965;25652,919;   -0,809;    1,682
646,542;25674,884;   -1,445;   -0,227
647,118;25650,668;    1,009;   -0,955
647,695;25969,815;   -0,263;    1,136
648,271;25881,235;   -0,536;    0,500
648,848;26225,382;    0,736;    2,227
649,424;26025,712;    0,827;    1,318
650,000;25829,222;   -0,354;   -1,045
650,577;25646,279;   -0,627;   -0,955
651,153;26106,244;   -1,809;    0,955
651,729;27147,937;    1,191;    0,864
652,305;27421,448;    0,645;    2,773
652,881;32067,504;   -0,082;    1,136
653,458;39030,561;    1,100;    0,227
654,034;42779,617;    0,282;    1,591
654,610;44198,674;    0,554;    0,773
655,186;45511,730;    0,645;    3,045
655,762;45112,059;   -0,991;    0,409
656,338;45162,752;    0,100;    0,136
656,913;46093,899;   -0,082;    0,409
657,489;45330,956;    0,827;   -0,318
658,065;45298,194;   -0,173;   -1,591
658,641;45932,796;   -0,900;   -0,864
659,217;45285,397;   -0,991;    0,409
659,792;44609,090;    0,645;   -0,409
660,368;44894,692;   -2,173;   -0,682
660,944;44433,385;   -2,082;    1,227
661,519;39735,896;   -0,628;    0,409
662,095;33725,679;   -1,719;    0,591
662,670;29182,645;    1,281;   -0,136
663,246;28062,519;    1,009;   -0,409
663,821;27392,485;    0,281;    1,682
664,396;26888,905;    0,009;    1,864
664,972;27142,143;    0,009;   -0,500
665,547;27463,290;    1,372;    0,136
666,122;27501,529;   -1,082;    0,318
666,698;27769,040;   -0,173;    0,318
667,273;27116,096;   -0,173;    0,136
667,848;27965,607;    2,372;    1,500
668,423;27770,209;    2,190;    2,318
668,998;28326,265;    2,827;   -0,682
669,573;28858,776;   -3,264;   -1,500
670,148;28724,651;   -1,446;   -0,682
670,723;28513,889;   -1,810;    0,318
671,298;28889,127;    2,372;    1,045
671,873;29005,820;   -0,082;   -0,136
672,448;28985,694;    0,645;    0,136
673,023;29282,569;   -1,992;   -0,227
673,597;29638,716;    0,827;    2,318
674,172;29430,318;   -0,355;    0,318
674,747;28896,829;    0,372;   -1,045
675,321;28699,522;   -0,628;    3,318
675,896;28265,033;    0,645;    1,045
676,471;29237,725;    2,645;    1,591
677,045;28968,691;   -1,264;    0,682
677,620;29122,566;    0,190;    1,136
678,194;29424,986;   -2,628;    1,136
678,769;28990,497;   -1,083;   -0,318
679,343;29239,553;   -0,628;    1,773
679,917;29105,609;   -1,446;    1,955
680,492;29163,938;    0,826;    3,227
681,066;29263,540;    3,372;    0,409
681,640;29348,233;    1,463;   -0,318
682,214;30169,380;    0,735;    0,500
682,788;29727,800;   -1,356;   -0,773
683,363;29691,584;   -1,810;    1,682
683,937;29395,913;   -1,719;   -0,318
684,511;30107,060;    0,463;   -0,591
685,085;29833,117;   -1,356;    0,318
685,659;29549,173;   -2,538;    0,864
686,232;29811,593;   -0,356;   -0,318
686,806;29549,013;   -0,901;    0,409
687,380;30152,524;   -0,174;    0,591
687,954;30381,399;   -1,174;    1,136
688,528;30064,273;   -0,719;    1,955
689,101;30862,239;   -3,992;    1,045
689,675;30489,022;   -0,356;   -0,136
690,249;29844,079;   -0,719;    0,409
690,822;30175,499;    0,280;    0,318
691,396;30262,010;   -0,265;    1,227
691,969;29692,248;    1,280;    0,136
692,543;30166,304;   -0,447;   -1,955
693,116;29865,815;   -0,265;   -1,409
693,690;29748,963;    0,099;    0,500
694,263;30251,110;   -1,083;    2,955
694,836;30308,257;    1,371;    3,591
695,410;28918,586;   -0,265;    1,773
695,983;29420,188;    0,189;    0,591
696,556;29397,154;   -0,447;   -1,045
697,129;29736,119;   -0,356;    1,409
697,703;29414,539;   -1,629;    1,955
698,276;29432,777;    1,462;   -0,773
698,849;29211,470;    1,280;    1,409
699,422;29525,163;   -1,083;    0,591
699,995;29245,310;    0,007;    0,136
700,568;29777,730;   -0,629;    3,045
701,140;29779,514;   -2,811;    1,682
701,713;29465,479;   -0,174;    2,409
702,286;29225,354;   -0,538;    0,864
702,859;29137,956;   -0,902;   -0,591
703,432;28325,921;    0,825;    0,682
704,004;28773,614;    0,462;    0,318
704,577;28665,761;   -0,629;    0,136
705,150;29199,545;    0,189;    2,500
705,722;28975,601;   -0,356;   -3,227
706,295;28761,021;   -0,175;   -0,591
706,867;28651,350;   -0,175;    1,955
707,440;28875,316;   -1,720;   -0,409
708,012;29213,009;    0,462;    0,591
708,584;29030,883;    2,462;    0,227
709,157;29363,212;    1,825;   -0,591
709,729;28978,723;    2,280;    2,045
710,301;29836,416;    0,734;    0,045
710,874;29812,382;   -1,447;   -0,227
711,446;28719,529;    0,371;    0,864
712,018;28599,585;    0,098;    0,500
712,590;28313,460;   -1,993;    1,682
713,162;28862,698;    0,825;    1,318
713,734;29126,300;    1,825;   -2,045
714,306;29013,356;   -1,902;   -0,409
714,878;27692,049;    0,825;    0,864
715,450;28511,378;    0,643;    0,864
716,022;28766,162;    1,552;    1,318
716,593;28952,127;    0,189;    0,591
717,165;28841,820;   -3,175;   -1,227
717,737;28558,422;    0,280;    0,409
718,309;28200,569;    0,280;   -0,045
718,880;28081,898;   -0,539;   -1,409
719,452;28296,591;   -0,175;   -1,591
720,024;27957,829;    0,734;   -0,591
720,595;28552,795;   -2,902;    0,955
721,167;28081,851;    0,370;   -2,045
721,738;27624,271;   -0,812;   -1,045
722,309;27618,055;   -0,993;   -1,227
722,881;27377,838;   -1,357;    0,773
723,452;28013,349;   -2,630;    2,864
724,023;28215,042;   -0,721;    2,682
724,595;27964,371;    0,007;    0,682
725,166;27660,064;    0,007;   -0,409
725,737;27350,484;    1,734;    0,227
726,308;27423,540;   -0,266;    0,318
726,879;27842,960;   -1,630;    1,227
727,450;27698,926;    0,552;   -0,045
728,021;27683,619;    3,097;    0,682
728,592;27466,766;    0,734;    0,500
729,163;27793,822;    0,643;   -0,136
729,734;27835,424;    0,188;   -0,227
730,305;28226,572;    1,734;    0,136
730,876;28546,082;    0,188;    2,955
731,447;28279,503;    2,188;    2,682
732,017;28398,468;    1,097;    1,864
732,588;27824,524;    0,734;    1,227
733,159;28081,944;    0,643;   -1,045
733,729;27895,364;    0,006;    0,409
734,300;27145,694;    0,915;    0,864
734,870;27529,023;    3,461;    0,591
735,441;28146,988;    0,370;   -0,591
736,011;27910,226;    0,643;   -1,591
736,582;27865,919;   -0,812;    0,045
737,152;27346,885;   -1,721;   -2,045
737,722;27745,941;   -0,267;   -0,682
738,293;27520,361;   -1,358;    1,318
738,863;27384,145;    2,461;    2,318
739,433;27150,201;    5,279;    0,318
740,003;27799,530;   -0,994;   -0,682
740,573;27245,677;    2,097;   -1,591
741,143;27210,279;   -1,085;    0,318
741,713;27944,154;    1,188;   -0,500
742,283;27640,938;    0,915;    1,591
742,853;27423,085;    1,915;    1,591
743,423;26855,959;    1,733;    0,045
743,993;27030,289;   -0,358;    1,500
744,563;26437,163;    0,097;   -0,864
745,133;26351,583;   -0,812;   -0,864
745,702;26985,912;   -0,267;    1,773
746,272;26223,150;   -0,176;    0,591
746,842;26005,570;   -1,358;   -0,591
747,411;26375,081;   -0,267;   -0,318
747,981;26554,138;    0,097;    0,500
748,551;26646,012;    2,278;   -1,045
749,120;26511,432;    0,642;   -0,227
749,690;26864,671;   -0,631;    2,409
750,259;27190,636;    1,369;    2,955
750,828;27086,511;    1,551;   -1,955
751,398;27380,658;    1,278;   -0,045
751,967;26863,623;    2,187;    0,409
752,536;27052,134;   -0,813;   -0,227
753,105;27505,009;    0,096;    0,227
753,675;27289,702;    0,096;    1,773
754,244;27272,940;   -0,904;    3,591
754,813;27305,633;    0,551;    1,227
755,382;26898,144;    0,460;    0,955
755,951;27477,018;    1,551;    3,682
756,520;26938,529;   -0,085;    1,864
757,089;27494,858;    0,278;    0,500
757,658;27707,460;    1,733;    1,227
758,227;27678,153;    1,096;    0,318
758,795;28001,118;    1,187;    1,136
759,364;28183,993;   -0,086;   -0,591
759,933;27184,504;   -1,176;   -0,045
760,501;26753,197;    0,733;   -1,318
761,070;27187,707;   -2,813;   -1,409
761,639;27886,218;   -1,904;    1,318
762,207;27290,548;    1,551;   -0,955
762,776;27230,149;    0,369;    0,864
763,344;27114,024;   -0,995;    0,591
763,913;26238,626;   -0,722;    1,409
764,481;26959,046;    1,005;   -0,136
765,049;26724,284;   -1,358;    1,409
765,618;26674,159;   -0,086;    0,318
766,186;26745,124;    0,278;    0,136
766,754;26928,635;    0,005;    1,864
767,322;25981,600;   -1,995;    0,409
767,890;25963,657;   -0,722;   -1,773
768,459;26337,168;   -2,177;   -0,318
769,027;26525,770;    1,641;    3,409
769,595;25493,917;    3,278;    2,591
770,163;25911,792;    3,823;    2,955
770,730;25677,666;    0,732;   -0,136
771,298;25505,450;    0,187;   -1,409
771,866;25601,143;   -1,541;    4,955
772,434;25967,290;   -0,631;   -1,864
773,002;26091,710;    0,005;    0,682
773,569;25764,584;    0,914;    1,682
774,137;25578,732;   -0,268;   -0,045
774,705;26354,788;    0,278;   -0,136
775,272;25908,754;    0,641;    0,682
775,840;25578,446;   -0,177;    2,682
776,407;25145,594;    0,277;    1,955
776,975;24739,650;   -0,632;    0,318
777,542;25756,706;   -1,086;   -0,045
778,110;25582,126;   -1,268;   -0,045
778,677;25253,819;   -2,359;   -0,864
779,244;25030,694;    2,186;    1,045
779,812;25186,114;    1,823;    0,864
780,379;25024,170;    0,005;    1,136
780,946;25265,590;    1,005;   -0,773
781,513;25551,556;   -1,450;    0,318
782,080;24920,248;   -0,086;    2,864
782,647;25641,214;   -0,268;    3,045
783,214;25215,634;   -0,177;    3,864
783,781;24834,145;   -0,723;   -0,682
784,348;24703,747;   -0,632;    1,500
784,915;25191,621;   -3,177;    0,318
785,482;24914,314;    1,368;    2,591
786,049;25391,280;    0,186;   -0,591
786,615;25488,063;    0,277;   -0,955
787,182;25217,756;    0,186;   -0,682
787,749;24905,176;   -2,814;    1,409
788,315;24246,141;   -1,632;   -0,409
788,882;24555,743;    1,550;   -1,227
789,448;25289,891;    1,732;   -0,955
790,015;25274,129;    1,095;    3,227
790,581;24841,549;    1,459;    0,227
791,148;24733,605;    0,641;    1,045
791,714;24901,843;   -0,541;    3,136
792,280;24610,354;    0,186;    1,591
792,847;24214,138;    0,550;    2,500
793,413;24774,194;   -0,269;   -0,318
793,979;24286,160;    3,459;   -1,318
794,545;24374,762;    4,459;    2,682
795,111;23772,545;    2,186;    1,318
795,678;23923,329;    0,731;   -1,682
796,244;23575,022;    3,368;    0,136
796,810;24145,624;    1,731;    0,773
797,375;23876,589;    0,549;   -2,136
797,941;23902,009;   -0,541;    0,591
798,507;24028,702;   -0,451;   -0,955
799,073;23537,576;   -0,360;    0,591
799,639;23611,360;   -2,632;    3,136
800,205;23666,689;    0,095;    2,682
800,770;23211,746;    0,640;    1,773
801,336;23320,802;    1,368;   -0,955
801,901;23026,586;    4,549;    3,136
802,467;23496,551;   -0,542;    2,045
803,033;22885,971;   -0,087;    0,864
803,598;23139,119;    1,913;   -1,045
804,163;23127,539;    1,095;   -0,318
804,729;23036,504;   -0,178;    1,136
805,294;23450,560;    0,822;    2,227
805,859;23286,890;    0,731;   -0,409
806,425;22726,310;    1,186;    2,682
806,990;22399,548;    2,186;    4,318
807,555;22924,968;   -1,451;    2,591
808,120;22776,570;    0,822;   -0,409
808,685;22859,262;    0,185;   -2,500
809,250;22352,046;    0,004;   -0,500
809,815;22687,012;    1,913;    0,682
810,380;23204,613;   -0,269;    1,591
810,945;23784,215;   -1,087;    2,045
811,510;22918,635;    2,094;    1,591
812,075;22637,146;   -0,633;   -1,409
812,640;22704,112;    2,003;    1,409
813,204;22743,895;    0,822;   -0,227
813,769;23239,497;    2,094;   -0,045
814,334;22616,826;    0,458;    0,864
814,898;22668,337;    0,367;    0,591
815,463;22535,666;    1,276;   -0,773
816,027;22497,359;   -0,724;   -2,318
816,592;22556,234;    0,640;   -2,045
817,156;22111,199;    2,094;    1,136
817,721;21992,437;    4,276;    2,318
818,285;21899,857;    2,912;    1,500
818,849;22550,186;   -1,451;    1,682
819,414;22447,970;   -0,269;    2,955
819,978;22029,936;   -1,269;    1,773
820,542;22621,537;    2,003;    0,500
821,106;22337,776;   -0,815;    0,682
821,670;22415,468;   -0,815;    2,591
822,234;22151,434;   -0,270;    1,409
822,798;21511,581;    0,003;    0,500
823,362;21452,092;   -0,633;    4,227
823,926;20798,239;    0,094;    1,136
824,490;21012,932;   -0,997;   -0,682
825,054;21454,170;   -0,088;   -1,136
825,618;21090,500;   -1,542;   -1,500
826,181;21053,101;    0,458;   -1,318
826,745;20935,340;    1,367;   -1,045
827,309;21304,669;    1,185;    1,318
827,872;20680,543;    1,367;    0,955
828,436;21714,054;    1,185;   -0,773
828,999;21711,838;   -0,997;    1,227
829,563;20511,803;   -0,179;    1,136
830,126;20321,769;   -0,179;   -0,591
830,690;20324,280;   -1,997;    2,864
831,253;19859,336;   -0,543;    2,227
831,816;20030,120;   -1,906;    0,500
832,380;19963,176;    0,185;    0,864
832,943;20160,414;   -1,361;   -0,500
833,506;19606,198;    2,639;   -1,227
834,069;20425,254;    3,912;   -0,955
834,632;20490,856;    1,730;    1,318
835,195;20401,185;    1,003;    0,955
835,758;19582,696;   -0,997;    1,955
836,321;19434,753;    0,730;   -1,045
836,884;19488,082;   -0,725;   -0,955
837,447;19523,320;   -2,816;    1,773
838,010;19803,376;    0,366;    3,227
838,573;20138,069;   -1,179;    0,773
839,135;20036,671;   -1,361;   -0,955
839,698;19511,091;    1,275;    0,409
840,261;19039,602;    1,003;   -0,227
840,823;18878,840;   -0,543;    0,864
841,386;19179,169;   -0,452;   -2,409
841,948;19081,589;   -1,361;    1,773
842,511;18793,373;    0,912;    1,682
843,073;18920,429;    1,912;    0,227
843,636;18720,940;   -0,361;   -0,227
844,198;18693,360;    0,911;    0,591
844,760;18782,053;    1,093;    1,955
845,322;18464,200;    0,548;    1,136
845,885;18896,530;    0,730;    0,591
846,447;19322,586;   -1,998;    0,227
847,009;18931,097;    1,911;   -0,682
847,571;19252,790;    0,820;   -2,045
848,133;19343,028;   -1,089;   -1,864
848,695;19131,448;   -0,543;    1,409
849,257;18691,959;   -1,089;   -1,682
849,819;18865,106;   -0,998;   -0,409
850,381;18943,526;   -0,725;   -0,864
850,942;19271,128;    1,093;   -0,591
851,504;19265,912;    1,184;    0,227
852,066;19260,241;    1,275;   -1,591
852,628;18794,661;   -0,180;    1,955
853,189;18380,444;    1,638;    2,682
853,751;18509,592;   -0,907;    1,409
854,312;18275,739;   -0,453;   -1,682
854,874;18788,068;   -2,089;   -0,773
855,435;19329,852;   -0,907;   -1,682
855,997;19480,181;   -1,816;   -0,136
856,558;18759,055;    0,366;    1,773
857,119;18889,930;    0,820;    2,864
857,681;18564,168;    0,002;    0,318
858,242;18576,225;    1,911;   -2,136
858,803;18982,917;    0,456;   -0,773
859,364;19566,974;    0,184;   -4,773
859,925;18918,576;   -2,453;   -0,955
860,486;18809,087;   -0,453;   -0,955
861,047;18540,234;   -0,544;   -1,227
861,608;18349,290;   -1,089;   -0,773
862,169;18455,347;    0,638;   -0,045
862,730;18264,039;    0,456;    1,409
863,291;18499,550;   -0,635;   -0,500
863,852;18842,425;   -0,635;    1,955
864,412;18343,754;   -0,271;   -0,864
864,973;16916,356;   -0,089;    0,500
865,534;16784,140;   -1,726;    0,227
866,094;18290,378;    1,820;    0,227
866,655;17900,616;    1,274;    3,318
867,215;18204,127;    0,274;    0,136
867,776;18042,820;    0,547;   -0,136
868,336;18148,058;   -1,453;    0,136
868,897;17645,387;    2,638;    1,682
869,457;17365,534;    1,365;    0,318
870,017;17554,409;    0,547;   -1,227
870,578;18111,829;   -0,817;    0,773
871,138;17822,613;   -2,089;   -0,955
871,698;17332,669;   -0,817;   -1,318
872,258;17176,362;   -0,453;   -2,864
872,818;17595,236;    2,729;    0,045
873,378;17526,202;    0,638;    1,045
873,938;17058,713;    0,547;    0,500
874,498;17433,224;    0,274;   -1,955
875,058;17326,462;    2,183;    1,773
875,618;17156,336;    1,910;   -2,682
876,177;17082,029;    1,274;    0,136
876,737;16702,085;   -0,090;    1,955
877,297;16725,778;    0,183;    1,955
877,856;16763,016;   -0,362;    0,318
878,416;16708,436;    1,183;   -0,136
878,976;16932,766;   -1,817;    0,409
879,535;17096,186;    0,092;    3,136
880,095;16812,060;   -0,544;    0,045
880,654;16936,753;   -1,090;    1,318
881,213;17045,173;    2,456;    1,500
881,773;16676,957;    2,637;    2,682
882,332;17023,195;    3,365;    5,136
882,891;16846,888;    3,092;    2,136
883,451;17304,489;   -1,272;    1,682
884,010;16763,182;   -2,908;   -0,409
884,569;16851,693;   -0,999;   -0,045
885,128;17017,204;    2,819;   -1,864
885,687;17068,170;    4,455;    0,682
886,246;16740,771;    1,455;    2,136
886,805;16510,373;    2,455;    2,045
887,364;16863,339;   -0,999;   -0,500
887,922;17226,486;   -1,181;    0,045
888,481;16695,088;   -1,545;    0,591
889,040;17018,144;    1,183;    2,136
889,599;17713,928;    2,455;    1,409
890,157;17805,075;    1,455;    2,409
890,716;17442,313;   -0,090;    0,227
891,274;17211,097;    0,092;   -1,136
891,833;17678,153;    1,546;    0,864
892,391;17536,028;   -0,454;    0,500
892,950;17600,812;    1,819;   -0,773
893,508;17976,323;    0,455;   -0,409
894,067;17312,834;    0,637;    0,136
894,625;17216,526;   -0,636;   -1,500
895,183;17485,946;   -0,363;   -0,682
895,741;17355,003;    1,728;   -1,773
896,299;17162,786;   -0,545;   -2,409
896,858;17392,661;    0,819;   -1,591
897,416;17496,354;    2,728;   -1,318
897,974;17225,592;    1,819;    0,318
898,532;17408,103;    6,091;    2,682
899,089;17299,159;    2,091;   -0,682
899,647;17342,852;   -1,454;    1,318
900,205;17048,272;    1,182;    1,045
900,763;17209,783;   -0,454;    0,227
901,321;17256,385;    2,364;   -1,409
901,878;16679,714;   -1,000;   -0,773
902,436;16558,316;   -1,363;    1,318
902,994;16960,009;    4,728;    3,682
903,551;16362,338;    0,728;    0,409
904,109;16776,303;    0,182;   -1,409
904,666;16355,269;    2,455;    1,045
905,224;16166,143;    0,182;   -0,409
905,781;15927,381;    0,727;   -0,318
906,338;15984,165;   -1,363;    1,045
906,895;15917,221;    0,637;    2,045
907,453;15833,187;    1,727;    1,136
908,010;15908,880;   -0,909;    0,409
908,567;15554,391;    1,273;    0,591
909,124;15038,356;    0,364;   -1,500
909,681;15154,594;   -2,909;    0,682
910,238;15282,742;    0,636;   -1,318
910,795;15534,525;   -0,273;   -1,136
911,352;15208,980;   -2,909;   -2,682
911,909;14622,707;   -1,364;   -0,864
912,466;15116,434;   -3,182;    1,500
913,022;14656,071;   -1,636;    0,500
913,579;15039,343;   -0,909;    2,045
914,136;14756,707;    1,636;    0,955
914,692;15062,707;    0,091;   -1,227
915,249;14660,253;    1,455;    0,409
915,806;14879,616;    0,182;    1,955
916,362;14663,162;    1,909;    1,864
916,918;14232,162;    2,000;    1,045
917,475;14182,434;   -1,182;    0,955
918,031;14237,253;    3,364;   -0,045
918,587;13692,798;   -0,909;   -0,318
919,144;13916,707;   -2,273;    0,227
919,700;14240,980;    1,727;    0,773
920,256;13803,980;    0,727;    0,045
920,812;13433,798;   -0,727;   -1,045
921,368;13428,071;   -1,727;   -1,045
921,924;13036,434;    0,182;   -0,136
922,480;12645,889;   -0,545;    1,227
923,036;13243,980;    1,273;    1,955
923,592;13182,525;    0,455;    0,318
924,148;13104,889;    0,455;   -0,955
924,704;12431,889;   -1,364;   -0,409
925,259;12698,980;   -0,273;    0,591
925,815;12455,434;    1,455;    0,500
926,371;11949,162;    2,909;    1,409
926,926;11820,980;    2,091;    0,591
927,482;11457,616;   -1,364;    0,773
928,037;11370,525;    0,909;    2,045
928,593;11643,798;    1,636;    1,045
929,148;11473,798;   -1,818;   -1,500
929,704;10966,162;   -1,455;   -0,500
930,259;11189,434;    0,091;   -0,136
930,814;10243,798;   -0,818;    1,955
931,369; 9954,525;    1,091;   -0,773
931,925; 9799,071;   -0,091;    0,136
932,480; 9728,343;   -2,818;   -2,591
933,035; 9592,616;    0,545;   -0,318
933,590; 9343,798;    0,364;   -1,773
934,145; 9012,707;   -1,364;   -0,318
934,700; 9333,798;    0,455;   -0,591
935,255; 9181,071;   -0,091;    0,045
935,809; 8425,343;    3,182;    0,864
936,364; 7536,253;   -0,455;   -0,136
936,919; 7508,798;    0,455;   -1,773
937,474; 7391,798;    1,455;    0,136
938,028; 7172,071;   -1,636;    1,136
938,583; 6644,434;    1,818;    4,682
939,138; 6909,525;    2,091;    2,136
939,692; 6346,343;    1,636;   -1,136
940,247; 6028,162;   -0,727;   -1,045
940,801; 5612,616;   -0,636;    0,227
941,355; 5502,343;   -0,364;    2,591
941,910; 5153,889;   -0,273;   -2,136
942,464; 5252,616;   -0,818;   -0,318
943,018; 5055,253;    1,000;   -0,227
943,572; 4994,071;    2,545;   -0,682
944,126; 4397,253;    0,091;   -0,409
944,681; 4299,889;    3,091;    0,227
945,235; 4270,343;    1,000;   -0,591
945,789; 4215,343;    0,364;   -1,864
946,342; 4292,071;    0,455;   -0,591
946,896; 4117,343;   -2,273;    0,955
947,450; 3888,525;    1,545;   -0,227
948,004; 4064,889;    1,727;   -0,045
948,558; 4086,434;    0,273;   -0,864
949,111; 4010,798;   -0,273;   -0,318
949,665; 4026,980;    1,636;   -0,682
950,219; 3908,253;   -0,091;   -1,045
950,772; 3976,162;   -1,909;    1,864
951,326; 3872,798;    0,545;   -0,955
951,879; 3977,434;    0,727;   -2,318
952,433; 4002,071;    0,000;    2,227
952,986; 3837,707;    2,909;    0,682
953,539; 3801,798;   -0,273;    0,591
954,093; 3735,071;    0,545;   -1,318
954,646; 3868,525;    0,909;    1,318
955,199; 3676,616;    0,000;   -0,500
955,752; 3547,616;   -0,455;    1,773
956,305; 3525,071;   -0,091;    2,955
956,858; 3688,980;    0,818;   -0,318
957,411; 3840,343;   -0,545;    2,136
957,964; 3682,707;    1,364;    2,136
958,517; 3674,434;   -1,545;    3,136
959,070; 3519,253;   -0,455;    1,955
959,623; 3588,253;    1,091;    1,500
960,176; 3333,162;    1,727;    2,045
960,728; 3307,071;   -2,727;    0,773
961,281; 3383,343;    0,545;    0,500
961,834; 3428,980;   -0,909;    0,864
962,386; 3351,434;    1,727;    1,045
962,939; 3275,707;    0,364;   -0,318
963,491; 3411,889;    0,455;    1,136
964,043; 3295,343;    1,182;    2,409
964,596; 3414,162;   -1,000;    2,227
965,148; 3272,343;   -1,000;    1,773
965,700; 3171,434;    1,091;   -0,227
966,253; 3323,343;   -0,636;    0,318
966,805; 3147,434;   -2,273;    0,773
967,357; 3223,616;    1,091;   -1,500
967,909; 3170,525;    0,455;   -1,227
968,461; 3280,798;    0,545;    3,136
969,013; 3211,980;   -0,182;   -0,864
969,565; 3286,616;   -0,455;   -1,136
970,117; 3329,616;   -0,364;    1,045
970,669; 3184,980;    0,182;   -0,136
971,220; 3048,980;   -0,455;   -1,500
971,772; 2959,980;   -0,636;   -0,318
972,324; 3097,525;    0,091;   -0,500
972,876; 3048,253;    0,818;   -0,045
973,427; 3174,798;    1,909;   -1,045
973,979; 3152,889;   -0,727;   -2,500
974,530; 3192,253;    1,818;    1,318
975,082; 3191,889;   -0,545;    1,682
975,633; 3064,980;    1,091;    1,682
976,184; 3212,525;    0,909;    0,773
976,736; 3010,343;    0,091;    0,227
977,287; 2824,707;   -0,909;   -0,500
977,838; 3000,253;    0,909;   -0,318
978,389; 3057,253;   -1,000;   -0,500
978,940; 2907,253;    0,545;   -0,409
979,491; 2934,798;    0,091;   -0,500
980,042; 2901,616;    0,182;    3,045
980,593; 2972,707;   -2,545;    0,227
981,144; 3018,434;    2,545;   -0,500
981,695; 2969,889;    1,455;    1,500
982,246; 2930,798;   -0,273;    1,045
982,797; 3091,616;   -1,727;    0,682
983,347; 3201,525;    0,364;    0,591
983,898; 3379,253;    3,091;    0,409
984,449; 3190,616;    2,182;    0,773
984,999; 3114,980;    1,455;   -1,136
985,550; 2879,162;    0,182;   -0,318
986,100; 2911,798;   -0,455;   -0,318
986,651; 2940,616;   -0,818;    0,045
987,201; 2920,707;   -1,000;   -0,591
987,751; 3005,434;    0,818;    2,864
988,302; 2984,980;    2,636;    1,500
988,852; 3011,343;    0,455;   -1,136
989,402; 3054,253;    0,091;    0,682
989,952; 2968,343;   -2,182;    0,864
990,502; 3084,798;   -0,091;    0,682
991,052; 3039,525;   -0,727;    0,045
991,602; 2916,071;   -2,909;    1,318
992,152; 2891,162;    0,455;    0,682
992,702; 2883,343;    1,364;   -0,045
993,252; 2808,707;   -3,000;   -0,500
993,802; 2896,798;   -0,273;    1,318
994,352; 3117,980;   -1,545;    1,136
994,901; 3215,798;   -0,182;    3,227
995,451; 3138,707;   -0,182;    0,318
996,000; 3234,071;    1,636;    0,318
996,550; 2929,707;    2,273;    0,227
997,100; 2924,616;    1,273;   -0,045
997,649; 3233,071;    2,182;    0,955
998,198; 2842,525;    1,727;   -1,500
998,748; 3043,343;    1,091;   -2,318
999,297; 2951,616;   -0,818;   -0,409
999,846; 3017,798;    1,000;   -0,773
1000,395; 3056,980;   -0,818;    0,500
1000,945; 3023,798;    1,818;   -0,773
1001,494; 3104,980;    2,364;    0,682
1002,043; 3088,162;    4,636;    0,864
1002,592; 2927,434;   -1,091;    1,955
1003,141; 3083,798;   -0,455;   -0,682
1003,690; 2926,253;    1,727;    0,500
1004,238; 3009,071;    1,455;   -0,045
1004,787; 2641,434;    1,364;    1,227
1005,336; 2862,798;    0,364;    0,682
1005,885; 3041,434;    1,364;   -2,773
1006,433; 3184,889;    0,545;    0,955
1006,982; 3232,343;    0,455;    1,682
1007,531; 3134,343;   -1,818;   -0,227
1008,079; 3065,434;   -2,273;    0,500
1008,627; 3222,071;   -1,455;    0,409
1009,176; 2967,707;    0,000;   -1,955
1009,724; 3008,071;    1,091;    0,864
1010,273; 3062,798;    1,273;    0,500
1010,821; 3184,253;    0,091;    1,409
1011,369; 2909,162;   -1,364;    1,318
1011,917; 2874,707;   -1,364;   -0,591
1012,465; 3169,798;    1,273;   -1,591
1013,013; 3274,616;    2,091;   -1,682
1013,561; 3156,707;    0,455;   -0,773
1014,109; 3217,162;   -1,909;    1,682
1014,657; 3087,707;    0,364;    0,591
1015,205; 3208,071;    1,636;   -0,955
1015,753; 3227,162;   -0,545;   -1,409
1016,301; 3279,162;   -2,636;    3,045
1016,848; 3294,616;   -1,273;    0,409
1017,396; 3323,798;    2,545;    0,045
1017,944; 3454,525;    1,182;    1,864
1018,491; 3212,434;    0,273;    1,409
1019,039; 3364,343;    0,455;    0,591
1019,586; 3285,434;   -1,364;    1,682
1020,134; 3377,798;    0,455;    1,500
1020,681; 3392,798;    0,182;   -1,136
1021,228; 3405,071;    2,909;   -2,227
1021,776; 3238,071;    1,182;   -1,136
1022,323; 3451,343;    0,455;    0,773
1022,870; 3375,889;   -1,000;   -0,045
1023,417; 3281,162;    2,636;    1,864
1023,964; 3426,343;    2,636;    1,227
1024,511; 3274,525;    1,000;    0,773
1025,058; 3061,707;    3,182;   -0,045
1025,605; 3115,889;   -2,273;    3,136
1026,152; 3326,616;    1,727;   -0,591
1026,699; 3072,707;    1,818;    1,318
1027,245; 3234,434;   -0,091;    0,318
1027,792; 3440,253;   -1,000;    1,409
1028,339; 3326,707;    2,364;   -0,045
1028,885; 3169,889;    1,000;   -0,227
1029,432; 3107,798;   -0,091;    0,227
1029,978; 3177,889;   -1,000;   -1,591
1030,525; 3090,889;    1,000;    0,409
1031,071; 3328,707;   -1,364;    1,136
1031,618; 3429,798;    0,364;    1,682
1032,164; 3209,798;   -0,091;    3,045
1032,710; 3249,162;    1,636;   -1,500
1033,256; 3181,343;   -0,636;   -0,136
1033,803; 3165,798;   -0,545;    1,500
1034,349; 2881,616;   -1,364;    0,136
1034,895; 3039,798;    0,000;   -0,318
1035,441; 3012,434;   -0,818;    0,318
1035,987; 2996,525;   -2,364;   -0,682
1036,533; 3013,343;   -1,455;   -0,955
1037,078; 3216,343;    1,455;    1,682
1037,624; 3024,343;    2,455;   -0,955
1038,170; 3068,889;    0,455;   -0,318
1038,716; 2959,707;    1,636;   -0,409
1039,261; 2877,798;   -2,273;   -0,773
1039,807; 2822,616;   -0,091;    3,409
1040,352; 2887,434;   -1,909;   -0,318
1040,898; 2926,980;   -1,545;   -0,682
1041,443; 2826,525;   -1,455;   -2,591
1041,989; 2839,434;    1,091;    1,591
1042,534; 2734,616;   -0,364;    2,591
1043,079; 2838,343;    2,909;    0,955
1043,625; 2650,343;    1,818;    0,500
1044,170; 2695,798;   -1,364;    1,045
1044,715; 2939,980;    2,455;    0,955
1045,260; 2758,889;    2,182;   -0,955
1045,805; 2813,707;    1,182;   -0,591
1046,350; 2760,434;    1,364;   -0,409
1046,895; 2702,707;    2,909;    1,591
1047,440; 2641,525;    5,364;    0,409
1047,985; 2553,616;    2,818;   -0,955
1048,530; 2470,253;    1,545;    1,227
1049,074; 2527,343;    0,000;    0,318
1049,619; 2497,616;   -1,364;    1,955
1050,164; 2308,525;    0,455;    0,227
1050,708; 2340,071;   -0,455;    0,045
1051,253; 2722,434;    1,273;   -2,227
1051,797; 2445,616;    0,818;   -1,318
1052,342; 2431,434;   -1,182;    1,045
1052,886; 2430,071;    0,364;   -1,409
1053,430; 2314,343;   -1,364;    0,136
1053,975; 2339,980;   -0,818;   -0,318
1054,519; 2338,889;   -0,727;    3,227
1055,063; 2331,434;    0,909;    1,318
1055,607; 2206,434;   -0,182;    0,227
1056,151; 2228,434;    2,909;    1,682
1056,695; 2163,525;    2,273;   -1,136
1057,239; 2222,798;   -1,727;   -0,682
1057,783; 2219,343;    0,818;   -1,500
1058,327; 2176,071;    0,000;    1,409
1058,871; 2403,707;   -0,545;    1,318
1059,415; 2116,889;   -0,818;   -0,045
1059,958; 2371,434;    1,455;    2,591
1060,502; 2089,434;   -1,000;   -0,773
1061,046; 2014,253;    0,364;   -0,955
1061,589; 1981,889;   -3,000;   -1,136
1062,133; 1860,162;   -1,273;    1,864
1062,676; 1793,434;    1,182;    0,864
1063,220; 1798,162;    1,091;    0,500
1063,763; 1835,343;    0,909;    1,136
1064,306; 1912,253;   -0,909;    1,864
1064,849; 1801,253;   -0,909;    0,591
1065,393; 1805,525;    2,000;   -1,500
1065,936; 1914,980;    0,182;   -0,409
1066,479; 1788,071;   -1,455;    1,318
1067,022; 1809,162;   -0,273;   -0,227
1067,565; 1715,616;   -0,091;   -1,318
1068,108; 1753,343;    0,727;   -0,591
1068,651; 1715,343;   -0,636;    1,409
1069,194; 1654,343;   -0,455;   -1,682
1069,736; 1657,798;   -1,273;    0,955
1070,279; 1623,616;   -1,364;   -0,500
1070,822; 1679,071;   -2,000;   -0,318
1071,364; 1760,071;   -0,364;    1,318
1071,907; 1577,071;   -0,727;    3,227
1072,450; 1486,434;    0,000;   -0,045
1072,992; 1481,434;   -0,273;    3,136
1073,535; 1621,434;    2,091;    2,136
1074,077; 1407,434;   -0,727;    2,045
1074,619; 1380,889;   -1,364;    0,591
1075,161; 1417,616;   -1,091;    1,500
1075,704; 1599,071;    1,545;    1,227
1076,246; 1399,889;   -0,182;    0,682
1076,788; 1313,162;   -0,364;    1,773
1077,330; 1392,253;    1,273;    2,136
1077,872; 1365,707;    0,909;    0,955
1078,414; 1590,253;    2,727;    0,773
1078,956; 1322,889;    1,273;   -0,227
1079,498; 1570,980;    1,636;    0,318
1080,040; 1279,980;    1,909;   -1,318
1080,581; 1223,434;    1,636;   -0,318
1081,123; 1145,434;    0,091;   -0,773
1081,665; 1197,253;   -1,182;   -0,955
1082,206; 1498,253;    1,364;   -0,500
1082,748; 1361,253;    0,727;    2,045
1083,289; 1234,798;   -2,000;    1,318
1083,831; 1131,434;   -0,545;    0,227
1084,372; 1180,253;    0,000;    0,591
1084,913; 1180,980;    1,091;    0,864
1085,455; 1148,162;   -1,909;   -2,045
1085,996; 1121,434;   -2,273;    0,136
1086,537; 1143,616;   -0,091;    0,864
1087,078; 1176,525;   -0,909;   -2,136
1087,619; 1211,707;   -1,273;    0,227
1088,160; 1126,980;    0,000;    1,318
1088,701; 1112,071;   -1,091;    0,682
1089,242; 1053,889;    1,364;   -2,227
1089,783; 1148,162;   -0,273;    1,409
1090,324; 1107,889;    0,455;    0,682
1090,865;  986,889;    2,727;   -0,409
1091,405;  960,434;    0,727;    2,227
1091,946;  999,707;    0,182;   -0,955
1092,487;  926,889;    0,818;   -1,409
1093,027; 1096,071;   -1,364;   -1,500
1093,568;  944,707;   -0,364;    1,227
1094,108; 1030,343;    0,273;    1,773
1094,649;  967,071;   -1,182;    0,136
1095,189;  910,253;   -0,636;   -0,682
1095,729;  850,889;   -0,091;    0,955
1096,269;  861,616;    0,727;   -0,955
1096,810; 1182,889;   -1,364;    0,500
1097,350; 1008,525;    1,364;   -0,773
1097,890;  910,798;    0,364;    1,227
1098,430; 1161,616;    2,364;    2,864
1098,970; 1040,253;    2,182;    1,682
1099,510;  905,253;    0,545;   -2,318
1100,050;  821,525;    1,000;   -1,591
1100,589;  791,525;   -0,727;   -0,318
1101,129;  916,162;    0,818;   -0,955
1101,669; 1066,980;    1,727;    2,136
1102,209;  883,525;   -0,091;    2,227
1102,748;  837,525;    0,000;    0,955
1103,288;  829,162;    1,273;   -1,227
1103,827;  860,525;    3,091;   -2,227
1104,367;  742,343;   -0,091;   -2,409
1104,906;  699,980;    1,364;   -1,136
1105,445;  770,253;    0,636;   -1,136
1105,985;  720,525;   -0,727;    1,500
1106,524;  760,616;   -1,727;   -0,682
1107,063;  749,071;   -2,727;    1,409
1107,602;  720,889;   -1,909;   -1,500
1108,141;  636,071;   -1,909;    1,500
1108,680;  733,162;   -3,455;   -0,591
1109,219;  666,889;   -0,909;   -0,500
1109,758;  677,434;    0,455;    0,682
1110,297;  643,343;    1,000;   -0,682
1110,836;  594,253;   -0,727;    0,955
1111,375;  758,616;   -2,545;    0,409
1111,913;  771,798;   -1,000;    0,773
1112,452;  712,343;   -0,273;    0,136
1112,991;  595,253;    1,091;    1,955
1113,529;  548,889;   -0,818;   -0,045
1114,068;  618,162;   -0,273;    2,955
1114,606;  520,889;   -0,364;   -0,955
1115,144;  681,889;   -1,273;    1,045
1115,683;  620,434;   -0,727;    0,318
1116,221;  668,707;   -0,455;   -0,864
1116,759;  568,889;    0,636;   -0,864
1117,297;  771,343;    0,000;    1,864
1117,836;  588,980;   -2,182;   -1,227
1118,374;  579,798;    0,182;   -0,682
1118,912;  532,707;    0,909;    2,682
1119,450;  517,980;    1,000;    0,864
1119,988;  574,707;    1,545;    2,136
1120,525; 1032,071;    5,091;    3,318
1121,063;  722,980;    1,182;    1,864
1121,601;  525,707;   -0,909;   -1,227
1122,139;  486,162;   -0,727;   -2,045
1122,676;  686,343;   -0,727;    2,773
1123,214;  621,253;   -1,182;    4,409
1123,751;  427,434;    1,727;    2,227
1124,289;  564,162;   -0,091;   -0,409
1124,826;  432,616;    1,727;    0,227
1125,364;  345,343;    1,727;   -0,955
1125,901;  537,162;    1,182;    1,227
1126,438;  665,525;    0,818;    0,955
1126,975;  380,525;   -0,727;   -0,773
1127,513;  452,253;    0,273;    2,136
1128,050;  351,434;    1,636;   -0,682
1128,587;  461,343;    2,000;   -0,227
1129,124;  502,980;    0,091;    1,318
1129,661;  354,253;    0,273;    0,227
1130,198;  535,071;    1,636;    0,773
1130,734;  478,707;    0,182;    1,409
1131,271;  334,162;   -0,909;    0,864
1131,808;  504,616;    2,909;    3,045
1132,345;  377,980;    1,545;    0,318
1132,881;  249,162;   -1,545;   -1,864
1133,418;  393,707;    0,727;   -1,136
1133,954;  331,525;    2,455;   -2,682
1134,491;  402,071;    1,364;   -0,773
1135,027;  287,889;    2,364;    0,864
1135,564;  391,707;    0,273;    2,955
1136,100;  376,707;    0,364;    2,136
1136,636;  268,798;   -1,273;   -1,045
1137,172;  368,071;    0,000;   -1,045
1137,708;  287,253;   -1,364;   -1,045
1138,245;  288,071;    1,273;   -1,227
1138,781;  237,616;    1,091;   -3,318
1139,317;  308,889;    1,273;   -1,409
1139,852;  287,798;    3,091;    0,136
1140,388;  404,162;   -1,182;   -0,409
1140,924;  290,343;   -1,091;   -2,227
1141,460;  228,616;   -1,636;    0,136
1141,996;  163,525;   -1,364;    2,682
1142,531;  204,434;    1,364;    3,318
1143,067;  430,980;    1,182;    1,045
1143,602;  488,707;   -0,091;   -0,318
1144,138;  328,434;   -2,636;    1,045
1144,673;  187,525;   -1,455;    1,409
1145,209;  264,980;   -1,909;   -0,318
1145,744;  185,798;   -0,727;    0,864
1146,279;  324,253;    1,818;   -0,136
1146,815;  227,162;    1,545;   -2,682
1147,350;  273,434;   -1,364;    0,045
1147,885;  184,253;   -0,818;   -1,318
1148,420;  189,889;   -2,273;    0,773
1148,955;  168,707;   -1,727;    1,864
1149,490;  194,980;   -0,909;   -1,591
1150,025;  171,980;    0,455;   -1,773
1150,560;  288,980;    1,091;   -0,955
1151,094;  257,071;    1,455;   -0,591
1151,629;  265,889;    1,636;    0,864
1152,164;  183,253;    1,364;    1,318
1152,698;  144,434;   -0,182;   -0,136
1153,233;  108,980;    0,091;   -0,682
1153,767;  155,162;   -3,000;   -2,318
1154,302;  204,162;   -1,455;    1,773
1154,836;  203,071;   -0,455;   -2,136
1155,371;  257,707;   -1,364;    3,682
1155,905;  212,616;   -0,636;    1,682
1156,439;  176,525;   -0,636;   -0,500
1156,973;  214,980;    0,364;    0,318
1157,507;  145,434;   -0,364;    0,682
1158,042;  175,798;   -0,727;    1,045
1158,576;  222,253;    0,182;    1,773
1159,110;  212,798;   -0,818;    2,409
1159,643;  183,707;    0,636;   -0,045
1160,177;  116,616;   -1,545;    1,500

