
Integration time [ms]:   0,040
Averaging Nr. [scans]: 11
Smoothing Nr. [pixels]: 0
Data measured with spectrometer [name]: 7318044SP
Wave   ;Sample   ;Dark     ;Reference
[nm]   ;[counts] ;[counts] ;[counts] 

186,757;    4,115;   31,551;    1,318
187,357;   38,023;   22,551;    0,955
187,958;   10,555;   15,460;   -1,591
188,558;   53,288;    8,915;   -1,227
189,159;   23,673;    6,733;   -4,500
189,759;    3,455;    7,278;   -3,591
190,360;   -6,320;    2,824;   -2,136
190,960;   26,473;    2,915;   -4,136
191,560;   33,872;    3,189;   -6,591
192,161;  245,875;    4,372;   -3,500
192,761;  105,084;    4,010;   -3,227
193,361;   57,664;    1,556;   -3,773
193,962;   87,020;    2,010;   -2,682
194,562;   11,502;    1,189;   -3,955
195,162;   31,177;   -2,448;   -2,227
195,762;  146,116;   -3,176;   -0,045
196,362;   98,080;    1,370;   -2,500
196,963;   11,463;    2,006;   -0,864
197,563;   61,474;    1,551;   -0,955
198,163;    7,122;    0,096;   -0,682
198,763;   11,893;    1,733;   -0,500
199,363;   65,603;    3,096;   -0,500
199,963;   35,477;    0,369;    0,409
200,563;   18,660;    2,823;   -1,409
201,163;    5,765;    3,277;   -0,227
201,763;   37,015;    3,732;    0,318
202,363;    4,479;    1,459;    1,500
202,963;   49,980;    1,459;    1,045
203,563;  104,416;    0,277;    0,500
204,162;   29,343;    2,096;   -1,864
204,762;   16,086;    0,550;    0,591
205,362;   -2,115;    3,004;    1,955
205,962;   33,760;    3,096;    1,955
206,562;   24,512;    1,823;    2,318
207,161;    3,832;   -0,087;    0,318
207,761;   96,635;    1,277;    2,409
208,361;   21,534;   -0,268;    1,409
208,960;   46,462;    0,459;    1,500
209,560;   37,827;    1,277;    1,591
210,160;   51,581;    0,550;    1,864
210,759;   29,203;    4,186;    1,227
211,359;   17,805;    1,459;    1,045
211,958;  135,049;    1,277;    2,045
212,558;  144,931;    1,732;    1,864
213,157;   61,354;    1,822;    1,500
213,757;  237,560;    3,822;   -0,227
214,356;  102,700;    1,277;   -0,409
214,956;  210,990;    3,095;    0,409
215,555;   77,947;    2,095;    2,136
216,154;   44,160;   -2,723;   -0,591
216,754;   40,333;    0,277;    0,773
217,353;   56,750;   -0,268;   -1,045
217,952;   -2,443;   -0,178;    0,318
218,552;   88,562;    1,368;   -0,773
219,151;   44,376;    0,277;    0,955
219,750;   31,618;    0,004;   -0,227
220,349;    5,644;   -0,451;    1,045
220,948;  101,799;   -1,360;    1,136
221,548;   35,443;    0,913;    1,227
222,147;   64,906;   -0,087;   -0,409
222,746;  170,876;   -0,451;   -0,955
223,345;   90,354;    0,731;    0,500
223,944;   85,962;   -0,451;    0,773
224,543;   98,084;    1,004;   -1,409
225,142;   93,232;    0,094;    0,136
225,741;   95,598;   -0,814;    1,045
226,340;   82,380;   -0,451;   -0,955
226,939;  160,443;   -0,996;   -0,136
227,538;   62,071;   -0,360;   -0,773
228,137;  162,647;   -0,814;    0,864
228,735;  112,369;   -0,541;    1,227
229,334;   18,633;   -0,905;   -0,227
229,933;  161,160;    0,459;    0,591
230,532;  157,105;    1,186;   -0,409
231,131;  208,828;    1,732;    0,318
231,729;  115,137;   -2,450;   -2,318
232,328;   67,365;   -0,723;   -1,500
232,927;   75,768;    1,004;   -0,500
233,525;   61,084;    3,640;    0,045
234,124;   85,619;    2,368;   -1,591
234,723;   37,656;    0,913;   -1,045
235,321;   33,152;    2,277;    0,136
235,920;   49,960;    1,186;   -1,227
236,518;  149,366;    3,459;    0,318
237,117;   43,870;    0,004;   -0,227
237,715;   59,333;    0,640;   -0,500
238,314;   80,119;   -0,087;   -2,318
238,912;  163,151;   -0,723;   -1,409
239,510;   98,769;    0,459;   -1,227
240,109;  175,036;    0,004;    3,773
240,707;  146,936;   -0,996;    1,227
241,305;   50,000;    0,550;    0,136
241,904;  111,637;   -0,178;   -2,045
242,502;  212,650;   -0,632;   -0,227
243,100;  142,233;   -0,087;   -0,955
243,698;   91,605;    0,732;    1,682
244,297;  136,456;   -0,632;    0,682
244,895;  145,234;   -0,269;   -2,318
245,493;  301,248;    2,186;   -0,591
246,091;  309,107;    1,368;   -1,318
246,689;  268,829;    1,004;    0,591
247,287;  258,702;    0,822;   -1,136
247,885;  230,794;   -1,451;    1,227
248,483;  207,575;    1,822;   -0,500
249,081;  329,304;    0,185;    1,591
249,679;  387,681;   -0,178;    1,682
250,277;  263,944;   -1,723;    0,864
250,875;  413,147;   -1,087;   -1,045
251,473;  323,270;   -1,178;    0,500
252,071;  456,029;    1,459;    1,045
252,669;  391,234;   -1,814;    0,318
253,267;  344,391;   -0,087;    0,773
253,864;  425,066;   -0,360;    0,682
254,462;  627,871;    1,640;    1,591
255,060;  390,757;   -0,269;    1,318
255,658;  393,507;    0,822;   -0,136
256,255;  522,243;    0,186;   -2,045
256,853;  588,703;   -0,269;    1,409
257,451;  568,057;    0,822;    1,864
258,048; 1082,034;    1,822;    1,864
258,646;  746,776;    1,731;   -1,045
259,243;  877,612;   -0,087;    2,227
259,841;  759,480;   -0,814;    0,318
260,438;  604,221;   -0,087;    0,864
261,036;  778,401;   -1,905;    1,409
261,633;  704,516;   -0,087;    2,227
262,231;  654,616;    2,731;   -0,045
262,828;  704,824;   -0,905;    1,136
263,425;  791,388;    0,913;   -0,591
264,023;  831,575;    0,186;    0,045
264,620; 1005,494;   -0,360;   -0,318
265,217; 1182,875;   -2,087;    3,136
265,815;  880,749;   -1,905;    2,136
266,412; 1044,885;    0,731;    0,136
267,009; 1109,507;   -1,451;    0,773
267,606; 1242,321;    0,822;   -0,955
268,203;  997,270;   -0,269;   -0,591
268,801; 1096,807;    1,731;    0,591
269,398; 1057,476;   -0,360;    2,500
269,995; 1219,369;    0,277;    1,591
270,592; 1082,847;   -0,632;   -0,500
271,189; 1060,780;    0,186;    0,409
271,786; 1072,061;   -0,632;    1,227
272,383; 1368,411;   -1,087;    0,227
272,980; 1184,666;    0,277;    0,318
273,577; 1179,519;    0,004;    1,227
274,174; 1062,478;    0,822;    2,591
274,771; 1181,871;   -0,814;   -0,773
275,367; 1647,060;    2,277;    1,409
275,964; 1457,451;    0,731;   -0,500
276,561; 1239,248;    1,549;   -1,045
277,158; 1159,863;    0,095;   -1,773
277,755; 1442,304;    2,185;    0,409
278,351; 1198,135;   -0,451;   -1,500
278,948; 1318,449;   -0,815;    0,045
279,545; 1194,790;   -1,360;    2,318
280,141; 1563,584;   -1,723;   -2,045
280,738; 1393,316;   -0,451;   -0,136
281,334; 1191,294;   -1,633;    0,591
281,931; 1171,687;   -0,087;   -1,318
282,528; 1281,514;    0,822;   -0,500
283,124; 1500,507;   -1,087;   -0,500
283,721; 1466,214;   -0,451;    1,409
284,317; 1271,482;    0,185;    2,500
284,913; 1576,191;   -1,360;    0,591
285,510; 1933,191;    0,640;   -0,318
286,106; 1742,100;   -2,269;   -0,955
286,703; 1359,676;   -0,360;    1,955
287,299; 1377,480;   -1,451;   -0,591
287,895; 1464,344;    0,822;   -1,045
288,491; 1612,840;    0,186;    2,136
289,088; 1719,485;   -2,360;    2,409
289,684; 1775,962;   -1,723;    1,500
290,280; 1988,479;    0,368;    0,682
290,876; 2063,003;    1,822;    5,500
291,472; 1982,622;    1,276;    2,227
292,068; 2074,927;    1,367;    0,227
292,665; 1948,389;    2,095;    0,773
293,261; 1909,517;    0,276;    2,136
293,857; 2165,197;    2,913;    2,136
294,453; 2178,338;    3,550;    0,955
295,049; 2399,785;   -0,268;    1,955
295,644; 2405,791;    0,095;    0,136
296,240; 2387,590;   -0,905;   -0,136
296,836; 2643,398;   -0,995;    0,318
297,432; 2904,892;    1,096;   -0,500
298,028; 3084,683;    0,732;    0,773
298,624; 3178,139;    1,459;    1,864
299,220; 3335,975;    2,368;    0,591
299,815; 3254,912;    1,005;   -0,409
300,411; 3351,694;    0,914;    1,773
301,007; 3496,579;    1,368;    0,227
301,602; 3452,921;   -0,541;   -2,318
302,198; 3668,624;    0,732;   -0,773
302,794; 3878,929;    1,187;   -0,500
303,389; 3995,125;   -1,177;    1,045
303,985; 4103,561;    0,550;    1,409
304,580; 4154,925;    1,459;    1,591
305,176; 4137,844;   -3,086;    0,136
305,771; 4094,099;   -1,268;   -1,227
306,367; 4308,827;    4,095;    0,136
306,962; 4371,012;    0,641;    1,500
307,558; 4132,402;   -0,450;    0,136
308,153; 4126,485;    1,095;   -1,136
308,748; 4196,062;   -0,814;    1,682
309,344; 4317,222;   -0,632;   -1,318
309,939; 4436,031;   -1,905;   -1,318
310,534; 4400,808;   -0,086;   -1,682
311,130; 4256,585;    0,459;   -2,500
311,725; 4007,258;    1,004;   -0,500
312,320; 4173,534;    2,459;    0,045
312,915; 4171,358;    1,459;   -1,045
313,510; 4233,021;    1,550;   -0,500
314,105; 4313,415;    1,096;    1,409
314,700; 3825,634;   -3,086;   -1,045
315,295; 3681,106;   -0,904;    0,045
315,890; 3411,093;    1,277;    0,864
316,485; 3525,812;   -0,359;   -0,318
317,080; 3508,930;   -3,086;    1,591
317,675; 3777,994;    2,005;   -0,682
318,270; 3627,374;    5,550;    3,318
318,865; 3553,915;    3,278;    3,045
319,460; 3285,071;   -0,904;    0,591
320,055; 3302,387;   -0,541;   -1,227
320,650; 3100,241;   -1,995;   -0,591
321,244; 3088,319;   -0,177;   -1,409
321,839; 3515,557;   -1,541;   -0,227
322,434; 3425,443;   -1,086;   -1,591
323,029; 3220,974;    1,732;    1,591
323,623; 3129,971;    1,550;    0,773
324,218; 3109,760;    2,368;    1,409
324,812; 3036,934;    1,096;    1,591
325,407; 2981,889;   -0,814;    2,045
326,002; 3031,048;    0,277;   -0,409
326,596; 3168,075;    0,914;    1,318
327,191; 3207,025;    0,823;   -1,045
327,785; 3049,802;   -0,813;   -0,227
328,379; 3269,330;    1,368;    0,136
328,974; 3139,907;    0,914;   -3,955
329,568; 3414,152;    0,186;   -2,409
330,163; 3459,924;    2,096;    1,045
330,757; 3613,794;    2,459;    1,591
331,351; 3386,776;    0,459;    0,682
331,945; 3648,288;    0,914;    1,409
332,540; 3638,962;   -1,723;   -0,591
333,134; 3771,226;   -1,086;    0,773
333,728; 3941,930;    0,005;    0,318
334,322; 4210,989;   -1,177;   -0,864
334,916; 3890,245;    0,277;    0,955
335,510; 4268,980;   -0,450;   -0,136
336,105; 4562,480;   -1,086;    1,591
336,699; 4408,339;   -1,086;    0,591
337,293; 4524,659;   -1,723;    0,318
337,887; 4682,657;   -2,723;    1,955
338,481; 4941,717;    0,459;    0,591
339,074; 5278,331;   -0,359;    2,682
339,668; 5284,004;   -1,632;    1,227
340,262; 5771,354;    1,732;    3,227
340,856; 5436,623;    1,822;   -0,682
341,450; 5080,178;    1,004;    1,864
342,044; 5803,204;    1,459;    0,136
342,637; 5834,672;    0,913;   -2,136
343,231; 5853,393;   -2,360;    0,682
343,825; 5895,244;   -1,086;   -0,591
344,419; 6041,498;   -1,995;    0,500
345,012; 6199,397;    2,459;    4,045
345,606; 6237,883;    4,641;    1,591
346,199; 6182,128;   -1,813;   -0,227
346,793; 6018,164;    1,914;    2,045
347,386; 6236,897;   -0,813;   -1,136
347,980; 6258,413;   -0,268;   -0,045
348,573; 6264,672;    2,278;    0,409
349,167; 6165,830;    5,278;    4,773
349,760; 6494,598;    2,914;    2,682
350,354; 6510,414;   -0,813;    1,136
350,947; 6377,724;    1,096;    1,682
351,540; 6180,019;   -0,358;   -1,409
352,134; 6167,448;    1,096;    1,136
352,727; 6283,572;   -0,086;    1,136
353,320; 6151,776;    0,005;    0,591
353,913; 6040,381;   -1,995;    1,864
354,507; 6273,494;    0,823;   -1,227
355,100; 6332,921;    0,460;    0,864
355,693; 5786,206;    2,005;    2,409
356,286; 5805,262;    0,823;    2,773
356,879; 6076,516;   -0,722;    1,227
357,472; 5739,289;   -0,904;    1,500
358,065; 5968,911;   -0,722;    2,500
358,658; 5879,966;   -0,540;    2,318
359,251; 5587,885;   -1,631;   -0,591
359,844; 5270,988;   -1,904;   -1,136
360,437; 5408,444;   -2,995;    0,045
361,030; 5590,671;    1,369;   -0,682
361,623; 5255,761;    2,824;    0,318
362,215; 5315,656;   -0,086;    2,045
362,808; 5148,139;   -2,358;   -1,682
363,401; 5286,874;   -2,449;    0,136
363,994; 5131,528;   -0,631;   -1,500
364,586; 5037,699;    0,824;   -1,500
365,179; 5171,648;   -0,449;   -1,136
365,772; 4732,929;   -1,995;    2,045
366,364; 4928,453;    1,915;   -3,227
366,957; 5126,514;    2,279;   -0,045
367,549; 5073,582;    2,188;   -0,864
368,142; 4801,740;    1,825;   -1,500
368,734; 4927,996;    0,734;   -2,136
369,327; 4882,818;    1,643;   -0,500
369,919; 4799,816;   -1,538;    0,409
370,512; 4707,082;   -1,083;   -0,500
371,104; 4525,655;   -0,901;    1,591
371,696; 4652,854;    1,191;   -0,955
372,289; 4674,714;    0,373;    1,136
372,881; 4757,890;   -2,080;    1,318
373,473; 4632,644;   -2,170;    1,136
374,066; 4518,844;   -0,169;    0,500
374,658; 4410,887;    0,378;    1,136
375,250; 4630,980;    0,653;   -1,409
375,842; 4511,940;    0,473;   -0,045
376,434; 4401,016;   -0,435;   -0,409
377,026; 4797,884;    0,204;   -2,500
377,618; 4679,653;   -0,158;   -0,682
378,210; 4556,555;   -0,338;   -1,955
378,802; 4413,610;    0,754;   -0,591
379,394; 4491,403;    1,846;    0,682
379,986; 4833,648;    1,393;   -0,955
380,578; 4864,487;   -0,153;    0,773
381,170; 4455,420;   -0,972;    0,045
381,762; 4398,104;    0,755;    1,409
382,354; 4470,940;   -0,065;   -1,318
382,945; 4556,096;   -2,976;    0,318
383,537; 4671,311;   -2,705;   -1,955
384,129; 4699,510;   -2,160;   -1,136
384,721; 4823,740;   -0,252;    0,955
385,312; 4725,497;   -0,161;   -0,955
385,904; 4830,236;   -2,706;    1,591
386,496; 4353,353;   -0,979;    1,045
387,087; 4492,254;    1,022;    2,500
387,679; 4473,666;   -1,160;    0,045
388,270; 4597,288;    2,840;    2,045
388,862; 4677,848;    1,295;   -0,318
389,453; 4521,984;   -0,887;    1,045
390,045; 4753,497;   -0,705;   -2,682
390,636; 4713,432;    0,204;   -0,591
391,227; 4590,770;   -0,523;   -0,045
391,819; 4692,394;    0,204;    0,773
392,410; 4746,563;    1,022;    0,045
393,001; 4700,922;   -0,979;   -1,591
393,593; 4882,204;    1,930;   -0,045
394,184; 4787,294;    1,385;   -0,409
394,775; 4645,604;    1,839;    2,136
395,366; 4837,406;    1,385;    0,773
395,957; 4776,695;    0,113;    0,136
396,548; 5006,997;   -0,342;    2,682
397,139; 5253,904;   -2,433;    0,591
397,730; 5066,547;   -1,888;    0,955
398,321; 5099,748;   -1,252;    0,955
398,912; 5055,181;   -0,615;    0,136
399,503; 5158,749;   -3,524;   -1,409
400,094; 4764,399;    0,294;    1,682
400,685; 4654,671;   -0,433;    0,045
401,276; 4659,998;    0,930;   -0,955
401,867; 4891,812;   -0,888;    0,773
402,458; 4929,502;   -2,251;   -2,318
403,048; 4934,935;    1,112;    0,591
403,639; 4607,520;    0,840;    0,864
404,230; 4865,795;    2,476;    0,318
404,821; 4792,567;   -0,615;    0,045
405,411; 4840,409;    1,203;   -2,591
406,002; 4515,067;   -1,252;   -1,136
406,592; 4477,091;    2,294;    0,045
407,183; 4575,820;    0,566;   -1,500
407,774; 4499,820;    3,475;   -0,136
408,364; 4688,019;    0,930;    0,409
408,954; 4425,402;    0,384;    1,227
409,545; 4416,479;    1,021;    1,045
410,135; 3982,153;    1,293;    0,500
410,726; 4065,778;    1,838;    0,318
411,316; 4332,945;    0,111;    0,773
411,906; 4021,259;   -0,253;   -0,409
412,497; 3648,576;   -1,070;   -0,045
413,087; 3971,467;   -1,980;   -0,227
413,677; 4179,537;   -0,707;    3,864
414,267; 4005,214;    0,656;    1,409
414,857; 3877,606;   -2,980;    4,227
415,448; 4009,340;    0,839;    0,500
416,038; 3769,576;    0,020;   -0,591
416,628; 3666,251;   -0,889;    0,409
417,218; 3407,465;    0,565;    3,318
417,808; 3506,129;    0,202;   -0,409
418,398; 3559,347;    0,020;    2,682
418,988; 3420,702;    2,020;    0,591
419,578; 3465,624;   -0,707;    1,409
420,168; 3627,541;   -1,343;   -0,955
420,757; 3386,826;   -1,343;   -1,500
421,347; 3036,349;    0,111;   -0,227
421,937; 3033,821;    2,292;    1,409
422,527; 3022,518;    0,838;   -0,773
423,116; 2912,466;   -0,253;   -0,045
423,706; 2860,403;   -1,889;    0,318
424,296; 2684,484;    1,384;    0,682
424,885; 2942,212;   -0,071;   -3,045
425,475; 2934,826;    1,474;   -2,864
426,065; 2746,030;   -0,980;   -0,318
426,654; 2550,555;   -0,435;   -0,318
427,244; 2724,240;    0,020;    1,409
427,833; 2448,753;    1,383;   -0,500
428,423; 2364,746;   -0,526;    1,136
429,012; 2588,688;   -0,344;   -1,136
429,601; 2395,693;   -1,344;    0,136
430,191; 2289,515;    1,292;    4,318
430,780; 1971,814;   -0,344;   -0,409
431,369; 2182,516;    0,746;   -0,045
431,959; 2242,116;   -1,254;    0,500
432,548; 1994,344;   -1,163;   -0,045
433,137; 1864,581;   -1,254;   -1,318
433,726; 2060,994;    0,292;    0,500
434,315; 1843,094;   -0,526;    2,409
434,905; 1916,674;   -1,254;    1,409
435,494; 1927,068;    0,746;    0,955
436,083; 1748,712;   -0,981;   -0,955
436,672; 1682,586;    0,110;    0,500
437,261; 1567,200;    0,292;   -1,955
437,850; 1878,759;    1,383;    0,682
438,439; 1836,352;    3,291;    1,955
439,027; 1858,480;    3,655;    1,773
439,616; 1804,967;    2,927;    1,227
440,205; 1410,666;    0,200;   -2,136
440,794; 1226,172;    2,109;   -0,045
441,383; 1101,164;   -1,346;   -0,591
441,971;  932,055;   -2,436;    0,591
442,560;  908,197;    0,563;   -1,773
443,149;  760,525;    0,379;   -1,318
443,737;  818,669;   -0,074;   -2,318
444,326;  777,847;    0,018;    0,318
444,915;  815,492;   -1,982;    0,864
445,503;  787,260;   -2,891;   -0,318
446,092; 1092,569;    0,382;    2,136
446,680; 1001,366;    0,382;    0,318
447,269;  873,739;   -0,346;   -0,318
447,857;  775,376;    0,018;   -1,773
448,445;  662,167;    0,563;    1,318
449,034;  566,081;   -1,528;   -1,136
449,622;  510,631;   -1,073;    3,500
450,210;  947,919;    2,017;    2,227
450,799;  809,952;    0,290;   -0,591
451,387;  663,748;    1,381;   -0,591
451,975;  623,788;    2,654;    0,864
452,563;  732,037;    3,472;    2,318
453,151;  407,443;   -0,528;   -1,227
453,739;  484,781;   -1,347;    0,136
454,328;  631,235;    2,381;   -2,136
454,916;  495,977;    2,562;   -0,136
455,504;  483,849;    1,017;    1,227
456,092;  309,367;    0,017;   -1,591
456,679;  224,258;    1,472;    0,682
457,267;  781,531;    4,017;    1,045
457,855;  327,646;    1,017;    1,409
458,443;  111,665;   -0,165;    1,682
459,031;  367,051;    0,108;    2,409
459,619;  289,504;   -1,801;    2,864
460,206;  138,032;    0,835;    2,045
460,794;  139,310;   -2,983;   -0,227
461,382;  207,753;   -0,529;   -0,864
461,970;  187,325;    1,198;    1,864
462,557;   73,439;   -0,711;   -0,682
463,145;  237,084;   -3,165;   -1,682
463,732;  527,776;    2,016;   -1,045
464,320;  239,646;   -0,075;   -3,045
464,907;  418,845;    2,743;   -0,773
465,495;  306,307;    0,743;   -1,227
466,082;  191,937;   -1,984;   -0,045
466,670;  212,410;   -2,529;    1,227
467,257;   71,365;   -1,711;    2,045
467,844;  199,529;   -0,075;    0,045
468,432;  164,761;    0,834;    3,500
469,019;   99,858;    0,925;   -1,773
469,606;  188,298;    0,470;    3,682
470,193;  225,341;   -1,439;    0,227
470,780;  174,630;   -2,075;    0,864
471,368;   82,290;   -1,257;   -0,773
471,955;  201,249;    1,379;   -0,682
472,542;  155,491;    0,652;   -1,136
473,129;   15,244;   -0,166;    0,136
473,716;   25,726;    1,470;    0,591
474,303;   52,644;    0,652;   -0,864
474,890;   55,710;   -1,439;   -0,500
475,477;  165,193;   -1,621;    0,409
476,064;   62,690;    1,106;   -1,591
476,650;  185,297;    0,288;    0,318
477,237;   86,752;   -0,258;    0,955
477,824;   69,084;   -1,076;    0,864
478,411;  -41,207;   -1,894;   -0,318
478,997;  -46,556;    0,560;   -0,773
479,584;  -99,904;    1,196;   -0,409
480,171;   90,677;   -0,440;   -0,773
480,757;  158,742;    2,651;    0,773
481,344;   37,109;    0,469;    0,409
481,931;  -61,551;    1,105;    1,045
482,517;   70,657;   -1,258;    0,318
483,104;  160,155;    1,106;    2,864
483,690;   15,532;   -1,804;    0,045
484,276;   -9,971;   -0,895;    0,227
484,863;  207,515;    2,469;    1,136
485,449;   45,112;   -0,077;    0,318
486,035;    4,344;   -1,986;   -0,136
486,622;  103,247;   -0,895;    0,045
487,208;   25,007;    1,378;    1,500
487,794;  -63,328;    0,741;    0,318
488,380;  -64,110;    0,105;   -1,409
488,967;  -53,203;   -1,168;   -0,409
489,553;  -42,245;   -1,895;   -1,409
490,139;   49,278;    1,559;    0,773
490,725;  -34,699;    0,741;   -0,227
491,311;   11,428;    3,287;    3,045
491,897;   -9,468;   -0,986;    1,500
492,483;   -0,035;    0,105;    1,227
493,069;  447,883;    3,923;    0,864
493,655;  159,093;    1,650;    0,682
494,241;   25,311;    1,377;   -0,955
494,826;   35,841;    0,287;   -1,045
495,412;  100,873;    2,559;   -0,682
495,998;   14,108;   -0,805;   -0,318
496,584;   78,352;    0,377;    1,045
497,169;   94,826;    1,014;   -0,682
497,755;   34,778;    0,650;    1,227
498,341;  175,094;    0,559;    0,318
498,926;  315,681;    1,832;    1,955
499,512;   32,440;    1,286;    2,955
500,097;   47,465;    0,195;   -0,318
500,683;   84,228;   -0,350;    2,136
501,268;   30,724;   -0,169;   -0,955
501,854;   69,202;   -0,169;    1,227
502,439;   58,694;   -0,624;   -1,773
503,024;  127,752;    0,195;    0,500
503,610;  195,952;   -0,078;   -0,682
504,195;  125,580;    0,558;    1,955
504,780;  288,197;    2,922;    1,227
505,366;  457,260;    3,013;    2,864
505,951;  392,232;    0,740;    1,045
506,536;  329,509;   -3,260;   -3,682
507,121;  485,576;    0,285;   -0,318
507,706;  468,863;    2,376;    1,045
508,291;  465,418;    2,649;    1,136
508,876;  564,066;   -0,988;    2,591
509,461;  774,970;   -0,169;   -0,773
510,046;  988,165;    0,194;    0,318
510,631; 1106,542;   -0,351;   -0,773
511,216; 1173,392;    2,467;   -0,500
511,801; 1552,400;   -0,442;    2,591
512,386; 1793,274;    0,740;    0,500
512,971; 2079,948;   -2,988;    0,955
513,555; 2349,011;   -0,897;   -1,500
514,140; 2874,529;   -0,442;   -3,136
514,725; 3221,099;   -0,715;   -1,136
515,309; 3606,071;   -0,533;    0,318
515,894; 3820,671;   -0,624;   -2,227
516,479; 4439,354;   -0,624;   -0,955
517,063; 4707,858;    0,376;    1,227
517,648; 5267,240;    1,012;   -1,136
518,232; 5381,042;   -0,261;   -1,409
518,817; 6108,020;   -0,079;    1,682
519,401; 6766,142;    2,194;    0,591
519,985; 6744,105;    1,103;    1,136
520,570; 7080,856;    0,830;   -1,955
521,154; 7763,798;    2,102;    0,591
521,738; 8278,290;   -2,352;    2,409
522,323; 9159,498;   -0,170;    1,682
522,907; 9266,063;    0,466;   -0,136
523,491; 9372,440;    0,557;    0,955
524,075; 9676,236;    2,284;    0,591
524,659;10094,735;    1,466;    0,591
525,243; 9972,512;    1,739;    0,409
525,827;10417,754;    0,648;   -0,045
526,411;11428,462;   -1,989;   -0,136
526,995;11882,931;   -0,352;    1,409
527,579;11673,192;   -0,443;   -1,045
528,163;12173,934;    0,375;   -1,500
528,747;12298,911;    2,466;   -0,773
529,331;12775,374;   -0,080;   -1,409
529,915;13091,520;    1,738;    0,955
530,499;13193,943;   -0,807;    1,227
531,082;13069,728;   -0,534;    1,591
531,666;12611,812;    1,374;    0,773
532,250;13393,979;    1,284;    2,682
532,833;13800,485;    0,920;    2,773
533,417;13773,344;   -1,807;    0,864
534,001;13824,918;    1,647;   -0,318
534,584;14621,592;    0,374;    0,500
535,168;14508,855;    0,465;    1,409
535,751;14621,212;    0,647;    0,045
536,334;14146,981;   -0,898;   -0,409
536,918;14774,090;    0,011;    1,591
537,501;14937,700;   -0,899;    1,318
538,085;14996,641;   -0,444;    1,045
538,668;15173,618;    0,829;    2,409
539,251;15522,414;    1,829;    3,773
539,834;15571,396;    0,101;    0,773
540,418;15559,738;   -1,990;    4,318
541,001;15712,942;   -0,990;    1,773
541,584;15720,035;    2,101;    2,227
542,167;15476,152;    1,374;    2,955
542,750;15643,134;    1,919;   -0,773
543,333;15216,981;    0,555;    2,136
543,916;16045,094;    0,192;    2,500
544,499;16683,290;   -1,354;    0,227
545,082;16684,363;    1,374;    3,591
545,665;16834,903;    1,919;    1,500
546,248;17168,618;    1,010;   -0,318
546,830;16853,927;   -0,445;    1,955
547,413;17308,273;    1,010;   -0,773
547,996;17862,483;    0,555;    0,500
548,579;17621,347;    0,919;    0,955
549,161;17430,693;    1,828;    2,682
549,744;17230,376;   -0,809;    0,409
550,326;17756,476;   -0,809;   -1,136
550,909;17537,054;    2,737;    0,591
551,492;17962,630;   -0,263;    0,227
552,074;17736,213;   -0,173;   -1,318
552,657;18321,459;    2,373;    0,045
553,239;18037,209;   -0,173;   -0,773
553,821;17975,208;   -1,082;    1,045
554,404;17488,150;    1,282;    1,136
554,986;17900,114;    0,464;    1,045
555,568;18520,501;    1,191;   -0,955
556,151;17692,387;    1,191;   -0,227
556,733;17919,909;   -0,264;   -0,864
557,315;18413,329;    0,100;    0,500
557,897;18249,006;    0,554;   -0,500
558,479;18360,774;   -1,991;    1,318
559,061;18461,458;   -0,719;   -0,864
559,643;18771,634;   -0,264;    0,045
560,225;19149,573;    1,645;    2,864
560,807;19220,089;    0,918;    0,318
561,389;18701,266;    0,554;    2,318
561,971;19487,441;    0,463;    2,136
562,553;19275,858;   -1,628;    1,591
563,135;19403,785;   -0,537;    1,136
563,717;18979,021;    3,372;    1,136
564,298;19725,917;    3,645;   -0,045
564,880;19490,628;    0,645;   -1,409
565,462;19677,083;    0,645;    1,318
566,043;20807,054;   -0,446;    2,318
566,625;20348,413;    1,918;    1,227
567,207;20258,314;    1,099;    1,682
567,788;21377,701;   -1,264;    1,500
568,370;22145,420;    1,917;   -0,500
568,951;21985,065;    0,190;    0,227
569,533;22853,848;   -0,628;   -0,500
570,114;23344,582;   -0,446;    0,682
570,695;23862,307;   -0,174;   -1,318
571,277;24324,816;   -0,265;   -1,682
571,858;25105,893;    2,008;   -1,136
572,439;26011,983;    1,554;   -1,045
573,021;26175,713;    2,099;   -2,773
573,602;26688,199;   -1,265;    0,318
574,183;27592,863;   -2,083;    2,227
574,764;27713,818;   -1,629;    0,409
575,345;28268,050;    0,917;   -0,136
575,926;28881,572;   -0,356;    0,136
576,507;28854,376;    1,099;   -0,227
577,088;30019,163;    3,099;    1,682
577,669;30032,673;    0,735;    1,955
578,250;30783,318;    0,644;   -1,045
578,831;31495,261;   -1,356;   -2,227
579,412;31688,105;   -0,810;    0,955
579,993;32604,905;    1,008;    0,227
580,573;32984,668;   -0,629;   -0,955
581,154;31878,709;    0,735;   -0,591
581,735;32788,363;    0,644;    0,773
582,315;32281,636;   -0,629;    2,136
582,896;32584,000;   -0,174;    1,227
583,477;32029,837;    0,189;    1,227
584,057;32220,600;    0,553;    0,955
584,638;32497,996;    2,553;    2,318
585,218;32506,227;   -0,538;    2,682
585,799;32702,586;    0,281;   -0,227
586,379;32673,708;    0,372;    1,591
586,959;31415,291;    0,735;    0,318
587,540;30756,242;   -0,629;    2,227
588,120;30367,857;    1,007;   -0,045
588,700;29325,511;    2,553;    2,136
589,281;29553,423;    0,462;   -0,955
589,861;29555,755;    0,099;   -1,682
590,441;29379,978;    2,371;   -2,682
591,021;28352,355;   -0,265;   -2,591
591,601;28536,617;   -0,537;    0,500
592,181;28501,812;   -0,719;   -0,773
592,761;27837,088;    0,007;    1,409
593,341;27733,436;   -0,901;    0,045
593,921;27765,222;   -0,265;    1,591
594,501;27649,595;   -0,538;    1,318
595,081;27480,881;    0,917;   -0,318
595,661;27892,354;   -1,447;    0,955
596,240;28359,012;   -0,537;    0,136
596,820;28042,139;    0,372;    1,955
597,400;28215,645;    2,008;    0,773
597,980;28419,007;    2,008;    1,045
598,559;28448,722;    2,735;   -0,227
599,139;28128,931;   -0,174;   -1,227
599,718;28045,840;   -0,174;   -0,409
600,298;28303,117;    0,735;    0,682
600,877;28520,748;    2,917;    1,409
601,457;28865,238;    2,281;    1,136
602,036;28714,158;    0,190;    2,045
602,616;28972,457;    0,644;    1,682
603,195;29288,597;   -0,355;    3,500
603,774;28822,502;   -0,901;    2,045
604,354;28683,116;    0,826;   -0,500
604,933;28167,148;    0,463;    1,864
605,512;28295,552;    3,554;    0,591
606,091;28386,988;   -0,537;    3,773
606,671;29250,757;    0,281;    0,773
607,250;28301,220;    1,644;    3,136
607,829;28528,478;    2,372;    3,227
608,408;28391,947;    1,190;    2,591
608,987;27408,895;    1,281;    3,409
609,566;27661,449;   -1,265;   -2,500
610,145;27775,336;   -1,082;    0,682
610,723;28216,205;    4,372;    6,864
611,302;27500,490;   -0,446;    1,682
611,881;26996,436;    5,008;   11,227
612,460;27819,327;    1,645;    3,955
613,039;28219,449;   -0,082;    2,045
613,617;26968,165;    1,736;    4,773
614,196;27195,541;    1,099;    1,227
614,775;27489,953;    1,009;    2,409
615,353;27421,144;    0,736;    0,864
615,932;27192,126;    0,100;    2,409
616,510;27744,767;    0,554;    0,591
617,089;27271,107;    7,100;   17,591
617,667;27049,857;    2,372;    6,136
618,246;26865,470;   -1,537;    1,318
618,824;27050,821;   -3,355;   -0,955
619,402;26628,462;   -2,900;   -1,773
619,981;27106,675;   -0,173;   -1,045
620,559;26917,783;    0,009;    1,682
621,137;26449,233;   -0,718;    1,864
621,715;26495,102;   -1,173;   -0,682
622,293;26437,833;   -0,537;   -0,773
622,871;26904,783;   -0,718;    0,500
623,450;26435,496;    0,373;   -0,864
624,028;26327,810;    0,191;   -0,955
624,606;25982,064;   -1,718;    1,682
625,183;26401,605;   -1,536;   -1,136
625,761;25997,418;    1,009;    1,136
626,339;26316,328;    1,373;    2,591
626,917;26707,140;   -0,172;   -0,045
627,495;26714,276;   -0,354;    1,318
628,073;26121,603;   -0,263;    2,864
628,650;25852,318;    0,100;    2,136
629,228;26259,146;    0,373;    4,409
629,806;25686,054;    2,282;    1,136
630,383;25942,126;    1,464;   -0,318
630,961;25751,177;    2,555;   -0,955
631,539;25546,176;    2,464;    0,227
632,116;24883,995;   11,373;   15,409
632,694;25430,226;    2,555;    6,500
633,271;25713,565;    0,828;    2,682
633,848;25641,539;    1,828;    2,045
634,426;25657,397;   -1,081;    1,773
635,003;24786,290;    1,101;   -0,409
635,580;25097,817;    1,192;    3,682
636,158;25687,641;    3,737;    1,227
636,735;25677,415;    0,555;   -0,500
637,312;25824,621;   -0,809;   -0,682
637,889;25918,342;   -4,354;   -0,682
638,466;25409,244;   -3,990;   -0,409
639,043;25408,597;    2,101;   -1,136
639,620;25691,561;   -2,262;   -0,955
640,197;26056,248;    1,100;    1,682
640,774;26163,305;   -0,172;    1,136
641,351;26554,816;    0,737;    1,136
641,928;25988,509;   -0,627;    1,409
642,505;25630,839;    0,828;   -0,500
643,082;25767,532;   -1,718;    1,227
643,658;24769,952;   -0,718;    1,500
644,235;25470,191;    1,191;    2,500
644,812;25835,611;    1,918;    0,773
645,388;25542,304;   -0,991;    1,409
645,965;25642,270;   -0,809;    1,682
646,542;25744,508;   -1,445;   -0,227
647,118;25742,110;    1,009;   -0,955
647,695;26014,167;   -0,263;    1,136
648,271;25921,769;   -0,536;    0,500
648,848;26214,644;    0,736;    2,227
649,424;26054,701;    0,827;    1,318
650,000;25812,939;   -0,354;   -1,045
650,577;25664,905;   -0,627;   -0,955
651,153;26113,962;   -1,809;    0,955
651,729;27154,200;    1,191;    0,864
652,305;27453,984;    0,645;    2,773
652,881;32079,041;   -0,082;    1,136
653,458;39056,007;    1,100;    0,227
654,034;42830,336;    0,282;    1,591
654,610;44222,848;    0,554;    0,773
655,186;45501,813;    0,645;    3,045
655,762;45155,416;   -0,991;    0,409
656,338;45179,472;    0,100;    0,136
656,913;46135,347;   -0,082;    0,409
657,489;45291,586;    0,827;   -0,318
658,065;45287,006;   -0,173;   -1,591
658,641;45944,972;   -0,900;   -0,864
659,217;45245,483;   -0,991;    0,409
659,792;44615,631;    0,645;   -0,409
660,368;44887,960;   -2,173;   -0,682
660,944;44418,744;   -2,082;    1,227
661,519;39692,165;   -0,628;    0,409
662,095;33690,948;   -1,719;    0,591
662,670;29136,096;    1,281;   -0,136
663,246;28116,607;    1,009;   -0,409
663,821;27409,937;    0,281;    1,682
664,396;26868,812;    0,009;    1,864
664,972;27175,414;    0,009;   -0,500
665,547;27441,561;    1,372;    0,136
666,122;27547,073;   -1,082;    0,318
666,698;27812,311;   -0,173;    0,318
667,273;27158,550;   -0,173;    0,136
667,848;27970,516;    2,372;    1,500
668,423;27720,936;    2,190;    2,318
668,998;28350,538;    2,827;   -0,682
669,573;28903,413;   -3,264;   -1,500
670,148;28676,197;   -1,446;   -0,682
670,723;28509,163;   -1,810;    0,318
671,298;28953,219;    2,372;    1,045
671,873;29039,185;   -0,082;   -0,136
672,448;29009,333;    0,645;    0,136
673,023;29297,935;   -1,992;   -0,227
673,597;29631,264;    0,827;    2,318
674,172;29397,958;   -0,355;    0,318
674,747;28903,378;    0,372;   -1,045
675,321;28734,798;   -0,628;    3,318
675,896;28305,037;    0,645;    1,045
676,471;29358,366;    2,645;    1,591
677,045;29055,150;   -1,264;    0,682
677,620;29172,843;    0,190;    1,136
678,194;29479,445;   -2,628;    1,136
678,769;29003,775;   -1,083;   -0,318
679,343;29282,741;   -0,628;    1,773
679,917;29145,979;   -1,446;    1,955
680,492;29252,400;    0,826;    3,227
681,066;29412,183;    3,372;    0,409
681,640;29420,240;    1,463;   -0,318
682,214;30199,024;    0,735;    0,500
682,788;29748,081;   -1,356;   -0,773
683,363;29660,410;   -1,810;    1,682
683,937;29400,103;   -1,719;   -0,318
684,511;30130,615;    0,463;   -0,591
685,085;29830,580;   -1,356;    0,318
685,659;29589,183;   -2,538;    0,864
686,232;29816,330;   -0,356;   -0,318
686,806;29498,296;   -0,901;    0,409
687,380;30219,989;   -0,174;    0,591
687,954;30412,864;   -1,174;    1,136
688,528;30114,103;   -0,719;    1,955
689,101;30899,796;   -3,992;    1,045
689,675;30446,580;   -0,356;   -0,136
690,249;29895,000;   -0,719;    0,409
690,822;30170,784;    0,280;    0,318
691,396;30279,113;   -0,265;    1,227
691,969;29761,806;    1,280;    0,136
692,543;30202,590;   -0,447;   -1,955
693,116;29824,920;   -0,265;   -1,409
693,690;29713,067;    0,099;    0,500
694,263;30245,579;   -1,083;    2,955
694,836;30306,454;    1,371;    3,591
695,410;28971,965;   -0,265;    1,773
695,983;29430,385;    0,189;    0,591
696,556;29355,533;   -0,447;   -1,045
697,129;29787,226;   -0,356;    1,409
697,703;29446,646;   -1,629;    1,955
698,276;29422,430;    1,462;   -0,773
698,849;29242,669;    1,280;    1,409
699,422;29589,544;   -1,083;    0,591
699,995;29297,237;    0,007;    0,136
700,568;29772,566;   -0,629;    3,045
701,140;29770,168;   -2,811;    1,682
701,713;29526,134;   -0,174;    2,409
702,286;29309,464;   -0,538;    0,864
702,859;29186,520;   -0,902;   -0,591
703,432;28317,395;    0,825;    0,682
704,004;28814,361;    0,462;    0,318
704,577;28711,963;   -0,629;    0,136
705,150;29312,838;    0,189;    2,500
705,722;29071,895;   -0,356;   -3,227
706,295;28833,679;   -0,175;   -0,591
706,867;28706,463;   -0,175;    1,955
707,440;28893,519;   -1,720;   -0,409
708,012;29191,394;    0,462;    0,591
708,584;29138,905;    2,462;    0,227
709,157;29401,144;    1,825;   -0,591
709,729;29026,928;    2,280;    2,045
710,301;29847,894;    0,734;    0,045
710,874;29858,860;   -1,447;   -0,227
711,446;28790,007;    0,371;    0,864
712,018;28628,973;    0,098;    0,500
712,590;28404,302;   -1,993;    1,682
713,162;28916,086;    0,825;    1,318
713,734;29192,507;    1,825;   -2,045
714,306;29062,291;   -1,902;   -0,409
714,878;27705,529;    0,825;    0,864
715,450;28555,131;    0,643;    0,864
716,022;28817,734;    1,552;    1,318
716,593;28943,881;    0,189;    0,591
717,165;28892,392;   -3,175;   -1,227
717,737;28590,449;    0,280;    0,409
718,309;28253,870;    0,280;   -0,045
718,880;28238,926;   -0,539;   -1,409
719,452;28460,892;   -0,175;   -1,591
720,024;27978,585;    0,734;   -0,591
720,595;28519,005;   -2,902;    0,955
721,167;28130,789;    0,370;   -2,045
721,738;27663,846;   -0,812;   -1,045
722,309;27633,357;   -0,993;   -1,227
722,881;27395,232;   -1,357;    0,773
723,452;28105,744;   -2,630;    2,864
724,023;28270,073;   -0,721;    2,682
724,595;28008,493;    0,007;    0,682
725,166;27710,277;    0,007;   -0,409
725,737;27394,789;    1,734;    0,227
726,308;27443,845;   -0,266;    0,318
726,879;27945,084;   -1,630;    1,227
727,450;27771,141;    0,552;   -0,045
728,021;27754,561;    3,097;    0,682
728,592;27564,254;    0,734;    0,500
729,163;27820,947;    0,643;   -0,136
729,734;27870,731;    0,188;   -0,227
730,305;28252,788;    1,734;    0,136
730,876;28603,390;    0,188;    2,955
731,447;28305,810;    2,188;    2,682
732,017;28435,685;    1,097;    1,864
732,588;27863,105;    0,734;    1,227
733,159;28078,253;    0,643;   -1,045
733,729;27903,492;    0,006;    0,409
734,300;27167,366;    0,915;    0,864
734,870;27592,150;    3,461;    0,591
735,441;28158,207;    0,370;   -0,591
736,011;27965,355;    0,643;   -1,591
736,582;27909,957;   -0,812;    0,045
737,152;27391,014;   -1,721;   -2,045
737,722;27811,161;   -0,267;   -0,682
738,293;27491,400;   -1,358;    1,318
738,863;27365,729;    2,461;    2,318
739,433;27169,513;    5,279;    0,318
740,003;27809,934;   -0,994;   -0,682
740,573;27175,172;    2,097;   -1,591
741,143;27140,683;   -1,085;    0,318
741,713;27990,831;    1,188;   -0,500
742,283;27656,433;    0,915;    1,591
742,853;27429,763;    1,915;    1,591
743,423;26946,274;    1,733;    0,045
743,993;27057,876;   -0,358;    1,500
744,563;26445,842;    0,097;   -0,864
745,133;26376,080;   -0,812;   -0,864
745,702;27041,410;   -0,267;    1,773
746,272;26273,648;   -0,176;    0,591
746,842;26027,523;   -1,358;   -0,591
747,411;26457,307;   -0,267;   -0,318
747,981;26588,546;    0,097;    0,500
748,551;26634,693;    2,278;   -1,045
749,120;26539,386;    0,642;   -0,227
749,690;26903,898;   -0,631;    2,409
750,259;27210,227;    1,369;    2,955
750,828;27119,102;    1,551;   -1,955
751,398;27370,613;    1,278;   -0,045
751,967;26906,852;    2,187;    0,409
752,536;27110,363;   -0,813;   -0,227
753,105;27559,238;    0,096;    0,227
753,675;27337,385;    0,096;    1,773
754,244;27264,624;   -0,904;    3,591
754,813;27339,408;    0,551;    1,227
755,382;26878,919;    0,460;    0,955
755,951;27472,430;    1,551;    3,682
756,520;27000,851;   -0,085;    1,864
757,089;27551,089;    0,278;    0,500
757,658;27697,146;    1,733;    1,227
758,227;27665,475;    1,096;    0,318
758,795;27991,987;    1,187;    1,136
759,364;28253,680;   -0,086;   -0,591
759,933;27274,282;   -1,176;   -0,045
760,501;26783,339;    0,733;   -1,318
761,070;27248,214;   -2,813;   -1,409
761,639;27966,543;   -1,904;    1,318
762,207;27267,872;    1,551;   -0,955
762,776;27226,747;    0,369;    0,864
763,344;27201,077;   -0,995;    0,591
763,913;26323,133;   -0,722;    1,409
764,481;27021,372;    1,005;   -0,136
765,049;26811,520;   -1,358;    1,409
765,618;26684,395;   -0,086;    0,318
766,186;26767,724;    0,278;    0,136
766,754;26999,962;    0,005;    1,864
767,322;25959,383;   -1,995;    0,409
767,890;25947,712;   -0,722;   -1,773
768,459;26371,496;   -2,177;   -0,318
769,027;26553,826;    1,641;    3,409
769,595;25477,155;    3,278;    2,591
770,163;25921,394;    3,823;    2,955
770,730;25744,814;    0,732;   -0,136
771,298;25528,780;    0,187;   -1,409
771,866;25586,291;   -1,541;    4,955
772,434;25980,620;   -0,631;   -1,864
773,002;26116,404;    0,005;    0,682
773,569;25756,825;    0,914;    1,682
774,137;25603,609;   -0,268;   -0,045
774,705;26390,393;    0,278;   -0,136
775,272;25876,268;    0,641;    0,682
775,840;25629,506;   -0,177;    2,682
776,407;25118,472;    0,277;    1,955
776,975;24753,710;   -0,632;    0,318
777,542;25760,131;   -1,086;   -0,045
778,110;25573,551;   -1,268;   -0,045
778,677;25256,062;   -2,359;   -0,864
779,244;24976,301;    2,186;    1,045
779,812;25122,267;    1,823;    0,864
780,379;25021,414;    0,005;    1,136
780,946;25246,289;    1,005;   -0,773
781,513;25587,891;   -1,450;    0,318
782,080;24939,494;   -0,086;    2,864
782,647;25699,641;   -0,268;    3,045
783,214;25241,516;   -0,177;    3,864
783,781;24901,391;   -0,723;   -0,682
784,348;24787,175;   -0,632;    1,500
784,915;25241,232;   -3,177;    0,318
785,482;25005,288;    1,368;    2,591
786,049;25431,254;    0,186;   -0,591
786,615;25516,038;    0,277;   -0,955
787,182;25261,095;    0,186;   -0,682
787,749;24928,788;   -2,814;    1,409
788,315;24288,117;   -1,632;   -0,409
788,882;24572,356;    1,550;   -1,227
789,448;25229,594;    1,732;   -0,955
790,015;25265,288;    1,095;    3,227
790,581;24824,435;    1,459;    0,227
791,148;24760,310;    0,641;    1,045
791,714;24987,458;   -0,541;    3,136
792,280;24638,605;    0,186;    1,591
792,847;24190,389;    0,550;    2,500
793,413;24759,719;   -0,269;   -0,318
793,979;24260,412;    3,459;   -1,318
794,545;24418,650;    4,459;    2,682
795,111;23825,980;    2,186;    1,318
795,678;24037,582;    0,731;   -1,682
796,244;23647,639;    3,368;    0,136
796,810;24195,332;    1,731;    0,773
797,375;23882,934;    0,549;   -2,136
797,941;23928,354;   -0,541;    0,591
798,507;24077,775;   -0,451;   -0,955
799,073;23616,922;   -0,360;    0,591
799,639;23660,070;   -2,632;    3,136
800,205;23717,945;    0,095;    2,682
800,770;23242,092;    0,640;    1,773
801,336;23330,603;    1,368;   -0,955
801,901;23028,297;    4,549;    3,136
802,467;23570,717;   -0,542;    2,045
803,033;22902,501;   -0,087;    0,864
803,598;23118,739;    1,913;   -1,045
804,163;23150,796;    1,095;   -0,318
804,729;23083,307;   -0,178;    1,136
805,294;23512,182;    0,822;    2,227
805,859;23280,694;    0,731;   -0,409
806,425;22764,205;    1,186;    2,682
806,990;22455,534;    2,186;    4,318
807,555;22958,318;   -1,451;    2,591
808,120;22885,648;    0,822;   -0,409
808,685;22902,704;    0,185;   -2,500
809,250;22394,943;    0,004;   -0,500
809,815;22662,363;    1,913;    0,682
810,380;23225,965;   -0,269;    1,591
810,945;23816,658;   -1,087;    2,045
811,510;22959,624;    2,094;    1,591
812,075;22671,226;   -0,633;   -1,409
812,640;22720,283;    2,003;    1,409
813,204;22738,613;    0,822;   -0,227
813,769;23252,487;    2,094;   -0,045
814,334;22651,271;    0,458;    0,864
814,898;22706,964;    0,367;    0,591
815,463;22560,839;    1,276;   -0,773
816,027;22503,532;   -0,724;   -2,318
816,592;22599,407;    0,640;   -2,045
817,156;22112,464;    2,094;    1,136
817,721;22011,339;    4,276;    2,318
818,285;21938,396;    2,912;    1,500
818,849;22603,452;   -1,451;    1,682
819,414;22481,236;   -0,269;    2,955
819,978;22094,929;   -1,269;    1,773
820,542;22644,622;    2,003;    0,500
821,106;22333,225;   -0,815;    0,682
821,670;22479,918;   -0,815;    2,591
822,234;22180,065;   -0,270;    1,409
822,798;21549,304;    0,003;    0,500
823,362;21501,451;   -0,633;    4,227
823,926;20845,872;    0,094;    1,136
824,490;21083,929;   -0,997;   -0,682
825,054;21508,258;   -0,088;   -1,136
825,618;21171,133;   -1,542;   -1,500
826,181;21069,462;    0,458;   -1,318
826,745;20971,883;    1,367;   -1,045
827,309;21314,485;    1,185;    1,318
827,872;20716,178;    1,367;    0,955
828,436;21673,235;    1,185;   -0,773
828,999;21675,928;   -0,997;    1,227
829,563;20510,075;   -0,179;    1,136
830,126;20349,223;   -0,179;   -0,591
830,690;20368,280;   -1,997;    2,864
831,253;19925,064;   -0,543;    2,227
831,816;20059,848;   -1,906;    0,500
832,380;19981,450;    0,185;    0,864
832,943;20183,052;   -1,361;   -0,500
833,506;19679,927;    2,639;   -1,227
834,069;20483,711;    3,912;   -0,955
834,632;20539,040;    1,730;    1,318
835,195;20416,188;    1,003;    0,955
835,758;19599,972;   -0,997;    1,955
836,321;19417,574;    0,730;   -1,045
836,884;19532,722;   -0,725;   -0,955
837,447;19545,960;   -2,816;    1,773
838,010;19833,744;    0,366;    3,227
838,573;20146,710;   -1,179;    0,773
839,135;20080,585;   -1,361;   -0,955
839,698;19541,096;    1,275;    0,409
840,261;19100,244;    1,003;   -0,227
840,823;18945,846;   -0,543;    0,864
841,386;19225,903;   -0,452;   -2,409
841,948;19058,323;   -1,361;    1,773
842,511;18821,016;    0,912;    1,682
843,073;18980,800;    1,912;    0,227
843,636;18768,766;   -0,361;   -0,227
844,198;18700,095;    0,911;    0,591
844,760;18836,334;    1,093;    1,955
845,322;18490,754;    0,548;    1,136
845,885;18907,265;    0,730;    0,591
846,447;19364,322;   -1,998;    0,227
847,009;18949,106;    1,911;   -0,682
847,571;19265,708;    0,820;   -2,045
848,133;19368,219;   -1,089;   -1,864
848,695;19151,912;   -0,543;    1,409
849,257;18776,060;   -1,089;   -1,682
849,819;18852,208;   -0,998;   -0,409
850,381;18936,173;   -0,725;   -0,864
850,942;19301,503;    1,093;   -0,591
851,504;19276,287;    1,184;    0,227
852,066;19313,253;    1,275;   -1,591
852,628;18794,037;   -0,180;    1,955
853,189;18380,912;    1,638;    2,682
853,751;18508,423;   -0,907;    1,409
854,312;18288,207;   -0,453;   -1,682
854,874;18784,264;   -2,089;   -0,773
855,435;19353,866;   -0,907;   -1,682
855,997;19495,377;   -1,816;   -0,136
856,558;18766,252;    0,366;    1,773
857,119;18887,854;    0,820;    2,864
857,681;18558,093;    0,002;    0,318
858,242;18592,876;    1,911;   -2,136
858,803;19016,115;    0,456;   -0,773
859,364;19592,263;    0,184;   -4,773
859,925;18922,501;   -2,453;   -0,955
860,486;18823,922;   -0,453;   -0,955
861,047;18577,160;   -0,544;   -1,227
861,608;18351,944;   -1,089;   -0,773
862,169;18471,364;    0,638;   -0,045
862,730;18268,148;    0,456;    1,409
863,291;18522,478;   -0,635;   -0,500
863,852;18874,080;   -0,635;    1,955
864,412;18281,137;   -0,271;   -0,864
864,973;16896,830;   -0,089;    0,500
865,534;16761,523;   -1,726;    0,227
866,094;18283,216;    1,820;    0,227
866,655;17929,545;    1,274;    3,318
867,215;18235,238;    0,274;    0,136
867,776;18068,022;    0,547;   -0,136
868,336;18141,261;   -1,453;    0,136
868,897;17587,590;    2,638;    1,682
869,457;17362,011;    1,365;    0,318
870,017;17577,795;    0,547;   -1,227
870,578;18115,760;   -0,817;    0,773
871,138;17791,999;   -2,089;   -0,955
871,698;17354,874;   -0,817;   -1,318
872,258;17243,385;   -0,453;   -2,864
872,818;17618,169;    2,729;    0,045
873,378;17556,499;    0,638;    1,045
873,938;17114,283;    0,547;    0,500
874,498;17441,976;    0,274;   -1,955
875,058;17346,487;    2,183;    1,773
875,618;17212,362;    1,910;   -2,682
876,177;17144,146;    1,274;    0,136
876,737;16742,748;   -0,090;    1,955
877,297;16756,077;    0,183;    1,955
877,856;16763,861;   -0,362;    0,318
878,416;16707,100;    1,183;   -0,136
878,976;16929,975;   -1,817;    0,409
879,535;17110,759;    0,092;    3,136
880,095;16836,906;   -0,544;    0,045
880,654;16945,872;   -1,090;    1,318
881,213;17082,747;    2,456;    1,500
881,773;16677,076;    2,637;    2,682
882,332;17029,315;    3,365;    5,136
882,891;16896,463;    3,092;    2,136
883,451;17358,065;   -1,272;    1,682
884,010;16741,849;   -2,908;   -0,409
884,569;16885,360;   -0,999;   -0,045
885,128;17044,326;    2,819;   -1,864
885,687;17088,473;    4,455;    0,682
886,246;16779,257;    1,455;    2,136
886,805;16554,314;    2,455;    2,045
887,364;16827,098;   -0,999;   -0,500
887,922;17202,882;   -1,181;    0,045
888,481;16706,848;   -1,545;    0,591
889,040;17039,723;    1,183;    2,136
889,599;17704,325;    2,455;    1,409
890,157;17783,836;    1,455;    2,409
890,716;17439,984;   -0,090;    0,227
891,274;17254,586;    0,092;   -1,136
891,833;17686,370;    1,546;    0,864
892,391;17546,427;   -0,454;    0,500
892,950;17620,665;    1,819;   -0,773
893,508;18007,085;    0,455;   -0,409
894,067;17362,506;    0,637;    0,136
894,625;17299,653;   -0,636;   -1,500
895,183;17515,165;   -0,363;   -0,682
895,741;17401,130;    1,728;   -1,773
896,299;17255,914;   -0,545;   -2,409
896,858;17405,789;    0,819;   -1,591
897,416;17526,392;    2,728;   -1,318
897,974;17275,721;    1,819;    0,318
898,532;17424,505;    6,091;    2,682
899,089;17337,834;    2,091;   -0,682
899,647;17367,164;   -1,454;    1,318
900,205;17071,221;    1,182;    1,045
900,763;17279,095;   -0,454;    0,227
901,321;17311,698;    2,364;   -1,409
901,878;16707,936;   -1,000;   -0,773
902,436;16605,266;   -1,363;    1,318
902,994;17011,959;    4,728;    3,682
903,551;16431,015;    0,728;    0,409
904,109;16797,163;    0,182;   -1,409
904,666;16391,038;    2,455;    1,045
905,224;16285,640;    0,182;   -0,409
905,781;15985,788;    0,727;   -0,318
906,338;16064,935;   -1,363;    1,045
906,895;15977,628;    0,637;    2,045
907,453;15935,594;    1,727;    1,136
908,010;15957,014;   -0,909;    0,409
908,567;15607,889;    1,273;    0,591
909,124;15099,582;    0,364;   -1,500
909,681;15152,548;   -2,909;    0,682
910,238;15298,150;    0,636;   -1,318
910,795;15639,389;   -0,273;   -1,136
911,352;15213,298;   -2,909;   -2,682
911,909;14641,571;   -1,364;   -0,864
912,466;15138,753;   -3,182;    1,500
913,022;14704,934;   -1,636;    0,500
913,579;15082,298;   -0,909;    2,045
914,136;14751,843;    1,636;    0,955
914,692;15065,571;    0,091;   -1,227
915,249;14694,571;    1,455;    0,409
915,806;14901,298;    0,182;    1,955
916,362;14653,480;    1,909;    1,864
916,918;14227,843;    2,000;    1,045
917,475;14206,662;   -1,182;    0,955
918,031;14279,571;    3,364;   -0,045
918,587;13710,662;   -0,909;   -0,318
919,144;13941,480;   -2,273;    0,227
919,700;14257,934;    1,727;    0,773
920,256;13828,753;    0,727;    0,045
920,812;13469,298;   -0,727;   -1,045
921,368;13466,934;   -1,727;   -1,045
921,924;13111,389;    0,182;   -0,136
922,480;12691,753;   -0,545;    1,227
923,036;13287,571;    1,273;    1,955
923,592;13216,480;    0,455;    0,318
924,148;13111,480;    0,455;   -0,955
924,704;12436,934;   -1,364;   -0,409
925,259;12680,934;   -0,273;    0,591
925,815;12450,480;    1,455;    0,500
926,371;11992,480;    2,909;    1,409
926,926;11899,662;    2,091;    0,591
927,482;11509,571;   -1,364;    0,773
928,037;11398,843;    0,909;    2,045
928,593;11678,662;    1,636;    1,045
929,148;11499,480;   -1,818;   -1,500
929,704;11001,753;   -1,455;   -0,500
930,259;11226,025;    0,091;   -0,136
930,814;10285,843;   -0,818;    1,955
931,369; 9942,025;    1,091;   -0,773
931,925; 9845,480;   -0,091;    0,136
932,480; 9762,480;   -2,818;   -2,591
933,035; 9623,843;    0,545;   -0,318
933,590; 9382,571;    0,364;   -1,773
934,145; 9005,389;   -1,364;   -0,318
934,700; 9367,662;    0,455;   -0,591
935,255; 9177,934;   -0,091;    0,045
935,809; 8450,480;    3,182;    0,864
936,364; 7581,298;   -0,455;   -0,136
936,919; 7540,934;    0,455;   -1,773
937,474; 7444,389;    1,455;    0,136
938,028; 7191,298;   -1,636;    1,136
938,583; 6646,389;    1,818;    4,682
939,138; 6913,571;    2,091;    2,136
939,692; 6351,662;    1,636;   -1,136
940,247; 6062,662;   -0,727;   -1,045
940,801; 5622,753;   -0,636;    0,227
941,355; 5488,753;   -0,364;    2,591
941,910; 5138,753;   -0,273;   -2,136
942,464; 5241,571;   -0,818;   -0,318
943,018; 5052,298;    1,000;   -0,227
943,572; 4987,116;    2,545;   -0,682
944,126; 4412,662;    0,091;   -0,409
944,681; 4287,571;    3,091;    0,227
945,235; 4294,934;    1,000;   -0,591
945,789; 4222,480;    0,364;   -1,864
946,342; 4321,298;    0,455;   -0,591
946,896; 4132,025;   -2,273;    0,955
947,450; 3890,025;    1,545;   -0,227
948,004; 4075,116;    1,727;   -0,045
948,558; 4088,571;    0,273;   -0,864
949,111; 3993,662;   -0,273;   -0,318
949,665; 4019,025;    1,636;   -0,682
950,219; 3895,662;   -0,091;   -1,045
950,772; 3968,298;   -1,909;    1,864
951,326; 3882,662;    0,545;   -0,955
951,879; 3974,934;    0,727;   -2,318
952,433; 4001,298;    0,000;    2,227
952,986; 3854,389;    2,909;    0,682
953,539; 3812,753;   -0,273;    0,591
954,093; 3755,480;    0,545;   -1,318
954,646; 3865,298;    0,909;    1,318
955,199; 3674,389;    0,000;   -0,500
955,752; 3554,753;   -0,455;    1,773
956,305; 3524,662;   -0,091;    2,955
956,858; 3685,662;    0,818;   -0,318
957,411; 3854,571;   -0,545;    2,136
957,964; 3697,298;    1,364;    2,136
958,517; 3691,571;   -1,545;    3,136
959,070; 3518,662;   -0,455;    1,955
959,623; 3587,207;    1,091;    1,500
960,176; 3353,662;    1,727;    2,045
960,728; 3335,298;   -2,727;    0,773
961,281; 3391,753;    0,545;    0,500
961,834; 3444,480;   -0,909;    0,864
962,386; 3348,025;    1,727;    1,045
962,939; 3290,843;    0,364;   -0,318
963,491; 3437,025;    0,455;    1,136
964,043; 3294,934;    1,182;    2,409
964,596; 3424,753;   -1,000;    2,227
965,148; 3274,480;   -1,000;    1,773
965,700; 3191,298;    1,091;   -0,227
966,253; 3336,571;   -0,636;    0,318
966,805; 3158,025;   -2,273;    0,773
967,357; 3212,389;    1,091;   -1,500
967,909; 3170,843;    0,455;   -1,227
968,461; 3283,480;    0,545;    3,136
969,013; 3216,207;   -0,182;   -0,864
969,565; 3291,389;   -0,455;   -1,136
970,117; 3336,662;   -0,364;    1,045
970,669; 3189,934;    0,182;   -0,136
971,220; 3052,843;   -0,455;   -1,500
971,772; 2959,753;   -0,636;   -0,318
972,324; 3096,571;    0,091;   -0,500
972,876; 3059,571;    0,818;   -0,045
973,427; 3182,934;    1,909;   -1,045
973,979; 3149,207;   -0,727;   -2,500
974,530; 3181,025;    1,818;    1,318
975,082; 3191,298;   -0,545;    1,682
975,633; 3079,662;    1,091;    1,682
976,184; 3206,753;    0,909;    0,773
976,736; 3013,389;    0,091;    0,227
977,287; 2811,298;   -0,909;   -0,500
977,838; 2987,389;    0,909;   -0,318
978,389; 3055,298;   -1,000;   -0,500
978,940; 2925,480;    0,545;   -0,409
979,491; 2946,116;    0,091;   -0,500
980,042; 2914,662;    0,182;    3,045
980,593; 2956,843;   -2,545;    0,227
981,144; 3029,753;    2,545;   -0,500
981,695; 2981,843;    1,455;    1,500
982,246; 2947,843;   -0,273;    1,045
982,797; 3106,480;   -1,727;    0,682
983,347; 3197,389;    0,364;    0,591
983,898; 3376,116;    3,091;    0,409
984,449; 3197,662;    2,182;    0,773
984,999; 3105,116;    1,455;   -1,136
985,550; 2886,662;    0,182;   -0,318
986,100; 2916,116;   -0,455;   -0,318
986,651; 2928,298;   -0,818;    0,045
987,201; 2929,389;   -1,000;   -0,591
987,751; 3015,753;    0,818;    2,864
988,302; 3006,571;    2,636;    1,500
988,852; 3012,389;    0,455;   -1,136
989,402; 3062,207;    0,091;    0,682
989,952; 2963,662;   -2,182;    0,864
990,502; 3078,298;   -0,091;    0,682
991,052; 3054,389;   -0,727;    0,045
991,602; 2900,571;   -2,909;    1,318
992,152; 2897,662;    0,455;    0,682
992,702; 2888,753;    1,364;   -0,045
993,252; 2804,389;   -3,000;   -0,500
993,802; 2905,934;   -0,273;    1,318
994,352; 3135,116;   -1,545;    1,136
994,901; 3204,753;   -0,182;    3,227
995,451; 3139,207;   -0,182;    0,318
996,000; 3218,662;    1,636;    0,318
996,550; 2931,662;    2,273;    0,227
997,100; 2924,298;    1,273;   -0,045
997,649; 3200,753;    2,182;    0,955
998,198; 2848,480;    1,727;   -1,500
998,748; 3038,934;    1,091;   -2,318
999,297; 2951,389;   -0,818;   -0,409
999,846; 3000,025;    1,000;   -0,773
1000,395; 3066,571;   -0,818;    0,500
1000,945; 3015,662;    1,818;   -0,773
1001,494; 3098,571;    2,364;    0,682
1002,043; 3086,389;    4,636;    0,864
1002,592; 2939,662;   -1,091;    1,955
1003,141; 3070,480;   -0,455;   -0,682
1003,690; 2931,207;    1,727;    0,500
1004,238; 3032,571;    1,455;   -0,045
1004,787; 2665,207;    1,364;    1,227
1005,336; 2889,934;    0,364;    0,682
1005,885; 3031,207;    1,364;   -2,773
1006,433; 3175,389;    0,545;    0,955
1006,982; 3208,571;    0,455;    1,682
1007,531; 3137,934;   -1,818;   -0,227
1008,079; 3089,207;   -2,273;    0,500
1008,627; 3241,480;   -1,455;    0,409
1009,176; 2974,662;    0,000;   -1,955
1009,724; 3018,025;    1,091;    0,864
1010,273; 3076,207;    1,273;    0,500
1010,821; 3190,025;    0,091;    1,409
1011,369; 2922,843;   -1,364;    1,318
1011,917; 2904,116;   -1,364;   -0,591
1012,465; 3190,116;    1,273;   -1,591
1013,013; 3297,298;    2,091;   -1,682
1013,561; 3164,571;    0,455;   -0,773
1014,109; 3223,389;   -1,909;    1,682
1014,657; 3098,571;    0,364;    0,591
1015,205; 3203,389;    1,636;   -0,955
1015,753; 3237,934;   -0,545;   -1,409
1016,301; 3276,207;   -2,636;    3,045
1016,848; 3284,934;   -1,273;    0,409
1017,396; 3328,025;    2,545;    0,045
1017,944; 3439,207;    1,182;    1,864
1018,491; 3207,571;    0,273;    1,409
1019,039; 3349,753;    0,455;    0,591
1019,586; 3269,207;   -1,364;    1,682
1020,134; 3370,025;    0,455;    1,500
1020,681; 3401,298;    0,182;   -1,136
1021,228; 3403,389;    2,909;   -2,227
1021,776; 3237,025;    1,182;   -1,136
1022,323; 3468,389;    0,455;    0,773
1022,870; 3383,843;   -1,000;   -0,045
1023,417; 3293,389;    2,636;    1,864
1023,964; 3423,480;    2,636;    1,227
1024,511; 3274,662;    1,000;    0,773
1025,058; 3055,025;    3,182;   -0,045
1025,605; 3127,934;   -2,273;    3,136
1026,152; 3346,662;    1,727;   -0,591
1026,699; 3049,662;    1,818;    1,318
1027,245; 3220,753;   -0,091;    0,318
1027,792; 3435,843;   -1,000;    1,409
1028,339; 3318,753;    2,364;   -0,045
1028,885; 3160,025;    1,000;   -0,227
1029,432; 3105,843;   -0,091;    0,227
1029,978; 3181,571;   -1,000;   -1,591
1030,525; 3086,662;    1,000;    0,409
1031,071; 3327,116;   -1,364;    1,136
1031,618; 3422,571;    0,364;    1,682
1032,164; 3213,207;   -0,091;    3,045
1032,710; 3272,207;    1,636;   -1,500
1033,256; 3178,389;   -0,636;   -0,136
1033,803; 3148,934;   -0,545;    1,500
1034,349; 2884,025;   -1,364;    0,136
1034,895; 3040,389;    0,000;   -0,318
1035,441; 3020,934;   -0,818;    0,318
1035,987; 3025,662;   -2,364;   -0,682
1036,533; 3009,480;   -1,455;   -0,955
1037,078; 3222,207;    1,455;    1,682
1037,624; 3026,480;    2,455;   -0,955
1038,170; 3055,662;    0,455;   -0,318
1038,716; 2970,207;    1,636;   -0,409
1039,261; 2884,298;   -2,273;   -0,773
1039,807; 2825,934;   -0,091;    3,409
1040,352; 2893,753;   -1,909;   -0,318
1040,898; 2926,480;   -1,545;   -0,682
1041,443; 2847,843;   -1,455;   -2,591
1041,989; 2850,025;    1,091;    1,591
1042,534; 2756,025;   -0,364;    2,591
1043,079; 2859,934;    2,909;    0,955
1043,625; 2651,571;    1,818;    0,500
1044,170; 2704,025;   -1,364;    1,045
1044,715; 2951,116;    2,455;    0,955
1045,260; 2763,389;    2,182;   -0,955
1045,805; 2817,934;    1,182;   -0,591
1046,350; 2740,843;    1,364;   -0,409
1046,895; 2709,662;    2,909;    1,591
1047,440; 2666,116;    5,364;    0,409
1047,985; 2558,571;    2,818;   -0,955
1048,530; 2471,662;    1,545;    1,227
1049,074; 2548,298;    0,000;    0,318
1049,619; 2520,662;   -1,364;    1,955
1050,164; 2316,207;    0,455;    0,227
1050,708; 2344,116;   -0,455;    0,045
1051,253; 2717,843;    1,273;   -2,227
1051,797; 2433,571;    0,818;   -1,318
1052,342; 2453,298;   -1,182;    1,045
1052,886; 2446,934;    0,364;   -1,409
1053,430; 2329,571;   -1,364;    0,136
1053,975; 2348,116;   -0,818;   -0,318
1054,519; 2329,298;   -0,727;    3,227
1055,063; 2328,662;    0,909;    1,318
1055,607; 2220,116;   -0,182;    0,227
1056,151; 2247,389;    2,909;    1,682
1056,695; 2165,934;    2,273;   -1,136
1057,239; 2227,934;   -1,727;   -0,682
1057,783; 2240,298;    0,818;   -1,500
1058,327; 2177,662;    0,000;    1,409
1058,871; 2407,934;   -0,545;    1,318
1059,415; 2107,843;   -0,818;   -0,045
1059,958; 2383,116;    1,455;    2,591
1060,502; 2091,389;   -1,000;   -0,773
1061,046; 2001,753;    0,364;   -0,955
1061,589; 1993,207;   -3,000;   -1,136
1062,133; 1864,753;   -1,273;    1,864
1062,676; 1805,116;    1,182;    0,864
1063,220; 1804,934;    1,091;    0,500
1063,763; 1821,025;    0,909;    1,136
1064,306; 1902,753;   -0,909;    1,864
1064,849; 1794,116;   -0,909;    0,591
1065,393; 1789,025;    2,000;   -1,500
1065,936; 1905,662;    0,182;   -0,409
1066,479; 1787,662;   -1,455;    1,318
1067,022; 1819,025;   -0,273;   -0,227
1067,565; 1710,116;   -0,091;   -1,318
1068,108; 1741,025;    0,727;   -0,591
1068,651; 1723,025;   -0,636;    1,409
1069,194; 1647,298;   -0,455;   -1,682
1069,736; 1651,843;   -1,273;    0,955
1070,279; 1617,843;   -1,364;   -0,500
1070,822; 1684,662;   -2,000;   -0,318
1071,364; 1768,662;   -0,364;    1,318
1071,907; 1583,843;   -0,727;    3,227
1072,450; 1485,298;    0,000;   -0,045
1072,992; 1477,389;   -0,273;    3,136
1073,535; 1620,025;    2,091;    2,136
1074,077; 1408,207;   -0,727;    2,045
1074,619; 1383,480;   -1,364;    0,591
1075,161; 1419,207;   -1,091;    1,500
1075,704; 1601,753;    1,545;    1,227
1076,246; 1384,571;   -0,182;    0,682
1076,788; 1310,843;   -0,364;    1,773
1077,330; 1389,389;    1,273;    2,136
1077,872; 1371,116;    0,909;    0,955
1078,414; 1593,571;    2,727;    0,773
1078,956; 1307,571;    1,273;   -0,227
1079,498; 1580,843;    1,636;    0,318
1080,040; 1292,571;    1,909;   -1,318
1080,581; 1234,934;    1,636;   -0,318
1081,123; 1154,571;    0,091;   -0,773
1081,665; 1200,753;   -1,182;   -0,955
1082,206; 1501,389;    1,364;   -0,500
1082,748; 1352,389;    0,727;    2,045
1083,289; 1230,025;   -2,000;    1,318
1083,831; 1133,298;   -0,545;    0,227
1084,372; 1177,025;    0,000;    0,591
1084,913; 1184,662;    1,091;    0,864
1085,455; 1156,662;   -1,909;   -2,045
1085,996; 1121,753;   -2,273;    0,136
1086,537; 1141,480;   -0,091;    0,864
1087,078; 1173,753;   -0,909;   -2,136
1087,619; 1218,389;   -1,273;    0,227
1088,160; 1136,298;    0,000;    1,318
1088,701; 1119,480;   -1,091;    0,682
1089,242; 1052,753;    1,364;   -2,227
1089,783; 1153,389;   -0,273;    1,409
1090,324; 1122,116;    0,455;    0,682
1090,865;  999,116;    2,727;   -0,409
1091,405;  952,571;    0,727;    2,227
1091,946;  988,025;    0,182;   -0,955
1092,487;  919,025;    0,818;   -1,409
1093,027; 1093,571;   -1,364;   -1,500
1093,568;  943,116;   -0,364;    1,227
1094,108; 1036,389;    0,273;    1,773
1094,649;  963,116;   -1,182;    0,136
1095,189;  909,207;   -0,636;   -0,682
1095,729;  873,207;   -0,091;    0,955
1096,269;  866,753;    0,727;   -0,955
1096,810; 1184,934;   -1,364;    0,500
1097,350; 1007,571;    1,364;   -0,773
1097,890;  912,298;    0,364;    1,227
1098,430; 1165,843;    2,364;    2,864
1098,970; 1032,571;    2,182;    1,682
1099,510;  890,934;    0,545;   -2,318
1100,050;  813,662;    1,000;   -1,591
1100,589;  785,662;   -0,727;   -0,318
1101,129;  911,298;    0,818;   -0,955
1101,669; 1068,843;    1,727;    2,136
1102,209;  876,298;   -0,091;    2,227
1102,748;  846,480;    0,000;    0,955
1103,288;  822,934;    1,273;   -1,227
1103,827;  856,934;    3,091;   -2,227
1104,367;  732,662;   -0,091;   -2,409
1104,906;  699,753;    1,364;   -1,136
1105,445;  778,298;    0,636;   -1,136
1105,985;  731,753;   -0,727;    1,500
1106,524;  776,116;   -1,727;   -0,682
1107,063;  751,753;   -2,727;    1,409
1107,602;  713,025;   -1,909;   -1,500
1108,141;  640,662;   -1,909;    1,500
1108,680;  741,389;   -3,455;   -0,591
1109,219;  667,480;   -0,909;   -0,500
1109,758;  679,298;    0,455;    0,682
1110,297;  649,480;    1,000;   -0,682
1110,836;  597,207;   -0,727;    0,955
1111,375;  765,116;   -2,545;    0,409
1111,913;  771,480;   -1,000;    0,773
1112,452;  705,389;   -0,273;    0,136
1112,991;  593,025;    1,091;    1,955
1113,529;  558,207;   -0,818;   -0,045
1114,068;  623,843;   -0,273;    2,955
1114,606;  523,934;   -0,364;   -0,955
1115,144;  683,571;   -1,273;    1,045
1115,683;  623,843;   -0,727;    0,318
1116,221;  678,843;   -0,455;   -0,864
1116,759;  577,480;    0,636;   -0,864
1117,297;  785,753;    0,000;    1,864
1117,836;  574,753;   -2,182;   -1,227
1118,374;  597,843;    0,182;   -0,682
1118,912;  530,662;    0,909;    2,682
1119,450;  526,843;    1,000;    0,864
1119,988;  574,934;    1,545;    2,136
1120,525; 1034,298;    5,091;    3,318
1121,063;  727,571;    1,182;    1,864
1121,601;  536,116;   -0,909;   -1,227
1122,139;  504,298;   -0,727;   -2,045
1122,676;  688,843;   -0,727;    2,773
1123,214;  612,480;   -1,182;    4,409
1123,751;  429,025;    1,727;    2,227
1124,289;  555,480;   -0,091;   -0,409
1124,826;  432,207;    1,727;    0,227
1125,364;  352,571;    1,727;   -0,955
1125,901;  545,389;    1,182;    1,227
1126,438;  646,298;    0,818;    0,955
1126,975;  370,662;   -0,727;   -0,773
1127,513;  458,116;    0,273;    2,136
1128,050;  350,207;    1,636;   -0,682
1128,587;  457,662;    2,000;   -0,227
1129,124;  504,571;    0,091;    1,318
1129,661;  358,480;    0,273;    0,227
1130,198;  526,753;    1,636;    0,773
1130,734;  476,025;    0,182;    1,409
1131,271;  328,934;   -0,909;    0,864
1131,808;  511,571;    2,909;    3,045
1132,345;  385,298;    1,545;    0,318
1132,881;  250,207;   -1,545;   -1,864
1133,418;  386,116;    0,727;   -1,136
1133,954;  323,389;    2,455;   -2,682
1134,491;  391,207;    1,364;   -0,773
1135,027;  298,025;    2,364;    0,864
1135,564;  393,207;    0,273;    2,955
1136,100;  375,207;    0,364;    2,136
1136,636;  261,389;   -1,273;   -1,045
1137,172;  356,934;    0,000;   -1,045
1137,708;  278,571;   -1,364;   -1,045
1138,245;  285,025;    1,273;   -1,227
1138,781;  229,934;    1,091;   -3,318
1139,317;  305,934;    1,273;   -1,409
1139,852;  289,571;    3,091;    0,136
1140,388;  414,843;   -1,182;   -0,409
1140,924;  297,389;   -1,091;   -2,227
1141,460;  226,571;   -1,636;    0,136
1141,996;  163,571;   -1,364;    2,682
1142,531;  213,753;    1,364;    3,318
1143,067;  423,571;    1,182;    1,045
1143,602;  486,480;   -0,091;   -0,318
1144,138;  329,389;   -2,636;    1,045
1144,673;  190,025;   -1,455;    1,409
1145,209;  259,207;   -1,909;   -0,318
1145,744;  177,662;   -0,727;    0,864
1146,279;  318,116;    1,818;   -0,136
1146,815;  236,662;    1,545;   -2,682
1147,350;  275,753;   -1,364;    0,045
1147,885;  190,843;   -0,818;   -1,318
1148,420;  191,571;   -2,273;    0,773
1148,955;  169,843;   -1,727;    1,864
1149,490;  198,571;   -0,909;   -1,591
1150,025;  183,389;    0,455;   -1,773
1150,560;  288,207;    1,091;   -0,955
1151,094;  266,389;    1,455;   -0,591
1151,629;  262,116;    1,636;    0,864
1152,164;  188,207;    1,364;    1,318
1152,698;  145,843;   -0,182;   -0,136
1153,233;  106,025;    0,091;   -0,682
1153,767;  151,934;   -3,000;   -2,318
1154,302;  199,298;   -1,455;    1,773
1154,836;  203,662;   -0,455;   -2,136
1155,371;  264,753;   -1,364;    3,682
1155,905;  206,389;   -0,636;    1,682
1156,439;  177,571;   -0,636;   -0,500
1156,973;  203,662;    0,364;    0,318
1157,507;  143,753;   -0,364;    0,682
1158,042;  172,571;   -0,727;    1,045
1158,576;  216,843;    0,182;    1,773
1159,110;  207,116;   -0,818;    2,409
1159,643;  177,753;    0,636;   -0,045
1160,177;  114,025;   -1,545;    1,500

