
Integration time [ms]:   0,040
Averaging Nr. [scans]: 11
Smoothing Nr. [pixels]: 0
Data measured with spectrometer [name]: 7318044SP
Wave   ;Sample   ;Dark     ;Reference
[nm]   ;[counts] ;[counts] ;[counts] 

186,757;   20,195;   31,551;    1,318
187,357;   51,150;   22,551;    0,955
187,958;   25,960;   15,460;   -1,591
188,558;   80,728;    8,915;   -1,227
189,159;   55,168;    6,733;   -4,500
189,759;   17,402;    7,278;   -3,591
190,360;   20,192;    2,824;   -2,136
190,960;   67,910;    2,915;   -4,136
191,560;   78,692;    3,189;   -6,591
192,161;  331,900;    4,372;   -3,500
192,761;  161,606;    4,010;   -3,227
193,361;  109,702;    1,556;   -3,773
193,962;  168,332;    2,010;   -2,682
194,562;   87,514;    1,189;   -3,955
195,162;  127,583;   -2,448;   -2,227
195,762;  300,439;   -3,176;   -0,045
196,362;  239,424;    1,370;   -2,500
196,963;   96,017;    2,006;   -0,864
197,563;  172,735;    1,551;   -0,955
198,163;  119,077;    0,096;   -0,682
198,763;  143,458;    1,733;   -0,500
199,363;  249,626;    3,096;   -0,500
199,963;  205,281;    0,369;    0,409
200,563;  175,395;    2,823;   -1,409
201,163;  153,982;    3,277;   -0,227
201,763;  259,587;    3,732;    0,318
202,363;  188,429;    1,459;    1,500
202,963;  315,412;    1,459;    1,045
203,563;  425,740;    0,277;    0,500
204,162;  249,492;    2,096;   -1,864
204,762;  250,216;    0,550;    0,591
205,362;  223,350;    3,004;    1,955
205,962;  333,885;    3,096;    1,955
206,562;  330,780;    1,823;    2,318
207,161;  285,071;   -0,087;    0,318
207,761;  451,267;    1,277;    2,409
208,361;  331,413;   -0,268;    1,409
208,960;  432,723;    0,459;    1,500
209,560;  495,326;    1,277;    1,591
210,160;  471,874;    0,550;    1,864
210,759;  446,298;    4,186;    1,227
211,359;  453,419;    1,459;    1,045
211,958;  739,529;    1,277;    2,045
212,558;  814,219;    1,732;    1,864
213,157;  647,482;    1,822;    1,500
213,757; 1102,821;    3,822;   -0,227
214,356;  797,844;    1,277;   -0,409
214,956; 1151,266;    3,095;    0,409
215,555;  766,670;    2,095;    2,136
216,154;  692,794;   -2,723;   -0,591
216,754;  703,326;    0,277;    0,773
217,353;  847,890;   -0,268;   -1,045
217,952;  707,042;   -0,178;    0,318
218,552;  954,503;    1,368;   -0,773
219,151;  844,429;    0,277;    0,955
219,750;  837,249;    0,004;   -0,227
220,349;  983,956;   -0,451;    1,045
220,948; 1045,953;   -1,360;    1,136
221,548; 1096,102;    0,913;    1,227
222,147; 1197,557;   -0,087;   -0,409
222,746; 1485,389;   -0,451;   -0,955
223,345; 1366,057;    0,731;    0,500
223,944; 1382,178;   -0,451;    0,773
224,543; 1576,278;    1,004;   -1,409
225,142; 1682,150;    0,094;    0,136
225,741; 1593,280;   -0,814;    1,045
226,340; 1622,980;   -0,451;   -0,955
226,939; 2095,908;   -0,996;   -0,136
227,538; 2079,658;   -0,360;   -0,773
228,137; 2221,735;   -0,814;    0,864
228,735; 2396,456;   -0,541;    1,227
229,334; 2144,534;   -0,905;   -0,227
229,933; 2538,703;    0,459;    0,591
230,532; 2643,627;    1,186;   -0,409
231,131; 2688,973;    1,732;    0,318
231,729; 2875,399;   -2,450;   -2,318
232,328; 3013,438;   -0,723;   -1,500
232,927; 3118,812;    1,004;   -0,500
233,525; 3275,653;    3,640;    0,045
234,124; 3474,959;    2,368;   -1,591
234,723; 3510,645;    0,913;   -1,045
235,321; 3662,258;    2,277;    0,136
235,920; 3930,132;    1,186;   -1,227
236,518; 4184,836;    3,459;    0,318
237,117; 4395,167;    0,004;   -0,227
237,715; 4586,963;    0,640;   -0,500
238,314; 4618,010;   -0,087;   -2,318
238,912; 4732,315;   -0,723;   -1,409
239,510; 4779,290;    0,459;   -1,227
240,109; 4965,249;    0,004;    3,773
240,707; 5010,703;   -0,996;    1,227
241,305; 5391,597;    0,550;    0,136
241,904; 5611,870;   -0,178;   -2,045
242,502; 5561,889;   -0,632;   -0,227
243,100; 5542,041;   -0,087;   -0,955
243,698; 5795,292;    0,732;    1,682
244,297; 6000,177;   -0,632;    0,682
244,895; 5808,064;   -0,269;   -2,318
245,493; 6152,094;    2,186;   -0,591
246,091; 6204,673;    1,368;   -1,318
246,689; 6170,303;    1,004;    0,591
247,287; 6339,992;    0,822;   -1,136
247,885; 6638,390;   -1,451;    1,227
248,483; 6735,408;    1,822;   -0,500
249,081; 6866,749;    0,185;    1,591
249,679; 7036,302;   -0,178;    1,682
250,277; 7313,437;   -1,723;    0,864
250,875; 7285,866;   -1,087;   -1,045
251,473; 7285,660;   -1,178;    0,500
252,071; 7501,226;    1,459;    1,045
252,669; 7682,451;   -1,814;    0,318
253,267; 7959,755;   -0,087;    0,773
253,864; 7947,901;   -0,360;    0,682
254,462; 7768,553;    1,640;    1,591
255,060; 7745,885;   -0,269;    1,318
255,658; 8090,633;    0,822;   -0,136
256,255; 8532,622;    0,186;   -2,045
256,853; 8364,390;   -0,269;    1,409
257,451; 8362,446;    0,822;    1,864
258,048; 8652,232;    1,822;    1,864
258,646; 8414,092;    1,731;   -1,045
259,243; 8600,481;   -0,087;    2,227
259,841; 8668,788;   -0,814;    0,318
260,438; 8533,000;   -0,087;    0,864
261,036; 9298,034;   -1,905;    1,409
261,633; 9167,827;   -0,087;    2,227
262,231; 8897,282;    2,731;   -0,045
262,828; 9006,263;   -0,905;    1,136
263,425; 9065,947;    0,913;   -0,591
264,023; 9330,249;    0,186;    0,045
264,620; 8894,989;   -0,360;   -0,318
265,217; 9249,275;   -2,087;    3,136
265,815; 9346,191;   -1,905;    2,136
266,412; 9133,288;    0,731;    0,136
267,009; 9185,439;   -1,451;    0,773
267,606; 9054,365;    0,822;   -0,955
268,203; 9069,819;   -0,269;   -0,591
268,801; 9323,477;    1,731;    0,591
269,398; 9645,441;   -0,360;    2,500
269,995; 9645,808;    0,277;    1,591
270,592; 9382,658;   -0,632;   -0,500
271,189; 9596,383;    0,186;    0,409
271,786; 9734,077;   -0,632;    1,227
272,383; 9553,319;   -1,087;    0,227
272,980; 9735,783;    0,277;    0,318
273,577;10239,219;    0,004;    1,227
274,174; 9780,276;    0,822;    2,591
274,771; 9785,087;   -0,814;   -0,773
275,367; 9943,485;    2,277;    1,409
275,964; 9920,625;    0,731;   -0,500
276,561;10001,015;    1,549;   -1,045
277,158;10249,393;    0,095;   -1,773
277,755;10329,477;    2,185;    0,409
278,351; 9734,177;   -0,451;   -1,500
278,948;10046,165;   -0,815;    0,045
279,545;10096,668;   -1,360;    2,318
280,141;10700,693;   -1,723;   -2,045
280,738;10587,529;   -0,451;   -0,136
281,334;10847,532;   -1,633;    0,591
281,931;10183,616;   -0,087;   -1,318
282,528;10306,617;    0,822;   -0,500
283,124;11049,099;   -1,087;   -0,500
283,721;10974,681;   -0,451;    1,409
284,317;10753,596;    0,185;    2,500
284,913;11294,571;   -1,360;    0,591
285,510;11498,389;    0,640;   -0,318
286,106;11516,730;   -2,269;   -0,955
286,703;11132,114;   -0,360;    1,955
287,299;11327,152;   -1,451;   -0,591
287,895;11534,476;    0,822;   -1,045
288,491;12106,805;    0,186;    2,136
289,088;11837,829;   -2,360;    2,409
289,684;11919,996;   -1,723;    1,500
290,280;11929,038;    0,368;    0,682
290,876;12054,587;    1,822;    5,500
291,472;11887,335;    1,276;    2,227
292,068;11998,469;    1,367;    0,227
292,665;11717,334;    2,095;    0,773
293,261;11317,395;    0,276;    2,136
293,857;11754,116;    2,913;    2,136
294,453;11657,969;    3,550;    0,955
295,049;11533,053;   -0,268;    1,955
295,644;11549,741;    0,095;    0,136
296,240;11451,421;   -0,905;   -0,136
296,836;11510,828;   -0,995;    0,318
297,432;11765,475;    1,096;   -0,500
298,028;11775,904;    0,732;    0,773
298,624;12204,302;    1,459;    1,864
299,220;12493,849;    2,368;    0,591
299,815;12129,080;    1,005;   -0,409
300,411;11902,235;    0,914;    1,773
301,007;11925,976;    1,368;    0,227
301,602;12007,808;   -0,541;   -2,318
302,198;12136,277;    0,732;   -0,773
302,794;12502,525;    1,187;   -0,500
303,389;12657,453;   -1,177;    1,045
303,985;12715,349;    0,550;    1,409
304,580;12678,155;    1,459;    1,591
305,176;12621,384;   -3,086;    0,136
305,771;12586,927;   -1,268;   -1,227
306,367;12418,575;    4,095;    0,136
306,962;12737,990;    0,641;    1,500
307,558;12450,925;   -0,450;    0,136
308,153;12383,299;    1,095;   -1,136
308,748;12677,957;   -0,814;    1,682
309,344;12670,699;   -0,632;   -1,318
309,939;12729,947;   -1,905;   -1,318
310,534;12992,005;   -0,086;   -1,682
311,130;12943,028;    0,459;   -2,500
311,725;12673,351;    1,004;   -0,500
312,320;13001,152;    2,459;    0,045
312,915;12827,102;    1,459;   -1,045
313,510;12926,571;    1,550;   -0,500
314,105;13434,637;    1,096;    1,409
314,700;12809,142;   -3,086;   -1,045
315,295;12421,064;   -0,904;    0,045
315,890;12006,341;    1,277;    0,864
316,485;12361,454;   -0,359;   -0,318
317,080;12469,912;   -3,086;    1,591
317,675;13056,522;    2,005;   -0,682
318,270;12469,763;    5,550;    3,318
318,865;12474,120;    3,278;    3,045
319,460;12312,685;   -0,904;    0,591
320,055;12541,395;   -0,541;   -1,227
320,650;12175,240;   -1,995;   -0,591
321,244;12234,972;   -0,177;   -1,409
321,839;13222,161;   -1,541;   -0,227
322,434;13092,698;   -1,086;   -1,591
323,029;12717,826;    1,732;    1,591
323,623;12567,139;    1,550;    0,773
324,218;12300,328;    2,368;    1,409
324,812;12201,350;    1,096;    1,591
325,407;11982,776;   -0,814;    2,045
326,002;11865,938;    0,277;   -0,409
326,596;12180,941;    0,914;    1,318
327,191;12414,179;    0,823;   -1,045
327,785;11982,941;   -0,813;   -0,227
328,379;12203,030;    1,368;    0,136
328,974;12017,699;    0,914;   -3,955
329,568;12246,207;    0,186;   -2,409
330,163;12034,962;    2,096;    1,045
330,757;12387,895;    2,459;    1,591
331,351;11726,859;    0,459;    0,682
331,945;12003,337;    0,914;    1,409
332,540;11587,501;   -1,723;   -0,591
333,134;11758,875;   -1,086;    0,773
333,728;12016,105;    0,005;    0,318
334,322;12366,777;   -1,177;   -0,864
334,916;11606,275;    0,277;    0,955
335,510;11947,969;   -0,450;   -0,136
336,105;12197,816;   -1,086;    1,591
336,699;11916,975;   -1,086;    0,591
337,293;11841,503;   -1,723;    0,318
337,887;12003,366;   -2,723;    1,955
338,481;12077,891;    0,459;    0,591
339,074;12223,269;   -0,359;    2,682
339,668;12049,842;   -1,632;    1,227
340,262;12327,005;    1,732;    3,227
340,856;11840,487;    1,822;   -0,682
341,450;11151,511;    1,004;    1,864
342,044;12056,685;    1,459;    0,136
342,637;11840,522;    0,913;   -2,136
343,231;11717,783;   -2,360;    0,682
343,825;11683,786;   -1,086;   -0,591
344,419;11621,648;   -1,995;    0,500
345,012;11422,987;    2,459;    4,045
345,606;11406,917;    4,641;    1,591
346,199;11243,868;   -1,813;   -0,227
346,793;10769,895;    1,914;    2,045
347,386;10947,947;   -0,813;   -1,136
347,980;10949,762;   -0,268;   -0,045
348,573;10752,356;    2,278;    0,409
349,167;10398,757;    5,278;    4,773
349,760;10740,074;    2,914;    2,682
350,354;10736,539;   -0,813;    1,136
350,947;10462,431;    1,096;    1,682
351,540;10124,814;   -0,358;   -1,409
352,134;10082,834;    1,096;    1,136
352,727;10175,639;   -0,086;    1,136
353,320; 9946,534;    0,005;    0,591
353,913; 9791,240;   -1,995;    1,864
354,507;10013,453;    0,823;   -1,227
355,100; 9991,143;    0,460;    0,864
355,693; 9218,275;    2,005;    2,409
356,286; 9251,009;    0,823;    2,773
356,879; 9595,905;   -0,722;    1,227
357,472; 9206,592;   -0,904;    1,500
358,065; 9420,005;   -0,722;    2,500
358,658; 9322,899;   -0,540;    2,318
359,251; 8991,729;   -1,631;   -0,591
359,844; 8465,714;   -1,904;   -1,136
360,437; 8611,214;   -2,995;    0,045
361,030; 8893,333;    1,369;   -0,682
361,623; 8501,106;    2,824;    0,318
362,215; 8529,473;   -0,086;    2,045
362,808; 8333,147;   -2,358;   -1,682
363,401; 8548,296;   -2,449;    0,136
363,994; 8276,662;   -0,631;   -1,500
364,586; 8197,512;    0,824;   -1,500
365,179; 8396,977;   -0,449;   -1,136
365,772; 7863,189;   -1,995;    2,045
366,364; 8236,618;    1,915;   -3,227
366,957; 8390,057;    2,279;   -0,045
367,549; 8418,923;    2,188;   -0,864
368,142; 8068,130;    1,825;   -1,500
368,734; 8297,667;    0,734;   -2,136
369,327; 8230,094;    1,643;   -0,500
369,919; 8137,037;   -1,538;    0,409
370,512; 7911,950;   -1,083;   -0,500
371,104; 7678,106;   -0,901;    1,591
371,696; 7844,408;    1,191;   -0,955
372,289; 7954,981;    0,373;    1,136
372,881; 8109,695;   -2,080;    1,318
373,473; 8020,658;   -2,170;    1,136
374,066; 7836,750;   -0,169;    0,500
374,658; 7662,049;    0,378;    1,136
375,250; 8018,962;    0,653;   -1,409
375,842; 7862,966;    0,473;   -0,045
376,434; 7776,536;   -0,435;   -0,409
377,026; 8332,324;    0,204;   -2,500
377,618; 8239,577;   -0,158;   -0,682
378,210; 8060,193;   -0,338;   -1,955
378,802; 7913,710;    0,754;   -0,591
379,394; 7878,194;    1,846;    0,682
379,986; 8489,093;    1,393;   -0,955
380,578; 8581,613;   -0,153;    0,773
381,170; 7889,798;   -0,972;    0,045
381,762; 7873,061;    0,755;    1,409
382,354; 8094,020;   -0,065;   -1,318
382,945; 8215,484;   -2,976;    0,318
383,537; 8337,768;   -2,705;   -1,955
384,129; 8352,329;   -2,160;   -1,136
384,721; 8553,108;   -0,252;    0,955
385,312; 8454,658;   -0,161;   -0,955
385,904; 8571,528;   -2,706;    1,591
386,496; 7950,770;   -0,979;    1,045
387,087; 8061,388;    1,022;    2,500
387,679; 8096,115;   -1,160;    0,045
388,270; 8282,062;    2,840;    2,045
388,862; 8392,467;    1,295;   -0,318
389,453; 8269,586;   -0,887;    1,045
390,045; 8517,190;   -0,705;   -2,682
390,636; 8466,352;    0,204;   -0,591
391,227; 8312,020;   -0,523;   -0,045
391,819; 8448,126;    0,204;    0,773
392,410; 8488,790;    1,022;    0,045
393,001; 8408,631;   -0,979;   -1,591
393,593; 8736,848;    1,930;   -0,045
394,184; 8586,007;    1,385;   -0,409
394,775; 8527,864;    1,839;    2,136
395,366; 8705,515;    1,385;    0,773
395,957; 8738,835;    0,113;    0,136
396,548; 9052,998;   -0,342;    2,682
397,139; 9380,929;   -2,433;    0,591
397,730; 9105,288;   -1,888;    0,955
398,321; 9152,620;   -1,252;    0,955
398,912; 9184,703;   -0,615;    0,136
399,503; 9245,905;   -3,524;   -1,409
400,094; 8682,037;    0,294;    1,682
400,685; 8553,628;   -0,433;    0,045
401,276; 8628,759;    0,930;   -0,955
401,867; 8949,606;   -0,888;    0,773
402,458; 9062,078;   -2,251;   -2,318
403,048; 9012,286;    1,112;    0,591
403,639; 8640,364;    0,840;    0,864
404,230; 8869,240;    2,476;    0,318
404,821; 8798,268;   -0,615;    0,045
405,411; 8916,777;    1,203;   -2,591
406,002; 8517,149;   -1,252;   -1,136
406,592; 8357,306;    2,294;    0,045
407,183; 8666,090;    0,566;   -1,500
407,774; 8590,340;    3,475;   -0,136
408,364; 8927,979;    0,930;    0,409
408,954; 8504,561;    0,384;    1,227
409,545; 8534,996;    1,021;    1,045
410,135; 8082,354;    1,293;    0,500
410,726; 8253,881;    1,838;    0,318
411,316; 8639,532;    0,111;    0,773
411,906; 8322,793;   -0,253;   -0,409
412,497; 7810,048;   -1,070;   -0,045
413,087; 8475,398;   -1,980;   -0,227
413,677; 8818,550;   -0,707;    3,864
414,267; 8663,220;    0,656;    1,409
414,857; 8684,803;   -2,980;    4,227
415,448; 8949,099;    0,839;    0,500
416,038; 8643,980;    0,020;   -0,591
416,628; 8621,440;   -0,889;    0,409
417,218; 8067,586;    0,565;    3,318
417,808; 8337,624;    0,202;   -0,409
418,398; 8825,572;    0,020;    2,682
418,988; 8868,480;    2,020;    0,591
419,578; 9133,919;   -0,707;    1,409
420,168; 9451,988;   -1,343;   -0,955
420,757; 9045,222;   -1,343;   -1,500
421,347; 8720,163;    0,111;   -0,227
421,937; 8896,540;    2,292;    1,409
422,527; 8820,440;    0,838;   -0,773
423,116; 8645,507;   -0,253;   -0,045
423,706; 8998,192;   -1,889;    0,318
424,296; 8998,543;    1,384;    0,682
424,885; 9430,907;   -0,071;   -3,045
425,475; 9734,183;    1,474;   -2,864
426,065; 9640,748;   -0,980;   -0,318
426,654; 9225,706;   -0,435;   -0,318
427,244; 9328,786;    0,020;    1,409
427,833; 8806,378;    1,383;   -0,500
428,423; 9287,878;   -0,526;    1,136
429,012;10083,592;   -0,344;   -1,136
429,601; 9565,621;   -1,344;    0,136
430,191; 9806,945;    1,292;    4,318
430,780; 9442,949;   -0,344;   -0,409
431,369; 9347,355;    0,746;   -0,045
431,959; 9999,510;   -1,254;    0,500
432,548; 9785,197;   -1,163;   -0,045
433,137; 9928,454;   -1,254;   -1,318
433,726;10484,398;    0,292;    0,500
434,315; 9815,240;   -0,526;    2,409
434,905; 9908,068;   -1,254;    1,409
435,494; 9777,794;    0,746;    0,955
436,083;10239,760;   -0,981;   -0,955
436,672;10169,654;    0,110;    0,500
437,261; 9712,668;    0,292;   -1,955
437,850; 9822,937;    1,383;    0,682
438,439; 9795,591;    3,291;    1,955
439,027; 9672,186;    3,655;    1,773
439,616;10010,162;    2,927;    1,227
440,205; 9876,011;    0,200;   -2,136
440,794;10016,375;    2,109;   -0,045
441,383;10278,227;   -1,346;   -0,591
441,971;10138,475;   -2,436;    0,591
442,560; 9964,203;    0,563;   -1,773
443,149; 9712,729;    0,379;   -1,318
443,737; 9846,530;   -0,074;   -2,318
444,326;10120,585;    0,018;    0,318
444,915;10206,041;   -1,982;    0,864
445,503;10651,881;   -2,891;   -0,318
446,092; 9853,295;    0,382;    2,136
446,680;10413,480;    0,382;    0,318
447,269;10584,867;   -0,346;   -0,318
447,857;10354,538;    0,018;   -1,773
448,445;10471,796;    0,563;    1,318
449,034;10715,518;   -1,528;   -1,136
449,622;10861,979;   -1,073;    3,500
450,210;10060,885;    2,017;    2,227
450,799;10617,111;    0,290;   -0,591
451,387;10574,011;    1,381;   -0,591
451,975;10202,488;    2,654;    0,864
452,563;10272,070;    3,472;    2,318
453,151;10321,433;   -0,528;   -1,227
453,739;10275,567;   -1,347;    0,136
454,328;10084,271;    2,381;   -2,136
454,916; 9802,858;    2,562;   -0,136
455,504; 9997,524;    1,017;    1,227
456,092;10169,930;    0,017;   -1,591
456,679;10164,007;    1,472;    0,682
457,267;10078,496;    4,017;    1,045
457,855;10272,993;    1,017;    1,409
458,443;10040,598;   -0,165;    1,682
459,031;10171,413;    0,108;    2,409
459,619;10641,754;   -1,801;    2,864
460,206;10784,752;    0,835;    2,045
460,794;10865,326;   -2,983;   -0,227
461,382;11104,547;   -0,529;   -0,864
461,970;10674,482;    1,198;    1,864
462,557;10732,866;   -0,711;   -0,682
463,145;10884,128;   -3,165;   -1,682
463,732;11032,692;    2,016;   -1,045
464,320;11006,784;   -0,075;   -3,045
464,907;10669,695;    2,743;   -0,773
465,495;10512,418;    0,743;   -1,227
466,082;10666,343;   -1,984;   -0,045
466,670;10627,368;   -2,529;    1,227
467,257;11068,158;   -1,711;    2,045
467,844;11196,792;   -0,075;    0,045
468,432;11234,395;    0,834;    3,500
469,019;10669,447;    0,925;   -1,773
469,606;11186,224;    0,470;    3,682
470,193;11002,780;   -1,439;    0,227
470,780;10557,203;   -2,075;    0,864
471,368;10912,893;   -1,257;   -0,773
471,955;10693,837;    1,379;   -0,682
472,542;10355,487;    0,652;   -1,136
473,129;10585,569;   -0,166;    0,136
473,716;10322,220;    1,470;    0,591
474,303;10533,233;    0,652;   -0,864
474,890;10835,014;   -1,439;   -0,500
475,477;10877,245;   -1,621;    0,409
476,064;10769,427;    1,106;   -1,591
476,650;10667,082;    0,288;    0,318
477,237;10540,355;   -0,258;    0,955
477,824;10673,880;   -1,076;    0,864
478,411;10739,491;   -1,894;   -0,318
478,997;10946,544;    0,560;   -0,773
479,584;11002,063;    1,196;   -0,409
480,171;11729,624;   -0,440;   -0,773
480,757;11381,735;    2,651;    0,773
481,344;11720,786;    0,469;    0,409
481,931;11218,171;    1,105;    1,045
482,517;12278,048;   -1,258;    0,318
483,104;12879,485;    1,106;    2,864
483,690;13217,141;   -1,804;    0,045
484,276;13576,402;   -0,895;    0,227
484,863;13329,866;    2,469;    1,136
485,449;13943,242;   -0,077;    0,318
486,035;13969,572;   -1,986;   -0,136
486,622;14386,259;   -0,895;    0,045
487,208;14349,496;    1,378;    1,500
487,794;14154,011;    0,741;    0,318
488,380;14222,970;    0,105;   -1,409
488,967;14304,669;   -1,168;   -0,409
489,553;14415,419;   -1,895;   -1,409
490,139;14585,672;    1,559;    0,773
490,725;13980,340;    0,741;   -0,227
491,311;13511,367;    3,287;    3,045
491,897;12830,840;   -0,986;    1,500
492,483;12599,468;    0,105;    1,227
493,069;12344,833;    3,923;    0,864
493,655;12370,530;    1,650;    0,682
494,241;12245,921;    1,377;   -0,955
494,826;12672,322;    0,287;   -1,045
495,412;12127,627;    2,559;   -0,682
495,998;12280,947;   -0,805;   -0,318
496,584;12427,716;    0,377;    1,045
497,169;12426,298;    1,014;   -0,682
497,755;12379,127;    0,650;    1,227
498,341;12975,292;    0,559;    0,318
498,926;12511,268;    1,832;    1,955
499,512;12701,069;    1,286;    2,955
500,097;12835,310;    0,195;   -0,318
500,683;12793,053;   -0,350;    2,136
501,268;13175,007;   -0,169;   -0,955
501,854;12850,141;   -0,169;    1,227
502,439;12769,771;   -0,624;   -1,773
503,024;12986,431;    0,195;    0,500
503,610;13075,445;   -0,078;   -0,682
504,195;13063,183;    0,558;    1,955
504,780;13182,850;    2,922;    1,227
505,366;13017,449;    3,013;    2,864
505,951;12691,895;    0,740;    1,045
506,536;12722,253;   -3,260;   -3,682
507,121;12704,302;    0,285;   -0,318
507,706;13270,957;    2,376;    1,045
508,291;13646,265;    2,649;    1,136
508,876;13094,460;   -0,988;    2,591
509,461;12554,147;   -0,169;   -0,773
510,046;12994,154;    0,194;    0,318
510,631;13247,593;   -0,351;   -0,773
511,216;12862,194;    2,467;   -0,500
511,801;13217,694;   -0,442;    2,591
512,386;13566,702;    0,740;    0,500
512,971;13527,786;   -2,988;    0,955
513,555;13045,817;   -0,897;   -1,500
514,140;13811,438;   -0,442;   -3,136
514,725;13892,061;   -0,715;   -1,136
515,309;14023,114;   -0,533;    0,318
515,894;13431,166;   -0,624;   -2,227
516,479;13889,865;   -0,624;   -0,955
517,063;13706,082;    0,376;    1,227
517,648;13844,743;    1,012;   -1,136
518,232;13501,083;   -0,261;   -1,409
518,817;13848,972;   -0,079;    1,682
519,401;14046,447;    2,194;    0,591
519,985;13544,306;    1,103;    1,136
520,570;13422,179;    0,830;   -1,955
521,154;13712,143;    2,102;    0,591
521,738;13937,137;   -2,352;    2,409
522,323;14486,560;   -0,170;    1,682
522,907;14225,631;    0,466;   -0,136
523,491;13968,832;    0,557;    0,955
524,075;13943,994;    2,284;    0,591
524,659;14012,010;    1,466;    0,591
525,243;13467,704;    1,739;    0,409
525,827;13710,786;    0,648;   -0,045
526,411;14599,920;   -1,989;   -0,136
526,995;14808,495;   -0,352;    1,409
527,579;14424,091;   -0,443;   -1,045
528,163;14699,223;    0,375;   -1,500
528,747;14607,192;    2,466;   -0,773
529,331;14907,102;   -0,080;   -1,409
529,915;15145,814;    1,738;    0,955
530,499;15064,418;   -0,807;    1,227
531,082;14785,442;   -0,534;    1,591
531,666;14253,600;    1,374;    0,773
532,250;14931,990;    1,284;    2,682
532,833;15288,628;    0,920;    2,773
533,417;15115,582;   -1,807;    0,864
534,001;15112,642;    1,647;   -0,318
534,584;15783,443;    0,374;    0,500
535,168;15662,885;    0,465;    1,409
535,751;15735,366;    0,647;    0,045
536,334;15145,695;   -0,898;   -0,409
536,918;15764,800;    0,011;    1,591
537,501;15887,160;   -0,899;    1,318
538,085;15888,295;   -0,444;    1,045
538,668;16072,003;    0,829;    2,409
539,251;16367,074;    1,829;    3,773
539,834;16409,958;    0,101;    0,773
540,418;16315,347;   -1,990;    4,318
541,001;16425,174;   -0,990;    1,773
541,584;16428,345;    2,101;    2,227
542,167;16144,405;    1,374;    2,955
542,750;16293,403;    1,919;   -0,773
543,333;15888,850;    0,555;    2,136
543,916;16676,290;    0,192;    2,500
544,499;17276,138;   -1,354;    0,227
545,082;17258,397;    1,374;    3,591
545,665;17427,380;    1,919;    1,500
546,248;17810,032;    1,010;   -0,318
546,830;17456,968;   -0,445;    1,955
547,413;17869,625;    1,010;   -0,773
547,996;18425,492;    0,555;    0,500
548,579;18156,839;    0,919;    0,955
549,161;17986,189;    1,828;    2,682
549,744;17799,809;   -0,809;    0,409
550,326;18267,003;   -0,809;   -1,136
550,909;18054,331;    2,737;    0,591
551,492;18463,511;   -0,263;    0,227
552,074;18270,323;   -0,173;   -1,318
552,657;18829,297;    2,373;    0,045
553,239;18555,964;   -0,173;   -0,773
553,821;18476,203;   -1,082;    1,045
554,404;17982,349;    1,282;    1,136
554,986;18380,879;    0,464;    1,045
555,568;18990,728;    1,191;   -0,955
556,151;18169,436;    1,191;   -0,227
556,733;18382,484;   -0,264;   -0,864
557,315;18875,139;    0,100;    0,500
557,897;18675,354;    0,554;   -0,500
558,479;18841,126;   -1,991;    1,318
559,061;18940,860;   -0,719;   -0,864
559,643;19240,921;   -0,264;    0,045
560,225;19656,351;    1,645;    2,864
560,807;19704,103;    0,918;    0,318
561,389;19171,654;    0,554;    2,318
561,971;19937,165;    0,463;    2,136
562,553;19733,626;   -1,628;    1,591
563,135;19895,275;   -0,537;    1,136
563,717;19503,873;    3,372;    1,136
564,298;20215,514;    3,645;   -0,045
564,880;19962,023;    0,645;   -1,409
565,462;20144,478;    0,645;    1,318
566,043;21281,122;   -0,446;    2,318
566,625;20800,116;    1,918;    1,227
567,207;20682,683;    1,099;    1,682
567,788;21872,169;   -1,264;    1,500
568,370;22663,748;    1,917;   -0,500
568,951;22515,635;    0,190;    0,227
569,533;23432,199;   -0,628;   -0,500
570,114;23909,483;   -0,446;    0,682
570,695;24466,273;   -0,174;   -1,318
571,277;24949,348;   -0,265;   -1,682
571,858;25726,045;    2,008;   -1,136
572,439;26643,568;    1,554;   -1,045
573,021;26849,932;    2,099;   -2,773
573,602;27321,760;   -1,265;    0,318
574,183;28321,354;   -2,083;    2,227
574,764;28473,394;   -1,629;    0,409
575,345;29051,099;    0,917;   -0,136
575,926;29630,488;   -0,356;    0,136
576,507;29601,026;    1,099;   -0,227
577,088;30776,630;    3,099;    1,682
577,669;30757,626;    0,735;    1,955
578,250;31532,627;    0,644;   -1,045
578,831;32285,171;   -1,356;   -2,227
579,412;32557,788;   -0,810;    0,955
579,993;33479,411;    1,008;    0,227
580,573;33794,449;   -0,629;   -0,955
581,154;32724,210;    0,735;   -0,591
581,735;33634,133;    0,644;    0,773
582,315;33145,587;   -0,629;    2,136
582,896;33409,394;   -0,174;    1,227
583,477;32880,726;    0,189;    1,227
584,057;33089,469;    0,553;    0,955
584,638;33360,684;    2,553;    2,318
585,218;33302,184;   -0,538;    2,682
585,799;33494,257;    0,281;   -0,227
586,379;33470,812;    0,372;    1,591
586,959;32218,965;    0,735;    0,318
587,540;31509,965;   -0,629;    2,227
588,120;31070,263;    1,007;   -0,045
588,700;29996,879;    2,553;    2,136
589,281;30316,567;    0,462;   -0,955
589,861;30309,091;    0,099;   -1,682
590,441;30111,670;    2,371;   -2,682
591,021;29030,405;   -0,265;   -2,591
591,601;29231,255;   -0,537;    0,500
592,181;29236,899;   -0,719;   -0,773
592,761;28525,923;    0,007;    1,409
593,341;28444,653;   -0,901;    0,045
593,921;28409,053;   -0,265;    1,591
594,501;28268,997;   -0,538;    1,318
595,081;28148,891;    0,917;   -0,318
595,661;28510,654;   -1,447;    0,955
596,240;29007,015;   -0,537;    0,136
596,820;28675,837;    0,372;    1,955
597,400;28880,304;    2,008;    0,773
597,980;29097,270;    2,008;    1,045
598,559;29108,558;    2,735;   -0,227
599,139;28772,505;   -0,174;   -1,227
599,718;28629,141;   -0,174;   -0,409
600,298;28885,682;    0,735;    0,682
600,877;29180,834;    2,917;    1,409
601,457;29421,202;    2,281;    1,136
602,036;29351,704;    0,190;    2,045
602,616;29594,809;    0,644;    1,682
603,195;29892,014;   -0,355;    3,500
603,774;29441,474;   -0,901;    2,045
604,354;29347,545;    0,826;   -0,500
604,933;28835,418;    0,463;    1,864
605,512;28978,258;    3,554;    0,591
606,091;29028,029;   -0,537;    3,773
606,671;29847,903;    0,281;    0,773
607,250;28958,552;    1,644;    3,136
607,829;29158,590;    2,372;    3,227
608,408;28980,802;    1,190;    2,591
608,987;27993,335;    1,281;    3,409
609,566;28332,661;   -1,265;   -2,500
610,145;28434,600;   -1,082;    0,682
610,723;28848,385;    4,372;    6,864
611,302;28080,460;   -0,446;    1,682
611,881;27595,874;    5,008;   11,227
612,460;28441,497;    1,645;    3,955
613,039;28826,313;   -0,082;    2,045
613,617;27577,011;    1,736;    4,773
614,196;27745,893;    1,099;    1,227
614,775;28102,995;    1,009;    2,409
615,353;28026,621;    0,736;    0,864
615,932;27738,153;    0,100;    2,409
616,510;28352,807;    0,554;    0,591
617,089;27863,412;    7,100;   17,591
617,667;27565,887;    2,372;    6,136
618,246;27436,662;   -1,537;    1,318
618,824;27600,200;   -3,355;   -0,955
619,402;27184,752;   -2,900;   -1,773
619,981;27669,852;   -0,173;   -1,045
620,559;27501,945;    0,009;    1,682
621,137;27032,951;   -0,718;    1,864
621,715;27030,735;   -1,173;   -0,682
622,293;26995,003;   -0,537;   -0,773
622,871;27396,321;   -0,718;    0,500
623,450;26979,449;    0,373;   -0,864
624,028;26892,699;    0,191;   -0,955
624,606;26454,390;   -1,718;    1,682
625,183;26920,542;   -1,536;   -1,136
625,761;26548,445;    1,009;    1,136
626,339;26829,025;    1,373;    2,591
626,917;27218,313;   -0,172;   -0,045
627,495;27249,546;   -0,354;    1,318
628,073;26664,121;   -0,263;    2,864
628,650;26338,421;    0,100;    2,136
629,228;26776,366;    0,373;    4,409
629,806;26222,524;    2,282;    1,136
630,383;26454,113;    1,464;   -0,318
630,961;26257,375;    2,555;   -0,955
631,539;25964,704;    2,464;    0,227
632,116;25306,193;   11,373;   15,409
632,694;25892,489;    2,555;    6,500
633,271;26191,594;    0,828;    2,682
633,848;26149,863;    1,828;    2,045
634,426;26174,135;   -1,081;    1,773
635,003;25265,150;    1,101;   -0,409
635,580;25582,397;    1,192;    3,682
636,158;26187,540;    3,737;    1,227
636,735;26177,262;    0,555;   -0,500
637,312;26263,862;   -0,809;   -0,682
637,889;26387,708;   -4,354;   -0,682
638,466;25836,542;   -3,990;   -0,409
639,043;25827,938;    2,101;   -1,136
639,620;26198,626;   -2,262;   -0,955
640,197;26549,564;    1,100;    1,682
640,774;26603,807;   -0,172;    1,136
641,351;27011,141;    0,737;    1,136
641,928;26450,020;   -0,627;    1,409
642,505;26094,899;    0,828;   -0,500
643,082;26208,596;   -1,718;    1,227
643,658;25215,657;   -0,718;    1,500
644,235;25979,445;    1,191;    2,500
644,812;26304,233;    1,918;    0,773
645,388;26075,112;   -0,991;    1,409
645,965;26136,082;   -0,809;    1,682
646,542;26185,961;   -1,445;   -0,227
647,118;26163,658;    1,009;   -0,955
647,695;26494,810;   -0,263;    1,136
648,271;26391,780;   -0,536;    0,500
648,848;26725,841;    0,736;    2,227
649,424;26520,356;    0,827;    1,318
650,000;26304,508;   -0,354;   -1,045
650,577;26142,933;   -0,627;   -0,955
651,153;26592,084;   -1,809;    0,955
651,729;27633,145;    1,191;    0,864
652,305;27982,843;    0,645;    2,773
652,881;32840,631;   -0,082;    1,136
653,458;40028,328;    1,100;    0,227
654,034;43835,571;    0,282;    1,591
654,610;45347,722;    0,554;    0,773
655,186;46692,329;    0,645;    3,045
655,762;46312,935;   -0,991;    0,409
656,338;46319,814;    0,100;    0,136
656,913;47255,239;   -0,082;    0,409
657,489;46506,754;    0,827;   -0,318
658,065;46443,633;   -0,173;   -1,591
658,641;47062,967;   -0,900;   -0,864
659,217;46382,664;   -0,991;    0,409
659,792;45706,816;    0,645;   -0,409
660,368;45949,604;   -2,173;   -0,682
660,944;45496,119;   -2,082;    1,227
661,519;40566,635;   -0,628;    0,409
662,095;34388,514;   -1,719;    0,591
662,670;29736,756;    1,281;   -0,136
663,246;28557,908;    1,009;   -0,409
663,821;27937,151;    0,281;    1,682
664,396;27424,757;    0,009;    1,864
664,972;27672,364;    0,009;   -0,500
665,547;27961,243;    1,372;    0,136
666,122;27990,576;   -1,082;    0,318
666,698;28306,001;   -0,173;    0,318
667,273;27662,153;   -0,173;    0,136
667,848;28493,395;    2,372;    1,500
668,423;28316,456;    2,190;    2,318
668,998;28823,972;    2,827;   -0,682
669,573;29347,305;   -3,264;   -1,500
670,148;29200,093;   -1,446;   -0,682
670,723;29030,609;   -1,810;    0,318
671,298;29423,670;    2,372;    1,045
671,873;29529,458;   -0,082;   -0,136
672,448;29511,428;    0,645;    0,136
673,023;29864,307;   -1,992;   -0,227
673,597;30192,186;    0,827;    2,318
674,172;29888,883;   -0,355;    0,318
674,747;29391,580;    0,372;   -1,045
675,321;29232,005;   -0,628;    3,318
675,896;28808,157;    0,645;    1,045
676,471;29776,854;    2,645;    1,591
677,045;29589,642;   -1,264;    0,682
677,620;29602,703;    0,190;    1,136
678,194;29933,582;   -2,628;    1,136
678,769;29526,006;   -1,083;   -0,318
679,343;29766,795;   -0,628;    1,773
679,917;29647,128;   -1,446;    1,955
680,492;29796,553;    0,826;    3,227
681,066;29877,886;    3,372;    0,409
681,640;29875,493;    1,463;   -0,318
682,214;30695,644;    0,735;    0,500
682,788;30244,251;   -1,356;   -0,773
683,363;30242,948;   -1,810;    1,682
683,937;29930,554;   -1,719;   -0,318
684,511;30699,888;    0,463;   -0,591
685,085;30359,858;   -1,356;    0,318
685,659;30098,555;   -2,538;    0,864
686,232;30404,252;   -0,356;   -0,318
686,806;30073,586;   -0,901;    0,409
687,380;30756,829;   -0,174;    0,591
687,954;30916,253;   -1,174;    1,136
688,528;30660,678;   -0,719;    1,955
689,101;31476,648;   -3,992;    1,045
689,675;31046,072;   -0,356;   -0,136
690,249;30441,588;   -0,719;    0,409
690,822;30654,467;    0,280;    0,318
691,396;30810,891;   -0,265;    1,227
691,969;30305,497;    1,280;    0,136
692,543;30718,286;   -0,447;   -1,955
693,116;30373,074;   -0,265;   -1,409
693,690;30201,044;    0,099;    0,500
694,263;30763,468;   -1,083;    2,955
694,836;30838,529;    1,371;    3,591
695,410;29464,954;   -0,265;    1,773
695,983;29966,014;    0,189;    0,591
696,556;29896,803;   -0,447;   -1,045
697,129;30279,863;   -0,356;    1,409
697,703;29934,379;   -1,629;    1,955
698,276;29908,712;    1,462;   -0,773
698,849;29751,773;    1,280;    1,409
699,422;30088,561;   -1,083;    0,591
699,995;29759,350;    0,007;    0,136
700,568;30255,411;   -0,629;    3,045
701,140;30347,380;   -2,811;    1,682
701,713;30021,350;   -0,174;    2,409
702,286;29769,502;   -0,538;    0,864
702,859;29662,199;   -0,902;   -0,591
703,432;28791,260;    0,825;    0,682
704,004;29328,321;    0,462;    0,318
704,577;29192,018;   -0,629;    0,136
705,150;29780,170;    0,189;    2,500
705,722;29549,777;   -0,356;   -3,227
706,295;29354,292;   -0,175;   -0,591
706,867;29235,626;   -0,175;    1,955
707,440;29463,868;   -1,720;   -0,409
708,012;29698,838;    0,462;    0,591
708,584;29587,263;    2,462;    0,227
709,157;29843,142;    1,825;   -0,591
709,729;29509,203;    2,280;    2,045
710,301;30345,173;    0,734;    0,045
710,874;30376,870;   -1,447;   -0,227
711,446;29257,022;    0,371;    0,864
712,018;29160,446;    0,098;    0,500
712,590;28860,234;   -1,993;    1,682
713,162;29418,386;    0,825;    1,318
713,734;29674,538;    1,825;   -2,045
714,306;29594,781;   -1,902;   -0,409
714,878;28266,751;    0,825;    0,864
715,450;29057,721;    0,643;    0,864
716,022;29301,600;    1,552;    1,318
716,593;29461,751;    0,189;    0,591
717,165;29382,994;   -3,175;   -1,227
717,737;29052,691;    0,280;    0,409
718,309;28767,934;    0,280;   -0,045
718,880;28711,268;   -0,539;   -1,409
719,452;28917,601;   -0,175;   -1,591
720,024;28542,117;    0,734;   -0,591
720,595;29134,450;   -2,902;    0,955
721,167;28681,875;    0,370;   -2,045
721,738;28167,026;   -0,812;   -1,045
722,309;28180,360;   -0,993;   -1,227
722,881;27899,057;   -1,357;    0,773
723,452;28557,664;   -2,630;    2,864
724,023;28729,270;   -0,721;    2,682
724,595;28484,240;    0,007;    0,682
725,166;28233,664;    0,007;   -0,409
725,737;27841,271;    1,734;    0,227
726,308;27967,423;   -0,266;    0,318
726,879;28435,302;   -1,630;    1,227
727,450;28238,817;    0,552;   -0,045
728,021;28247,423;    3,097;    0,682
728,592;28046,848;    0,734;    0,500
729,163;28318,636;    0,643;   -0,136
729,734;28337,151;    0,188;   -0,227
730,305;28721,303;    1,734;    0,136
730,876;29082,182;    0,188;    2,955
731,447;28837,698;    2,188;    2,682
732,017;28913,213;    1,097;    1,864
732,588;28337,910;    0,734;    1,227
733,159;28614,789;    0,643;   -1,045
733,729;28399,850;    0,006;    0,409
734,300;27632,638;    0,915;    0,864
734,870;28081,699;    3,461;    0,591
735,441;28673,669;    0,370;   -0,591
736,011;28432,276;    0,643;   -1,591
736,582;28358,791;   -0,812;    0,045
737,152;27870,670;   -1,721;   -2,045
737,722;28354,367;   -0,267;   -0,682
738,293;27991,065;   -1,358;    1,318
738,863;27870,307;    2,461;    2,318
739,433;27693,459;    5,279;    0,318
740,003;28333,520;   -0,994;   -0,682
740,573;27745,490;    2,097;   -1,591
741,143;27709,551;   -1,085;    0,318
741,713;28470,430;    1,188;   -0,500
742,283;28134,491;    0,915;    1,591
742,853;27994,006;    1,915;    1,591
743,423;27406,249;    1,733;    0,045
743,993;27512,491;   -0,358;    1,500
744,563;26884,643;    0,097;   -0,864
745,133;26861,522;   -0,812;   -0,864
745,702;27553,310;   -0,267;    1,773
746,272;26759,462;   -0,176;    0,591
746,842;26495,250;   -1,358;   -0,591
747,411;26901,311;   -0,267;   -0,318
747,981;27103,281;    0,097;    0,500
748,551;27119,342;    2,278;   -1,045
749,120;26980,312;    0,642;   -0,227
749,690;27380,191;   -0,631;    2,409
750,259;27724,434;    1,369;    2,955
750,828;27641,495;    1,551;   -1,955
751,398;27920,465;    1,278;   -0,045
751,967;27447,798;    2,187;    0,409
752,536;27603,950;   -0,813;   -0,227
753,105;28020,375;    0,096;    0,227
753,675;27828,072;    0,096;    1,773
754,244;27728,951;   -0,904;    3,591
754,813;27776,557;    0,551;    1,227
755,382;27332,163;    0,460;    0,955
755,951;28021,952;    1,551;    3,682
756,520;27485,103;   -0,085;    1,864
757,089;28098,619;    0,278;    0,500
757,658;28271,225;    1,733;    1,227
758,227;28164,922;    1,096;    0,318
758,795;28514,983;    1,187;    1,136
759,364;28681,953;   -0,086;   -0,591
759,933;27708,287;   -1,176;   -0,045
760,501;27248,075;    0,733;   -1,318
761,070;27725,409;   -2,813;   -1,409
761,639;28395,015;   -1,904;    1,318
762,207;27763,712;    1,551;   -0,955
762,776;27645,500;    0,369;    0,864
763,344;27646,561;   -0,995;    0,591
763,913;26757,531;   -0,722;    1,409
764,481;27505,501;    1,005;   -0,136
765,049;27296,744;   -1,358;    1,409
765,618;27126,259;   -0,086;    0,318
766,186;27218,411;    0,278;    0,136
766,754;27415,472;    0,005;    1,864
767,322;26425,715;   -1,995;    0,409
767,890;26464,594;   -0,722;   -1,773
768,459;26802,382;   -2,177;   -0,318
769,027;27002,897;    1,641;    3,409
769,595;25946,140;    3,278;    2,591
770,163;26410,746;    3,823;    2,955
770,730;26192,262;    0,732;   -0,136
771,298;26037,959;    0,187;   -1,409
771,866;26073,656;   -1,541;    4,955
772,434;26401,626;   -0,631;   -1,864
773,002;26552,051;    0,005;    0,682
773,569;26217,657;    0,914;    1,682
774,137;26012,536;   -0,268;   -0,045
774,705;26810,051;    0,278;   -0,136
775,272;26353,658;    0,641;    0,682
775,840;26067,173;   -0,177;    2,682
776,407;25654,052;    0,277;    1,955
776,975;25245,931;   -0,632;    0,318
777,542;26244,538;   -1,086;   -0,045
778,110;26094,780;   -1,268;   -0,045
778,677;25763,114;   -2,359;   -0,864
779,244;25460,902;    2,186;    1,045
779,812;25577,417;    1,823;    0,864
780,379;25441,206;    0,005;    1,136
780,946;25699,812;    1,005;   -0,773
781,513;26047,964;   -1,450;    0,318
782,080;25378,661;   -0,086;    2,864
782,647;26159,722;   -0,268;    3,045
783,214;25692,237;   -0,177;    3,864
783,781;25368,298;   -0,723;   -0,682
784,348;25198,814;   -0,632;    1,500
784,915;25648,693;   -3,177;    0,318
785,482;25440,481;    1,368;    2,591
786,049;25843,269;    0,186;   -0,591
786,615;25965,602;    0,277;   -0,955
787,182;25704,118;    0,186;   -0,682
787,749;25361,451;   -2,814;    1,409
788,315;24746,876;   -1,632;   -0,409
788,882;25017,573;    1,550;   -1,227
789,448;25747,816;    1,732;   -0,955
790,015;25770,695;    1,095;    3,227
790,581;25320,847;    1,459;    0,227
791,148;25208,271;    0,641;    1,045
791,714;25453,423;   -0,541;    3,136
792,280;25123,393;    0,186;    1,591
792,847;24684,818;    0,550;    2,500
793,413;25250,697;   -0,269;   -0,318
793,979;24721,212;    3,459;   -1,318
794,545;24892,909;    4,459;    2,682
795,111;24255,970;    2,186;    1,318
795,678;24488,486;    0,731;   -1,682
796,244;24079,910;    3,368;    0,136
796,810;24625,698;    1,731;    0,773
797,375;24354,759;    0,549;   -2,136
797,941;24385,002;   -0,541;    0,591
798,507;24510,154;   -0,451;   -0,955
799,073;24038,305;   -0,360;    0,591
799,639;24097,275;   -2,632;    3,136
800,205;24082,609;    0,095;    2,682
800,770;23668,033;    0,640;    1,773
801,336;23756,003;    1,368;   -0,955
801,901;23423,155;    4,549;    3,136
802,467;24004,943;   -0,542;    2,045
803,033;23341,459;   -0,087;    0,864
803,598;23536,792;    1,913;   -1,045
804,163;23537,217;    1,095;   -0,318
804,729;23529,369;   -0,178;    1,136
805,294;23948,157;    0,822;    2,227
805,859;23777,581;    0,731;   -0,409
806,425;23198,733;    1,186;    2,682
806,990;22821,339;    2,186;    4,318
807,555;23322,400;   -1,451;    2,591
808,120;23238,734;    0,822;   -0,409
808,685;23278,977;    0,185;   -2,500
809,250;22790,492;    0,004;   -0,500
809,815;23073,644;    1,913;    0,682
810,380;23643,796;   -0,269;    1,591
810,945;24217,765;   -1,087;    2,045
811,510;23378,281;    2,094;    1,591
812,075;23059,524;   -0,633;   -1,409
812,640;23092,948;    2,003;    1,409
813,204;23121,918;    0,822;   -0,227
813,769;23636,706;    2,094;   -0,045
814,334;23019,040;    0,458;    0,864
814,898;23107,464;    0,367;    0,591
815,463;22945,162;    1,276;   -0,773
816,027;22903,404;   -0,724;   -2,318
816,592;22938,374;    0,640;   -2,045
817,156;22465,890;    2,094;    1,136
817,721;22363,496;    4,276;    2,318
818,285;22278,648;    2,912;    1,500
818,849;22978,436;   -1,451;    1,682
819,414;22883,133;   -0,269;    2,955
819,978;22470,830;   -1,269;    1,773
820,542;23019,164;    2,003;    0,500
821,106;22690,952;   -0,815;    0,682
821,670;22806,922;   -0,815;    2,591
822,234;22583,801;   -0,270;    1,409
822,798;21915,862;    0,003;    0,500
823,362;21843,377;   -0,633;    4,227
823,926;21164,529;    0,094;    1,136
824,490;21430,772;   -0,997;   -0,682
825,054;21873,196;   -0,088;   -1,136
825,618;21439,075;   -1,542;   -1,500
826,181;21400,955;    0,458;   -1,318
826,745;21322,470;    1,367;   -1,045
827,309;21716,258;    1,185;    1,318
827,872;21072,683;    1,367;    0,955
828,436;22044,834;    1,185;   -0,773
828,999;22106,350;   -0,997;    1,227
829,563;20899,956;   -0,179;    1,136
830,126;20703,562;   -0,179;   -0,591
830,690;20787,805;   -1,997;    2,864
831,253;20274,866;   -0,543;    2,227
831,816;20397,836;   -1,906;    0,500
832,380;20354,988;    0,185;    0,864
832,943;20594,321;   -1,361;   -0,500
833,506;19995,564;    2,639;   -1,227
834,069;20819,807;    3,912;   -0,955
834,632;20874,413;    1,730;    1,318
835,195;20762,565;    1,003;    0,955
835,758;19904,626;   -0,997;    1,955
836,321;19800,323;    0,730;   -1,045
836,884;19863,747;   -0,725;   -0,955
837,447;19899,536;   -2,816;    1,773
838,010;20203,778;    0,366;    3,227
838,573;20455,657;   -1,179;    0,773
839,135;20401,718;   -1,361;   -0,955
839,698;19871,052;    1,275;    0,409
840,261;19390,749;    1,003;   -0,227
840,823;19233,628;   -0,543;    0,864
841,386;19546,962;   -0,452;   -2,409
841,948;19435,659;   -1,361;    1,773
842,511;19149,174;    0,912;    1,682
843,073;19272,690;    1,912;    0,227
843,636;19050,933;   -0,361;   -0,227
844,198;19062,902;    0,911;    0,591
844,760;19205,782;    1,093;    1,955
845,322;18824,206;    0,548;    1,136
845,885;19244,176;    0,730;    0,591
846,447;19681,328;   -1,998;    0,227
847,009;19289,116;    1,911;   -0,682
847,571;19618,813;    0,820;   -2,045
848,133;19706,692;   -1,089;   -1,864
848,695;19522,117;   -0,543;    1,409
849,257;19042,814;   -1,089;   -1,682
849,819;19223,329;   -0,998;   -0,409
850,381;19280,027;   -0,725;   -0,864
850,942;19659,178;    1,093;   -0,591
851,504;19627,330;    1,184;    0,227
852,066;19672,209;    1,275;   -1,591
852,628;19181,452;   -0,180;    1,955
853,189;18737,058;    1,638;    2,682
853,751;18848,483;   -0,907;    1,409
854,312;18614,816;   -0,453;   -1,682
854,874;19149,059;   -2,089;   -0,773
855,435;19706,302;   -0,907;   -1,682
855,997;19875,181;   -1,816;   -0,136
856,558;19164,424;    0,366;    1,773
857,119;19222,393;    0,820;    2,864
857,681;18905,454;    0,002;    0,318
858,242;18932,606;    1,911;   -2,136
858,803;19328,940;    0,456;   -0,773
859,364;19929,182;    0,184;   -4,773
859,925;19225,152;   -2,453;   -0,955
860,486;19155,122;   -0,453;   -0,955
861,047;18916,092;   -0,544;   -1,227
861,608;18690,699;   -1,089;   -0,773
862,169;18788,850;    0,638;   -0,045
862,730;18595,366;    0,456;    1,409
863,291;18831,972;   -0,635;   -0,500
863,852;19179,306;   -0,635;    1,955
864,412;18641,639;   -0,271;   -0,864
864,973;17206,246;   -0,089;    0,500
865,534;17105,034;   -1,726;    0,227
866,094;18600,186;    1,820;    0,227
866,655;18242,883;    1,274;    3,318
867,215;18514,762;    0,274;    0,136
867,776;18320,641;    0,547;   -0,136
868,336;18473,702;   -1,453;    0,136
868,897;17951,126;    2,638;    1,682
869,457;17671,642;    1,365;    0,318
870,017;17903,066;    0,547;   -1,227
870,578;18423,673;   -0,817;    0,773
871,138;18104,097;   -2,089;   -0,955
871,698;17622,249;   -0,817;   -1,318
872,258;17513,310;   -0,453;   -2,864
872,818;17896,553;    2,729;    0,045
873,378;17858,341;    0,638;    1,045
873,938;17413,947;    0,547;    0,500
874,498;17784,008;    0,274;   -1,955
875,058;17618,614;    2,183;    1,773
875,618;17451,039;    1,910;   -2,682
876,177;17423,645;    1,274;    0,136
876,737;17019,524;   -0,090;    1,955
877,297;17031,130;    0,183;    1,955
877,856;17029,828;   -0,362;    0,318
878,416;17024,525;    1,183;   -0,136
878,976;17227,404;   -1,817;    0,409
879,535;17385,465;    0,092;    3,136
880,095;17113,162;   -0,544;    0,045
880,654;17272,677;   -1,090;    1,318
881,213;17366,284;    2,456;    1,500
881,773;16977,526;    2,637;    2,682
882,332;17373,315;    3,365;    5,136
882,891;17186,830;    3,092;    2,136
883,451;17653,345;   -1,272;    1,682
884,010;17082,679;   -2,908;   -0,409
884,569;17196,104;   -0,999;   -0,045
885,128;17306,801;    2,819;   -1,864
885,687;17416,862;    4,455;    0,682
886,246;17104,650;    1,455;    2,136
886,805;16874,074;    2,455;    2,045
887,364;17181,226;   -0,999;   -0,500
887,922;17504,105;   -1,181;    0,045
888,481;16984,621;   -1,545;    0,591
889,040;17325,591;    1,183;    2,136
889,599;18066,924;    2,455;    1,409
890,157;18094,349;    1,455;    2,409
890,716;17772,046;   -0,090;    0,227
891,274;17601,470;    0,092;   -1,136
891,833;17991,531;    1,546;    0,864
892,391;17891,138;   -0,454;    0,500
892,950;17950,017;    1,819;   -0,773
893,508;18340,441;    0,455;   -0,409
894,067;17692,502;    0,637;    0,136
894,625;17540,108;   -0,636;   -1,500
895,183;17783,806;   -0,363;   -0,682
895,741;17672,503;    1,728;   -1,773
896,299;17516,655;   -0,545;   -2,409
896,858;17735,352;    0,819;   -1,591
897,416;17843,867;    2,728;   -1,318
897,974;17559,110;    1,819;    0,318
898,532;17724,444;    6,091;    2,682
899,089;17634,595;    2,091;   -0,682
899,647;17692,020;   -1,454;    1,318
900,205;17403,263;    1,182;    1,045
900,763;17557,323;   -0,454;    0,227
901,321;17568,021;    2,364;   -1,409
901,878;16964,627;   -1,000;   -0,773
902,436;16870,506;   -1,363;    1,318
902,994;17274,022;    4,728;    3,682
903,551;16701,355;    0,728;    0,409
904,109;17076,143;    0,182;   -1,409
904,666;16644,204;    2,455;    1,045
905,224;16483,447;    0,182;   -0,409
905,781;16252,599;    0,727;   -0,318
906,338;16336,296;   -1,363;    1,045
906,895;16225,993;    0,637;    2,045
907,453;16159,145;    1,727;    1,136
908,010;16237,569;   -0,909;    0,409
908,567;15881,539;    1,273;    0,591
909,124;15352,418;    0,364;   -1,500
909,681;15427,570;   -2,909;    0,682
910,238;15588,904;    0,636;   -1,318
910,795;15882,237;   -0,273;   -1,136
911,352;15468,601;   -2,909;   -2,682
911,909;14885,237;   -1,364;   -0,864
912,466;15384,965;   -3,182;    1,500
913,022;14944,965;   -1,636;    0,500
913,579;15309,146;   -0,909;    2,045
914,136;14988,237;    1,636;    0,955
914,692;15349,783;    0,091;   -1,227
915,249;14930,965;    1,455;    0,409
915,806;15127,146;    0,182;    1,955
916,362;14898,601;    1,909;    1,864
916,918;14466,419;    2,000;    1,045
917,475;14440,056;   -1,182;    0,955
918,031;14525,874;    3,364;   -0,045
918,587;13925,328;   -0,909;   -0,318
919,144;14135,601;   -2,273;    0,227
919,700;14451,783;    1,727;    0,773
920,256;14028,601;    0,727;    0,045
920,812;13667,601;   -0,727;   -1,045
921,368;13694,601;   -1,727;   -1,045
921,924;13322,056;    0,182;   -0,136
922,480;12883,965;   -0,545;    1,227
923,036;13491,601;    1,273;    1,955
923,592;13429,146;    0,455;    0,318
924,148;13340,510;    0,455;   -0,955
924,704;12619,783;   -1,364;   -0,409
925,259;12892,328;   -0,273;    0,591
925,815;12661,510;    1,455;    0,500
926,371;12208,328;    2,909;    1,409
926,926;12088,056;    2,091;    0,591
927,482;11705,056;   -1,364;    0,773
928,037;11620,601;    0,909;    2,045
928,593;11890,419;    1,636;    1,045
929,148;11708,146;   -1,818;   -1,500
929,704;11187,328;   -1,455;   -0,500
930,259;11421,965;    0,091;   -0,136
930,814;10474,783;   -0,818;    1,955
931,369;10125,056;    1,091;   -0,773
931,925; 9991,328;   -0,091;    0,136
932,480; 9894,510;   -2,818;   -2,591
933,035; 9785,328;    0,545;   -0,318
933,590; 9582,601;    0,364;   -1,773
934,145; 9172,965;   -1,364;   -0,318
934,700; 9530,056;    0,455;   -0,591
935,255; 9310,146;   -0,091;    0,045
935,809; 8600,965;    3,182;    0,864
936,364; 7730,965;   -0,455;   -0,136
936,919; 7680,965;    0,455;   -1,773
937,474; 7553,510;    1,455;    0,136
938,028; 7303,056;   -1,636;    1,136
938,583; 6760,692;    1,818;    4,682
939,138; 7073,237;    2,091;    2,136
939,692; 6481,601;    1,636;   -1,136
940,247; 6198,965;   -0,727;   -1,045
940,801; 5727,419;   -0,636;    0,227
941,355; 5608,510;   -0,364;    2,591
941,910; 5245,146;   -0,273;   -2,136
942,464; 5354,328;   -0,818;   -0,318
943,018; 5126,692;    1,000;   -0,227
943,572; 5081,419;    2,545;   -0,682
944,126; 4498,874;    0,091;   -0,409
944,681; 4386,510;    3,091;    0,227
945,235; 4355,965;    1,000;   -0,591
945,789; 4291,328;    0,364;   -1,864
946,342; 4391,601;    0,455;   -0,591
946,896; 4190,056;   -2,273;    0,955
947,450; 3943,328;    1,545;   -0,227
948,004; 4130,237;    1,727;   -0,045
948,558; 4139,146;    0,273;   -0,864
949,111; 4070,965;   -0,273;   -0,318
949,665; 4085,965;    1,636;   -0,682
950,219; 3954,146;   -0,091;   -1,045
950,772; 4034,056;   -1,909;    1,864
951,326; 3941,965;    0,545;   -0,955
951,879; 4060,056;    0,727;   -2,318
952,433; 4102,237;    0,000;    2,227
952,986; 3925,056;    2,909;    0,682
953,539; 3864,783;   -0,273;    0,591
954,093; 3807,146;    0,545;   -1,318
954,646; 3934,419;    0,909;    1,318
955,199; 3757,965;    0,000;   -0,500
955,752; 3643,874;   -0,455;    1,773
956,305; 3602,692;   -0,091;    2,955
956,858; 3759,328;    0,818;   -0,318
957,411; 3929,056;   -0,545;    2,136
957,964; 3760,510;    1,364;    2,136
958,517; 3759,510;   -1,545;    3,136
959,070; 3571,874;   -0,455;    1,955
959,623; 3631,510;    1,091;    1,500
960,176; 3385,510;    1,727;    2,045
960,728; 3386,874;   -2,727;    0,773
961,281; 3459,056;    0,545;    0,500
961,834; 3496,056;   -0,909;    0,864
962,386; 3404,783;    1,727;    1,045
962,939; 3329,419;    0,364;   -0,318
963,491; 3478,601;    0,455;    1,136
964,043; 3352,874;    1,182;    2,409
964,596; 3466,783;   -1,000;    2,227
965,148; 3310,056;   -1,000;    1,773
965,700; 3254,965;    1,091;   -0,227
966,253; 3392,146;   -0,636;    0,318
966,805; 3218,692;   -2,273;    0,773
967,357; 3288,056;    1,091;   -1,500
967,909; 3232,601;    0,455;   -1,227
968,461; 3336,056;    0,545;    3,136
969,013; 3259,783;   -0,182;   -0,864
969,565; 3339,146;   -0,455;   -1,136
970,117; 3403,783;   -0,364;    1,045
970,669; 3253,510;    0,182;   -0,136
971,220; 3103,328;   -0,455;   -1,500
971,772; 3041,510;   -0,636;   -0,318
972,324; 3142,965;    0,091;   -0,500
972,876; 3087,146;    0,818;   -0,045
973,427; 3239,146;    1,909;   -1,045
973,979; 3181,783;   -0,727;   -2,500
974,530; 3240,965;    1,818;    1,318
975,082; 3265,510;   -0,545;    1,682
975,633; 3153,056;    1,091;    1,682
976,184; 3275,328;    0,909;    0,773
976,736; 3074,601;    0,091;    0,227
977,287; 2866,146;   -0,909;   -0,500
977,838; 3043,510;    0,909;   -0,318
978,389; 3101,783;   -1,000;   -0,500
978,940; 2994,874;    0,545;   -0,409
979,491; 3006,692;    0,091;   -0,500
980,042; 2969,510;    0,182;    3,045
980,593; 3044,874;   -2,545;    0,227
981,144; 3083,783;    2,545;   -0,500
981,695; 3021,237;    1,455;    1,500
982,246; 2976,510;   -0,273;    1,045
982,797; 3146,783;   -1,727;    0,682
983,347; 3250,328;    0,364;    0,591
983,898; 3443,510;    3,091;    0,409
984,449; 3249,237;    2,182;    0,773
984,999; 3170,601;    1,455;   -1,136
985,550; 2935,146;    0,182;   -0,318
986,100; 2947,874;   -0,455;   -0,318
986,651; 3001,783;   -0,818;    0,045
987,201; 2972,692;   -1,000;   -0,591
987,751; 3056,237;    0,818;    2,864
988,302; 3045,056;    2,636;    1,500
988,852; 3073,056;    0,455;   -1,136
989,402; 3107,874;    0,091;    0,682
989,952; 3013,237;   -2,182;    0,864
990,502; 3113,328;   -0,091;    0,682
991,052; 3071,328;   -0,727;    0,045
991,602; 2943,419;   -2,909;    1,318
992,152; 2938,692;    0,455;    0,682
992,702; 2943,328;    1,364;   -0,045
993,252; 2861,783;   -3,000;   -0,500
993,802; 2951,874;   -0,273;    1,318
994,352; 3174,056;   -1,545;    1,136
994,901; 3277,056;   -0,182;    3,227
995,451; 3189,419;   -0,182;    0,318
996,000; 3285,146;    1,636;    0,318
996,550; 2977,874;    2,273;    0,227
997,100; 2968,146;    1,273;   -0,045
997,649; 3259,328;    2,182;    0,955
998,198; 2881,419;    1,727;   -1,500
998,748; 3095,783;    1,091;   -2,318
999,297; 3006,692;   -0,818;   -0,409
999,846; 3053,056;    1,000;   -0,773
1000,395; 3101,237;   -0,818;    0,500
1000,945; 3057,874;    1,818;   -0,773
1001,494; 3168,874;    2,364;    0,682
1002,043; 3148,419;    4,636;    0,864
1002,592; 2991,146;   -1,091;    1,955
1003,141; 3130,056;   -0,455;   -0,682
1003,690; 2987,965;    1,727;    0,500
1004,238; 3069,237;    1,455;   -0,045
1004,787; 2713,874;    1,364;    1,227
1005,336; 2939,874;    0,364;    0,682
1005,885; 3073,965;    1,364;   -2,773
1006,433; 3226,419;    0,545;    0,955
1006,982; 3259,056;    0,455;    1,682
1007,531; 3187,510;   -1,818;   -0,227
1008,079; 3149,601;   -2,273;    0,500
1008,627; 3286,056;   -1,455;    0,409
1009,176; 3021,783;    0,000;   -1,955
1009,724; 3049,510;    1,091;    0,864
1010,273; 3105,328;    1,273;    0,500
1010,821; 3227,601;    0,091;    1,409
1011,369; 2962,965;   -1,364;    1,318
1011,917; 2936,510;   -1,364;   -0,591
1012,465; 3223,783;    1,273;   -1,591
1013,013; 3335,419;    2,091;   -1,682
1013,561; 3202,783;    0,455;   -0,773
1014,109; 3260,328;   -1,909;    1,682
1014,657; 3156,601;    0,364;    0,591
1015,205; 3277,237;    1,636;   -0,955
1015,753; 3319,874;   -0,545;   -1,409
1016,301; 3347,419;   -2,636;    3,045
1016,848; 3333,510;   -1,273;    0,409
1017,396; 3388,692;    2,545;    0,045
1017,944; 3526,510;    1,182;    1,864
1018,491; 3262,237;    0,273;    1,409
1019,039; 3415,601;    0,455;    0,591
1019,586; 3334,510;   -1,364;    1,682
1020,134; 3438,056;    0,455;    1,500
1020,681; 3453,146;    0,182;   -1,136
1021,228; 3446,510;    2,909;   -2,227
1021,776; 3287,692;    1,182;   -1,136
1022,323; 3500,692;    0,455;    0,773
1022,870; 3439,419;   -1,000;   -0,045
1023,417; 3315,146;    2,636;    1,864
1023,964; 3490,601;    2,636;    1,227
1024,511; 3323,874;    1,000;    0,773
1025,058; 3113,965;    3,182;   -0,045
1025,605; 3155,419;   -2,273;    3,136
1026,152; 3396,692;    1,727;   -0,591
1026,699; 3107,692;    1,818;    1,318
1027,245; 3292,056;   -0,091;    0,318
1027,792; 3486,874;   -1,000;    1,409
1028,339; 3357,692;    2,364;   -0,045
1028,885; 3227,146;    1,000;   -0,227
1029,432; 3170,692;   -0,091;    0,227
1029,978; 3219,328;   -1,000;   -1,591
1030,525; 3120,328;    1,000;    0,409
1031,071; 3383,874;   -1,364;    1,136
1031,618; 3483,056;    0,364;    1,682
1032,164; 3252,237;   -0,091;    3,045
1032,710; 3307,874;    1,636;   -1,500
1033,256; 3228,783;   -0,636;   -0,136
1033,803; 3205,328;   -0,545;    1,500
1034,349; 2938,783;   -1,364;    0,136
1034,895; 3089,601;    0,000;   -0,318
1035,441; 3066,783;   -0,818;    0,318
1035,987; 3065,056;   -2,364;   -0,682
1036,533; 3057,510;   -1,455;   -0,955
1037,078; 3250,601;    1,455;    1,682
1037,624; 3078,419;    2,455;   -0,955
1038,170; 3115,146;    0,455;   -0,318
1038,716; 3025,874;    1,636;   -0,409
1039,261; 2934,146;   -2,273;   -0,773
1039,807; 2884,146;   -0,091;    3,409
1040,352; 2934,874;   -1,909;   -0,318
1040,898; 2982,328;   -1,545;   -0,682
1041,443; 2877,328;   -1,455;   -2,591
1041,989; 2884,965;    1,091;    1,591
1042,534; 2784,601;   -0,364;    2,591
1043,079; 2912,328;    2,909;    0,955
1043,625; 2678,510;    1,818;    0,500
1044,170; 2729,328;   -1,364;    1,045
1044,715; 2998,056;    2,455;    0,955
1045,260; 2809,510;    2,182;   -0,955
1045,805; 2854,510;    1,182;   -0,591
1046,350; 2796,601;    1,364;   -0,409
1046,895; 2754,692;    2,909;    1,591
1047,440; 2690,328;    5,364;    0,409
1047,985; 2580,237;    2,818;   -0,955
1048,530; 2515,056;    1,545;    1,227
1049,074; 2566,783;    0,000;    0,318
1049,619; 2550,328;   -1,364;    1,955
1050,164; 2352,874;    0,455;    0,227
1050,708; 2376,146;   -0,455;    0,045
1051,253; 2767,237;    1,273;   -2,227
1051,797; 2465,056;    0,818;   -1,318
1052,342; 2475,328;   -1,182;    1,045
1052,886; 2468,237;    0,364;   -1,409
1053,430; 2356,692;   -1,364;    0,136
1053,975; 2369,601;   -0,818;   -0,318
1054,519; 2348,874;   -0,727;    3,227
1055,063; 2372,601;    0,909;    1,318
1055,607; 2232,965;   -0,182;    0,227
1056,151; 2271,783;    2,909;    1,682
1056,695; 2196,783;    2,273;   -1,136
1057,239; 2258,874;   -1,727;   -0,682
1057,783; 2268,328;    0,818;   -1,500
1058,327; 2203,056;    0,000;    1,409
1058,871; 2431,601;   -0,545;    1,318
1059,415; 2134,692;   -0,818;   -0,045
1059,958; 2408,146;    1,455;    2,591
1060,502; 2134,692;   -1,000;   -0,773
1061,046; 2030,328;    0,364;   -0,955
1061,589; 2003,237;   -3,000;   -1,136
1062,133; 1885,146;   -1,273;    1,864
1062,676; 1840,056;    1,182;    0,864
1063,220; 1827,419;    1,091;    0,500
1063,763; 1850,510;    0,909;    1,136
1064,306; 1930,056;   -0,909;    1,864
1064,849; 1818,783;   -0,909;    0,591
1065,393; 1824,146;    2,000;   -1,500
1065,936; 1936,419;    0,182;   -0,409
1066,479; 1824,146;   -1,455;    1,318
1067,022; 1858,146;   -0,273;   -0,227
1067,565; 1746,328;   -0,091;   -1,318
1068,108; 1764,328;    0,727;   -0,591
1068,651; 1733,783;   -0,636;    1,409
1069,194; 1681,056;   -0,455;   -1,682
1069,736; 1681,510;   -1,273;    0,955
1070,279; 1649,783;   -1,364;   -0,500
1070,822; 1693,965;   -2,000;   -0,318
1071,364; 1791,056;   -0,364;    1,318
1071,907; 1611,692;   -0,727;    3,227
1072,450; 1517,510;    0,000;   -0,045
1072,992; 1492,056;   -0,273;    3,136
1073,535; 1647,237;    2,091;    2,136
1074,077; 1443,601;   -0,727;    2,045
1074,619; 1405,692;   -1,364;    0,591
1075,161; 1437,874;   -1,091;    1,500
1075,704; 1617,419;    1,545;    1,227
1076,246; 1408,146;   -0,182;    0,682
1076,788; 1342,056;   -0,364;    1,773
1077,330; 1407,874;    1,273;    2,136
1077,872; 1374,056;    0,909;    0,955
1078,414; 1607,874;    2,727;    0,773
1078,956; 1337,419;    1,273;   -0,227
1079,498; 1595,601;    1,636;    0,318
1080,040; 1296,601;    1,909;   -1,318
1080,581; 1255,146;    1,636;   -0,318
1081,123; 1166,965;    0,091;   -0,773
1081,665; 1208,328;   -1,182;   -0,955
1082,206; 1510,056;    1,364;   -0,500
1082,748; 1376,146;    0,727;    2,045
1083,289; 1259,965;   -2,000;    1,318
1083,831; 1152,874;   -0,545;    0,227
1084,372; 1182,419;    0,000;    0,591
1084,913; 1201,692;    1,091;    0,864
1085,455; 1155,874;   -1,909;   -2,045
1085,996; 1126,056;   -2,273;    0,136
1086,537; 1162,056;   -0,091;    0,864
1087,078; 1186,419;   -0,909;   -2,136
1087,619; 1225,510;   -1,273;    0,227
1088,160; 1147,692;    0,000;    1,318
1088,701; 1124,783;   -1,091;    0,682
1089,242; 1063,874;    1,364;   -2,227
1089,783; 1166,783;   -0,273;    1,409
1090,324; 1116,237;    0,455;    0,682
1090,865; 1004,692;    2,727;   -0,409
1091,405;  983,783;    0,727;    2,227
1091,946; 1014,510;    0,182;   -0,955
1092,487;  944,056;    0,818;   -1,409
1093,027; 1116,419;   -1,364;   -1,500
1093,568;  944,874;   -0,364;    1,227
1094,108; 1049,692;    0,273;    1,773
1094,649;  987,056;   -1,182;    0,136
1095,189;  921,874;   -0,636;   -0,682
1095,729;  872,965;   -0,091;    0,955
1096,269;  879,237;    0,727;   -0,955
1096,810; 1199,692;   -1,364;    0,500
1097,350; 1023,874;    1,364;   -0,773
1097,890;  930,419;    0,364;    1,227
1098,430; 1174,510;    2,364;    2,864
1098,970; 1036,965;    2,182;    1,682
1099,510;  901,692;    0,545;   -2,318
1100,050;  834,965;    1,000;   -1,591
1100,589;  806,692;   -0,727;   -0,318
1101,129;  938,419;    0,818;   -0,955
1101,669; 1090,601;    1,727;    2,136
1102,209;  904,056;   -0,091;    2,227
1102,748;  864,419;    0,000;    0,955
1103,288;  844,965;    1,273;   -1,227
1103,827;  861,692;    3,091;   -2,227
1104,367;  737,146;   -0,091;   -2,409
1104,906;  709,510;    1,364;   -1,136
1105,445;  785,601;    0,636;   -1,136
1105,985;  723,783;   -0,727;    1,500
1106,524;  778,965;   -1,727;   -0,682
1107,063;  750,056;   -2,727;    1,409
1107,602;  718,601;   -1,909;   -1,500
1108,141;  639,056;   -1,909;    1,500
1108,680;  753,237;   -3,455;   -0,591
1109,219;  672,510;   -0,909;   -0,500
1109,758;  681,692;    0,455;    0,682
1110,297;  651,601;    1,000;   -0,682
1110,836;  593,328;   -0,727;    0,955
1111,375;  769,419;   -2,545;    0,409
1111,913;  779,237;   -1,000;    0,773
1112,452;  714,146;   -0,273;    0,136
1112,991;  599,328;    1,091;    1,955
1113,529;  552,692;   -0,818;   -0,045
1114,068;  627,874;   -0,273;    2,955
1114,606;  526,601;   -0,364;   -0,955
1115,144;  689,601;   -1,273;    1,045
1115,683;  622,874;   -0,727;    0,318
1116,221;  676,328;   -0,455;   -0,864
1116,759;  587,510;    0,636;   -0,864
1117,297;  791,237;    0,000;    1,864
1117,836;  588,237;   -2,182;   -1,227
1118,374;  595,510;    0,182;   -0,682
1118,912;  536,692;    0,909;    2,682
1119,450;  527,783;    1,000;    0,864
1119,988;  571,146;    1,545;    2,136
1120,525; 1031,146;    5,091;    3,318
1121,063;  732,237;    1,182;    1,864
1121,601;  541,056;   -0,909;   -1,227
1122,139;  498,328;   -0,727;   -2,045
1122,676;  687,601;   -0,727;    2,773
1123,214;  637,692;   -1,182;    4,409
1123,751;  435,692;    1,727;    2,227
1124,289;  568,419;   -0,091;   -0,409
1124,826;  430,510;    1,727;    0,227
1125,364;  355,965;    1,727;   -0,955
1125,901;  543,601;    1,182;    1,227
1126,438;  660,419;    0,818;    0,955
1126,975;  385,601;   -0,727;   -0,773
1127,513;  457,237;    0,273;    2,136
1128,050;  351,056;    1,636;   -0,682
1128,587;  457,056;    2,000;   -0,227
1129,124;  509,783;    0,091;    1,318
1129,661;  378,601;    0,273;    0,227
1130,198;  538,601;    1,636;    0,773
1130,734;  480,328;    0,182;    1,409
1131,271;  328,601;   -0,909;    0,864
1131,808;  514,419;    2,909;    3,045
1132,345;  386,874;    1,545;    0,318
1132,881;  250,692;   -1,545;   -1,864
1133,418;  399,692;    0,727;   -1,136
1133,954;  323,237;    2,455;   -2,682
1134,491;  400,328;    1,364;   -0,773
1135,027;  301,783;    2,364;    0,864
1135,564;  404,874;    0,273;    2,955
1136,100;  383,692;    0,364;    2,136
1136,636;  268,783;   -1,273;   -1,045
1137,172;  359,783;    0,000;   -1,045
1137,708;  283,419;   -1,364;   -1,045
1138,245;  287,601;    1,273;   -1,227
1138,781;  236,146;    1,091;   -3,318
1139,317;  309,056;    1,273;   -1,409
1139,852;  298,601;    3,091;    0,136
1140,388;  422,056;   -1,182;   -0,409
1140,924;  296,419;   -1,091;   -2,227
1141,460;  238,510;   -1,636;    0,136
1141,996;  167,692;   -1,364;    2,682
1142,531;  217,146;    1,364;    3,318
1143,067;  445,328;    1,182;    1,045
1143,602;  498,510;   -0,091;   -0,318
1144,138;  328,419;   -2,636;    1,045
1144,673;  200,419;   -1,455;    1,409
1145,209;  272,874;   -1,909;   -0,318
1145,744;  190,328;   -0,727;    0,864
1146,279;  332,965;    1,818;   -0,136
1146,815;  241,510;    1,545;   -2,682
1147,350;  278,056;   -1,364;    0,045
1147,885;  190,146;   -0,818;   -1,318
1148,420;  184,601;   -2,273;    0,773
1148,955;  170,783;   -1,727;    1,864
1149,490;  203,783;   -0,909;   -1,591
1150,025;  177,965;    0,455;   -1,773
1150,560;  294,874;    1,091;   -0,955
1151,094;  264,692;    1,455;   -0,591
1151,629;  274,056;    1,636;    0,864
1152,164;  184,601;    1,364;    1,318
1152,698;  147,510;   -0,182;   -0,136
1153,233;  107,692;    0,091;   -0,682
1153,767;  155,965;   -3,000;   -2,318
1154,302;  201,965;   -1,455;    1,773
1154,836;  203,692;   -0,455;   -2,136
1155,371;  256,874;   -1,364;    3,682
1155,905;  200,692;   -0,636;    1,682
1156,439;  171,146;   -0,636;   -0,500
1156,973;  206,510;    0,364;    0,318
1157,507;  140,510;   -0,364;    0,682
1158,042;  174,419;   -0,727;    1,045
1158,576;  224,965;    0,182;    1,773
1159,110;  210,328;   -0,818;    2,409
1159,643;  182,237;    0,636;   -0,045
1160,177;  113,146;   -1,545;    1,500

