
Integration time [ms]:   0,040
Averaging Nr. [scans]: 11
Smoothing Nr. [pixels]: 0
Data measured with spectrometer [name]: 7318044SP
Wave   ;Sample   ;Dark     ;Reference
[nm]   ;[counts] ;[counts] ;[counts] 

186,757;    3,461;   31,551;    1,318
187,357;   30,369;   22,551;    0,955
187,958;   12,628;   15,460;   -1,591
188,558;   45,088;    8,915;   -1,227
189,159;   29,474;    6,733;   -4,500
189,759;    0,710;    7,278;   -3,591
190,360;   -1,427;    2,824;   -2,136
190,960;   22,459;    2,915;   -4,136
191,560;   31,499;    3,189;   -6,591
192,161;  237,783;    4,372;   -3,500
192,761;  108,453;    4,010;   -3,227
193,361;   52,216;    1,556;   -3,773
193,962;   88,113;    2,010;   -2,682
194,562;   17,857;    1,189;   -3,955
195,162;   31,436;   -2,448;   -2,227
195,762;  150,464;   -3,176;   -0,045
196,362;   97,246;    1,370;   -2,500
196,963;    3,719;    2,006;   -0,864
197,563;   45,638;    1,551;   -0,955
198,163;   -0,444;    0,096;   -0,682
198,763;   14,329;    1,733;   -0,500
199,363;   65,220;    3,096;   -0,500
199,963;   37,911;    0,369;    0,409
200,563;   23,093;    2,823;   -1,409
201,163;    3,834;    3,277;   -0,227
201,763;   35,630;    3,732;    0,318
202,363;    4,366;    1,459;    1,500
202,963;   40,685;    1,459;    1,045
203,563;  106,121;    0,277;    0,500
204,162;   33,684;    2,096;   -1,864
204,762;   23,517;    0,550;    0,591
205,362;   -5,865;    3,004;    1,955
205,962;   27,557;    3,096;    1,955
206,562;   27,762;    1,823;    2,318
207,161;    3,081;   -0,087;    0,318
207,761;   81,794;    1,277;    2,409
208,361;   10,057;   -0,268;    1,409
208,960;   36,894;    0,459;    1,500
209,560;   42,258;    1,277;    1,591
210,160;   54,376;    0,550;    1,864
210,759;   27,271;    4,186;    1,227
211,359;    9,962;    1,459;    1,045
211,958;  113,662;    1,277;    2,045
212,558;  122,998;    1,732;    1,864
213,157;   59,694;    1,822;    1,500
213,757;  202,808;    3,822;   -0,227
214,356;   83,312;    1,277;   -0,409
214,956;  187,967;    3,095;    0,409
215,555;   63,285;    2,095;    2,136
216,154;   25,772;   -2,723;   -0,591
216,754;   27,217;    0,277;    0,773
217,353;   44,544;   -0,268;   -1,045
217,952;   -8,287;   -0,178;    0,318
218,552;   66,354;    1,368;   -0,773
219,151;   29,168;    0,277;    0,955
219,750;   18,681;    0,004;   -0,227
220,349;    2,254;   -0,451;    1,045
220,948;   69,681;   -1,360;    1,136
221,548;   12,872;    0,913;    1,227
222,147;   40,335;   -0,087;   -0,409
222,746;  123,940;   -0,451;   -0,955
223,345;   53,145;    0,731;    0,500
223,944;   54,572;   -0,451;    0,773
224,543;   61,876;    1,004;   -1,409
225,142;   52,113;    0,094;    0,136
225,741;   54,299;   -0,814;    1,045
226,340;   45,718;   -0,451;   -0,955
226,939;  112,508;   -0,996;   -0,136
227,538;   31,318;   -0,360;   -0,773
228,137;  116,076;   -0,814;    0,864
228,735;   79,981;   -0,541;    1,227
229,334;    6,790;   -0,905;   -0,227
229,933;  109,044;    0,459;    0,591
230,532;  106,353;    1,186;   -0,409
231,131;  153,894;    1,732;    0,318
231,729;   77,840;   -2,450;   -2,318
232,328;   35,522;   -0,723;   -1,500
232,927;   39,926;    1,004;   -0,500
233,525;   34,967;    3,640;    0,045
234,124;   57,231;    2,368;   -1,591
234,723;   20,358;    0,913;   -1,045
235,321;    6,308;    2,277;    0,136
235,920;   20,753;    1,186;   -1,227
236,518;  105,249;    3,459;    0,318
237,117;   24,845;    0,004;   -0,227
237,715;   42,581;    0,640;   -0,500
238,314;   47,003;   -0,087;   -2,318
238,912;  110,853;   -0,723;   -1,409
239,510;   62,562;    0,459;   -1,227
240,109;  123,558;    0,004;    3,773
240,707;  100,367;   -0,996;    1,227
241,305;   19,249;    0,550;    0,136
241,904;   61,885;   -0,178;   -2,045
242,502;  135,353;   -0,632;   -0,227
243,100;   78,753;   -0,087;   -0,955
243,698;   48,944;    0,732;    1,682
244,297;   66,794;   -0,632;    0,682
244,895;   57,299;   -0,269;   -2,318
245,493;  169,767;    2,186;   -0,591
246,091;  186,263;    1,368;   -1,318
246,689;  134,258;    1,004;    0,591
247,287;  126,767;    0,822;   -1,136
247,885;  106,222;   -1,451;    1,227
248,483;   94,185;    1,822;   -0,500
249,081;  171,641;    0,185;    1,591
249,679;  191,654;   -0,178;    1,682
250,277;  111,190;   -1,723;    0,864
250,875;  218,576;   -1,087;   -1,045
251,473;  151,699;   -1,178;    0,500
252,071;  244,640;    1,459;    1,045
252,669;  181,299;   -1,814;    0,318
253,267;  152,818;   -0,087;    0,773
253,864;  209,949;   -0,360;    0,682
254,462;  345,845;    1,640;    1,591
255,060;  171,913;   -0,269;    1,318
255,658;  170,936;    0,822;   -0,136
256,255;  253,399;    0,186;   -2,045
256,853;  308,495;   -0,269;    1,409
257,451;  286,122;    0,822;    1,864
258,048;  684,281;    1,822;    1,864
258,646;  418,113;    1,731;   -1,045
259,243;  533,495;   -0,087;    2,227
259,841;  419,545;   -0,814;    0,318
260,438;  285,195;   -0,087;    0,864
261,036;  420,740;   -1,905;    1,409
261,633;  312,945;   -0,087;    2,227
262,231;  284,954;    2,731;   -0,045
262,828;  299,253;   -0,905;    1,136
263,425;  377,635;    0,913;   -0,591
264,023;  403,549;    0,186;    0,045
264,620;  567,104;   -0,360;   -0,318
265,217;  723,577;   -2,087;    3,136
265,815;  440,904;   -1,905;    2,136
266,412;  596,949;    0,731;    0,136
267,009;  641,026;   -1,451;    0,773
267,606;  755,295;    0,822;   -0,955
268,203;  522,699;   -0,269;   -0,591
268,801;  589,236;    1,731;    0,591
269,398;  505,086;   -0,360;    2,500
269,995;  687,344;    0,277;    1,591
270,592;  600,731;   -0,632;   -0,500
271,189;  508,390;    0,186;    0,409
271,786;  502,035;   -0,632;    1,227
272,383;  788,931;   -1,087;    0,227
272,980;  613,731;    0,277;    0,318
273,577;  565,222;    0,004;    1,227
274,174;  506,363;    0,822;    2,591
274,771;  673,208;   -0,814;   -0,773
275,367; 1102,035;    2,277;    1,409
275,964;  910,608;    0,731;   -0,500
276,561;  651,404;    1,549;   -1,045
277,158;  554,018;    0,095;   -1,773
277,755;  828,459;    2,185;    0,409
278,351;  680,199;   -0,451;   -1,500
278,948;  767,877;   -0,815;    0,045
279,545;  681,399;   -1,360;    2,318
280,141;  940,376;   -1,723;   -2,045
280,738;  842,745;   -0,451;   -0,136
281,334;  613,631;   -1,633;    0,591
281,931;  653,477;   -0,087;   -1,318
282,528;  758,486;    0,822;   -0,500
283,124;  869,118;   -1,087;   -0,500
283,721;  866,732;   -0,451;    1,409
284,317;  679,545;    0,185;    2,500
284,913;  920,891;   -1,360;    0,591
285,510; 1248,254;    0,640;   -0,318
286,106; 1032,981;   -2,269;   -0,955
286,703;  739,831;   -0,360;    1,955
287,299;  712,545;   -1,451;   -0,591
287,895;  726,227;    0,822;   -1,045
288,491;  762,995;    0,186;    2,136
289,088;  928,368;   -2,360;    2,409
289,684; 1001,117;   -1,723;    1,500
290,280; 1209,090;    0,368;    0,682
290,876; 1217,795;    1,822;    5,500
291,472; 1110,868;    1,276;    2,227
292,068; 1185,991;    1,367;    0,227
292,665; 1040,090;    2,095;    0,773
293,261;  964,945;    0,276;    2,136
293,857; 1233,535;    2,913;    2,136
294,453; 1214,494;    3,550;    0,955
295,049; 1472,944;   -0,268;    1,955
295,644; 1356,494;    0,095;    0,136
296,240; 1289,748;   -0,905;   -0,136
296,836; 1521,921;   -0,995;    0,318
297,432; 1755,871;    1,096;   -0,500
298,028; 1915,207;    0,732;    0,773
298,624; 1877,025;    1,459;    1,864
299,220; 1942,953;    2,368;    0,591
299,815; 1896,616;    1,005;   -0,409
300,411; 2039,853;    0,914;    1,773
301,007; 2219,012;    1,368;    0,227
301,602; 2098,898;   -0,541;   -2,318
302,198; 2280,330;    0,732;   -0,773
302,794; 2334,816;    1,187;   -0,500
303,389; 2411,557;   -1,177;    1,045
303,985; 2525,357;    0,550;    1,409
304,580; 2600,084;    1,459;    1,591
305,176; 2539,457;   -3,086;    0,136
305,771; 2484,258;   -1,268;   -1,227
306,367; 2837,985;    4,095;    0,136
306,962; 2735,989;    0,641;    1,500
307,558; 2562,380;   -0,450;    0,136
308,153; 2611,644;    1,095;   -1,136
308,748; 2573,312;   -0,814;    1,682
309,344; 2845,380;   -0,632;   -1,318
309,939; 2924,553;   -1,905;   -1,318
310,534; 2735,512;   -0,086;   -1,682
311,130; 2589,289;    0,459;   -2,500
311,725; 2411,053;    1,004;   -0,500
312,320; 2525,875;    2,459;    0,045
312,915; 2612,244;    1,459;   -1,045
313,510; 2741,271;    1,550;   -0,500
314,105; 2649,666;    1,096;    1,409
314,700; 2245,612;   -3,086;   -1,045
315,295; 2187,357;   -0,904;    0,045
315,890; 1987,980;    1,277;    0,864
316,485; 2081,335;   -0,359;   -0,318
317,080; 2033,544;   -3,086;    1,591
317,675; 2319,789;    2,005;   -0,682
318,270; 2349,261;    5,550;    3,318
318,865; 2256,257;    3,278;    3,045
319,460; 1999,957;   -0,904;    0,591
320,055; 1909,002;   -0,541;   -1,227
320,650; 1776,675;   -1,995;   -0,591
321,244; 1774,298;   -0,177;   -1,409
321,839; 1999,989;   -1,541;   -0,227
322,434; 1992,603;   -1,086;   -1,591
323,029; 1808,589;    1,732;    1,591
323,623; 1744,494;    1,550;    0,773
324,218; 1837,466;    2,368;    1,409
324,812; 1755,094;    1,096;    1,591
325,407; 1750,321;   -0,814;    2,045
326,002; 1828,662;    0,277;   -0,409
326,596; 1858,871;    0,914;    1,318
327,191; 1801,003;    0,823;   -1,045
327,785; 1693,689;   -0,813;   -0,227
328,379; 1885,944;    1,368;    0,136
328,974; 1824,885;    0,914;   -3,955
329,568; 2011,312;    0,186;   -2,409
330,163; 2076,539;    2,096;    1,045
330,757; 2118,771;    2,459;    1,591
331,351; 1997,662;    0,459;    0,682
331,945; 2150,448;    0,914;    1,409
332,540; 2253,576;   -1,723;   -0,591
333,134; 2315,294;   -1,086;    0,773
333,728; 2394,089;    0,005;    0,318
334,322; 2558,603;   -1,177;   -0,864
334,916; 2374,403;    0,277;    0,955
335,510; 2698,776;   -0,450;   -0,136
336,105; 2924,639;   -1,086;    1,591
336,699; 2822,317;   -1,086;    0,591
337,293; 2913,271;   -1,723;    0,318
337,887; 3027,362;   -2,723;    1,955
338,481; 3294,239;    0,459;    0,591
339,074; 3616,853;   -0,359;    2,682
339,668; 3638,435;   -1,632;    1,227
340,262; 4244,148;    1,732;    3,227
340,856; 3872,417;    1,822;   -0,682
341,450; 3533,062;    1,004;    1,864
342,044; 4098,271;    1,459;    0,136
342,637; 4211,285;    0,913;   -2,136
343,231; 4267,549;   -2,360;    0,682
343,825; 4276,221;   -1,086;   -0,591
344,419; 4438,839;   -1,995;    0,500
345,012; 4715,648;    2,459;    4,045
345,606; 4757,680;    4,641;    1,591
346,199; 4690,470;   -1,813;   -0,227
346,793; 4599,234;    1,914;    2,045
347,386; 4767,875;   -0,813;   -1,136
347,980; 4814,575;   -0,268;   -0,045
348,573; 4866,652;    2,278;    0,409
349,167; 4860,265;    5,278;    4,773
349,760; 5203,124;    2,914;    2,682
350,354; 5154,487;   -0,813;    1,136
350,947; 5069,524;    1,096;    1,682
351,540; 4909,820;   -0,358;   -1,409
352,134; 4879,520;    1,096;    1,136
352,727; 5015,825;   -0,086;    1,136
353,320; 4932,393;    0,005;    0,591
353,913; 4810,270;   -1,995;    1,864
354,507; 5055,838;    0,823;   -1,227
355,100; 5098,720;    0,460;    0,864
355,693; 4732,733;    2,005;    2,409
356,286; 4711,061;    0,823;    2,773
356,879; 4915,134;   -0,722;    1,227
357,472; 4643,815;   -0,904;    1,500
358,065; 4807,529;   -0,722;    2,500
358,658; 4723,311;   -0,540;    2,318
359,251; 4486,138;   -1,631;   -0,591
359,844; 4216,970;   -1,904;   -1,136
360,437; 4381,788;   -2,995;    0,045
361,030; 4542,288;    1,369;   -0,682
361,623; 4241,015;    2,824;    0,318
362,215; 4282,183;   -0,086;    2,045
362,808; 4116,483;   -2,358;   -1,682
363,401; 4235,038;   -2,449;    0,136
363,994; 4151,419;   -0,631;   -1,500
364,586; 4010,774;    0,824;   -1,500
365,179; 4124,905;   -0,449;   -1,136
365,772; 3723,365;   -1,995;    2,045
366,364; 3883,528;    1,915;   -3,227
366,957; 4082,682;    2,279;   -0,045
367,549; 3984,568;    2,188;   -0,864
368,142; 3777,454;    1,825;   -1,500
368,734; 3890,258;    0,734;   -2,136
369,327; 3841,626;    1,643;   -0,500
369,919; 3759,535;   -1,538;    0,409
370,512; 3729,075;   -1,083;   -0,500
371,104; 3582,833;   -0,901;    1,591
371,696; 3705,855;    1,191;   -0,955
372,289; 3683,263;    0,373;    1,136
372,881; 3724,171;   -2,080;    1,318
373,473; 3598,383;   -2,170;    1,136
374,066; 3530,408;   -0,169;    0,500
374,658; 3428,551;    0,378;    1,136
375,250; 3590,744;    0,653;   -1,409
375,842; 3500,986;    0,473;   -0,045
376,434; 3389,979;   -0,435;   -0,409
377,026; 3740,312;    0,204;   -2,500
377,618; 3631,455;   -0,158;   -0,682
378,210; 3519,820;   -0,338;   -1,955
378,802; 3374,427;    0,754;   -0,591
379,394; 3534,316;    1,846;    0,682
379,986; 3779,383;    1,393;   -0,955
380,578; 3771,587;   -0,153;    0,773
381,170; 3483,516;   -0,972;    0,045
381,762; 3391,831;    0,755;    1,409
382,354; 3455,570;   -0,065;   -1,318
382,945; 3494,808;   -2,976;    0,318
383,537; 3599,470;   -2,705;   -1,955
384,129; 3658,390;   -2,160;   -1,136
384,721; 3726,527;   -0,252;    0,955
385,312; 3644,191;   -0,161;   -0,955
385,904; 3773,023;   -2,706;    1,591
386,496; 3311,959;   -0,979;    1,045
387,087; 3467,226;    1,022;    2,500
387,679; 3436,458;   -1,160;    0,045
388,270; 3543,535;    2,840;    2,045
388,862; 3578,549;    1,295;   -0,318
389,453; 3431,230;   -0,887;    1,045
390,045; 3650,926;   -0,705;   -2,682
390,636; 3607,044;    0,204;   -0,591
391,227; 3488,108;   -0,523;   -0,045
391,819; 3570,549;    0,204;    0,773
392,410; 3683,444;    1,022;    0,045
393,001; 3625,709;   -0,979;   -1,591
393,593; 3771,627;    1,930;   -0,045
394,184; 3699,991;    1,385;   -0,409
394,775; 3514,845;    1,839;    2,136
395,366; 3712,559;    1,385;    0,773
395,957; 3688,304;    0,113;    0,136
396,548; 3845,422;   -0,342;    2,682
397,139; 4113,876;   -2,433;    0,591
397,730; 3870,063;   -1,888;    0,955
398,321; 3888,354;   -1,252;    0,955
398,912; 3832,059;   -0,615;    0,136
399,503; 3973,445;   -3,524;   -1,409
400,094; 3673,732;    0,294;    1,682
400,685; 3557,368;   -0,433;    0,045
401,276; 3532,059;    0,930;   -0,955
401,867; 3712,873;   -0,888;    0,773
402,458; 3740,472;   -2,251;   -2,318
403,048; 3758,450;    1,112;    0,591
403,639; 3452,127;    0,840;    0,864
404,230; 3746,764;    2,476;    0,318
404,821; 3694,173;   -0,615;    0,045
405,411; 3719,286;    1,203;   -2,591
406,002; 3380,673;   -1,252;   -1,136
406,592; 3430,423;    2,294;    0,045
407,183; 3483,878;    0,566;   -1,500
407,774; 3334,241;    3,475;   -0,136
408,364; 3497,805;    0,930;    0,409
408,954; 3326,823;    0,384;    1,227
409,545; 3319,628;    1,021;    1,045
410,135; 2947,846;    1,293;    0,500
410,726; 2986,924;    1,838;    0,318
411,316; 3223,728;    0,111;    0,773
411,906; 2933,951;   -0,253;   -0,409
412,497; 2643,087;   -1,070;   -0,045
413,087; 2882,978;   -1,980;   -0,227
413,677; 3006,047;   -0,707;    3,864
414,267; 2860,633;    0,656;    1,409
414,857; 2754,206;   -2,980;    4,227
415,448; 2857,578;    0,839;    0,500
416,038; 2629,724;    0,020;   -0,591
416,628; 2544,488;   -0,889;    0,409
417,218; 2433,156;    0,565;    3,318
417,808; 2531,820;    0,202;   -0,409
418,398; 2477,311;    0,020;    2,682
418,988; 2313,211;    2,020;    0,591
419,578; 2345,497;   -0,707;    1,409
420,168; 2439,870;   -1,343;   -0,955
420,757; 2317,883;   -1,343;   -1,500
421,347; 2005,129;    0,111;   -0,227
421,937; 1973,147;    2,292;    1,409
422,527; 2022,116;    0,838;   -0,773
423,116; 2015,156;   -0,253;   -0,045
423,706; 1835,184;   -1,889;    0,318
424,296; 1660,084;    1,384;    0,682
424,885; 1882,629;   -0,071;   -3,045
425,475; 1850,516;    1,474;   -2,864
426,065; 1655,902;   -0,980;   -0,318
426,654; 1516,062;   -0,435;   -0,318
427,244; 1793,020;    0,020;    1,409
427,833; 1616,716;    1,383;   -0,500
428,423; 1437,252;   -0,526;    1,136
429,012; 1549,466;   -0,344;   -1,136
429,601; 1519,562;   -1,344;    0,136
430,191; 1340,657;    1,292;    4,318
430,780; 1103,321;   -0,344;   -0,409
431,369; 1406,567;    0,746;   -0,045
431,959; 1327,985;   -1,254;    0,500
432,548; 1104,939;   -1,163;   -0,045
433,137;  975,903;   -1,254;   -1,318
433,726; 1128,589;    0,292;    0,500
434,315; 1023,780;   -0,526;    2,409
434,905; 1130,813;   -1,254;    1,409
435,494; 1159,026;    0,746;    0,955
436,083;  921,126;   -0,981;   -0,955
436,672;  939,908;    0,110;    0,500
437,261;  844,249;    0,292;   -1,955
437,850; 1195,353;    1,383;    0,682
438,439; 1211,581;    3,291;    1,955
439,027; 1295,618;    3,655;    1,773
439,616; 1197,468;    2,927;    1,227
440,205;  830,622;    0,200;   -2,136
440,794;  687,127;    2,109;   -0,045
441,383;  533,845;   -1,346;   -0,591
441,971;  422,827;   -2,436;    0,591
442,560;  433,696;    0,563;   -1,773
443,149;  294,649;    0,379;   -1,318
443,737;  353,347;   -0,074;   -2,318
444,326;  349,346;    0,018;    0,318
444,915;  395,173;   -1,982;    0,864
445,503;  392,850;   -2,891;   -0,318
446,092;  708,977;    0,382;    2,136
446,680;  606,228;    0,382;    0,318
447,269;  482,146;   -0,346;   -0,318
447,857;  418,328;    0,018;   -1,773
448,445;  331,301;    0,563;    1,318
449,034;  227,214;   -1,528;   -1,136
449,622;  210,855;   -1,073;    3,500
450,210;  591,960;    2,017;    2,227
450,799;  463,356;    0,290;   -0,591
451,387;  366,061;    1,381;   -0,591
451,975;  327,647;    2,654;    0,864
452,563;  418,715;    3,472;    2,318
453,151;  176,847;   -0,528;   -1,227
453,739;  230,911;   -1,347;    0,136
454,328;  358,456;    2,381;   -2,136
454,916;  263,197;    2,562;   -0,136
455,504;  264,343;    1,017;    1,227
456,092;  128,315;    0,017;   -1,591
456,679;   67,934;    1,472;    0,682
457,267;  537,752;    4,017;    1,045
457,855;  163,866;    1,017;    1,409
458,443;   -4,843;   -0,165;    1,682
459,031;  184,816;    0,108;    2,409
459,619;  134,361;   -1,801;    2,864
460,206;   13,889;    0,835;    2,045
460,794;   20,802;   -2,983;   -0,227
461,382;   77,335;   -0,529;   -0,864
461,970;   68,816;    1,198;    1,864
462,557;  -14,615;   -0,711;   -0,682
463,145;  123,666;   -3,165;   -1,682
463,732;  378,994;    2,016;   -1,045
464,320;  124,953;   -0,075;   -3,045
464,907;  275,244;    2,743;   -0,773
465,495;  184,795;    0,743;   -1,227
466,082;   93,244;   -1,984;   -0,045
466,670;  109,717;   -2,529;    1,227
467,257;   -0,328;   -1,711;    2,045
467,844;  108,744;   -0,075;    0,045
468,432;   80,158;    0,834;    3,500
469,019;   41,708;    0,925;   -1,773
469,606;  119,058;    0,470;    3,682
470,193;  154,645;   -1,439;    0,227
470,780;  106,390;   -2,075;    0,864
471,368;   28,686;   -1,257;   -0,773
471,955;  139,463;    1,379;   -0,682
472,542;   98,431;    0,652;   -1,136
473,129;  -19,087;   -0,166;    0,136
473,716;  -17,787;    1,470;    0,591
474,303;   19,313;    0,652;   -0,864
474,890;   25,923;   -1,439;   -0,500
475,477;  130,950;   -1,621;    0,409
476,064;   41,355;    1,106;   -1,591
476,650;  156,691;    0,288;    0,318
477,237;   59,327;   -0,258;    0,955
477,824;   34,841;   -1,076;    0,864
478,411;  -48,450;   -1,894;   -0,318
478,997;  -52,254;    0,560;   -0,773
479,584; -104,240;    1,196;   -0,409
480,171;   57,342;   -0,440;   -0,773
480,757;  138,587;    2,651;    0,773
481,344;   31,319;    0,469;    0,409
481,931;  -61,707;    1,105;    1,045
482,517;   63,410;   -1,258;    0,318
483,104;  135,001;    1,106;    2,864
483,690;   11,833;   -1,804;    0,045
484,276;  -14,672;   -0,895;    0,227
484,863;  199,633;    2,469;    1,136
485,449;   47,047;   -0,077;    0,318
486,035;    0,642;   -1,986;   -0,136
486,622;   79,547;   -0,895;    0,045
487,208;   14,942;    1,378;    1,500
487,794;  -69,212;    0,741;    0,318
488,380;  -66,630;    0,105;   -1,409
488,967;  -55,816;   -1,168;   -0,409
489,553;  -42,675;   -1,895;   -1,409
490,139;   36,575;    1,559;    0,773
490,725;  -33,130;    0,741;   -0,227
491,311;    5,634;    3,287;    3,045
491,897;   -6,807;   -0,986;    1,500
492,483;   -2,557;    0,105;    1,227
493,069;  432,634;    3,923;    0,864
493,655;  147,570;    1,650;    0,682
494,241;   18,879;    1,377;   -0,955
494,826;   33,956;    0,287;   -1,045
495,412;   99,716;    2,559;   -0,682
495,998;    3,675;   -0,805;   -0,318
496,584;   65,284;    0,377;    1,045
497,169;   85,393;    1,014;   -0,682
497,755;   24,071;    0,650;    1,227
498,341;  157,934;    0,559;    0,318
498,926;  278,248;    1,832;    1,955
499,512;   13,822;    1,286;    2,955
500,097;   18,212;    0,195;   -0,318
500,683;   50,249;   -0,350;    2,136
501,268;   -7,620;   -0,169;   -0,955
501,854;   18,585;   -0,169;    1,227
502,439;   18,531;   -0,624;   -1,773
503,024;   52,044;    0,195;    0,500
503,610;   86,790;   -0,078;   -0,682
504,195;   25,690;    0,558;    1,955
504,780;  147,762;    2,922;    1,227
505,366;  273,826;    3,013;    2,864
505,951;  213,977;    0,740;    1,045
506,536;  141,436;   -3,260;   -3,682
507,121;  251,231;    0,285;   -0,318
507,706;  211,972;    2,376;    1,045
508,291;  173,254;    2,649;    1,136
508,876;  228,446;   -0,988;    2,591
509,461;  395,713;   -0,169;   -0,773
510,046;  533,363;    0,194;    0,318
510,631;  596,377;   -0,351;   -0,773
511,216;  565,500;    2,467;   -0,500
511,801;  806,054;   -0,442;    2,591
512,386;  969,563;    0,740;    0,500
512,971; 1170,873;   -2,988;    0,955
513,555; 1402,663;   -0,897;   -1,500
514,140; 1649,364;   -0,442;   -3,136
514,725; 1938,659;   -0,715;   -1,136
515,309; 2131,996;   -0,533;    0,318
515,894; 2299,596;   -0,624;   -2,227
516,479; 2757,278;   -0,624;   -0,955
517,063; 2981,782;    0,376;    1,227
517,648; 3447,164;    1,012;   -1,136
518,232; 3565,055;   -0,261;   -1,409
518,817; 4233,578;   -0,079;    1,682
519,401; 4836,246;    2,194;    0,591
519,985; 4849,301;    1,103;    1,136
520,570; 5223,960;    0,830;   -1,955
521,154; 5877,992;    2,102;    0,591
521,738; 6417,301;   -2,352;    2,409
522,323; 7282,692;   -0,170;    1,682
522,907; 7472,983;    0,466;   -0,136
523,491; 7710,360;    0,557;    0,955
524,075; 8065,247;    2,284;    0,591
524,659; 8547,474;    1,466;    0,591
525,243; 8515,524;    1,739;    0,409
525,827; 9040,856;    0,648;   -0,045
526,411;10065,656;   -1,989;   -0,136
526,995;10565,488;   -0,352;    1,409
527,579;10491,020;   -0,443;   -1,045
528,163;11055,579;    0,375;   -1,500
528,747;11250,920;    2,466;   -0,773
529,331;11751,656;   -0,080;   -1,409
529,915;12147,802;    1,738;    0,955
530,499;12319,588;   -0,807;    1,227
531,082;12244,284;   -0,534;    1,591
531,666;11936,457;    1,374;    0,773
532,250;12723,716;    1,284;    2,682
532,833;13149,220;    0,920;    2,773
533,417;13171,898;   -1,807;    0,864
534,001;13287,289;    1,647;   -0,318
534,584;14051,871;    0,374;    0,500
535,168;14004,953;    0,465;    1,409
535,751;14170,311;    0,647;    0,045
536,334;13735,352;   -0,898;   -0,409
536,918;14363,098;    0,011;    1,591
537,501;14556,889;   -0,899;    1,318
538,085;14632,466;   -0,444;    1,045
538,668;14870,444;    0,829;    2,409
539,251;15249,330;    1,829;    3,773
539,834;15311,130;    0,101;    0,773
540,418;15308,744;   -1,990;    4,318
541,001;15426,767;   -0,990;    1,773
541,584;15440,222;    2,101;    2,227
542,167;15178,794;    1,374;    2,955
542,750;15344,412;    1,919;   -0,773
543,333;15000,531;    0,555;    2,136
543,916;15828,099;    0,192;    2,500
544,499;16475,022;   -1,354;    0,227
545,082;16492,094;    1,374;    3,591
545,665;16631,544;    1,919;    1,500
546,248;16981,895;    1,010;   -0,318
546,830;16710,749;   -0,445;    1,955
547,413;17160,004;    1,010;   -0,773
547,996;17703,213;    0,555;    0,500
548,579;17490,986;    0,919;    0,955
549,161;17314,786;    1,828;    2,682
549,744;17119,104;   -0,809;    0,409
550,326;17613,295;   -0,809;   -1,136
550,909;17422,236;    2,737;    0,591
551,492;17847,086;   -0,263;    0,227
552,074;17637,487;   -0,173;   -1,318
552,657;18190,732;    2,373;    0,045
553,239;17933,209;   -0,173;   -0,773
553,821;17846,845;   -1,082;    1,045
554,404;17408,605;    1,282;    1,136
554,986;17752,478;    0,464;    1,045
555,568;18405,591;    1,191;   -0,955
556,151;17612,750;    1,191;   -0,227
556,733;17822,909;   -0,264;   -0,864
557,315;18264,692;    0,100;    0,500
557,897;18104,823;    0,554;   -0,500
558,479;18193,682;   -1,991;    1,318
559,061;18359,274;   -0,719;   -0,864
559,643;18713,633;   -0,264;    0,045
560,225;19086,482;    1,645;    2,864
560,807;19107,905;    0,918;    0,318
561,389;18626,537;    0,554;    2,318
561,971;19402,892;    0,463;    2,136
562,553;19174,583;   -1,628;    1,591
563,135;19344,510;   -0,537;    1,136
563,717;18912,746;    3,372;    1,136
564,298;19625,733;    3,645;   -0,045
564,880;19391,806;    0,645;   -1,409
565,462;19560,170;    0,645;    1,318
566,043;20716,051;   -0,446;    2,318
566,625;20267,501;    1,918;    1,227
567,207;20103,129;    1,099;    1,682
567,788;21255,424;   -1,264;    1,500
568,370;22093,688;    1,917;   -0,500
568,951;21923,788;    0,190;    0,227
569,533;22810,752;   -0,628;   -0,500
570,114;23266,397;   -0,446;    0,682
570,695;23809,120;   -0,174;   -1,318
571,277;24263,629;   -0,265;   -1,682
571,858;25029,615;    2,008;   -1,136
572,439;25944,888;    1,554;   -1,045
573,021;26116,252;    2,099;   -2,773
573,602;26619,466;   -1,265;    0,318
574,183;27562,948;   -2,083;    2,227
574,764;27687,902;   -1,629;    0,409
575,345;28263,225;    0,917;   -0,136
575,926;28861,202;   -0,356;    0,136
576,507;28820,734;    1,099;   -0,227
577,088;29941,429;    3,099;    1,682
577,669;29975,757;    0,735;    1,955
578,250;30735,311;    0,644;   -1,045
578,831;31393,525;   -1,356;   -2,227
579,412;31657,643;   -0,810;    0,955
579,993;32582,989;    1,008;    0,227
580,573;32870,207;   -0,629;   -0,955
581,154;31898,157;    0,735;   -0,591
581,735;32727,539;    0,644;    0,773
582,315;32264,993;   -0,629;    2,136
582,896;32504,175;   -0,174;    1,227
583,477;31997,103;    0,189;    1,227
584,057;32133,230;    0,553;    0,955
584,638;32460,352;    2,553;    2,318
585,218;32466,039;   -0,538;    2,682
585,799;32666,216;    0,281;   -0,227
586,379;32611,702;    0,372;    1,591
586,959;31410,102;    0,735;    0,318
587,540;30719,962;   -0,629;    2,227
588,120;30240,576;    1,007;   -0,045
588,700;29251,412;    2,553;    2,136
589,281;29571,871;    0,462;   -0,955
589,861;29495,203;    0,099;   -1,682
590,441;29325,516;    2,371;   -2,682
591,021;28265,075;   -0,265;   -2,591
591,601;28488,338;   -0,537;    0,500
592,181;28542,534;   -0,719;   -0,773
592,761;27839,807;    0,007;    1,409
593,341;27696,066;   -0,901;    0,045
593,921;27704,125;   -0,265;    1,591
594,501;27630,952;   -0,538;    1,318
595,081;27415,057;    0,917;   -0,318
595,661;27788,530;   -1,447;    0,955
596,240;28363,643;   -0,537;    0,136
596,820;28042,315;    0,372;    1,955
597,400;28169,639;    2,008;    0,773
597,980;28368,457;    2,008;    1,045
598,559;28416,716;    2,735;   -0,227
599,139;28153,107;   -0,174;   -1,227
599,718;28009,107;   -0,174;   -0,409
600,298;28279,657;    0,735;    0,682
600,877;28521,743;    2,917;    1,409
601,457;28761,779;    2,281;    1,136
602,036;28712,243;    0,190;    2,045
602,616;28919,634;    0,644;    1,682
603,195;29281,229;   -0,355;    3,500
603,774;28766,406;   -0,901;    2,045
604,354;28628,565;    0,826;   -0,500
604,933;28129,507;    0,463;    1,864
605,512;28247,547;    3,554;    0,591
606,091;28323,620;   -0,537;    3,773
606,671;29175,570;    0,281;    0,773
607,250;28258,306;    1,644;    3,136
607,829;28472,838;    2,372;    3,227
608,408;28343,761;    1,190;    2,591
608,987;27376,347;    1,281;    3,409
609,566;27686,807;   -1,265;   -2,500
610,145;27777,788;   -1,082;    0,682
610,723;28188,474;    4,372;    6,864
611,302;27433,851;   -0,446;    1,682
611,881;26977,979;    5,008;   11,227
612,460;27795,869;    1,645;    3,955
613,039;28208,810;   -0,082;    2,045
613,617;26918,615;    1,736;    4,773
614,196;27156,356;    1,099;    1,227
614,775;27493,042;    1,009;    2,409
615,353;27381,596;    0,736;    0,864
615,932;27133,215;    0,100;    2,409
616,510;27694,583;    0,554;    0,591
617,089;27252,651;    7,100;   17,591
617,667;27031,219;    2,372;    6,136
618,246;26882,196;   -1,537;    1,318
618,824;27050,183;   -3,355;   -0,955
619,402;26578,460;   -2,900;   -1,773
619,981;27127,764;   -0,173;   -1,045
620,559;26928,782;    0,009;    1,682
621,137;26453,051;   -0,718;    1,864
621,715;26459,737;   -1,173;   -0,682
622,293;26400,469;   -0,537;   -0,773
622,871;26821,964;   -0,718;    0,500
623,450;26402,678;    0,373;   -0,864
624,028;26339,264;    0,191;   -0,955
624,606;25930,337;   -1,718;    1,682
625,183;26359,423;   -1,536;   -1,136
625,761;25962,418;    1,009;    1,136
626,339;26254,055;    1,373;    2,591
626,917;26621,141;   -0,172;   -0,045
627,495;26639,914;   -0,354;    1,318
628,073;26096,241;   -0,263;    2,864
628,650;25834,409;    0,100;    2,136
629,228;26257,055;    0,373;    4,409
629,806;25685,509;    2,282;    1,136
630,383;25962,127;    1,464;   -0,318
630,961;25722,541;    2,555;   -0,955
631,539;25488,723;    2,464;    0,227
632,116;24809,177;   11,373;   15,409
632,694;25368,500;    2,555;    6,500
633,271;25698,659;    0,828;    2,682
633,848;25594,813;    1,828;    2,045
634,426;25639,763;   -1,081;    1,773
635,003;24779,476;    1,101;   -0,409
635,580;25129,094;    1,192;    3,682
636,158;25705,463;    3,737;    1,227
636,735;25659,509;    0,555;   -0,500
637,312;25800,623;   -0,809;   -0,682
637,889;25861,527;   -4,354;   -0,682
638,466;25328,703;   -3,990;   -0,409
639,043;25359,694;    2,101;   -1,136
639,620;25675,112;   -2,262;   -0,955
640,197;26010,705;    1,100;    1,682
640,774;26162,670;   -0,172;    1,136
641,351;26584,818;    0,737;    1,136
641,928;25919,329;   -0,627;    1,409
642,505;25571,113;    0,828;   -0,500
643,082;25703,079;   -1,718;    1,227
643,658;24759,317;   -0,718;    1,500
644,235;25487,010;    1,191;    2,500
644,812;25809,430;    1,918;    0,773
645,388;25541,669;   -0,991;    1,409
645,965;25673,089;   -0,809;    1,682
646,542;25730,509;   -1,445;   -0,227
647,118;25648,748;    1,009;   -0,955
647,695;25974,622;   -0,263;    1,136
648,271;25897,770;   -0,536;    0,500
648,848;26199,190;    0,736;    2,227
649,424;26067,247;    0,827;    1,318
650,000;25821,849;   -0,354;   -1,045
650,577;25595,724;   -0,627;   -0,955
651,153;26067,871;   -1,809;    0,955
651,729;27114,746;    1,191;    0,864
652,305;27372,984;    0,645;    2,773
652,881;32040,768;   -0,082;    1,136
653,458;39062,370;    1,100;    0,227
654,034;42761,518;    0,282;    1,591
654,610;44227,847;    0,554;    0,773
655,186;45522,267;    0,645;    3,045
655,762;45161,779;   -0,991;    0,409
656,338;45151,199;    0,100;    0,136
656,913;46096,165;   -0,082;    0,409
657,489;45286,948;    0,827;   -0,318
658,065;45266,460;   -0,173;   -1,591
658,641;45938,516;   -0,900;   -0,864
659,217;45211,027;   -0,991;    0,409
659,792;44595,993;    0,645;   -0,409
660,368;44856,141;   -2,173;   -0,682
660,944;44472,470;   -2,082;    1,227
661,519;39728,254;   -0,628;    0,409
662,095;33670,947;   -1,719;    0,591
662,670;29158,640;    1,281;   -0,136
663,246;28070,969;    1,009;   -0,409
663,821;27403,389;    0,281;    1,682
664,396;26858,264;    0,009;    1,864
664,972;27125,957;    0,009;   -0,500
665,547;27456,014;    1,372;    0,136
666,122;27497,161;   -1,082;    0,318
666,698;27805,036;   -0,173;    0,318
667,273;27142,093;   -0,173;    0,136
667,848;27937,422;    2,372;    1,500
668,423;27725,660;    2,190;    2,318
668,998;28290,353;    2,827;   -0,682
669,573;28887,865;   -3,264;   -1,500
670,148;28670,376;   -1,446;   -0,682
670,723;28493,705;   -1,810;    0,318
671,298;28906,398;    2,372;    1,045
671,873;29040,909;   -0,082;   -0,136
672,448;28994,238;    0,645;    0,136
673,023;29249,477;   -1,992;   -0,227
673,597;29656,443;    0,827;    2,318
674,172;29428,045;   -0,355;    0,318
674,747;28922,556;    0,372;   -1,045
675,321;28760,340;   -0,628;    3,318
675,896;28325,033;    0,645;    1,045
676,471;29327,635;    2,645;    1,591
677,045;29094,600;   -1,264;    0,682
677,620;29125,748;    0,190;    1,136
678,194;29444,986;   -2,628;    1,136
678,769;28994,498;   -1,083;   -0,318
679,343;29227,554;   -0,628;    1,773
679,917;29087,065;   -1,446;    1,955
680,492;29252,940;    0,826;    3,227
681,066;29365,633;    3,372;    0,409
681,640;29367,781;    1,463;   -0,318
682,214;30165,837;    0,735;    0,500
682,788;29739,348;   -1,356;   -0,773
683,363;29713,132;   -1,810;    1,682
683,937;29379,371;   -1,719;   -0,318
684,511;30136,609;    0,463;   -0,591
685,085;29845,211;   -1,356;    0,318
685,659;29554,722;   -2,538;    0,864
686,232;29805,597;   -0,356;   -0,318
686,806;29564,926;   -0,901;    0,409
687,380;30254,256;   -0,174;    0,591
687,954;30442,676;   -1,174;    1,136
688,528;30095,460;   -0,719;    1,955
689,101;30878,880;   -3,992;    1,045
689,675;30498,755;   -0,356;   -0,136
690,249;29906,175;   -0,719;    0,409
690,822;30178,414;    0,280;    0,318
691,396;30277,470;   -0,265;    1,227
691,969;29696,072;    1,280;    0,136
692,543;30187,402;   -0,447;   -1,955
693,116;29851,822;   -0,265;   -1,409
693,690;29688,333;    0,099;    0,500
694,263;30213,571;   -1,083;    2,955
694,836;30291,719;    1,371;    3,591
695,410;28946,139;   -0,265;    1,773
695,983;29316,287;    0,189;    0,591
696,556;29375,252;   -0,447;   -1,045
697,129;29760,400;   -0,356;    1,409
697,703;29377,638;   -1,629;    1,955
698,276;29394,786;    1,462;   -0,773
698,849;29243,388;    1,280;    1,409
699,422;29659,354;   -1,083;    0,591
699,995;29292,410;    0,007;    0,136
700,568;29812,921;   -0,629;    3,045
701,140;29842,978;   -2,811;    1,682
701,713;29534,489;   -0,174;    2,409
702,286;29260,364;   -0,538;    0,864
702,859;29189,148;   -0,902;   -0,591
703,432;28290,295;    0,825;    0,682
704,004;28788,261;    0,462;    0,318
704,577;28665,590;   -0,629;    0,136
705,150;29276,465;    0,189;    2,500
705,722;29024,885;   -0,356;   -3,227
706,295;28826,306;   -0,175;   -0,591
706,867;28689,180;   -0,175;    1,955
707,440;28857,328;   -1,720;   -0,409
708,012;29197,839;    0,462;    0,591
708,584;29059,441;    2,462;    0,227
709,157;29339,134;    1,825;   -0,591
709,729;29040,736;    2,280;    2,045
710,301;29865,429;    0,734;    0,045
710,874;29838,759;   -1,447;   -0,227
711,446;28721,724;    0,371;    0,864
712,018;28633,144;    0,098;    0,500
712,590;28376,383;   -1,993;    1,682
713,162;28900,803;    0,825;    1,318
713,734;29136,132;    1,825;   -2,045
714,306;29018,098;   -1,902;   -0,409
714,878;27699,882;    0,825;    0,864
715,450;28499,120;    0,643;    0,864
716,022;28757,268;    1,552;    1,318
716,593;28927,325;    0,189;    0,591
717,165;28895,381;   -3,175;   -1,227
717,737;28578,256;    0,280;    0,409
718,309;28216,404;    0,280;   -0,045
718,880;28212,187;   -0,539;   -1,409
719,452;28381,971;   -0,175;   -1,591
720,024;27967,301;    0,734;   -0,591
720,595;28542,903;   -2,902;    0,955
721,167;28138,777;    0,370;   -2,045
721,738;27654,743;   -0,812;   -1,045
722,309;27640,527;   -0,993;   -1,227
722,881;27352,220;   -1,357;    0,773
723,452;28024,186;   -2,630;    2,864
724,023;28245,697;   -0,721;    2,682
724,595;27987,208;    0,007;    0,682
725,166;27729,901;    0,007;   -0,409
725,737;27379,139;    1,734;    0,227
726,308;27455,105;   -0,266;    0,318
726,879;27929,707;   -1,630;    1,227
727,450;27755,764;    0,552;   -0,045
728,021;27781,457;    3,097;    0,682
728,592;27522,150;    0,734;    0,500
729,163;27832,843;    0,643;   -0,136
729,734;27869,354;    0,188;   -0,227
730,305;28241,138;    1,734;    0,136
730,876;28565,103;    0,188;    2,955
731,447;28299,615;    2,188;    2,682
732,017;28413,944;    1,097;    1,864
732,588;27875,364;    0,734;    1,227
733,159;28044,512;    0,643;   -1,045
733,729;27894,205;    0,006;    0,409
734,300;27153,352;    0,915;    0,864
734,870;27592,772;    3,461;    0,591
735,441;28160,375;    0,370;   -0,591
736,011;27934,067;    0,643;   -1,591
736,582;27842,033;   -0,812;    0,045
737,152;27356,090;   -1,721;   -2,045
737,722;27768,237;   -0,267;   -0,682
738,293;27482,203;   -1,358;    1,318
738,863;27355,623;    2,461;    2,318
739,433;27134,225;    5,279;    0,318
740,003;27771,009;   -0,994;   -0,682
740,573;27206,975;    2,097;   -1,591
741,143;27155,213;   -1,085;    0,318
741,713;27914,815;    1,188;   -0,500
742,283;27657,781;    0,915;    1,591
742,853;27429,292;    1,915;    1,591
743,423;26887,349;    1,733;    0,045
743,993;27039,224;   -0,358;    1,500
744,563;26354,462;    0,097;   -0,864
745,133;26282,246;   -0,812;   -0,864
745,702;27019,939;   -0,267;    1,773
746,272;26250,268;   -0,176;    0,591
746,842;25978,416;   -1,358;   -0,591
747,411;26418,927;   -0,267;   -0,318
747,981;26604,802;    0,097;    0,500
748,551;26656,677;    2,278;   -1,045
749,120;26523,097;    0,642;   -0,227
749,690;26882,972;   -0,631;    2,409
750,259;27215,846;    1,369;    2,955
750,828;27116,630;    1,551;   -1,955
751,398;27385,596;    1,278;   -0,045
751,967;26908,471;    2,187;    0,409
752,536;27133,073;   -0,813;   -0,227
753,105;27512,766;    0,096;    0,227
753,675;27334,277;    0,096;    1,773
754,244;27312,879;   -0,904;    3,591
754,813;27316,299;    0,551;    1,227
755,382;26901,174;    0,460;    0,955
755,951;27449,503;    1,551;    3,682
756,520;26952,469;   -0,085;    1,864
757,089;27514,435;    0,278;    0,500
757,658;27657,400;    1,733;    1,227
758,227;27613,002;    1,096;    0,318
758,795;28019,786;    1,187;    1,136
759,364;28247,752;   -0,086;   -0,591
759,933;27239,081;   -1,176;   -0,045
760,501;26742,229;    0,733;   -1,318
761,070;27179,922;   -2,813;   -1,409
761,639;27873,069;   -1,904;    1,318
762,207;27249,671;    1,551;   -0,955
762,776;27195,092;    0,369;    0,864
763,344;27185,148;   -0,995;    0,591
763,913;26286,478;   -0,722;    1,409
764,481;27074,716;    1,005;   -0,136
765,049;26802,045;   -1,358;    1,409
765,618;26658,466;   -0,086;    0,318
766,186;26735,613;    0,278;    0,136
766,754;26970,033;    0,005;    1,864
767,322;25935,545;   -1,995;    0,409
767,890;25945,147;   -0,722;   -1,773
768,459;26358,658;   -2,177;   -0,318
769,027;26533,169;    1,641;    3,409
769,595;25448,498;    3,278;    2,591
770,163;25903,191;    3,823;    2,955
770,730;25649,702;    0,732;   -0,136
771,298;25479,032;    0,187;   -1,409
771,866;25564,179;   -1,541;    4,955
772,434;25968,327;   -0,631;   -1,864
773,002;26123,474;    0,005;    0,682
773,569;25733,985;    0,914;    1,682
774,137;25601,042;   -0,268;   -0,045
774,705;26360,644;    0,278;   -0,136
775,272;25868,973;    0,641;    0,682
775,840;25625,666;   -0,177;    2,682
776,407;25190,723;    0,277;    1,955
776,975;24763,689;   -0,632;    0,318
777,542;25760,109;   -1,086;   -0,045
778,110;25579,893;   -1,268;   -0,045
778,677;25320,131;   -2,359;   -0,864
779,244;25048,006;    2,186;    1,045
779,812;25105,335;    1,823;    0,864
780,379;24986,210;    0,005;    1,136
780,946;25269,358;    1,005;   -0,773
781,513;25570,142;   -1,450;    0,318
782,080;24958,926;   -0,086;    2,864
782,647;25695,982;   -0,268;    3,045
783,214;25257,130;   -0,177;    3,864
783,781;24885,277;   -0,723;   -0,682
784,348;24773,061;   -0,632;    1,500
784,915;25202,027;   -3,177;    0,318
785,482;24993,174;    1,368;    2,591
786,049;25419,504;    0,186;   -0,591
786,615;25498,742;    0,277;   -0,955
787,182;25248,980;    0,186;   -0,682
787,749;24893,492;   -2,814;    1,409
788,315;24234,730;   -1,632;   -0,409
788,882;24564,605;    1,550;   -1,227
789,448;25285,752;    1,732;   -0,955
790,015;25319,536;    1,095;    3,227
790,581;24845,411;    1,459;    0,227
791,148;24723,013;    0,641;    1,045
791,714;24961,070;   -0,541;    3,136
792,280;24609,490;    0,186;    1,591
792,847;24179,819;    0,550;    2,500
793,413;24727,694;   -0,269;   -0,318
793,979;24287,387;    3,459;   -1,318
794,545;24420,625;    4,459;    2,682
795,111;23782,864;    2,186;    1,318
795,678;23937,375;    0,731;   -1,682
796,244;23587,432;    3,368;    0,136
796,810;24092,397;    1,731;    0,773
797,375;23857,454;    0,549;   -2,136
797,941;23845,147;   -0,541;    0,591
798,507;24053,294;   -0,451;   -0,955
799,073;23615,442;   -0,360;    0,591
799,639;23669,499;   -2,632;    3,136
800,205;23721,828;    0,095;    2,682
800,770;23252,612;    0,640;    1,773
801,336;23357,396;    1,368;   -0,955
801,901;23033,089;    4,549;    3,136
802,467;23576,782;   -0,542;    2,045
803,033;22933,475;   -0,087;    0,864
803,598;23114,804;    1,913;   -1,045
804,163;23124,133;    1,095;   -0,318
804,729;23082,099;   -0,178;    1,136
805,294;23526,156;    0,822;    2,227
805,859;23322,121;    0,731;   -0,409
806,425;22734,178;    1,186;    2,682
806,990;22385,689;    2,186;    4,318
807,555;22947,018;   -1,451;    2,591
808,120;22832,257;    0,822;   -0,409
808,685;22855,950;    0,185;   -2,500
809,250;22358,461;    0,004;   -0,500
809,815;22701,154;    1,913;    0,682
810,380;23216,210;   -0,269;    1,591
810,945;23751,358;   -1,087;    2,045
811,510;22898,324;    2,094;    1,591
812,075;22623,017;   -0,633;   -1,409
812,640;22666,073;    2,003;    1,409
813,204;22757,039;    0,822;   -0,227
813,769;23204,277;    2,094;   -0,045
814,334;22635,152;    0,458;    0,864
814,898;22649,300;    0,367;    0,591
815,463;22527,084;    1,276;   -0,773
816,027;22513,504;   -0,724;   -2,318
816,592;22601,560;    0,640;   -2,045
817,156;22102,253;    2,094;    1,136
817,721;22013,037;    4,276;    2,318
818,285;21966,639;    2,912;    1,500
818,849;22567,423;   -1,451;    1,682
819,414;22473,662;   -0,269;    2,955
819,978;22019,809;   -1,269;    1,773
820,542;22657,229;    2,003;    0,500
821,106;22334,922;   -0,815;    0,682
821,670;22414,706;   -0,815;    2,591
822,234;22152,854;   -0,270;    1,409
822,798;21558,547;    0,003;    0,500
823,362;21518,058;   -0,633;    4,227
823,926;20812,660;    0,094;    1,136
824,490;21031,898;   -0,997;   -0,682
825,054;21472,864;   -0,088;   -1,136
825,618;21149,012;   -1,542;   -1,500
826,181;21052,886;    0,458;   -1,318
826,745;21000,034;    1,367;   -1,045
827,309;21345,545;    1,185;    1,318
827,872;20675,329;    1,367;    0,955
828,436;21678,477;    1,185;   -0,773
828,999;21702,897;   -0,997;    1,227
829,563;20456,226;   -0,179;    1,136
830,126;20316,192;   -0,179;   -0,591
830,690;20351,339;   -1,997;    2,864
831,253;19911,487;   -0,543;    2,227
831,816;20026,998;   -1,906;    0,500
832,380;19941,327;    0,185;    0,864
832,943;20201,838;   -1,361;   -0,500
833,506;19651,804;    2,639;   -1,227
834,069;20405,861;    3,912;   -0,955
834,632;20480,826;    1,730;    1,318
835,195;20406,156;    1,003;    0,955
835,758;19582,849;   -0,997;    1,955
836,321;19447,178;    0,730;   -1,045
836,884;19549,780;   -0,725;   -0,955
837,447;19588,928;   -2,816;    1,773
838,010;19876,257;    0,366;    3,227
838,573;20144,768;   -1,179;    0,773
839,135;20094,188;   -1,361;   -0,955
839,698;19546,518;    1,275;    0,409
840,261;19043,756;    1,003;   -0,227
840,823;18897,267;   -0,543;    0,864
841,386;19226,779;   -0,452;   -2,409
841,948;19090,108;   -1,361;    1,773
842,511;18820,983;    0,912;    1,682
843,073;19031,403;    1,912;    0,227
843,636;18786,459;   -0,361;   -0,227
844,198;18740,243;    0,911;    0,591
844,760;18860,845;    1,093;    1,955
845,322;18516,447;    0,548;    1,136
845,885;18889,686;    0,730;    0,591
846,447;19341,652;   -1,998;    0,227
847,009;18918,981;    1,911;   -0,682
847,571;19249,674;    0,820;   -2,045
848,133;19385,458;   -1,089;   -1,864
848,695;19192,969;   -0,543;    1,409
849,257;18708,026;   -1,089;   -1,682
849,819;18844,173;   -0,998;   -0,409
850,381;18923,412;   -0,725;   -0,864
850,942;19281,195;    1,093;   -0,591
851,504;19269,343;    1,184;    0,227
852,066;19287,309;    1,275;   -1,591
852,628;18775,456;   -0,180;    1,955
853,189;18351,604;    1,638;    2,682
853,751;18518,751;   -0,907;    1,409
854,312;18292,717;   -0,453;   -1,682
854,874;18761,592;   -2,089;   -0,773
855,435;19323,648;   -0,907;   -1,682
855,997;19511,159;   -1,816;   -0,136
856,558;18759,398;    0,366;    1,773
857,119;18883,000;    0,820;    2,864
857,681;18542,147;    0,002;    0,318
858,242;18580,113;    1,911;   -2,136
858,803;19011,897;    0,456;   -0,773
859,364;19624,863;    0,184;   -4,773
859,925;18972,465;   -2,453;   -0,955
860,486;18825,340;   -0,453;   -0,955
861,047;18505,851;   -0,544;   -1,227
861,608;18325,362;   -1,089;   -0,773
862,169;18493,873;    0,638;   -0,045
862,730;18298,475;    0,456;    1,409
863,291;18506,441;   -0,635;   -0,500
863,852;18874,861;   -0,635;    1,955
864,412;18325,190;   -0,271;   -0,864
864,973;16911,883;   -0,089;    0,500
865,534;16742,213;   -1,726;    0,227
866,094;18292,451;    1,820;    0,227
866,655;17978,871;    1,274;    3,318
867,215;18214,110;    0,274;    0,136
867,776;18022,348;    0,547;   -0,136
868,336;18125,768;   -1,453;    0,136
868,897;17639,643;    2,638;    1,682
869,457;17377,609;    1,365;    0,318
870,017;17564,484;    0,547;   -1,227
870,578;18102,359;   -0,817;    0,773
871,138;17821,142;   -2,089;   -0,955
871,698;17330,835;   -0,817;   -1,318
872,258;17219,165;   -0,453;   -2,864
872,818;17584,040;    2,729;    0,045
873,378;17588,642;    0,638;    1,045
873,938;17078,244;    0,547;    0,500
874,498;17436,755;    0,274;   -1,955
875,058;17359,357;    2,183;    1,773
875,618;17204,686;    1,910;   -2,682
876,177;17172,834;    1,274;    0,136
876,737;16746,890;   -0,090;    1,955
877,297;16767,220;    0,183;    1,955
877,856;16756,640;   -0,362;    0,318
878,416;16727,424;    1,183;   -0,136
878,976;16915,389;   -1,817;    0,409
879,535;17107,628;    0,092;    3,136
880,095;16826,048;   -0,544;    0,045
880,654;16989,559;   -1,090;    1,318
881,213;17067,980;    2,456;    1,500
881,773;16708,309;    2,637;    2,682
882,332;17059,002;    3,365;    5,136
882,891;16881,786;    3,092;    2,136
883,451;17363,842;   -1,272;    1,682
884,010;16783,263;   -2,908;   -0,409
884,569;16898,410;   -0,999;   -0,045
885,128;17047,467;    2,819;   -1,864
885,687;17106,160;    4,455;    0,682
886,246;16793,853;    1,455;    2,136
886,805;16568,182;    2,455;    2,045
887,364;16876,875;   -0,999;   -0,500
887,922;17245,750;   -1,181;    0,045
888,481;16700,170;   -1,545;    0,591
889,040;16983,227;    1,183;    2,136
889,599;17698,374;    2,455;    1,409
890,157;17769,340;    1,455;    2,409
890,716;17450,306;   -0,090;    0,227
891,274;17273,908;    0,092;   -1,136
891,833;17669,510;    1,546;    0,864
892,391;17559,566;   -0,454;    0,500
892,950;17624,805;    1,819;   -0,773
893,508;18013,043;    0,455;   -0,409
894,067;17355,463;    0,637;    0,136
894,625;17265,338;   -0,636;   -1,500
895,183;17494,940;   -0,363;   -0,682
895,741;17374,451;    1,728;   -1,773
896,299;17190,417;   -0,545;   -2,409
896,858;17410,928;    0,819;   -1,591
897,416;17513,803;    2,728;   -1,318
897,974;17279,405;    1,819;    0,318
898,532;17435,825;    6,091;    2,682
899,089;17303,064;    2,091;   -0,682
899,647;17375,939;   -1,454;    1,318
900,205;17089,086;    1,182;    1,045
900,763;17288,324;   -0,454;    0,227
901,321;17307,472;    2,364;   -1,409
901,878;16743,801;   -1,000;   -0,773
902,436;16598,858;   -1,363;    1,318
902,994;16972,096;    4,728;    3,682
903,551;16408,153;    0,728;    0,409
904,109;16814,482;    0,182;   -1,409
904,666;16390,812;    2,455;    1,045
905,224;16208,505;    0,182;   -0,409
905,781;15965,379;    0,727;   -0,318
906,338;16057,800;   -1,363;    1,045
906,895;15975,038;    0,637;    2,045
907,453;15905,731;    1,727;    1,136
908,010;15945,060;   -0,909;    0,409
908,567;15598,481;    1,273;    0,591
909,124;15079,083;    0,364;   -1,500
909,681;15155,048;   -2,909;    0,682
910,238;15271,014;    0,636;   -1,318
910,795;15604,434;   -0,273;   -1,136
911,352;15222,889;   -2,909;   -2,682
911,909;14652,343;   -1,364;   -0,864
912,466;15111,162;   -3,182;    1,500
913,022;14713,707;   -1,636;    0,500
913,579;15029,434;   -0,909;    2,045
914,136;14734,525;    1,636;    0,955
914,692;15096,616;    0,091;   -1,227
915,249;14676,616;    1,455;    0,409
915,806;14876,253;    0,182;    1,955
916,362;14654,071;    1,909;    1,864
916,918;14221,980;    2,000;    1,045
917,475;14179,889;   -1,182;    0,955
918,031;14247,889;    3,364;   -0,045
918,587;13677,253;   -0,909;   -0,318
919,144;13885,798;   -2,273;    0,227
919,700;14218,071;    1,727;    0,773
920,256;13808,980;    0,727;    0,045
920,812;13451,071;   -0,727;   -1,045
921,368;13473,343;   -1,727;   -1,045
921,924;13090,980;    0,182;   -0,136
922,480;12694,616;   -0,545;    1,227
923,036;13315,253;    1,273;    1,955
923,592;13206,616;    0,455;    0,318
924,148;13113,253;    0,455;   -0,955
924,704;12405,162;   -1,364;   -0,409
925,259;12682,525;   -0,273;    0,591
925,815;12467,980;    1,455;    0,500
926,371;11961,434;    2,909;    1,409
926,926;11855,071;    2,091;    0,591
927,482;11492,798;   -1,364;    0,773
928,037;11383,980;    0,909;    2,045
928,593;11666,343;    1,636;    1,045
929,148;11482,980;   -1,818;   -1,500
929,704;11002,162;   -1,455;   -0,500
930,259;11209,798;    0,091;   -0,136
930,814;10251,616;   -0,818;    1,955
931,369; 9952,162;    1,091;   -0,773
931,925; 9851,616;   -0,091;    0,136
932,480; 9771,616;   -2,818;   -2,591
933,035; 9639,798;    0,545;   -0,318
933,590; 9395,434;    0,364;   -1,773
934,145; 9029,162;   -1,364;   -0,318
934,700; 9370,889;    0,455;   -0,591
935,255; 9179,889;   -0,091;    0,045
935,809; 8459,616;    3,182;    0,864
936,364; 7550,980;   -0,455;   -0,136
936,919; 7518,525;    0,455;   -1,773
937,474; 7415,616;    1,455;    0,136
938,028; 7187,980;   -1,636;    1,136
938,583; 6649,980;    1,818;    4,682
939,138; 6936,616;    2,091;    2,136
939,692; 6372,343;    1,636;   -1,136
940,247; 6051,434;   -0,727;   -1,045
940,801; 5601,343;   -0,636;    0,227
941,355; 5485,980;   -0,364;    2,591
941,910; 5130,616;   -0,273;   -2,136
942,464; 5248,071;   -0,818;   -0,318
943,018; 5041,798;    1,000;   -0,227
943,572; 4971,162;    2,545;   -0,682
944,126; 4405,980;    0,091;   -0,409
944,681; 4294,980;    3,091;    0,227
945,235; 4283,253;    1,000;   -0,591
945,789; 4210,616;    0,364;   -1,864
946,342; 4308,253;    0,455;   -0,591
946,896; 4142,616;   -2,273;    0,955
947,450; 3897,525;    1,545;   -0,227
948,004; 4065,253;    1,727;   -0,045
948,558; 4072,162;    0,273;   -0,864
949,111; 3998,707;   -0,273;   -0,318
949,665; 4030,162;    1,636;   -0,682
950,219; 3910,434;   -0,091;   -1,045
950,772; 3985,889;   -1,909;    1,864
951,326; 3889,616;    0,545;   -0,955
951,879; 3991,707;    0,727;   -2,318
952,433; 4003,889;    0,000;    2,227
952,986; 3825,616;    2,909;    0,682
953,539; 3810,616;   -0,273;    0,591
954,093; 3743,707;    0,545;   -1,318
954,646; 3866,889;    0,909;    1,318
955,199; 3689,343;    0,000;   -0,500
955,752; 3582,071;   -0,455;    1,773
956,305; 3521,707;   -0,091;    2,955
956,858; 3676,162;    0,818;   -0,318
957,411; 3866,707;   -0,545;    2,136
957,964; 3709,343;    1,364;    2,136
958,517; 3694,798;   -1,545;    3,136
959,070; 3518,525;   -0,455;    1,955
959,623; 3592,434;    1,091;    1,500
960,176; 3364,889;    1,727;    2,045
960,728; 3354,434;   -2,727;    0,773
961,281; 3385,343;    0,545;    0,500
961,834; 3438,253;   -0,909;    0,864
962,386; 3336,889;    1,727;    1,045
962,939; 3296,343;    0,364;   -0,318
963,491; 3421,434;    0,455;    1,136
964,043; 3294,980;    1,182;    2,409
964,596; 3400,889;   -1,000;    2,227
965,148; 3248,434;   -1,000;    1,773
965,700; 3183,980;    1,091;   -0,227
966,253; 3335,889;   -0,636;    0,318
966,805; 3161,616;   -2,273;    0,773
967,357; 3220,162;    1,091;   -1,500
967,909; 3189,343;    0,455;   -1,227
968,461; 3293,162;    0,545;    3,136
969,013; 3211,434;   -0,182;   -0,864
969,565; 3291,707;   -0,455;   -1,136
970,117; 3340,525;   -0,364;    1,045
970,669; 3183,343;    0,182;   -0,136
971,220; 3057,071;   -0,455;   -1,500
971,772; 2974,889;   -0,636;   -0,318
972,324; 3104,253;    0,091;   -0,500
972,876; 3059,525;    0,818;   -0,045
973,427; 3191,253;    1,909;   -1,045
973,979; 3143,980;   -0,727;   -2,500
974,530; 3190,889;    1,818;    1,318
975,082; 3183,707;   -0,545;    1,682
975,633; 3083,253;    1,091;    1,682
976,184; 3226,980;    0,909;    0,773
976,736; 3002,980;    0,091;    0,227
977,287; 2810,434;   -0,909;   -0,500
977,838; 2999,162;    0,909;   -0,318
978,389; 3044,434;   -1,000;   -0,500
978,940; 2933,343;    0,545;   -0,409
979,491; 2961,707;    0,091;   -0,500
980,042; 2932,253;    0,182;    3,045
980,593; 2966,343;   -2,545;    0,227
981,144; 2993,253;    2,545;   -0,500
981,695; 2979,798;    1,455;    1,500
982,246; 2942,707;   -0,273;    1,045
982,797; 3114,162;   -1,727;    0,682
983,347; 3198,980;    0,364;    0,591
983,898; 3371,707;    3,091;    0,409
984,449; 3183,889;    2,182;    0,773
984,999; 3101,889;    1,455;   -1,136
985,550; 2881,889;    0,182;   -0,318
986,100; 2918,162;   -0,455;   -0,318
986,651; 2951,616;   -0,818;    0,045
987,201; 2921,889;   -1,000;   -0,591
987,751; 2994,253;    0,818;    2,864
988,302; 2981,798;    2,636;    1,500
988,852; 3015,980;    0,455;   -1,136
989,402; 3048,889;    0,091;    0,682
989,952; 2981,343;   -2,182;    0,864
990,502; 3085,798;   -0,091;    0,682
991,052; 3044,253;   -0,727;    0,045
991,602; 2903,253;   -2,909;    1,318
992,152; 2904,253;    0,455;    0,682
992,702; 2895,889;    1,364;   -0,045
993,252; 2822,253;   -3,000;   -0,500
993,802; 2911,343;   -0,273;    1,318
994,352; 3132,616;   -1,545;    1,136
994,901; 3225,616;   -0,182;    3,227
995,451; 3148,253;   -0,182;    0,318
996,000; 3214,707;    1,636;    0,318
996,550; 2928,616;    2,273;    0,227
997,100; 2935,889;    1,273;   -0,045
997,649; 3223,707;    2,182;    0,955
998,198; 2855,889;    1,727;   -1,500
998,748; 3054,071;    1,091;   -2,318
999,297; 2960,525;   -0,818;   -0,409
999,846; 3009,980;    1,000;   -0,773
1000,395; 3073,616;   -0,818;    0,500
1000,945; 3024,071;    1,818;   -0,773
1001,494; 3106,071;    2,364;    0,682
1002,043; 3103,616;    4,636;    0,864
1002,592; 2938,525;   -1,091;    1,955
1003,141; 3071,434;   -0,455;   -0,682
1003,690; 2936,707;    1,727;    0,500
1004,238; 3039,525;    1,455;   -0,045
1004,787; 2655,889;    1,364;    1,227
1005,336; 2912,343;    0,364;    0,682
1005,885; 3036,343;    1,364;   -2,773
1006,433; 3185,343;    0,545;    0,955
1006,982; 3226,980;    0,455;    1,682
1007,531; 3136,980;   -1,818;   -0,227
1008,079; 3100,343;   -2,273;    0,500
1008,627; 3239,798;   -1,455;    0,409
1009,176; 2955,071;    0,000;   -1,955
1009,724; 3001,889;    1,091;    0,864
1010,273; 3056,616;    1,273;    0,500
1010,821; 3173,707;    0,091;    1,409
1011,369; 2920,343;   -1,364;    1,318
1011,917; 2882,253;   -1,364;   -0,591
1012,465; 3181,525;    1,273;   -1,591
1013,013; 3298,616;    2,091;   -1,682
1013,561; 3163,798;    0,455;   -0,773
1014,109; 3211,707;   -1,909;    1,682
1014,657; 3078,798;    0,364;    0,591
1015,205; 3197,434;    1,636;   -0,955
1015,753; 3232,798;   -0,545;   -1,409
1016,301; 3276,707;   -2,636;    3,045
1016,848; 3282,707;   -1,273;    0,409
1017,396; 3334,162;    2,545;    0,045
1017,944; 3456,525;    1,182;    1,864
1018,491; 3214,071;    0,273;    1,409
1019,039; 3361,798;    0,455;    0,591
1019,586; 3280,162;   -1,364;    1,682
1020,134; 3383,616;    0,455;    1,500
1020,681; 3396,980;    0,182;   -1,136
1021,228; 3408,798;    2,909;   -2,227
1021,776; 3236,798;    1,182;   -1,136
1022,323; 3452,253;    0,455;    0,773
1022,870; 3398,525;   -1,000;   -0,045
1023,417; 3289,434;    2,636;    1,864
1023,964; 3444,616;    2,636;    1,227
1024,511; 3272,343;    1,000;    0,773
1025,058; 3064,253;    3,182;   -0,045
1025,605; 3111,071;   -2,273;    3,136
1026,152; 3333,253;    1,727;   -0,591
1026,699; 3041,162;    1,818;    1,318
1027,245; 3221,980;   -0,091;    0,318
1027,792; 3422,798;   -1,000;    1,409
1028,339; 3299,980;    2,364;   -0,045
1028,885; 3173,343;    1,000;   -0,227
1029,432; 3107,253;   -0,091;    0,227
1029,978; 3201,798;   -1,000;   -1,591
1030,525; 3091,707;    1,000;    0,409
1031,071; 3327,707;   -1,364;    1,136
1031,618; 3435,253;    0,364;    1,682
1032,164; 3205,434;   -0,091;    3,045
1032,710; 3259,798;    1,636;   -1,500
1033,256; 3192,707;   -0,636;   -0,136
1033,803; 3170,071;   -0,545;    1,500
1034,349; 2885,253;   -1,364;    0,136
1034,895; 3039,162;    0,000;   -0,318
1035,441; 3015,343;   -0,818;    0,318
1035,987; 3023,343;   -2,364;   -0,682
1036,533; 3015,434;   -1,455;   -0,955
1037,078; 3216,980;    1,455;    1,682
1037,624; 3040,253;    2,455;   -0,955
1038,170; 3069,616;    0,455;   -0,318
1038,716; 2960,434;    1,636;   -0,409
1039,261; 2880,434;   -2,273;   -0,773
1039,807; 2817,707;   -0,091;    3,409
1040,352; 2889,162;   -1,909;   -0,318
1040,898; 2954,253;   -1,545;   -0,682
1041,443; 2855,343;   -1,455;   -2,591
1041,989; 2865,616;    1,091;    1,591
1042,534; 2738,707;   -0,364;    2,591
1043,079; 2850,798;    2,909;    0,955
1043,625; 2642,616;    1,818;    0,500
1044,170; 2700,071;   -1,364;    1,045
1044,715; 2957,071;    2,455;    0,955
1045,260; 2760,798;    2,182;   -0,955
1045,805; 2823,980;    1,182;   -0,591
1046,350; 2736,889;    1,364;   -0,409
1046,895; 2705,343;    2,909;    1,591
1047,440; 2668,343;    5,364;    0,409
1047,985; 2554,343;    2,818;   -0,955
1048,530; 2469,253;    1,545;    1,227
1049,074; 2535,616;    0,000;    0,318
1049,619; 2510,616;   -1,364;    1,955
1050,164; 2320,525;    0,455;    0,227
1050,708; 2367,434;   -0,455;    0,045
1051,253; 2736,434;    1,273;   -2,227
1051,797; 2438,616;    0,818;   -1,318
1052,342; 2456,798;   -1,182;    1,045
1052,886; 2456,434;    0,364;   -1,409
1053,430; 2317,162;   -1,364;    0,136
1053,975; 2339,889;   -0,818;   -0,318
1054,519; 2322,707;   -0,727;    3,227
1055,063; 2330,980;    0,909;    1,318
1055,607; 2197,525;   -0,182;    0,227
1056,151; 2244,253;    2,909;    1,682
1056,695; 2157,616;    2,273;   -1,136
1057,239; 2221,343;   -1,727;   -0,682
1057,783; 2231,525;    0,818;   -1,500
1058,327; 2196,162;    0,000;    1,409
1058,871; 2420,980;   -0,545;    1,318
1059,415; 2123,889;   -0,818;   -0,045
1059,958; 2392,707;    1,455;    2,591
1060,502; 2114,616;   -1,000;   -0,773
1061,046; 2008,980;    0,364;   -0,955
1061,589; 1973,162;   -3,000;   -1,136
1062,133; 1848,071;   -1,273;    1,864
1062,676; 1785,889;    1,182;    0,864
1063,220; 1798,889;    1,091;    0,500
1063,763; 1824,434;    0,909;    1,136
1064,306; 1911,071;   -0,909;    1,864
1064,849; 1801,980;   -0,909;    0,591
1065,393; 1796,616;    2,000;   -1,500
1065,936; 1909,707;    0,182;   -0,409
1066,479; 1798,889;   -1,455;    1,318
1067,022; 1812,434;   -0,273;   -0,227
1067,565; 1716,707;   -0,091;   -1,318
1068,108; 1736,525;    0,727;   -0,591
1068,651; 1719,525;   -0,636;    1,409
1069,194; 1650,343;   -0,455;   -1,682
1069,736; 1653,980;   -1,273;    0,955
1070,279; 1613,707;   -1,364;   -0,500
1070,822; 1681,343;   -2,000;   -0,318
1071,364; 1765,889;   -0,364;    1,318
1071,907; 1592,434;   -0,727;    3,227
1072,450; 1497,980;    0,000;   -0,045
1072,992; 1474,707;   -0,273;    3,136
1073,535; 1613,798;    2,091;    2,136
1074,077; 1403,162;   -0,727;    2,045
1074,619; 1389,162;   -1,364;    0,591
1075,161; 1418,343;   -1,091;    1,500
1075,704; 1599,253;    1,545;    1,227
1076,246; 1381,616;   -0,182;    0,682
1076,788; 1316,616;   -0,364;    1,773
1077,330; 1410,616;    1,273;    2,136
1077,872; 1359,616;    0,909;    0,955
1078,414; 1583,525;    2,727;    0,773
1078,956; 1317,980;    1,273;   -0,227
1079,498; 1579,889;    1,636;    0,318
1080,040; 1294,162;    1,909;   -1,318
1080,581; 1229,343;    1,636;   -0,318
1081,123; 1154,980;    0,091;   -0,773
1081,665; 1198,343;   -1,182;   -0,955
1082,206; 1495,889;    1,364;   -0,500
1082,748; 1358,071;    0,727;    2,045
1083,289; 1245,525;   -2,000;    1,318
1083,831; 1143,071;   -0,545;    0,227
1084,372; 1167,798;    0,000;    0,591
1084,913; 1177,071;    1,091;    0,864
1085,455; 1143,889;   -1,909;   -2,045
1085,996; 1118,525;   -2,273;    0,136
1086,537; 1137,980;   -0,091;    0,864
1087,078; 1172,162;   -0,909;   -2,136
1087,619; 1219,616;   -1,273;    0,227
1088,160; 1126,253;    0,000;    1,318
1088,701; 1114,889;   -1,091;    0,682
1089,242; 1055,253;    1,364;   -2,227
1089,783; 1145,798;   -0,273;    1,409
1090,324; 1126,525;    0,455;    0,682
1090,865;  995,434;    2,727;   -0,409
1091,405;  950,253;    0,727;    2,227
1091,946;  991,162;    0,182;   -0,955
1092,487;  922,343;    0,818;   -1,409
1093,027; 1091,798;   -1,364;   -1,500
1093,568;  934,343;   -0,364;    1,227
1094,108; 1053,253;    0,273;    1,773
1094,649;  980,343;   -1,182;    0,136
1095,189;  909,253;   -0,636;   -0,682
1095,729;  856,434;   -0,091;    0,955
1096,269;  871,253;    0,727;   -0,955
1096,810; 1195,889;   -1,364;    0,500
1097,350; 1018,707;    1,364;   -0,773
1097,890;  911,707;    0,364;    1,227
1098,430; 1169,798;    2,364;    2,864
1098,970; 1039,798;    2,182;    1,682
1099,510;  901,253;    0,545;   -2,318
1100,050;  830,162;    1,000;   -1,591
1100,589;  786,434;   -0,727;   -0,318
1101,129;  919,798;    0,818;   -0,955
1101,669; 1081,889;    1,727;    2,136
1102,209;  884,707;   -0,091;    2,227
1102,748;  838,434;    0,000;    0,955
1103,288;  834,162;    1,273;   -1,227
1103,827;  865,434;    3,091;   -2,227
1104,367;  747,980;   -0,091;   -2,409
1104,906;  702,707;    1,364;   -1,136
1105,445;  769,343;    0,636;   -1,136
1105,985;  713,253;   -0,727;    1,500
1106,524;  766,798;   -1,727;   -0,682
1107,063;  743,253;   -2,727;    1,409
1107,602;  718,616;   -1,909;   -1,500
1108,141;  643,616;   -1,909;    1,500
1108,680;  741,162;   -3,455;   -0,591
1109,219;  679,162;   -0,909;   -0,500
1109,758;  671,707;    0,455;    0,682
1110,297;  652,253;    1,000;   -0,682
1110,836;  596,980;   -0,727;    0,955
1111,375;  759,162;   -2,545;    0,409
1111,913;  777,434;   -1,000;    0,773
1112,452;  703,343;   -0,273;    0,136
1112,991;  585,980;    1,091;    1,955
1113,529;  542,434;   -0,818;   -0,045
1114,068;  622,798;   -0,273;    2,955
1114,606;  524,162;   -0,364;   -0,955
1115,144;  687,980;   -1,273;    1,045
1115,683;  621,071;   -0,727;    0,318
1116,221;  672,162;   -0,455;   -0,864
1116,759;  574,162;    0,636;   -0,864
1117,297;  784,071;    0,000;    1,864
1117,836;  584,253;   -2,182;   -1,227
1118,374;  588,071;    0,182;   -0,682
1118,912;  527,162;    0,909;    2,682
1119,450;  518,343;    1,000;    0,864
1119,988;  571,434;    1,545;    2,136
1120,525; 1031,162;    5,091;    3,318
1121,063;  730,525;    1,182;    1,864
1121,601;  526,798;   -0,909;   -1,227
1122,139;  485,434;   -0,727;   -2,045
1122,676;  694,343;   -0,727;    2,773
1123,214;  626,798;   -1,182;    4,409
1123,751;  426,343;    1,727;    2,227
1124,289;  564,798;   -0,091;   -0,409
1124,826;  428,162;    1,727;    0,227
1125,364;  355,434;    1,727;   -0,955
1125,901;  546,162;    1,182;    1,227
1126,438;  662,434;    0,818;    0,955
1126,975;  379,980;   -0,727;   -0,773
1127,513;  455,889;    0,273;    2,136
1128,050;  357,343;    1,636;   -0,682
1128,587;  457,707;    2,000;   -0,227
1129,124;  503,434;    0,091;    1,318
1129,661;  357,798;    0,273;    0,227
1130,198;  537,343;    1,636;    0,773
1130,734;  483,616;    0,182;    1,409
1131,271;  339,071;   -0,909;    0,864
1131,808;  511,343;    2,909;    3,045
1132,345;  382,616;    1,545;    0,318
1132,881;  254,162;   -1,545;   -1,864
1133,418;  395,525;    0,727;   -1,136
1133,954;  330,071;    2,455;   -2,682
1134,491;  401,616;    1,364;   -0,773
1135,027;  299,889;    2,364;    0,864
1135,564;  394,343;    0,273;    2,955
1136,100;  383,616;    0,364;    2,136
1136,636;  264,980;   -1,273;   -1,045
1137,172;  365,343;    0,000;   -1,045
1137,708;  292,253;   -1,364;   -1,045
1138,245;  289,071;    1,273;   -1,227
1138,781;  235,162;    1,091;   -3,318
1139,317;  308,616;    1,273;   -1,409
1139,852;  290,162;    3,091;    0,136
1140,388;  406,525;   -1,182;   -0,409
1140,924;  295,980;   -1,091;   -2,227
1141,460;  232,343;   -1,636;    0,136
1141,996;  164,707;   -1,364;    2,682
1142,531;  214,980;    1,364;    3,318
1143,067;  432,434;    1,182;    1,045
1143,602;  488,889;   -0,091;   -0,318
1144,138;  332,343;   -2,636;    1,045
1144,673;  196,616;   -1,455;    1,409
1145,209;  269,889;   -1,909;   -0,318
1145,744;  182,980;   -0,727;    0,864
1146,279;  325,434;    1,818;   -0,136
1146,815;  243,707;    1,545;   -2,682
1147,350;  278,707;   -1,364;    0,045
1147,885;  185,980;   -0,818;   -1,318
1148,420;  189,525;   -2,273;    0,773
1148,955;  172,434;   -1,727;    1,864
1149,490;  197,980;   -0,909;   -1,591
1150,025;  177,525;    0,455;   -1,773
1150,560;  301,253;    1,091;   -0,955
1151,094;  259,162;    1,455;   -0,591
1151,629;  255,434;    1,636;    0,864
1152,164;  178,525;    1,364;    1,318
1152,698;  143,616;   -0,182;   -0,136
1153,233;   97,798;    0,091;   -0,682
1153,767;  157,343;   -3,000;   -2,318
1154,302;  209,071;   -1,455;    1,773
1154,836;  204,616;   -0,455;   -2,136
1155,371;  260,162;   -1,364;    3,682
1155,905;  215,525;   -0,636;    1,682
1156,439;  184,162;   -0,636;   -0,500
1156,973;  216,071;    0,364;    0,318
1157,507;  142,889;   -0,364;    0,682
1158,042;  180,525;   -0,727;    1,045
1158,576;  223,434;    0,182;    1,773
1159,110;  200,616;   -0,818;    2,409
1159,643;  178,343;    0,636;   -0,045
1160,177;  112,434;   -1,545;    1,500

