
Integration time [ms]:   0,040
Averaging Nr. [scans]: 11
Smoothing Nr. [pixels]: 0
Data measured with spectrometer [name]: 7318044SP
Wave   ;Sample   ;Dark     ;Reference
[nm]   ;[counts] ;[counts] ;[counts] 

186,757;   31,210;   31,551;    1,318
187,357;   71,419;   22,551;    0,955
187,958;   39,584;   15,460;   -1,591
188,558;   83,930;    8,915;   -1,227
189,159;   49,248;    6,733;   -4,500
189,759;   20,849;    7,278;   -3,591
190,360;   28,757;    2,824;   -2,136
190,960;   70,599;    2,915;   -4,136
191,560;   87,467;    3,189;   -6,591
192,161;  341,690;    4,372;   -3,500
192,761;  179,468;    4,010;   -3,227
193,361;  122,251;    1,556;   -3,773
193,962;  165,215;    2,010;   -2,682
194,562;   85,512;    1,189;   -3,955
195,162;  131,141;   -2,448;   -2,227
195,762;  311,289;   -3,176;   -0,045
196,362;  247,967;    1,370;   -2,500
196,963;   96,422;    2,006;   -0,864
197,563;  178,934;    1,551;   -0,955
198,163;  117,452;    0,096;   -0,682
198,763;  145,606;    1,733;   -0,500
199,363;  256,403;    3,096;   -0,500
199,963;  220,425;    0,369;    0,409
200,563;  180,866;    2,823;   -1,409
201,163;  165,044;    3,277;   -0,227
201,763;  263,208;    3,732;    0,318
202,363;  203,209;    1,459;    1,500
202,963;  318,237;    1,459;    1,045
203,563;  426,957;    0,277;    0,500
204,162;  267,517;    2,096;   -1,864
204,762;  260,668;    0,550;    0,591
205,362;  223,122;    3,004;    1,955
205,962;  324,041;    3,096;    1,955
206,562;  330,486;    1,823;    2,318
207,161;  291,130;   -0,087;    0,318
207,761;  454,881;    1,277;    2,409
208,361;  321,887;   -0,268;    1,409
208,960;  436,804;    0,459;    1,500
209,560;  503,497;    1,277;    1,591
210,160;  480,720;    0,550;    1,864
210,759;  442,080;    4,186;    1,227
211,359;  451,731;    1,459;    1,045
211,958;  732,003;    1,277;    2,045
212,558;  824,619;    1,732;    1,864
213,157;  652,119;    1,822;    1,500
213,757; 1125,025;    3,822;   -0,227
214,356;  804,728;    1,277;   -0,409
214,956; 1156,958;    3,095;    0,409
215,555;  762,406;    2,095;    2,136
216,154;  703,256;   -2,723;   -0,591
216,754;  713,431;    0,277;    0,773
217,353;  855,053;   -0,268;   -1,045
217,952;  703,540;   -0,178;    0,318
218,552;  948,725;    1,368;   -0,773
219,151;  838,072;    0,277;    0,955
219,750;  840,838;    0,004;   -0,227
220,349;  984,257;   -0,451;    1,045
220,948; 1042,579;   -1,360;    1,136
221,548; 1077,977;    0,913;    1,227
222,147; 1195,809;   -0,087;   -0,409
222,746; 1494,659;   -0,451;   -0,955
223,345; 1378,404;    0,731;    0,500
223,944; 1395,033;   -0,451;    0,773
224,543; 1576,714;    1,004;   -1,409
225,142; 1687,897;    0,094;    0,136
225,741; 1585,935;   -0,814;    1,045
226,340; 1628,348;   -0,451;   -0,955
226,939; 2115,165;   -0,996;   -0,136
227,538; 2082,047;   -0,360;   -0,773
228,137; 2231,015;   -0,814;    0,864
228,735; 2412,829;   -0,541;    1,227
229,334; 2146,550;   -0,905;   -0,227
229,933; 2540,529;    0,459;    0,591
230,532; 2662,577;    1,186;   -0,409
231,131; 2700,581;    1,732;    0,318
231,729; 2901,875;   -2,450;   -2,318
232,328; 3050,378;   -0,723;   -1,500
232,927; 3150,346;    1,004;   -0,500
233,525; 3277,798;    3,640;    0,045
234,124; 3508,364;    2,368;   -1,591
234,723; 3511,211;    0,913;   -1,045
235,321; 3675,235;    2,277;    0,136
235,920; 3931,969;    1,186;   -1,227
236,518; 4201,903;    3,459;    0,318
237,117; 4398,312;    0,004;   -0,227
237,715; 4602,431;    0,640;   -0,500
238,314; 4646,406;   -0,087;   -2,318
238,912; 4730,256;   -0,723;   -1,409
239,510; 4806,696;    0,459;   -1,227
240,109; 4976,622;    0,004;    3,773
240,707; 4998,972;   -0,996;    1,227
241,305; 5399,483;    0,550;    0,136
241,904; 5643,937;   -0,178;   -2,045
242,502; 5601,221;   -0,632;   -0,227
243,100; 5542,697;   -0,087;   -0,955
243,698; 5806,633;    0,732;    1,682
244,297; 6001,099;   -0,632;    0,682
244,895; 5820,774;   -0,269;   -2,318
245,493; 6191,232;    2,186;   -0,591
246,091; 6209,914;    1,368;   -1,318
246,689; 6190,819;    1,004;    0,591
247,287; 6369,512;    0,822;   -1,136
247,885; 6639,037;   -1,451;    1,227
248,483; 6754,840;    1,822;   -0,500
249,081; 6879,163;    0,185;    1,591
249,679; 7040,544;   -0,178;    1,682
250,277; 7330,739;   -1,723;    0,864
250,875; 7306,609;   -1,087;   -1,045
251,473; 7337,984;   -1,178;    0,500
252,071; 7556,113;    1,459;    1,045
252,669; 7709,487;   -1,814;    0,318
253,267; 7953,153;   -0,087;    0,773
253,864; 7917,421;   -0,360;    0,682
254,462; 7784,390;    1,640;    1,591
255,060; 7749,463;   -0,269;    1,318
255,658; 8127,396;    0,822;   -0,136
256,255; 8536,326;    0,186;   -2,045
256,853; 8372,491;   -0,269;    1,409
257,451; 8396,407;    0,822;    1,864
258,048; 8683,935;    1,822;    1,864
258,646; 8403,386;    1,731;   -1,045
259,243; 8579,764;   -0,087;    2,227
259,841; 8654,369;   -0,814;    0,318
260,438; 8494,009;   -0,087;    0,864
261,036; 9276,497;   -1,905;    1,409
261,633; 9178,949;   -0,087;    2,227
262,231; 8885,145;    2,731;   -0,045
262,828; 8955,654;   -0,905;    1,136
263,425; 9046,200;    0,913;   -0,591
264,023; 9337,008;    0,186;    0,045
264,620; 8876,470;   -0,360;   -0,318
265,217; 9230,400;   -2,087;    3,136
265,815; 9313,974;   -1,905;    2,136
266,412; 9084,134;    0,731;    0,136
267,009; 9135,403;   -1,451;    0,773
267,606; 9022,022;    0,822;   -0,955
268,203; 9017,452;   -0,269;   -0,591
268,801; 9292,334;    1,731;    0,591
269,398; 9580,988;   -0,360;    2,500
269,995; 9589,382;    0,277;    1,591
270,592; 9364,672;   -0,632;   -0,500
271,189; 9568,383;    0,186;    0,409
271,786; 9692,781;   -0,632;    1,227
272,383; 9532,686;   -1,087;    0,227
272,980; 9723,924;    0,277;    0,318
273,577;10193,993;    0,004;    1,227
274,174; 9739,766;    0,822;    2,591
274,771; 9732,942;   -0,814;   -0,773
275,367; 9883,081;    2,277;    1,409
275,964; 9867,004;    0,731;   -0,500
276,561; 9958,862;    1,549;   -1,045
277,158;10194,544;    0,095;   -1,773
277,755;10329,163;    2,185;    0,409
278,351; 9693,928;   -0,451;   -1,500
278,948;10019,037;   -0,815;    0,045
279,545;10005,753;   -1,360;    2,318
280,141;10646,393;   -1,723;   -2,045
280,738;10543,117;   -0,451;   -0,136
281,334;10785,351;   -1,633;    0,591
281,931;10148,800;   -0,087;   -1,318
282,528;10231,541;    0,822;   -0,500
283,124;10959,117;   -1,087;   -0,500
283,721;10875,967;   -0,451;    1,409
284,317;10683,412;    0,185;    2,500
284,913;11257,216;   -1,360;    0,591
285,510;11447,670;    0,640;   -0,318
286,106;11465,138;   -2,269;   -0,955
286,703;11051,449;   -0,360;    1,955
287,299;11270,187;   -1,451;   -0,591
287,895;11450,320;    0,822;   -1,045
288,491;11993,897;    0,186;    2,136
289,088;11742,533;   -2,360;    2,409
289,684;11849,033;   -1,723;    1,500
290,280;11841,291;    0,368;    0,682
290,876;11944,071;    1,822;    5,500
291,472;11809,939;    1,276;    2,227
292,068;11898,600;    1,367;    0,227
292,665;11606,732;    2,095;    0,773
293,261;11191,572;    0,276;    2,136
293,857;11614,011;    2,913;    2,136
294,453;11550,253;    3,550;    0,955
295,049;11401,940;   -0,268;    1,955
295,644;11432,825;    0,095;    0,136
296,240;11335,370;   -0,905;   -0,136
296,836;11374,929;   -0,995;    0,318
297,432;11656,716;    1,096;   -0,500
298,028;11716,869;    0,732;    0,773
298,624;12133,758;    1,459;    1,864
299,220;12414,149;    2,368;    0,591
299,815;12068,073;    1,005;   -0,409
300,411;11851,031;    0,914;    1,773
301,007;11859,132;    1,368;    0,227
301,602;11902,996;   -0,541;   -2,318
302,198;12073,187;    0,732;   -0,773
302,794;12383,289;    1,187;   -0,500
303,389;12543,663;   -1,177;    1,045
303,985;12649,370;    0,550;    1,409
304,580;12590,649;    1,459;    1,591
305,176;12535,090;   -3,086;    0,136
305,771;12442,335;   -1,268;   -1,227
306,367;12304,601;    4,095;    0,136
306,962;12637,996;    0,641;    1,500
307,558;12351,751;   -0,450;    0,136
308,153;12296,639;    1,095;   -1,136
308,748;12542,132;   -0,814;    1,682
309,344;12495,905;   -0,632;   -1,318
309,939;12598,360;   -1,905;   -1,318
310,534;12846,951;   -0,086;   -1,682
311,130;12793,290;    0,459;   -2,500
311,725;12486,318;    1,004;   -0,500
312,320;12817,335;    2,459;    0,045
312,915;12701,863;    1,459;   -1,045
313,510;12770,444;    1,550;   -0,500
314,105;13262,600;    1,096;    1,409
314,700;12689,083;   -3,086;   -1,045
315,295;12280,558;   -0,904;    0,045
315,890;11853,443;    1,277;    0,864
316,485;12231,688;   -0,359;   -0,318
317,080;12308,366;   -3,086;    1,591
317,675;12929,975;    2,005;   -0,682
318,270;12309,750;    5,550;    3,318
318,865;12297,201;    3,278;    3,045
319,460;12143,055;   -0,904;    0,591
320,055;12366,775;   -0,541;   -1,227
320,650;12001,544;   -1,995;   -0,591
321,244;12066,883;   -0,177;   -1,409
321,839;12994,003;   -1,541;   -0,227
322,434;12914,426;   -1,086;   -1,591
323,029;12549,072;    1,732;    1,591
323,623;12362,678;    1,550;    0,773
324,218;12098,684;    2,368;    1,409
324,812;12017,565;    1,096;    1,591
325,407;11809,873;   -0,814;    2,045
326,002;11736,213;    0,277;   -0,409
326,596;12050,618;    0,914;    1,318
327,191;12229,650;    0,823;   -1,045
327,785;11800,618;   -0,813;   -0,227
328,379;12046,317;    1,368;    0,136
328,974;11833,803;    0,914;   -3,955
329,568;12007,600;    0,186;   -2,409
330,163;11844,293;    2,096;    1,045
330,757;12214,940;    2,459;    1,591
331,351;11510,297;    0,459;    0,682
331,945;11816,377;    0,914;    1,409
332,540;11433,846;   -1,723;   -0,591
333,134;11568,734;   -1,086;    0,773
333,728;11841,269;    0,005;    0,318
334,322;12159,160;   -1,177;   -0,864
334,916;11418,105;    0,277;    0,955
335,510;11743,321;   -0,450;   -0,136
336,105;11991,377;   -1,086;    1,591
336,699;11684,311;   -1,086;    0,591
337,293;11644,703;   -1,723;    0,318
337,887;11838,639;   -2,723;    1,955
338,481;11905,601;    0,459;    0,591
339,074;12035,920;   -0,359;    2,682
339,668;11857,961;   -1,632;    1,227
340,262;12098,951;    1,732;    3,227
340,856;11596,745;    1,822;   -0,682
341,450;10935,291;    1,004;    1,864
342,044;11849,157;    1,459;    0,136
342,637;11619,895;    0,913;   -2,136
343,231;11508,652;   -2,360;    0,682
343,825;11489,125;   -1,086;   -0,591
344,419;11424,216;   -1,995;    0,500
345,012;11195,125;    2,459;    4,045
345,606;11222,436;    4,641;    1,591
346,199;11043,785;   -1,813;   -0,227
346,793;10567,463;    1,914;    2,045
347,386;10742,167;   -0,813;   -1,136
347,980;10736,362;   -0,268;   -0,045
348,573;10532,183;    2,278;    0,409
349,167;10232,906;    5,278;    4,773
349,760;10552,854;    2,914;    2,682
350,354;10554,174;   -0,813;    1,136
350,947;10300,007;    1,096;    1,682
351,540; 9945,668;   -0,358;   -1,409
352,134; 9848,613;    1,096;    1,136
352,727; 9958,162;   -0,086;    1,136
353,320; 9763,934;    0,005;    0,591
353,913; 9596,805;   -1,995;    1,864
354,507; 9823,550;    0,823;   -1,227
355,100; 9806,438;    0,460;    0,864
355,693; 9046,490;    2,005;    2,409
356,286; 9082,791;    0,823;    2,773
356,879; 9427,770;   -0,722;    1,227
357,472; 9009,994;   -0,904;    1,500
358,065; 9216,361;   -0,722;    2,500
358,658; 9099,948;   -0,540;    2,318
359,251; 8760,864;   -1,631;   -0,591
359,844; 8256,441;   -1,904;   -1,136
360,437; 8456,232;   -2,995;    0,045
361,030; 8718,469;    1,369;   -0,682
361,623; 8306,224;    2,824;    0,318
362,215; 8337,654;   -0,086;    2,045
362,808; 8188,130;   -2,358;   -1,682
363,401; 8370,892;   -2,449;    0,136
363,994; 8128,192;   -0,631;   -1,500
364,586; 7992,303;    0,824;   -1,500
365,179; 8240,908;   -0,449;   -1,136
365,772; 7735,479;   -1,995;    2,045
366,364; 8046,884;    1,915;   -3,227
366,957; 8213,994;    2,279;   -0,045
367,549; 8259,347;    2,188;   -0,864
368,142; 7905,441;    1,825;   -1,500
368,734; 8105,569;    0,734;   -2,136
369,327; 8037,957;    1,643;   -0,500
369,919; 7968,264;   -1,538;    0,409
370,512; 7760,581;   -1,083;   -0,500
371,104; 7536,519;   -0,901;    1,591
371,696; 7712,737;    1,191;   -0,955
372,289; 7812,575;    0,373;    1,136
372,881; 7961,509;   -2,080;    1,318
373,473; 7871,636;   -2,170;    1,136
374,066; 7682,024;   -0,169;    0,500
374,658; 7513,403;    0,378;    1,136
375,250; 7881,639;    0,653;   -1,409
375,842; 7729,500;    0,473;   -0,045
376,434; 7600,059;   -0,435;   -0,409
377,026; 8179,758;    0,204;   -2,500
377,618; 8070,165;   -0,158;   -0,682
378,210; 7914,674;   -0,338;   -1,955
378,802; 7758,082;    0,754;   -0,591
379,394; 7750,289;    1,846;    0,682
379,986; 8333,458;    1,393;   -0,955
380,578; 8419,237;   -0,153;    0,773
381,170; 7740,610;   -0,972;    0,045
381,762; 7719,791;    0,755;    1,409
382,354; 7931,250;   -0,065;   -1,318
382,945; 8051,206;   -2,976;    0,318
383,537; 8176,655;   -2,705;   -1,955
384,129; 8176,043;   -2,160;   -1,136
384,721; 8388,394;   -0,252;    0,955
385,312; 8298,654;   -0,161;   -0,955
385,904; 8397,971;   -2,706;    1,591
386,496; 7778,579;   -0,979;    1,045
387,087; 7917,001;    1,022;    2,500
387,679; 7965,262;   -1,160;    0,045
388,270; 8085,090;    2,840;    2,045
388,862; 8202,905;    1,295;   -0,318
389,453; 8106,688;   -0,887;    1,045
390,045; 8383,566;   -0,705;   -2,682
390,636; 8297,348;    0,204;   -0,591
391,227; 8164,559;   -0,523;   -0,045
391,819; 8259,619;    0,204;    0,773
392,410; 8335,399;    1,022;    0,045
393,001; 8264,044;   -0,979;   -1,591
393,593; 8581,583;    1,930;   -0,045
394,184; 8403,779;    1,385;   -0,409
394,775; 8346,268;    1,839;    2,136
395,366; 8530,746;    1,385;    0,773
395,957; 8561,710;    0,113;    0,136
396,548; 8866,620;   -0,342;    2,682
397,139; 9167,388;   -2,433;    0,591
397,730; 8907,980;   -1,888;    0,955
398,321; 8952,338;   -1,252;    0,955
398,912; 8947,943;   -0,615;    0,136
399,503; 9065,058;   -3,524;   -1,409
400,094; 8501,600;    0,294;    1,682
400,685; 8347,901;   -0,433;    0,045
401,276; 8410,509;    0,930;   -0,955
401,867; 8749,939;   -0,888;    0,773
402,458; 8819,834;   -2,251;   -2,318
403,048; 8814,873;    1,112;    0,591
403,639; 8424,855;    0,840;    0,864
404,230; 8658,457;    2,476;    0,318
404,821; 8575,331;   -0,615;    0,045
405,411; 8712,698;    1,203;   -2,591
406,002; 8314,275;   -1,252;   -1,136
406,592; 8190,454;    2,294;    0,045
407,183; 8474,784;    0,566;   -1,500
407,774; 8416,161;    3,475;   -0,136
408,364; 8759,552;    0,930;    0,409
408,954; 8344,196;    0,384;    1,227
409,545; 8389,913;    1,021;    1,045
410,135; 7913,920;    1,293;    0,500
410,726; 8074,855;    1,838;    0,318
411,316; 8501,879;    0,111;    0,773
411,906; 8141,260;   -0,253;   -0,409
412,497; 7615,798;   -1,070;   -0,045
413,087; 8236,231;   -1,980;   -0,227
413,677; 8634,159;   -0,707;    3,864
414,267; 8479,750;    0,656;    1,409
414,857; 8486,317;   -2,980;    4,227
415,448; 8759,371;    0,839;    0,500
416,038; 8438,239;    0,020;   -0,591
416,628; 8426,240;   -0,889;    0,409
417,218; 7890,530;    0,565;    3,318
417,808; 8145,642;    0,202;   -0,409
418,398; 8624,223;    0,020;    2,682
418,988; 8659,481;    2,020;    0,591
419,578; 8894,058;   -0,707;    1,409
420,168; 9241,540;   -1,343;   -0,955
420,757; 8850,585;   -1,343;   -1,500
421,347; 8511,650;    0,111;   -0,227
421,937; 8678,398;    2,292;    1,409
422,527; 8621,353;    0,838;   -0,773
423,116; 8456,614;   -0,253;   -0,045
423,706; 8782,810;   -1,889;    0,318
424,296; 8774,985;    1,384;    0,682
424,885; 9211,894;   -0,071;   -3,045
425,475; 9492,856;    1,474;   -2,864
426,065; 9406,880;   -0,980;   -0,318
426,654; 9028,815;   -0,435;   -0,318
427,244; 9153,538;    0,020;    1,409
427,833; 8588,513;    1,383;   -0,500
428,423; 9104,927;   -0,526;    1,136
429,012; 9864,476;   -0,344;   -1,136
429,601; 9351,012;   -1,344;    0,136
430,191; 9535,679;    1,292;    4,318
430,780; 9188,720;   -0,344;   -0,409
431,369; 9142,106;    0,746;   -0,045
431,959; 9780,973;   -1,254;    0,500
432,548; 9571,106;   -1,163;   -0,045
433,137; 9711,603;   -1,254;   -1,318
433,726;10251,026;    0,292;    0,500
434,315; 9574,935;   -0,526;    2,409
434,905; 9671,107;   -1,254;    1,409
435,494; 9560,614;    0,746;    0,955
436,083;10011,285;   -0,981;   -0,955
436,672; 9902,054;    0,110;    0,500
437,261; 9446,100;    0,292;   -1,955
437,850; 9608,124;    1,383;    0,682
438,439; 9642,769;    3,291;    1,955
439,027; 9485,433;    3,655;    1,773
439,616; 9831,080;    2,927;    1,227
440,205; 9667,709;    0,200;   -2,136
440,794; 9730,371;    2,109;   -0,045
441,383;10015,427;   -1,346;   -0,591
441,971; 9892,868;   -2,436;    0,591
442,560; 9739,802;    0,563;   -1,773
443,149; 9467,463;    0,379;   -1,318
443,737; 9607,737;   -0,074;   -2,318
444,326; 9896,449;    0,018;    0,318
444,915; 9961,008;   -1,982;    0,864
445,503;10376,333;   -2,891;   -0,318
446,092; 9602,907;    0,382;    2,136
446,680;10167,141;    0,382;    0,318
447,269;10359,323;   -0,346;   -0,318
447,857;10100,212;    0,018;   -1,773
448,445;10196,723;    0,563;    1,318
449,034;10453,824;   -1,528;   -1,136
449,622;10594,646;   -1,073;    3,500
450,210; 9783,706;    2,017;    2,227
450,799;10334,367;    0,290;   -0,591
451,387;10300,245;    1,381;   -0,591
451,975; 9939,570;    2,654;    0,864
452,563;10028,020;    3,472;    2,318
453,151;10062,123;   -0,528;   -1,227
453,739;10004,326;   -1,347;    0,136
454,328; 9850,704;    2,381;   -2,136
454,916; 9576,428;    2,562;   -0,136
455,504; 9733,952;    1,017;    1,227
456,092; 9901,119;    0,017;   -1,591
456,679; 9918,917;    1,472;    0,682
457,267; 9854,260;    4,017;    1,045
457,855;10006,725;    1,017;    1,409
458,443; 9757,810;   -0,165;    1,682
459,031; 9907,939;    0,108;    2,409
459,619;10391,680;   -1,801;    2,864
460,206;10506,925;    0,835;    2,045
460,794;10569,460;   -2,983;   -0,227
461,382;10832,051;   -0,529;   -0,864
461,970;10422,534;    1,198;    1,864
462,557;10463,104;   -0,711;   -0,682
463,145;10658,670;   -3,165;   -1,682
463,732;10802,055;    2,016;   -1,045
464,320;10739,262;   -0,075;   -3,045
464,907;10390,381;    2,743;   -0,773
465,495;10259,155;    0,743;   -1,227
466,082;10450,465;   -1,984;   -0,045
466,670;10363,661;   -2,529;    1,227
467,257;10737,423;   -1,711;    2,045
467,844;10862,487;   -0,075;    0,045
468,432;10918,350;    0,834;    3,500
469,019;10390,963;    0,925;   -1,773
469,606;10908,330;    0,470;    3,682
470,193;10741,698;   -1,439;    0,227
470,780;10289,837;   -2,075;    0,864
471,368;10645,750;   -1,257;   -0,773
471,955;10392,264;    1,379;   -0,682
472,542;10065,296;    0,652;   -1,136
473,129;10286,435;   -0,166;    0,136
473,716;10006,561;    1,470;    0,591
474,303;10237,295;    0,652;   -0,864
474,890;10530,856;   -1,439;   -0,500
475,477;10560,870;   -1,621;    0,409
476,064;10453,790;    1,106;   -1,591
476,650;10437,880;    0,288;    0,318
477,237;10241,244;   -0,258;    0,955
477,824;10423,115;   -1,076;    0,864
478,411;10431,010;   -1,894;   -0,318
478,997;10635,000;    0,560;   -0,773
479,584;10692,801;    1,196;   -0,409
480,171;11431,486;   -0,440;   -0,773
480,757;11091,431;    2,651;    0,773
481,344;11386,644;    0,469;    0,409
481,931;10900,170;    1,105;    1,045
482,517;11974,141;   -1,258;    0,318
483,104;12615,861;    1,106;    2,864
483,690;12868,235;   -1,804;    0,045
484,276;13225,071;   -0,895;    0,227
484,863;12955,298;    2,469;    1,136
485,449;13569,771;   -0,077;    0,318
486,035;13535,726;   -1,986;   -0,136
486,622;14005,924;   -0,895;    0,045
487,208;13893,579;    1,378;    1,500
487,794;13731,495;    0,741;    0,318
488,380;13881,796;    0,105;   -1,409
488,967;13904,388;   -1,168;   -0,409
489,553;13968,363;   -1,895;   -1,409
490,139;14190,429;    1,559;    0,773
490,725;13537,811;    0,741;   -0,227
491,311;13070,671;    3,287;    3,045
491,897;12376,227;   -0,986;    1,500
492,483;12199,741;    0,105;    1,227
493,069;12026,118;    3,923;    0,864
493,655;12013,489;    1,650;    0,682
494,241;11905,986;    1,377;   -0,955
494,826;12368,996;    0,287;   -1,045
495,412;11804,664;    2,559;   -0,682
495,998;11932,480;   -0,805;   -0,318
496,584;12060,920;    0,377;    1,045
497,169;12070,018;    1,014;   -0,682
497,755;12032,568;    0,650;    1,227
498,341;12600,742;    0,559;    0,318
498,926;12197,403;    1,832;    1,955
499,512;12382,712;    1,286;    2,955
500,097;12519,047;    0,195;   -0,318
500,683;12446,187;   -0,350;    2,136
501,268;12779,407;   -0,169;   -0,955
501,854;12512,509;   -0,169;    1,227
502,439;12467,971;   -0,624;   -1,773
503,024;12676,869;    0,195;    0,500
503,610;12730,799;   -0,078;   -0,682
504,195;12714,869;    0,558;    1,955
504,780;12833,149;    2,922;    1,227
505,366;12657,582;    3,013;    2,864
505,951;12368,482;    0,740;    1,045
506,536;12417,311;   -3,260;   -3,682
507,121;12396,573;    0,285;   -0,318
507,706;12918,856;    2,376;    1,045
508,291;13299,849;    2,649;    1,136
508,876;12755,347;   -0,988;    2,591
509,461;12236,273;   -0,169;   -0,773
510,046;12640,472;    0,194;    0,318
510,631;12904,685;   -0,351;   -0,773
511,216;12547,340;    2,467;   -0,500
511,801;12914,835;   -0,442;    2,591
512,386;13261,591;    0,740;    0,500
512,971;13149,508;   -2,988;    0,955
513,555;12724,319;   -0,897;   -1,500
514,140;13527,466;   -0,442;   -3,136
514,725;13525,092;   -0,715;   -1,136
515,309;13674,071;   -0,533;    0,318
515,894;13125,127;   -0,624;   -2,227
516,479;13574,890;   -0,624;   -0,955
517,063;13381,040;    0,376;    1,227
517,648;13514,508;    1,012;   -1,136
518,232;13185,167;   -0,261;   -1,409
518,817;13533,597;   -0,079;    1,682
519,401;13749,181;    2,194;    0,591
519,985;13235,971;    1,103;    1,136
520,570;13127,429;    0,830;   -1,955
521,154;13416,811;    2,102;    0,591
521,738;13593,273;   -2,352;    2,409
522,323;14134,335;   -0,170;    1,682
522,907;13889,867;    0,466;   -0,136
523,491;13592,241;    0,557;    0,955
524,075;13583,853;    2,284;    0,591
524,659;13713,098;    1,466;    0,591
525,243;13150,598;    1,739;    0,409
525,827;13359,553;    0,648;   -0,045
526,411;14230,370;   -1,989;   -0,136
526,995;14460,738;   -0,352;    1,409
527,579;14073,777;   -0,443;   -1,045
528,163;14385,319;    0,375;   -1,500
528,747;14283,938;    2,466;   -0,773
529,331;14581,316;   -0,080;   -1,409
529,915;14808,722;    1,738;    0,955
530,499;14765,781;   -0,807;    1,227
531,082;14465,316;   -0,534;    1,591
531,666;13918,170;    1,374;    0,773
532,250;14583,186;    1,284;    2,682
532,833;14923,848;    0,920;    2,773
533,417;14744,432;   -1,807;    0,864
534,001;14744,076;    1,647;   -0,318
534,584;15452,636;    0,374;    0,500
535,168;15313,356;    0,465;    1,409
535,751;15354,387;    0,647;    0,045
536,334;14767,873;   -0,898;   -0,409
536,918;15364,894;    0,011;    1,591
537,501;15453,943;   -0,899;    1,318
538,085;15478,422;   -0,444;    1,045
538,668;15714,216;    0,829;    2,409
539,251;16002,646;    1,829;    3,773
539,834;15970,723;    0,101;    0,773
540,418;15950,944;   -1,990;    4,318
541,001;16062,793;   -0,990;    1,773
541,584;16064,018;    2,101;    2,227
542,167;15767,808;    1,374;    2,955
542,750;15922,234;    1,919;   -0,773
543,333;15508,228;    0,555;    2,136
543,916;16246,728;    0,192;    2,500
544,499;16838,731;   -1,354;    0,227
545,082;16894,983;    1,374;    3,591
545,665;17020,623;    1,919;    1,500
546,248;17404,319;    1,010;   -0,318
546,830;17049,997;   -0,445;    1,955
547,413;17409,229;    1,010;   -0,773
547,996;17950,697;    0,555;    0,500
548,579;17729,362;    0,919;    0,955
549,161;17544,887;    1,828;    2,682
549,744;17343,188;   -0,809;    0,409
550,326;17835,468;   -0,809;   -1,136
550,909;17629,213;    2,737;    0,591
551,492;17986,083;   -0,263;    0,227
552,074;17784,363;   -0,173;   -1,318
552,657;18408,608;    2,373;    0,045
553,239;18126,262;   -0,173;   -0,773
553,821;18021,919;   -1,082;    1,045
554,404;17542,937;    1,282;    1,136
554,986;17940,342;    0,464;    1,045
555,568;18508,542;    1,191;   -0,955
556,151;17705,608;    1,191;   -0,227
556,733;17910,325;   -0,264;   -0,864
557,315;18390,347;    0,100;    0,500
557,897;18189,392;    0,554;   -0,500
558,479;18315,340;   -1,991;    1,318
559,061;18466,718;   -0,719;   -0,864
559,643;18808,364;   -0,264;    0,045
560,225;19156,157;    1,645;    2,864
560,807;19195,183;    0,918;    0,318
561,389;18714,809;    0,554;    2,318
561,971;19478,761;    0,463;    2,136
562,553;19263,662;   -1,628;    1,591
563,135;19408,956;   -0,537;    1,136
563,717;18993,193;    3,372;    1,136
564,298;19722,896;    3,645;   -0,045
564,880;19410,016;    0,645;   -1,409
565,462;19613,380;    0,645;    1,318
566,043;20807,386;   -0,446;    2,318
566,625;20340,201;    1,918;    1,227
567,207;20187,173;    1,099;    1,682
567,788;21328,373;   -1,264;    1,500
568,370;22157,975;    1,917;   -0,500
568,951;21983,457;    0,190;    0,227
569,533;22872,751;   -0,628;   -0,500
570,114;23300,631;   -0,446;    0,682
570,695;23843,950;   -0,174;   -1,318
571,277;24389,447;   -0,265;   -1,682
571,858;25122,716;    2,008;   -1,136
572,439;26023,275;    1,554;   -1,045
573,021;26130,948;    2,099;   -2,773
573,602;26649,538;   -1,265;    0,318
574,183;27564,280;   -2,083;    2,227
574,764;27736,692;   -1,629;    0,409
575,345;28323,549;    0,917;   -0,136
575,926;28883,643;   -0,356;    0,136
576,507;28795,171;    1,099;   -0,227
577,088;29979,867;    3,099;    1,682
577,669;29990,993;    0,735;    1,955
578,250;30840,098;    0,644;   -1,045
578,831;31465,459;   -1,356;   -2,227
579,412;31679,696;   -0,810;    0,955
579,993;32534,312;    1,008;    0,227
580,573;32817,892;   -0,629;   -0,955
581,154;31769,756;    0,735;   -0,591
581,735;32741,049;    0,644;    0,773
582,315;32256,958;   -0,629;    2,136
582,896;32467,420;   -0,174;    1,227
583,477;31904,050;    0,189;    1,227
584,057;32108,553;    0,553;    0,955
584,638;32427,675;    2,553;    2,318
585,218;32451,546;   -0,538;    2,682
585,799;32574,640;    0,281;   -0,227
586,379;32512,140;    0,372;    1,591
586,959;31266,979;    0,735;    0,318
587,540;30546,809;   -0,629;    2,227
588,120;30085,030;    1,007;   -0,045
588,700;29143,889;    2,553;    2,136
589,281;29513,193;    0,462;   -0,955
589,861;29419,518;    0,099;   -1,682
590,441;29185,563;    2,371;   -2,682
591,021;28201,035;   -0,265;   -2,591
591,601;28383,147;   -0,537;    0,500
592,181;28401,709;   -0,719;   -0,773
592,761;27728,368;    0,007;    1,409
593,341;27603,490;   -0,901;    0,045
593,921;27620,472;   -0,265;    1,591
594,501;27546,738;   -0,538;    1,318
595,081;27396,405;    0,917;   -0,318
595,661;27739,504;   -1,447;    0,955
596,240;28234,360;   -0,537;    0,136
596,820;27906,506;    0,372;    1,955
597,400;28100,888;    2,008;    0,773
597,980;28285,636;    2,008;    1,045
598,559;28239,787;    2,735;   -0,227
599,139;27967,262;   -0,174;   -1,227
599,718;27896,171;   -0,174;   -0,409
600,298;28160,727;    0,735;    0,682
600,877;28435,556;    2,917;    1,409
601,457;28662,338;    2,281;    1,136
602,036;28579,143;    0,190;    2,045
602,616;28844,451;    0,644;    1,682
603,195;29147,244;   -0,355;    3,500
603,774;28672,415;   -0,901;    2,045
604,354;28469,209;    0,826;   -0,500
604,933;27965,136;    0,463;    1,864
605,512;28135,825;    3,554;    0,591
606,091;28228,915;   -0,537;    3,773
606,671;29039,129;    0,281;    0,773
607,250;28132,045;    1,644;    3,136
607,829;28373,236;    2,372;    3,227
608,408;28169,149;    1,190;    2,591
608,987;27222,858;    1,281;    3,409
609,566;27575,325;   -1,265;   -2,500
610,145;27681,023;   -1,082;    0,682
610,723;28078,886;    4,372;    6,864
611,302;27311,554;   -0,446;    1,682
611,881;26867,218;    5,008;   11,227
612,460;27638,016;    1,645;    3,955
613,039;28037,159;   -0,082;    2,045
613,617;26793,373;    1,736;    4,773
614,196;26989,683;    1,099;    1,227
614,775;27301,302;    1,009;    2,409
615,353;27262,232;    0,736;    0,864
615,932;27006,120;    0,100;    2,409
616,510;27598,207;    0,554;    0,591
617,089;27139,372;    7,100;   17,591
617,667;26819,578;    2,372;    6,136
618,246;26730,294;   -1,537;    1,318
618,824;26876,459;   -3,355;   -0,955
619,402;26464,371;   -2,900;   -1,773
619,981;26959,689;   -0,173;   -1,045
620,559;26757,535;    0,009;    1,682
621,137;26235,616;   -0,718;    1,864
621,715;26325,207;   -1,173;   -0,682
622,293;26249,399;   -0,537;   -0,773
622,871;26728,528;   -0,718;    0,500
623,450;26264,629;    0,373;   -0,864
624,028;26161,927;    0,191;   -0,955
624,606;25821,738;   -1,718;    1,682
625,183;26207,293;   -1,536;   -1,136
625,761;25811,108;    1,009;    1,136
626,339;26140,724;    1,373;    2,591
626,917;26548,670;   -0,172;   -0,045
627,495;26516,985;   -0,354;    1,318
628,073;25970,418;   -0,263;    2,864
628,650;25699,653;    0,100;    2,136
629,228;26089,465;    0,373;    4,409
629,806;25530,569;    2,282;    1,136
630,383;25782,751;    1,464;   -0,318
630,961;25554,874;    2,555;   -0,955
631,539;25302,803;    2,464;    0,227
632,116;24695,692;   11,373;   15,409
632,694;25248,849;    2,555;    6,500
633,271;25570,404;    0,828;    2,682
633,848;25507,908;    1,828;    2,045
634,426;25510,065;   -1,081;    1,773
635,003;24572,997;    1,101;   -0,409
635,580;24950,983;    1,192;    3,682
636,158;25526,596;    3,737;    1,227
636,735;25461,708;    0,555;   -0,500
637,312;25601,348;   -0,809;   -0,682
637,889;25697,379;   -4,354;   -0,682
638,466;25187,235;   -3,990;   -0,409
639,043;25192,437;    2,101;   -1,136
639,620;25543,856;   -2,262;   -0,955
640,197;25803,350;    1,100;    1,682
640,774;25908,676;   -0,172;    1,136
641,351;26354,730;    0,737;    1,136
641,928;25786,694;   -0,627;    1,409
642,505;25445,020;    0,828;   -0,500
643,082;25546,529;   -1,718;    1,227
643,658;24541,765;   -0,718;    1,500
644,235;25324,637;    1,191;    2,500
644,812;25643,509;    1,918;    0,773
645,388;25373,472;   -0,991;    1,409
645,965;25496,163;   -0,809;    1,682
646,542;25570,217;   -1,445;   -0,227
647,118;25547,452;    1,009;   -0,955
647,695;25808,416;   -0,263;    1,136
648,271;25718,561;   -0,536;    0,500
648,848;26068,887;    0,736;    2,227
649,424;25852,669;    0,827;    1,318
650,000;25654,086;   -0,354;   -1,045
650,577;25486,867;   -0,627;   -0,955
651,153;25934,103;   -1,809;    0,955
651,729;26944,157;    1,191;    0,864
652,305;27469,575;    0,645;    2,773
652,881;32532,538;   -0,082;    1,136
653,458;39433,956;    1,100;    0,227
654,034;42809,464;    0,282;    1,591
654,610;44118,791;    0,554;    0,773
655,186;45273,118;    0,645;    3,045
655,762;44865,445;   -0,991;    0,409
656,338;44832,317;    0,100;    0,136
656,913;45827,098;   -0,082;    0,409
657,489;44994,152;    0,827;   -0,318
658,065;44912,570;   -0,173;   -1,591
658,641;45620,260;   -0,900;   -0,864
659,217;44878,678;   -0,991;    0,409
659,792;44244,550;    0,645;   -0,409
660,368;44386,240;   -2,173;   -0,682
660,944;43816,840;   -2,082;    1,227
661,519;38700,621;   -0,628;    0,409
662,095;32826,402;   -1,719;    0,591
662,670;28715,184;    1,281;   -0,136
663,246;27784,510;    1,009;   -0,409
663,821;27182,292;    0,281;    1,682
664,396;26676,346;    0,009;    1,864
664,972;26921,127;    0,009;   -0,500
665,547;27213,454;    1,372;    0,136
666,122;27287,235;   -1,082;    0,318
666,698;27605,107;   -0,173;    0,318
667,273;26926,070;   -0,173;    0,136
667,848;27743,397;    2,372;    1,500
668,423;27596,724;    2,190;    2,318
668,998;28145,232;    2,827;   -0,682
669,573;28679,923;   -3,264;   -1,500
670,148;28486,068;   -1,446;   -0,682
670,723;28276,122;   -1,810;    0,318
671,298;28714,721;    2,372;    1,045
671,873;28802,321;   -0,082;   -0,136
672,448;28740,557;    0,645;    0,136
673,023;29056,520;   -1,992;   -0,227
673,597;29445,846;    0,827;    2,318
674,172;29262,991;   -0,355;    0,318
674,747;28692,773;    0,372;   -1,045
675,321;28486,736;   -0,628;    3,318
675,896;28065,881;    0,645;    1,045
676,471;29091,116;    2,645;    1,591
677,045;28853,807;   -1,264;    0,682
677,620;28874,406;    0,190;    1,136
678,194;29164,824;   -2,628;    1,136
678,769;28741,696;   -1,083;   -0,318
679,343;29009,659;   -0,628;    1,773
679,917;28919,713;   -1,446;    1,955
680,492;29031,585;    0,826;    3,227
681,066;29086,185;    3,372;    0,409
681,640;29175,330;    1,463;   -0,318
682,214;30009,384;    0,735;    0,500
682,788;29537,892;   -1,356;   -0,773
683,363;29427,583;   -1,810;    1,682
683,937;29172,001;   -1,719;   -0,318
684,511;29937,509;    0,463;   -0,591
685,085;29637,199;   -1,356;    0,318
685,659;29358,072;   -2,538;    0,864
686,232;29630,126;   -0,356;   -0,318
686,806;29350,362;   -0,901;    0,409
687,380;29984,506;   -0,174;    0,591
687,954;30203,288;   -1,174;    1,136
688,528;29928,433;   -0,719;    1,955
689,101;30656,214;   -3,992;    1,045
689,675;30230,904;   -0,356;   -0,136
690,249;29633,867;   -0,719;    0,409
690,822;29932,376;    0,280;    0,318
691,396;30031,703;   -0,265;    1,227
691,969;29483,848;    1,280;    0,136
692,543;29986,447;   -0,447;   -1,955
693,116;29663,319;   -0,265;   -1,409
693,690;29475,373;    0,099;    0,500
694,263;30004,882;   -1,083;    2,955
694,836;30059,209;    1,371;    3,591
695,410;28728,172;   -0,265;    1,773
695,983;29211,135;    0,189;    0,591
696,556;29175,280;   -0,447;   -1,045
697,129;29533,425;   -0,356;    1,409
697,703;29172,661;   -1,629;    1,955
698,276;29144,078;    1,462;   -0,773
698,849;28961,314;    1,280;    1,409
699,422;29343,732;   -1,083;    0,591
699,995;28986,058;    0,007;    0,136
700,568;29551,022;   -0,629;    3,045
701,140;29550,166;   -2,811;    1,682
701,713;29288,766;   -0,174;    2,409
702,286;29050,638;   -0,538;    0,864
702,859;28947,510;   -0,902;   -0,591
703,432;28103,564;    0,825;    0,682
704,004;28597,164;    0,462;    0,318
704,577;28441,036;   -0,629;    0,136
705,150;29007,272;    0,189;    2,500
705,722;28833,326;   -0,356;   -3,227
706,295;28571,834;   -0,175;   -0,591
706,867;28440,070;   -0,175;    1,955
707,440;28657,943;   -1,720;   -0,409
708,012;28937,906;    0,462;    0,591
708,584;28864,960;    2,462;    0,227
709,157;29129,468;    1,825;   -0,591
709,729;28782,704;    2,280;    2,045
710,301;29591,940;    0,734;    0,045
710,874;29643,448;   -1,447;   -0,227
711,446;28501,684;    0,371;    0,864
712,018;28364,920;    0,098;    0,500
712,590;28140,338;   -1,993;    1,682
713,162;28663,210;    0,825;    1,318
713,734;28911,446;    1,825;   -2,045
714,306;28782,318;   -1,902;   -0,409
714,878;27437,736;    0,825;    0,864
715,450;28276,062;    0,643;    0,864
716,022;28503,571;    1,552;    1,318
716,593;28743,716;    0,189;    0,591
717,165;28636,952;   -3,175;   -1,227
717,737;28321,824;    0,280;    0,409
718,309;27996,060;    0,280;   -0,045
718,880;27946,932;   -0,539;   -1,409
719,452;28110,713;   -0,175;   -1,591
720,024;27791,495;    0,734;   -0,591
720,595;28339,185;   -2,902;    0,955
721,167;27889,603;    0,370;   -2,045
721,738;27421,747;   -0,812;   -1,045
722,309;27411,347;   -0,993;   -1,227
722,881;27144,856;   -1,357;    0,773
723,452;27787,637;   -2,630;    2,864
724,023;27980,054;   -0,721;    2,682
724,595;27711,563;    0,007;    0,682
725,166;27501,163;    0,007;   -0,409
725,737;27171,398;    1,734;    0,227
726,308;27248,634;   -0,266;    0,318
726,879;27713,870;   -1,630;    1,227
727,450;27549,197;    0,552;   -0,045
728,021;27487,887;    3,097;    0,682
728,592;27228,396;    0,734;    0,500
729,163;27630,177;    0,643;   -0,136
729,734;27666,413;    0,188;   -0,227
730,305;28032,921;    1,734;    0,136
730,876;28383,430;    0,188;    2,955
731,447;28070,939;    2,188;    2,682
732,017;28212,174;    1,097;    1,864
732,588;27668,865;    0,734;    1,227
733,159;27854,555;    0,643;   -1,045
733,729;27691,791;    0,006;    0,409
734,300;26910,572;    0,915;    0,864
734,870;27337,808;    3,461;    0,591
735,441;27938,771;    0,370;   -0,591
736,011;27673,825;    0,643;   -1,591
736,582;27639,425;   -0,812;    0,045
737,152;27078,933;   -1,721;   -2,045
737,722;27507,533;   -0,267;   -0,682
738,293;27223,587;   -1,358;    1,318
738,863;27118,913;    2,461;    2,318
739,433;26973,604;    5,279;    0,318
740,003;27579,931;   -0,994;   -0,682
740,573;26998,257;    2,097;   -1,591
741,143;26946,039;   -1,085;    0,318
741,713;27673,456;    1,188;   -0,500
742,283;27417,510;    0,915;    1,591
742,853;27176,383;    1,915;    1,591
743,423;26575,346;    1,733;    0,045
743,993;26724,218;   -0,358;    1,500
744,563;26135,908;    0,097;   -0,864
745,133;26069,053;   -0,812;   -0,864
745,702;26722,198;   -0,267;    1,773
746,272;25998,979;   -0,176;    0,591
746,842;25797,397;   -1,358;   -0,591
747,411;26175,815;   -0,267;   -0,318
747,981;26379,960;    0,097;    0,500
748,551;26406,286;    2,278;   -1,045
749,120;26261,522;    0,642;   -0,227
749,690;26645,485;   -0,631;    2,409
750,259;26979,994;    1,369;    2,955
750,828;26854,593;    1,551;   -1,955
751,398;27121,284;    1,278;   -0,045
751,967;26686,610;    2,187;    0,409
752,536;26876,664;   -0,813;   -0,227
753,105;27298,264;    0,096;    0,227
753,675;27124,591;    0,096;    1,773
754,244;27064,372;   -0,904;    3,591
754,813;27099,153;    0,551;    1,227
755,382;26622,844;    0,460;    0,955
755,951;27214,079;    1,551;    3,682
756,520;26771,679;   -0,085;    1,864
757,089;27365,551;    0,278;    0,500
757,658;27487,878;    1,733;    1,227
758,227;27430,659;    1,096;    0,318
758,795;27742,986;    1,187;    1,136
759,364;27918,131;   -0,086;   -0,591
759,933;27011,730;   -1,176;   -0,045
760,501;26464,148;    0,733;   -1,318
761,070;26955,202;   -2,813;   -1,409
761,639;27707,801;   -1,904;    1,318
762,207;27073,219;    1,551;   -0,955
762,776;26986,455;    0,369;    0,864
763,344;26923,782;   -0,995;    0,591
763,913;26028,836;   -0,722;    1,409
764,481;26771,072;    1,005;   -0,136
765,049;26549,762;   -1,358;    1,409
765,618;26396,089;   -0,086;    0,318
766,186;26455,597;    0,278;    0,136
766,754;26698,379;    0,005;    1,864
767,322;25666,705;   -1,995;    0,409
767,890;25725,305;   -0,722;   -1,773
768,459;26103,904;   -2,177;   -0,318
769,027;26300,322;    1,641;    3,409
769,595;25257,012;    3,278;    2,591
770,163;25663,066;    3,823;    2,955
770,730;25405,484;    0,732;   -0,136
771,298;25225,992;    0,187;   -1,409
771,866;25290,956;   -1,541;    4,955
772,434;25677,919;   -0,631;   -1,864
773,002;25857,245;    0,005;    0,682
773,569;25501,027;    0,914;    1,682
774,137;25363,172;   -0,268;   -0,045
774,705;26102,953;    0,278;   -0,136
775,272;25592,007;    0,641;    0,682
775,840;25347,061;   -0,177;    2,682
776,407;24893,115;    0,277;    1,955
776,975;24509,533;   -0,632;    0,318
777,542;25499,859;   -1,086;   -0,045
778,110;25342,732;   -1,268;   -0,045
778,677;24971,240;   -2,359;   -0,864
779,244;24759,294;    2,186;    1,045
779,812;24882,621;    1,823;    0,864
780,379;24746,220;    0,005;    1,136
780,946;25025,820;    1,005;   -0,773
781,513;25339,783;   -1,450;    0,318
782,080;24725,837;   -0,086;    2,864
782,647;25452,346;   -0,268;    3,045
783,214;25019,854;   -0,177;    3,864
783,781;24658,817;   -0,723;   -0,682
784,348;24516,326;   -0,632;    1,500
784,915;25006,653;   -3,177;    0,318
785,482;24686,979;    1,368;    2,591
786,049;25101,397;    0,186;   -0,591
786,615;25262,178;    0,277;   -0,955
787,182;24983,778;    0,186;   -0,682
787,749;24663,286;   -2,814;    1,409
788,315;24024,431;   -1,632;   -0,409
788,882;24294,758;    1,550;   -1,227
789,448;25030,267;    1,732;   -0,955
790,015;24984,684;    1,095;    3,227
790,581;24579,738;    1,459;    0,227
791,148;24521,338;    0,641;    1,045
791,714;24696,119;   -0,541;    3,136
792,280;24360,628;    0,186;    1,591
792,847;23927,591;    0,550;    2,500
793,413;24470,190;   -0,269;   -0,318
793,979;24054,517;    3,459;   -1,318
794,545;24142,298;    4,459;    2,682
795,111;23549,898;    2,186;    1,318
795,678;23746,679;    0,731;   -1,682
796,244;23361,824;    3,368;    0,136
796,810;23910,605;    1,731;    0,773
797,375;23621,023;    0,549;   -2,136
797,941;23623,259;   -0,541;    0,591
798,507;23802,494;   -0,451;   -0,955
799,073;23344,185;   -0,360;    0,591
799,639;23418,057;   -2,632;    3,136
800,205;23416,293;    0,095;    2,682
800,770;22952,256;    0,640;    1,773
801,336;23052,674;    1,368;   -0,955
801,901;22798,091;    4,549;    3,136
802,467;23294,145;   -0,542;    2,045
803,033;22634,381;   -0,087;    0,864
803,598;22901,799;    1,913;   -1,045
804,163;22924,126;    1,095;   -0,318
804,729;22859,725;   -0,178;    1,136
805,294;23265,961;    0,822;    2,227
805,859;23020,924;    0,731;   -0,409
806,425;22494,705;    1,186;    2,682
806,990;22178,941;    2,186;    4,318
807,555;22684,904;   -1,451;    2,591
808,120;22590,867;    0,822;   -0,409
808,685;22600,285;    0,185;   -2,500
809,250;22105,612;    0,004;   -0,500
809,815;22411,302;    1,913;    0,682
810,380;22931,720;   -0,269;    1,591
810,945;23520,774;   -1,087;    2,045
811,510;22652,828;    2,094;    1,591
812,075;22402,518;   -0,633;   -1,409
812,640;22373,118;    2,003;    1,409
813,204;22459,717;    0,822;   -0,227
813,769;22939,226;    2,094;   -0,045
814,334;22407,280;    0,458;    0,864
814,898;22435,152;    0,367;    0,591
815,463;22240,024;    1,276;   -0,773
816,027;22251,805;   -0,724;   -2,318
816,592;22314,678;    0,640;   -2,045
817,156;21884,277;    2,094;    1,136
817,721;21772,604;    4,276;    2,318
818,285;21698,203;    2,912;    1,500
818,849;22319,985;   -1,451;    1,682
819,414;22208,948;   -0,269;    2,955
819,978;21789,365;   -1,269;    1,773
820,542;22361,783;    2,003;    0,500
821,106;22075,019;   -0,815;    0,682
821,670;22222,346;   -0,815;    2,591
822,234;21939,127;   -0,270;    1,409
822,798;21318,635;    0,003;    0,500
823,362;21255,053;   -0,633;    4,227
823,926;20544,743;    0,094;    1,136
824,490;20772,616;   -0,997;   -0,682
825,054;21220,215;   -0,088;   -1,136
825,618;20879,542;   -1,542;   -1,500
826,181;20833,869;    0,458;   -1,318
826,745;20764,014;    1,367;   -1,045
827,309;21111,340;    1,185;    1,318
827,872;20446,485;    1,367;    0,955
828,436;21437,176;    1,185;   -0,773
828,999;21471,139;   -0,997;    1,227
829,563;20311,556;   -0,179;    1,136
830,126;20100,156;   -0,179;   -0,591
830,690;20141,301;   -1,997;    2,864
831,253;19681,355;   -0,543;    2,227
831,816;19826,409;   -1,906;    0,500
832,380;19740,008;    0,185;    0,864
832,943;19956,335;   -1,361;   -0,500
833,506;19427,389;    2,639;   -1,227
834,069;20222,352;    3,912;   -0,955
834,632;20264,406;    1,730;    1,318
835,195;20126,006;    1,003;    0,955
835,758;19325,060;   -0,997;    1,955
836,321;19197,932;    0,730;   -1,045
836,884;19323,713;   -0,725;   -0,955
837,447;19313,858;   -2,816;    1,773
838,010;19603,821;    0,366;    3,227
838,573;19865,421;   -1,179;    0,773
839,135;19856,111;   -1,361;   -0,955
839,698;19364,710;    1,275;    0,409
840,261;18900,946;    1,003;   -0,227
840,823;18725,909;   -0,543;    0,864
841,386;18963,600;   -0,452;   -2,409
841,948;18853,108;   -1,361;    1,773
842,511;18591,526;    0,912;    1,682
843,073;18761,944;    1,912;    0,227
843,636;18554,907;   -0,361;   -0,227
844,198;18485,143;    0,911;    0,591
844,760;18635,288;    1,093;    1,955
845,322;18235,887;    0,548;    1,136
845,885;18697,850;    0,730;    0,591
846,447;19136,722;   -1,998;    0,227
847,009;18763,322;    1,911;   -0,682
847,571;19045,467;    0,820;   -2,045
848,133;19128,612;   -1,089;   -1,864
848,695;18946,302;   -0,543;    1,409
849,257;18511,720;   -1,089;   -1,682
849,819;18728,046;   -0,998;   -0,409
850,381;18763,282;   -0,725;   -0,864
850,942;19094,245;    1,093;   -0,591
851,504;19031,027;    1,184;    0,227
852,066;19075,353;    1,275;   -1,591
852,628;18627,862;   -0,180;    1,955
853,189;18176,371;    1,638;    2,682
853,751;18279,606;   -0,907;    1,409
854,312;18081,660;   -0,453;   -1,682
854,874;18596,623;   -2,089;   -0,773
855,435;19109,496;   -0,907;   -1,682
855,997;19259,913;   -1,816;   -0,136
856,558;18565,513;    0,366;    1,773
857,119;18676,840;    0,820;    2,864
857,681;18367,530;    0,002;    0,318
858,242;18402,948;    1,911;   -2,136
858,803;18826,911;    0,456;   -0,773
859,364;19430,510;    0,184;   -4,773
859,925;18701,291;   -2,453;   -0,955
860,486;18597,527;   -0,453;   -0,955
861,047;18321,854;   -0,544;   -1,227
861,608;18141,181;   -1,089;   -0,773
862,169;18239,689;    0,638;   -0,045
862,730;18036,289;    0,456;    1,409
863,291;18263,616;   -0,635;   -0,500
863,852;18678,033;   -0,635;    1,955
864,412;18100,815;   -0,271;   -0,864
864,973;16680,232;   -0,089;    0,500
865,534;16570,377;   -1,726;    0,227
866,094;18072,886;    1,820;    0,227
866,655;17728,031;    1,274;    3,318
867,215;17997,903;    0,274;    0,136
867,776;17834,411;    0,547;   -0,136
868,336;17953,829;   -1,453;    0,136
868,897;17454,428;    2,638;    1,682
869,457;17168,028;    1,365;    0,318
870,017;17392,627;    0,547;   -1,227
870,578;17929,591;   -0,817;    0,773
871,138;17593,281;   -2,089;   -0,955
871,698;17161,880;   -0,817;   -1,318
872,258;17038,207;   -0,453;   -2,864
872,818;17433,534;    2,729;    0,045
873,378;17383,406;    0,638;    1,045
873,938;16892,460;    0,547;    0,500
874,498;17241,241;    0,274;   -1,955
875,058;17103,023;    2,183;    1,773
875,618;16924,259;    1,910;   -2,682
876,177;16860,949;    1,274;    0,136
876,737;16506,185;   -0,090;    1,955
877,297;16561,784;    0,183;    1,955
877,856;16533,202;   -0,362;    0,318
878,416;16519,165;    1,183;   -0,136
878,976;16700,492;   -1,817;    0,409
879,535;16900,182;    0,092;    3,136
880,095;16618,327;   -0,544;    0,045
880,654;16756,836;   -1,090;    1,318
881,213;16890,435;    2,456;    1,500
881,773;16519,307;    2,637;    2,682
882,332;16914,998;    3,365;    5,136
882,891;16722,143;    3,092;    2,136
883,451;17154,378;   -1,272;    1,682
884,010;16600,978;   -2,908;   -0,409
884,569;16712,032;   -0,999;   -0,045
885,128;16833,540;    2,819;   -1,864
885,687;16952,776;    4,455;    0,682
886,246;16667,921;    1,455;    2,136
886,805;16413,612;    2,455;    2,045
887,364;16642,757;   -0,999;   -0,500
887,922;17002,720;   -1,181;    0,045
888,481;16520,046;   -1,545;    0,591
889,040;16842,737;    1,183;    2,136
889,599;17524,700;    2,455;    1,409
890,157;17568,754;    1,455;    2,409
890,716;17221,626;   -0,090;    0,227
891,274;17071,316;    0,092;   -1,136
891,833;17506,098;    1,546;    0,864
892,391;17363,243;   -0,454;    0,500
892,950;17488,842;    1,819;   -0,773
893,508;17868,805;    0,455;   -0,409
894,067;17165,859;    0,637;    0,136
894,625;17048,913;   -0,636;   -1,500
895,183;17318,240;   -0,363;   -0,682
895,741;17170,749;    1,728;   -1,773
896,299;16958,075;   -0,545;   -2,409
896,858;17147,402;    0,819;   -1,591
897,416;17327,002;    2,728;   -1,318
897,974;17065,783;    1,819;    0,318
898,532;17253,746;    6,091;    2,682
899,089;17110,527;    2,091;   -0,682
899,647;17166,127;   -1,454;    1,318
900,205;16911,181;    1,182;    1,045
900,763;17065,326;   -0,454;    0,227
901,321;17093,471;    2,364;   -1,409
901,878;16493,979;   -1,000;   -0,773
902,436;16391,306;   -1,363;    1,318
902,994;16788,905;    4,728;    3,682
903,551;16234,050;    0,728;    0,409
904,109;16613,741;    0,182;   -1,409
904,666;16180,158;    2,455;    1,045
905,224;15992,576;    0,182;   -0,409
905,781;15774,539;    0,727;   -0,318
906,338;15845,411;   -1,363;    1,045
906,895;15796,829;    0,637;    2,045
907,453;15709,519;    1,727;    1,136
908,010;15744,301;   -0,909;    0,409
908,567;15397,446;    1,273;    0,591
909,124;14867,227;    0,364;   -1,500
909,681;14954,008;   -2,909;    0,682
910,238;15112,517;    0,636;   -1,318
910,795;15401,662;   -0,273;   -1,136
911,352;15006,843;   -2,909;   -2,682
911,909;14418,025;   -1,364;   -0,864
912,466;14932,480;   -3,182;    1,500
913,022;14516,843;   -1,636;    0,500
913,579;14902,843;   -0,909;    2,045
914,136;14577,025;    1,636;    0,955
914,692;14882,934;    0,091;   -1,227
915,249;14492,116;    1,455;    0,409
915,806;14742,662;    0,182;    1,955
916,362;14468,753;    1,909;    1,864
916,918;14030,207;    2,000;    1,045
917,475;14011,571;   -1,182;    0,955
918,031;14080,753;    3,364;   -0,045
918,587;13548,025;   -0,909;   -0,318
919,144;13758,753;   -2,273;    0,227
919,700;14082,207;    1,727;    0,773
920,256;13642,480;    0,727;    0,045
920,812;13246,480;   -0,727;   -1,045
921,368;13268,116;   -1,727;   -1,045
921,924;12909,843;    0,182;   -0,136
922,480;12501,934;   -0,545;    1,227
923,036;13119,389;    1,273;    1,955
923,592;13023,025;    0,455;    0,318
924,148;12932,662;    0,455;   -0,955
924,704;12255,843;   -1,364;   -0,409
925,259;12510,571;   -0,273;    0,591
925,815;12304,934;    1,455;    0,500
926,371;11805,934;    2,909;    1,409
926,926;11721,934;    2,091;    0,591
927,482;11361,207;   -1,364;    0,773
928,037;11236,389;    0,909;    2,045
928,593;11535,389;    1,636;    1,045
929,148;11317,753;   -1,818;   -1,500
929,704;10834,480;   -1,455;   -0,500
930,259;11054,662;    0,091;   -0,136
930,814;10117,025;   -0,818;    1,955
931,369; 9781,934;    1,091;   -0,773
931,925; 9649,116;   -0,091;    0,136
932,480; 9561,025;   -2,818;   -2,591
933,035; 9464,298;    0,545;   -0,318
933,590; 9256,480;    0,364;   -1,773
934,145; 8873,753;   -1,364;   -0,318
934,700; 9228,298;    0,455;   -0,591
935,255; 9019,753;   -0,091;    0,045
935,809; 8312,662;    3,182;    0,864
936,364; 7462,207;   -0,455;   -0,136
936,919; 7422,934;    0,455;   -1,773
937,474; 7266,662;    1,455;    0,136
938,028; 7038,571;   -1,636;    1,136
938,583; 6532,843;    1,818;    4,682
939,138; 6786,207;    2,091;    2,136
939,692; 6217,753;    1,636;   -1,136
940,247; 5952,843;   -0,727;   -1,045
940,801; 5520,753;   -0,636;    0,227
941,355; 5401,753;   -0,364;    2,591
941,910; 5048,116;   -0,273;   -2,136
942,464; 5166,025;   -0,818;   -0,318
943,018; 4983,025;    1,000;   -0,227
943,572; 4914,207;    2,545;   -0,682
944,126; 4356,025;    0,091;   -0,409
944,681; 4251,207;    3,091;    0,227
945,235; 4213,480;    1,000;   -0,591
945,789; 4153,934;    0,364;   -1,864
946,342; 4273,116;    0,455;   -0,591
946,896; 4069,753;   -2,273;    0,955
947,450; 3826,662;    1,545;   -0,227
948,004; 4030,298;    1,727;   -0,045
948,558; 4012,207;    0,273;   -0,864
949,111; 3939,934;   -0,273;   -0,318
949,665; 3981,389;    1,636;   -0,682
950,219; 3849,571;   -0,091;   -1,045
950,772; 3921,207;   -1,909;    1,864
951,326; 3827,480;    0,545;   -0,955
951,879; 3943,753;    0,727;   -2,318
952,433; 3965,298;    0,000;    2,227
952,986; 3779,753;    2,909;    0,682
953,539; 3754,298;   -0,273;    0,591
954,093; 3685,116;    0,545;   -1,318
954,646; 3832,116;    0,909;    1,318
955,199; 3627,934;    0,000;   -0,500
955,752; 3522,753;   -0,455;    1,773
956,305; 3489,116;   -0,091;    2,955
956,858; 3664,480;    0,818;   -0,318
957,411; 3812,480;   -0,545;    2,136
957,964; 3635,753;    1,364;    2,136
958,517; 3614,753;   -1,545;    3,136
959,070; 3439,116;   -0,455;    1,955
959,623; 3544,934;    1,091;    1,500
960,176; 3315,753;    1,727;    2,045
960,728; 3296,025;   -2,727;    0,773
961,281; 3347,298;    0,545;    0,500
961,834; 3386,480;   -0,909;    0,864
962,386; 3301,571;    1,727;    1,045
962,939; 3225,116;    0,364;   -0,318
963,491; 3355,025;    0,455;    1,136
964,043; 3249,298;    1,182;    2,409
964,596; 3387,753;   -1,000;    2,227
965,148; 3219,662;   -1,000;    1,773
965,700; 3132,753;    1,091;   -0,227
966,253; 3282,753;   -0,636;    0,318
966,805; 3113,116;   -2,273;    0,773
967,357; 3172,025;    1,091;   -1,500
967,909; 3155,207;    0,455;   -1,227
968,461; 3243,843;    0,545;    3,136
969,013; 3169,116;   -0,182;   -0,864
969,565; 3242,207;   -0,455;   -1,136
970,117; 3316,298;   -0,364;    1,045
970,669; 3135,753;    0,182;   -0,136
971,220; 2996,298;   -0,455;   -1,500
971,772; 2932,116;   -0,636;   -0,318
972,324; 3064,662;    0,091;   -0,500
972,876; 2992,753;    0,818;   -0,045
973,427; 3158,298;    1,909;   -1,045
973,979; 3122,571;   -0,727;   -2,500
974,530; 3148,389;    1,818;    1,318
975,082; 3152,298;   -0,545;    1,682
975,633; 3046,025;    1,091;    1,682
976,184; 3191,116;    0,909;    0,773
976,736; 2974,480;    0,091;    0,227
977,287; 2771,843;   -0,909;   -0,500
977,838; 2946,025;    0,909;   -0,318
978,389; 3010,116;   -1,000;   -0,500
978,940; 2889,843;    0,545;   -0,409
979,491; 2905,207;    0,091;   -0,500
980,042; 2889,298;    0,182;    3,045
980,593; 2937,843;   -2,545;    0,227
981,144; 2987,116;    2,545;   -0,500
981,695; 2967,025;    1,455;    1,500
982,246; 2914,025;   -0,273;    1,045
982,797; 3049,843;   -1,727;    0,682
983,347; 3144,298;    0,364;    0,591
983,898; 3328,298;    3,091;    0,409
984,449; 3165,298;    2,182;    0,773
984,999; 3047,662;    1,455;   -1,136
985,550; 2834,389;    0,182;   -0,318
986,100; 2865,934;   -0,455;   -0,318
986,651; 2893,207;   -0,818;    0,045
987,201; 2872,116;   -1,000;   -0,591
987,751; 2938,298;    0,818;    2,864
988,302; 2949,753;    2,636;    1,500
988,852; 2983,571;    0,455;   -1,136
989,402; 3014,753;    0,091;    0,682
989,952; 2928,662;   -2,182;    0,864
990,502; 3024,389;   -0,091;    0,682
991,052; 2988,298;   -0,727;    0,045
991,602; 2862,480;   -2,909;    1,318
992,152; 2859,753;    0,455;    0,682
992,702; 2833,753;    1,364;   -0,045
993,252; 2761,207;   -3,000;   -0,500
993,802; 2867,753;   -0,273;    1,318
994,352; 3092,843;   -1,545;    1,136
994,901; 3165,207;   -0,182;    3,227
995,451; 3096,389;   -0,182;    0,318
996,000; 3180,843;    1,636;    0,318
996,550; 2907,207;    2,273;    0,227
997,100; 2888,934;    1,273;   -0,045
997,649; 3161,753;    2,182;    0,955
998,198; 2794,753;    1,727;   -1,500
998,748; 3003,389;    1,091;   -2,318
999,297; 2920,116;   -0,818;   -0,409
999,846; 2959,934;    1,000;   -0,773
1000,395; 3006,571;   -0,818;    0,500
1000,945; 2971,298;    1,818;   -0,773
1001,494; 3061,389;    2,364;    0,682
1002,043; 3054,116;    4,636;    0,864
1002,592; 2876,207;   -1,091;    1,955
1003,141; 3031,934;   -0,455;   -0,682
1003,690; 2885,662;    1,727;    0,500
1004,238; 2977,934;    1,455;   -0,045
1004,787; 2623,662;    1,364;    1,227
1005,336; 2855,571;    0,364;    0,682
1005,885; 2979,571;    1,364;   -2,773
1006,433; 3119,753;    0,545;    0,955
1006,982; 3184,753;    0,455;    1,682
1007,531; 3089,843;   -1,818;   -0,227
1008,079; 3042,753;   -2,273;    0,500
1008,627; 3182,843;   -1,455;    0,409
1009,176; 2918,662;    0,000;   -1,955
1009,724; 2974,389;    1,091;    0,864
1010,273; 3029,480;    1,273;    0,500
1010,821; 3123,207;    0,091;    1,409
1011,369; 2877,843;   -1,364;    1,318
1011,917; 2866,025;   -1,364;   -0,591
1012,465; 3124,298;    1,273;   -1,591
1013,013; 3236,753;    2,091;   -1,682
1013,561; 3119,843;    0,455;   -0,773
1014,109; 3161,571;   -1,909;    1,682
1014,657; 3030,843;    0,364;    0,591
1015,205; 3162,480;    1,636;   -0,955
1015,753; 3189,843;   -0,545;   -1,409
1016,301; 3238,753;   -2,636;    3,045
1016,848; 3238,389;   -1,273;    0,409
1017,396; 3282,116;    2,545;    0,045
1017,944; 3391,207;    1,182;    1,864
1018,491; 3152,207;    0,273;    1,409
1019,039; 3308,389;    0,455;    0,591
1019,586; 3225,207;   -1,364;    1,682
1020,134; 3321,934;    0,455;    1,500
1020,681; 3344,753;    0,182;   -1,136
1021,228; 3336,116;    2,909;   -2,227
1021,776; 3174,662;    1,182;   -1,136
1022,323; 3419,480;    0,455;    0,773
1022,870; 3332,298;   -1,000;   -0,045
1023,417; 3238,025;    2,636;    1,864
1023,964; 3355,662;    2,636;    1,227
1024,511; 3193,662;    1,000;    0,773
1025,058; 3016,571;    3,182;   -0,045
1025,605; 3053,843;   -2,273;    3,136
1026,152; 3286,116;    1,727;   -0,591
1026,699; 2999,207;    1,818;    1,318
1027,245; 3164,207;   -0,091;    0,318
1027,792; 3382,116;   -1,000;    1,409
1028,339; 3267,934;    2,364;   -0,045
1028,885; 3118,207;    1,000;   -0,227
1029,432; 3054,571;   -0,091;    0,227
1029,978; 3117,934;   -1,000;   -1,591
1030,525; 3031,480;    1,000;    0,409
1031,071; 3239,753;   -1,364;    1,136
1031,618; 3361,025;    0,364;    1,682
1032,164; 3135,116;   -0,091;    3,045
1032,710; 3202,571;    1,636;   -1,500
1033,256; 3108,662;   -0,636;   -0,136
1033,803; 3089,934;   -0,545;    1,500
1034,349; 2796,843;   -1,364;    0,136
1034,895; 2958,207;    0,000;   -0,318
1035,441; 2937,025;   -0,818;    0,318
1035,987; 2947,207;   -2,364;   -0,682
1036,533; 2940,298;   -1,455;   -0,955
1037,078; 3143,843;    1,455;    1,682
1037,624; 2973,843;    2,455;   -0,955
1038,170; 2996,934;    0,455;   -0,318
1038,716; 2896,025;    1,636;   -0,409
1039,261; 2813,753;   -2,273;   -0,773
1039,807; 2741,389;   -0,091;    3,409
1040,352; 2828,571;   -1,909;   -0,318
1040,898; 2853,480;   -1,545;   -0,682
1041,443; 2759,207;   -1,455;   -2,591
1041,989; 2797,843;    1,091;    1,591
1042,534; 2666,934;   -0,364;    2,591
1043,079; 2778,662;    2,909;    0,955
1043,625; 2565,389;    1,818;    0,500
1044,170; 2632,480;   -1,364;    1,045
1044,715; 2897,389;    2,455;    0,955
1045,260; 2711,025;    2,182;   -0,955
1045,805; 2729,843;    1,182;   -0,591
1046,350; 2666,389;    1,364;   -0,409
1046,895; 2639,389;    2,909;    1,591
1047,440; 2599,207;    5,364;    0,409
1047,985; 2476,480;    2,818;   -0,955
1048,530; 2392,116;    1,545;    1,227
1049,074; 2472,843;    0,000;    0,318
1049,619; 2440,298;   -1,364;    1,955
1050,164; 2238,025;    0,455;    0,227
1050,708; 2285,480;   -0,455;    0,045
1051,253; 2661,571;    1,273;   -2,227
1051,797; 2373,843;    0,818;   -1,318
1052,342; 2382,662;   -1,182;    1,045
1052,886; 2384,207;    0,364;   -1,409
1053,430; 2247,753;   -1,364;    0,136
1053,975; 2272,298;   -0,818;   -0,318
1054,519; 2255,389;   -0,727;    3,227
1055,063; 2281,571;    0,909;    1,318
1055,607; 2160,843;   -0,182;    0,227
1056,151; 2182,025;    2,909;    1,682
1056,695; 2095,298;    2,273;   -1,136
1057,239; 2169,843;   -1,727;   -0,682
1057,783; 2178,116;    0,818;   -1,500
1058,327; 2118,025;    0,000;    1,409
1058,871; 2345,934;   -0,545;    1,318
1059,415; 2069,480;   -0,818;   -0,045
1059,958; 2351,843;    1,455;    2,591
1060,502; 2058,753;   -1,000;   -0,773
1061,046; 1941,934;    0,364;   -0,955
1061,589; 1914,389;   -3,000;   -1,136
1062,133; 1810,753;   -1,273;    1,864
1062,676; 1754,025;    1,182;    0,864
1063,220; 1756,207;    1,091;    0,500
1063,763; 1786,025;    0,909;    1,136
1064,306; 1862,298;   -0,909;    1,864
1064,849; 1747,934;   -0,909;    0,591
1065,393; 1747,662;    2,000;   -1,500
1065,936; 1873,934;    0,182;   -0,409
1066,479; 1750,207;   -1,455;    1,318
1067,022; 1773,571;   -0,273;   -0,227
1067,565; 1671,389;   -0,091;   -1,318
1068,108; 1689,934;    0,727;   -0,591
1068,651; 1668,207;   -0,636;    1,409
1069,194; 1593,480;   -0,455;   -1,682
1069,736; 1607,298;   -1,273;    0,955
1070,279; 1583,843;   -1,364;   -0,500
1070,822; 1648,025;   -2,000;   -0,318
1071,364; 1745,298;   -0,364;    1,318
1071,907; 1540,025;   -0,727;    3,227
1072,450; 1423,207;    0,000;   -0,045
1072,992; 1437,571;   -0,273;    3,136
1073,535; 1588,207;    2,091;    2,136
1074,077; 1360,934;   -0,727;    2,045
1074,619; 1331,571;   -1,364;    0,591
1075,161; 1386,389;   -1,091;    1,500
1075,704; 1582,934;    1,545;    1,227
1076,246; 1363,753;   -0,182;    0,682
1076,788; 1280,025;   -0,364;    1,773
1077,330; 1357,934;    1,273;    2,136
1077,872; 1326,571;    0,909;    0,955
1078,414; 1559,571;    2,727;    0,773
1078,956; 1276,571;    1,273;   -0,227
1079,498; 1548,025;    1,636;    0,318
1080,040; 1256,116;    1,909;   -1,318
1080,581; 1181,480;    1,636;   -0,318
1081,123; 1109,207;    0,091;   -0,773
1081,665; 1159,662;   -1,182;   -0,955
1082,206; 1471,934;    1,364;   -0,500
1082,748; 1326,571;    0,727;    2,045
1083,289; 1201,025;   -2,000;    1,318
1083,831; 1103,843;   -0,545;    0,227
1084,372; 1156,298;    0,000;    0,591
1084,913; 1158,571;    1,091;    0,864
1085,455; 1107,571;   -1,909;   -2,045
1085,996; 1094,025;   -2,273;    0,136
1086,537; 1118,207;   -0,091;    0,864
1087,078; 1145,571;   -0,909;   -2,136
1087,619; 1191,934;   -1,273;    0,227
1088,160; 1112,298;    0,000;    1,318
1088,701; 1091,207;   -1,091;    0,682
1089,242; 1027,298;    1,364;   -2,227
1089,783; 1134,753;   -0,273;    1,409
1090,324; 1093,934;    0,455;    0,682
1090,865;  966,843;    2,727;   -0,409
1091,405;  924,025;    0,727;    2,227
1091,946;  961,480;    0,182;   -0,955
1092,487;  881,662;    0,818;   -1,409
1093,027; 1072,843;   -1,364;   -1,500
1093,568;  912,662;   -0,364;    1,227
1094,108; 1025,207;    0,273;    1,773
1094,649;  955,571;   -1,182;    0,136
1095,189;  884,298;   -0,636;   -0,682
1095,729;  849,389;   -0,091;    0,955
1096,269;  825,843;    0,727;   -0,955
1096,810; 1162,389;   -1,364;    0,500
1097,350;  987,298;    1,364;   -0,773
1097,890;  888,753;    0,364;    1,227
1098,430; 1158,025;    2,364;    2,864
1098,970; 1023,571;    2,182;    1,682
1099,510;  870,298;    0,545;   -2,318
1100,050;  799,116;    1,000;   -1,591
1100,589;  772,298;   -0,727;   -0,318
1101,129;  902,207;    0,818;   -0,955
1101,669; 1058,662;    1,727;    2,136
1102,209;  874,207;   -0,091;    2,227
1102,748;  829,298;    0,000;    0,955
1103,288;  819,662;    1,273;   -1,227
1103,827;  852,753;    3,091;   -2,227
1104,367;  720,843;   -0,091;   -2,409
1104,906;  691,480;    1,364;   -1,136
1105,445;  758,662;    0,636;   -1,136
1105,985;  698,753;   -0,727;    1,500
1106,524;  766,389;   -1,727;   -0,682
1107,063;  738,843;   -2,727;    1,409
1107,602;  699,389;   -1,909;   -1,500
1108,141;  622,389;   -1,909;    1,500
1108,680;  734,480;   -3,455;   -0,591
1109,219;  662,207;   -0,909;   -0,500
1109,758;  655,025;    0,455;    0,682
1110,297;  637,116;    1,000;   -0,682
1110,836;  588,753;   -0,727;    0,955
1111,375;  752,843;   -2,545;    0,409
1111,913;  759,843;   -1,000;    0,773
1112,452;  695,934;   -0,273;    0,136
1112,991;  572,753;    1,091;    1,955
1113,529;  533,116;   -0,818;   -0,045
1114,068;  606,662;   -0,273;    2,955
1114,606;  504,389;   -0,364;   -0,955
1115,144;  683,116;   -1,273;    1,045
1115,683;  616,025;   -0,727;    0,318
1116,221;  655,480;   -0,455;   -0,864
1116,759;  561,025;    0,636;   -0,864
1117,297;  777,843;    0,000;    1,864
1117,836;  575,571;   -2,182;   -1,227
1118,374;  586,025;    0,182;   -0,682
1118,912;  525,843;    0,909;    2,682
1119,450;  516,480;    1,000;    0,864
1119,988;  574,025;    1,545;    2,136
1120,525; 1034,571;    5,091;    3,318
1121,063;  730,753;    1,182;    1,864
1121,601;  530,389;   -0,909;   -1,227
1122,139;  482,207;   -0,727;   -2,045
1122,676;  681,843;   -0,727;    2,773
1123,214;  615,480;   -1,182;    4,409
1123,751;  424,753;    1,727;    2,227
1124,289;  555,662;   -0,091;   -0,409
1124,826;  414,662;    1,727;    0,227
1125,364;  337,116;    1,727;   -0,955
1125,901;  538,025;    1,182;    1,227
1126,438;  656,934;    0,818;    0,955
1126,975;  370,843;   -0,727;   -0,773
1127,513;  442,116;    0,273;    2,136
1128,050;  350,753;    1,636;   -0,682
1128,587;  455,934;    2,000;   -0,227
1129,124;  499,207;    0,091;    1,318
1129,661;  361,025;    0,273;    0,227
1130,198;  540,480;    1,636;    0,773
1130,734;  483,298;    0,182;    1,409
1131,271;  325,753;   -0,909;    0,864
1131,808;  505,571;    2,909;    3,045
1132,345;  375,753;    1,545;    0,318
1132,881;  237,389;   -1,545;   -1,864
1133,418;  392,843;    0,727;   -1,136
1133,954;  319,207;    2,455;   -2,682
1134,491;  401,025;    1,364;   -0,773
1135,027;  294,843;    2,364;    0,864
1135,564;  389,662;    0,273;    2,955
1136,100;  378,571;    0,364;    2,136
1136,636;  256,571;   -1,273;   -1,045
1137,172;  362,662;    0,000;   -1,045
1137,708;  280,298;   -1,364;   -1,045
1138,245;  279,571;    1,273;   -1,227
1138,781;  223,207;    1,091;   -3,318
1139,317;  300,480;    1,273;   -1,409
1139,852;  293,207;    3,091;    0,136
1140,388;  419,571;   -1,182;   -0,409
1140,924;  292,571;   -1,091;   -2,227
1141,460;  222,843;   -1,636;    0,136
1141,996;  158,934;   -1,364;    2,682
1142,531;  215,753;    1,364;    3,318
1143,067;  434,662;    1,182;    1,045
1143,602;  498,389;   -0,091;   -0,318
1144,138;  328,662;   -2,636;    1,045
1144,673;  191,480;   -1,455;    1,409
1145,209;  266,662;   -1,909;   -0,318
1145,744;  183,662;   -0,727;    0,864
1146,279;  327,116;    1,818;   -0,136
1146,815;  239,843;    1,545;   -2,682
1147,350;  280,025;   -1,364;    0,045
1147,885;  186,025;   -0,818;   -1,318
1148,420;  187,571;   -2,273;    0,773
1148,955;  164,843;   -1,727;    1,864
1149,490;  193,116;   -0,909;   -1,591
1150,025;  171,480;    0,455;   -1,773
1150,560;  303,207;    1,091;   -0,955
1151,094;  265,753;    1,455;   -0,591
1151,629;  273,753;    1,636;    0,864
1152,164;  193,116;    1,364;    1,318
1152,698;  142,753;   -0,182;   -0,136
1153,233;  103,753;    0,091;   -0,682
1153,767;  158,843;   -3,000;   -2,318
1154,302;  207,480;   -1,455;    1,773
1154,836;  200,389;   -0,455;   -2,136
1155,371;  262,934;   -1,364;    3,682
1155,905;  214,662;   -0,636;    1,682
1156,439;  180,934;   -0,636;   -0,500
1156,973;  211,662;    0,364;    0,318
1157,507;  146,843;   -0,364;    0,682
1158,042;  177,571;   -0,727;    1,045
1158,576;  231,025;    0,182;    1,773
1159,110;  210,843;   -0,818;    2,409
1159,643;  181,480;    0,636;   -0,045
1160,177;  114,389;   -1,545;    1,500

