
Integration time [ms]:   0,040
Averaging Nr. [scans]: 11
Smoothing Nr. [pixels]: 0
Data measured with spectrometer [name]: 7318044SP
Wave   ;Sample   ;Dark     ;Reference
[nm]   ;[counts] ;[counts] ;[counts] 

186,757;   14,896;   31,551;    1,318
187,357;   49,929;   22,551;    0,955
187,958;   30,001;   15,460;   -1,591
188,558;   76,344;    8,915;   -1,227
189,159;   42,666;    6,733;   -4,500
189,759;   14,722;    7,278;   -3,591
190,360;   13,002;    2,824;   -2,136
190,960;   61,489;    2,915;   -4,136
191,560;   71,195;    3,189;   -6,591
192,161;  317,458;    4,372;   -3,500
192,761;  151,457;    4,010;   -3,227
193,361;  101,789;    1,556;   -3,773
193,962;  147,368;    2,010;   -2,682
194,562;   66,158;    1,189;   -3,955
195,162;  100,035;   -2,448;   -2,227
195,762;  259,353;   -3,176;   -0,045
196,362;  207,120;    1,370;   -2,500
196,963;   72,299;    2,006;   -0,864
197,563;  142,074;    1,551;   -0,955
198,163;   78,949;    0,096;   -0,682
198,763;   94,015;    1,733;   -0,500
199,363;  201,176;    3,096;   -0,500
199,963;  156,373;    0,369;    0,409
200,563;  133,266;    2,823;   -1,409
201,163;  113,986;    3,277;   -0,227
201,763;  202,879;    3,732;    0,318
202,363;  141,877;    1,459;    1,500
202,963;  234,266;    1,459;    1,045
203,563;  345,806;    0,277;    0,500
204,162;  193,638;    2,096;   -1,864
204,762;  189,144;    0,550;    0,591
205,362;  152,057;    3,004;    1,955
205,962;  243,165;    3,096;    1,955
206,562;  242,331;    1,823;    2,318
207,161;  204,059;   -0,087;    0,318
207,761;  357,726;    1,277;    2,409
208,361;  234,099;   -0,268;    1,409
208,960;  338,013;    0,459;    1,500
209,560;  395,791;    1,277;    1,591
210,160;  381,017;    0,550;    1,864
210,759;  333,924;    4,186;    1,227
211,359;  350,386;    1,459;    1,045
211,958;  611,300;    1,277;    2,045
212,558;  680,916;    1,732;    1,864
213,157;  519,596;    1,822;    1,500
213,757;  944,133;    3,822;   -0,227
214,356;  643,293;    1,277;   -0,409
214,956;  962,984;    3,095;    0,409
215,555;  598,604;    2,095;    2,136
216,154;  536,090;   -2,723;   -0,591
216,754;  536,993;    0,277;    0,773
217,353;  668,346;   -0,268;   -1,045
217,952;  506,552;   -0,178;    0,318
218,552;  758,191;    1,368;   -0,773
219,151;  632,626;    0,277;    0,955
219,750;  634,025;    0,004;   -0,227
220,349;  706,813;   -0,451;    1,045
220,948;  821,405;   -1,360;    1,136
221,548;  791,808;    0,913;    1,227
222,147;  896,823;   -0,087;   -0,409
222,746; 1160,759;   -0,451;   -0,955
223,345; 1012,957;    0,731;    0,500
223,944; 1028,499;   -0,451;    0,773
224,543; 1157,819;    1,004;   -1,409
225,142; 1274,265;    0,094;    0,136
225,741; 1159,673;   -0,814;    1,045
226,340; 1160,811;   -0,451;   -0,955
226,939; 1558,452;   -0,996;   -0,136
227,538; 1413,239;   -0,360;   -0,773
228,137; 1597,667;   -0,814;    0,864
228,735; 1642,027;   -0,541;    1,227
229,334; 1403,475;   -0,905;   -0,227
229,933; 1774,454;    0,459;    0,591
230,532; 1854,596;    1,186;   -0,409
231,131; 1925,237;    1,732;    0,318
231,729; 1934,528;   -2,450;   -2,318
232,328; 1934,760;   -0,723;   -1,500
232,927; 1944,640;    1,004;   -0,500
233,525; 2001,720;    3,640;    0,045
234,124; 2185,564;    2,368;   -1,591
234,723; 2149,682;    0,913;   -1,045
235,321; 2223,158;    2,277;    0,136
235,920; 2389,350;    1,186;   -1,227
236,518; 2619,826;    3,459;    0,318
237,117; 2655,689;    0,004;   -0,227
237,715; 2793,356;    0,640;   -0,500
238,314; 2853,333;   -0,087;   -2,318
238,912; 2985,001;   -0,723;   -1,409
239,510; 2941,079;    0,459;   -1,227
240,109; 3127,009;    0,004;    3,773
240,707; 3131,721;   -0,996;    1,227
241,305; 3364,503;    0,550;    0,136
241,904; 3569,230;   -0,178;   -2,045
242,502; 3592,059;   -0,632;   -0,227
243,100; 3543,895;   -0,087;   -0,955
243,698; 3774,744;    0,732;    1,682
244,297; 3958,206;   -0,632;    0,682
244,895; 3867,697;   -0,269;   -2,318
245,493; 4197,244;    2,186;   -0,591
246,091; 4248,200;    1,368;   -1,318
246,689; 4240,014;    1,004;    0,591
247,287; 4407,616;    0,822;   -1,136
247,885; 4725,501;   -1,451;    1,227
248,483; 4817,581;    1,822;   -0,500
249,081; 4972,169;    0,185;    1,591
249,679; 5156,641;   -0,178;    1,682
250,277; 5391,023;   -1,723;    0,864
250,875; 5392,717;   -1,087;   -1,045
251,473; 5486,087;   -1,178;    0,500
252,071; 5706,581;    1,459;    1,045
252,669; 5868,863;   -1,814;    0,318
253,267; 6047,339;   -0,087;    0,773
253,864; 6039,071;   -0,360;    0,682
254,462; 6026,036;    1,640;    1,591
255,060; 5955,838;   -0,269;    1,318
255,658; 6262,408;    0,822;   -0,136
256,255; 6663,158;    0,186;   -2,045
256,853; 6578,410;   -0,269;    1,409
257,451; 6554,329;    0,822;    1,864
258,048; 6876,857;    1,822;    1,864
258,646; 6607,033;    1,731;   -1,045
259,243; 6807,410;   -0,087;    2,227
259,841; 6851,380;   -0,814;    0,318
260,438; 6768,109;   -0,087;    0,864
261,036; 7434,877;   -1,905;    1,409
261,633; 7353,051;   -0,087;    2,227
262,231; 7107,793;    2,731;   -0,045
262,828; 7189,217;   -0,905;    1,136
263,425; 7278,487;    0,913;   -0,591
264,023; 7576,020;    0,186;    0,045
264,620; 7151,572;   -0,360;   -0,318
265,217; 7517,684;   -2,087;    3,136
265,815; 7580,708;   -1,905;    2,136
266,412; 7416,054;    0,731;    0,136
267,009; 7462,507;   -1,451;    0,773
267,606; 7395,306;    0,822;   -0,955
268,203; 7365,467;   -0,269;   -0,591
268,801; 7620,618;    1,731;    0,591
269,398; 7887,724;   -0,360;    2,500
269,995; 7892,490;    0,277;    1,591
270,592; 7686,416;   -0,632;   -0,500
271,189; 7878,573;    0,186;    0,409
271,786; 7969,795;   -0,632;    1,227
272,383; 7865,247;   -1,087;    0,227
272,980; 8016,300;    0,277;    0,318
273,577; 8426,921;    0,004;    1,227
274,174; 7998,239;    0,822;    2,591
274,771; 8007,499;   -0,814;   -0,773
275,367; 8161,464;    2,277;    1,409
275,964; 8119,839;    0,731;   -0,500
276,561; 8195,872;    1,549;   -1,045
277,158; 8435,005;    0,095;   -1,773
277,755; 8558,987;    2,185;    0,409
278,351; 7956,030;   -0,451;   -1,500
278,948; 8261,316;   -0,815;    0,045
279,545; 8293,671;   -1,360;    2,318
280,141; 8934,043;   -1,723;   -2,045
280,738; 8808,947;   -0,451;   -0,136
281,334; 9011,724;   -1,633;    0,591
281,931; 8436,257;   -0,087;   -1,318
282,528; 8565,908;    0,822;   -0,500
283,124; 9222,309;   -1,087;   -0,500
283,721; 9125,061;   -0,451;    1,409
284,317; 8962,686;    0,185;    2,500
284,913; 9555,764;   -1,360;    0,591
285,510; 9722,855;    0,640;   -0,318
286,106; 9759,144;   -2,269;   -0,955
286,703; 9366,456;   -0,360;    1,955
287,299; 9607,653;   -1,451;   -0,591
287,895; 9831,239;    0,822;   -1,045
288,491;10369,906;    0,186;    2,136
289,088;10164,541;   -2,360;    2,409
289,684;10215,953;   -1,723;    1,500
290,280;10276,123;    0,368;    0,682
290,876;10383,991;    1,822;    5,500
291,472;10279,036;    1,276;    2,227
292,068;10420,151;    1,367;    0,227
292,665;10157,198;    2,095;    0,773
293,261; 9819,853;    0,276;    2,136
293,857;10254,935;    2,913;    2,136
294,453;10212,632;    3,550;    0,955
295,049;10126,240;   -0,268;    1,955
295,644;10168,574;    0,095;    0,136
296,240;10072,032;   -0,905;   -0,136
296,836;10146,050;   -0,995;    0,318
297,432;10470,749;    1,096;   -0,500
298,028;10529,266;    0,732;    0,773
298,624;10968,696;    1,459;    1,864
299,220;11208,998;    2,368;    0,591
299,815;10903,101;    1,005;   -0,409
300,411;10726,331;    0,914;    1,773
301,007;10767,529;    1,368;    0,227
301,602;10842,388;   -0,541;   -2,318
302,198;10996,768;    0,732;   -0,773
302,794;11319,411;    1,187;   -0,500
303,389;11431,967;   -1,177;    1,045
303,985;11548,400;    0,550;    1,409
304,580;11507,317;    1,459;    1,591
305,176;11473,208;   -3,086;    0,136
305,771;11409,270;   -1,268;   -1,227
306,367;11291,352;    4,095;    0,136
306,962;11608,025;    0,641;    1,500
307,558;11332,962;   -0,450;    0,136
308,153;11229,121;    1,095;   -1,136
308,748;11455,524;   -0,814;    1,682
309,344;11440,657;   -0,632;   -1,318
309,939;11529,658;   -1,905;   -1,318
310,534;11765,521;   -0,086;   -1,682
311,130;11698,045;    0,459;   -2,500
311,725;11441,344;    1,004;   -0,500
312,320;11736,364;    2,459;    0,045
312,915;11571,161;    1,459;   -1,045
313,510;11668,924;    1,550;   -0,500
314,105;12097,996;    1,096;    1,409
314,700;11446,205;   -3,086;   -1,045
315,295;11114,863;   -0,904;    0,045
315,890;10732,655;    1,277;    0,864
316,485;11102,351;   -0,359;   -0,318
317,080;11163,031;   -3,086;    1,591
317,675;11703,822;    2,005;   -0,682
318,270;11163,512;    5,550;    3,318
318,865;11128,509;    3,278;    3,045
319,460;10942,357;   -0,904;    0,591
320,055;11143,811;   -0,541;   -1,227
320,650;10804,945;   -1,995;   -0,591
321,244;10839,191;   -0,177;   -1,409
321,839;11760,488;   -1,541;   -0,227
322,434;11648,727;   -1,086;   -1,591
323,029;11295,833;    1,732;    1,591
323,623;11143,888;    1,550;    0,773
324,218;10920,355;    2,368;    1,409
324,812;10798,778;    1,096;    1,591
325,407;10601,721;   -0,814;    2,045
326,002;10540,060;    0,277;   -0,409
326,596;10842,104;    0,914;    1,318
327,191;11039,588;    0,823;   -1,045
327,785;10616,831;   -0,813;   -0,227
328,379;10879,529;    1,368;    0,136
328,974;10701,651;    0,914;   -3,955
329,568;10920,813;    0,186;   -2,409
330,163;10737,780;    2,096;    1,045
330,757;11099,784;    2,459;    1,591
331,351;10441,960;    0,459;    0,682
331,945;10780,772;    0,914;    1,409
332,540;10401,146;   -1,723;   -0,591
333,134;10582,032;   -1,086;    0,773
333,728;10846,932;    0,005;    0,318
334,322;11183,463;   -1,177;   -0,864
334,916;10479,946;    0,277;    0,955
335,510;10859,713;   -0,450;   -0,136
336,105;11099,134;   -1,086;    1,591
336,699;10823,519;   -1,086;    0,591
337,293;10822,544;   -1,723;    0,318
337,887;10972,031;   -2,723;    1,955
338,481;11107,083;    0,459;    0,591
339,074;11271,488;   -0,359;    2,682
339,668;11118,349;   -1,632;    1,227
340,262;11381,339;    1,732;    3,227
340,856;10894,857;    1,822;   -0,682
341,450;10259,492;    1,004;    1,864
342,044;11151,999;    1,459;    0,136
342,637;10942,645;    0,913;   -2,136
343,231;10864,028;   -2,360;    0,682
343,825;10821,789;   -1,086;   -0,591
344,419;10774,064;   -1,995;    0,500
345,012;10605,157;    2,459;    4,045
345,606;10647,196;    4,641;    1,591
346,199;10473,366;   -1,813;   -0,227
346,793;10022,318;    1,914;    2,045
347,386;10217,744;   -0,813;   -1,136
347,980;10191,401;   -0,268;   -0,045
348,573;10015,680;    2,278;    0,409
349,167; 9732,680;    5,278;    4,773
349,760;10064,627;    2,914;    2,682
350,354;10057,502;   -0,813;    1,136
350,947; 9807,694;    1,096;    1,682
351,540; 9476,628;   -0,358;   -1,409
352,134; 9405,840;    1,096;    1,136
352,727; 9522,748;   -0,086;    1,136
353,320; 9283,434;    0,005;    0,591
353,913; 9128,758;   -1,995;    1,864
354,507; 9330,956;    0,823;   -1,227
355,100; 9292,482;    0,460;    0,864
355,693; 8596,541;    2,005;    2,409
356,286; 8641,928;    0,823;    2,773
356,879; 8989,270;   -0,722;    1,227
357,472; 8567,766;   -0,904;    1,500
358,065; 8789,136;   -0,722;    2,500
358,658; 8674,994;   -0,540;    2,318
359,251; 8337,455;   -1,631;   -0,591
359,844; 7864,489;   -1,904;   -1,136
360,437; 8048,093;   -2,995;    0,045
361,030; 8290,515;    1,369;   -0,682
361,623; 7857,184;    2,824;    0,318
362,215; 7939,248;   -0,086;    2,045
362,808; 7756,814;   -2,358;   -1,682
363,401; 7918,035;   -2,449;    0,136
363,994; 7680,428;   -0,631;   -1,500
364,586; 7605,272;    0,824;   -1,500
365,179; 7819,426;   -0,449;   -1,136
365,772; 7279,984;   -1,995;    2,045
366,364; 7585,399;    1,915;   -3,227
366,957; 7785,792;    2,279;   -0,045
367,549; 7802,693;    2,188;   -0,864
368,142; 7468,428;    1,825;   -1,500
368,734; 7643,293;    0,734;   -2,136
369,327; 7569,685;    1,643;   -0,500
369,919; 7510,271;   -1,538;    0,409
370,512; 7302,961;   -1,083;   -0,500
371,104; 7081,008;   -0,901;    1,591
371,696; 7261,064;    1,191;   -0,955
372,289; 7310,369;    0,373;    1,136
372,881; 7477,780;   -2,080;    1,318
373,473; 7411,290;   -2,170;    1,136
374,066; 7220,803;   -0,169;    0,500
374,658; 7073,409;    0,378;    1,136
375,250; 7419,961;    0,653;   -1,409
375,842; 7252,326;    0,473;   -0,045
376,434; 7134,560;   -0,435;   -0,409
377,026; 7689,494;    0,204;   -2,500
377,618; 7563,588;   -0,158;   -0,682
378,210; 7416,687;   -0,338;   -1,955
378,802; 7269,491;    0,754;   -0,591
379,394; 7254,361;    1,846;    0,682
379,986; 7807,913;    1,393;   -0,955
380,578; 7907,516;   -0,153;    0,773
381,170; 7260,778;   -0,972;    0,045
381,762; 7237,752;    0,755;    1,409
382,354; 7398,357;   -0,065;   -1,318
382,945; 7499,275;   -2,976;    0,318
383,537; 7635,956;   -2,705;   -1,955
384,129; 7662,766;   -2,160;   -1,136
384,721; 7831,924;   -0,252;    0,955
385,312; 7750,449;   -0,161;   -0,955
385,904; 7844,954;   -2,706;    1,591
386,496; 7235,660;   -0,979;    1,045
387,087; 7389,275;    1,022;    2,500
387,679; 7415,542;   -1,160;    0,045
388,270; 7554,375;    2,840;    2,045
388,862; 7666,460;    1,295;   -0,318
389,453; 7562,790;   -0,887;    1,045
390,045; 7846,395;   -0,705;   -2,682
390,636; 7726,001;    0,204;   -0,591
391,227; 7601,387;   -0,523;   -0,045
391,819; 7708,262;    0,204;    0,773
392,410; 7804,764;    1,022;    0,045
393,001; 7715,123;   -0,979;   -1,591
393,593; 8015,386;    1,930;   -0,045
394,184; 7895,766;    1,385;   -0,409
394,775; 7808,346;    1,839;    2,136
395,366; 7984,195;    1,385;    0,773
395,957; 7976,439;    0,113;    0,136
396,548; 8285,889;   -0,342;    2,682
397,139; 8599,029;   -2,433;    0,591
397,730; 8315,248;   -1,888;    0,955
398,321; 8364,055;   -1,252;    0,955
398,912; 8381,749;   -0,615;    0,136
399,503; 8466,865;   -3,524;   -1,409
400,094; 7914,676;    0,294;    1,682
400,685; 7784,073;   -0,433;    0,045
401,276; 7853,864;    0,930;   -0,955
401,867; 8144,837;   -0,888;    0,773
402,458; 8218,008;   -2,251;   -2,318
403,048; 8240,314;    1,112;    0,591
403,639; 7825,575;    0,840;    0,864
404,230; 8097,443;    2,476;    0,318
404,821; 8014,319;   -0,615;    0,045
405,411; 8123,138;    1,203;   -2,591
406,002; 7729,261;   -1,252;   -1,136
406,592; 7609,344;    2,294;    0,045
407,183; 7863,849;    0,566;   -1,500
407,774; 7793,684;    3,475;   -0,136
408,364; 8112,440;    0,930;    0,409
408,954; 7712,627;    0,384;    1,227
409,545; 7736,799;    1,021;    1,045
410,135; 7295,801;    1,293;    0,500
410,726; 7460,362;    1,838;    0,318
411,316; 7804,030;    0,111;    0,773
411,906; 7450,952;   -0,253;   -0,409
412,497; 6968,224;   -1,070;   -0,045
413,087; 7519,839;   -1,980;   -0,227
413,677; 7908,212;   -0,707;    3,864
414,267; 7750,076;    0,656;    1,409
414,857; 7730,551;   -2,980;    4,227
415,448; 7984,251;    0,839;    0,500
416,038; 7636,481;    0,020;   -0,591
416,628; 7614,929;   -0,889;    0,409
417,218; 7102,399;    0,565;    3,318
417,808; 7357,510;    0,202;   -0,409
418,398; 7726,363;    0,020;    2,682
418,988; 7733,984;    2,020;    0,591
419,578; 7951,564;   -0,707;    1,409
420,168; 8249,050;   -1,343;   -0,955
420,757; 7861,828;   -1,343;   -1,500
421,347; 7540,239;    0,111;   -0,227
421,937; 7670,624;    2,292;    1,409
422,527; 7603,577;    0,838;   -0,773
423,116; 7412,845;   -0,253;   -0,045
423,706; 7658,766;   -1,889;    0,318
424,296; 7622,669;    1,384;    0,682
424,885; 8012,669;   -0,071;   -3,045
425,475; 8277,809;    1,474;   -2,864
426,065; 8137,016;   -0,980;   -0,318
426,654; 7780,579;   -0,435;   -0,318
427,244; 7907,218;    0,020;    1,409
427,833; 7367,013;    1,383;   -0,500
428,423; 7787,602;   -0,526;    1,136
429,012; 8448,600;   -0,344;   -1,136
429,601; 7954,133;   -1,344;    0,136
430,191; 8156,260;    1,292;    4,318
430,780; 7758,668;   -0,344;   -0,409
431,369; 7680,227;    0,746;   -0,045
431,959; 8238,457;   -1,254;    0,500
432,548; 8024,771;   -1,163;   -0,045
433,137; 8100,265;   -1,254;   -1,318
433,726; 8563,054;    0,292;    0,500
434,315; 7929,779;   -0,526;    2,409
434,905; 7951,125;   -1,254;    1,409
435,494; 7860,636;    0,746;    0,955
436,083; 8236,312;   -0,981;   -0,955
436,672; 8075,897;    0,110;    0,500
437,261; 7679,484;    0,292;   -1,955
437,850; 7781,692;    1,383;    0,682
438,439; 7744,147;    3,291;    1,955
439,027; 7573,446;    3,655;    1,773
439,616; 7822,817;    2,927;    1,227
440,205; 7650,086;    0,200;   -2,136
440,794; 7631,015;    2,109;   -0,045
441,383; 7843,158;   -1,346;   -0,591
441,971; 7611,145;   -2,436;    0,591
442,560; 7438,710;    0,563;   -1,773
443,149; 7157,133;    0,379;   -1,318
443,737; 7274,630;   -0,074;   -2,318
444,326; 7487,993;    0,018;    0,318
444,915; 7461,826;   -1,982;    0,864
445,503; 7756,517;   -2,891;   -0,318
446,092; 7089,180;    0,382;    2,136
446,680; 7522,411;    0,382;    0,318
447,269; 7611,773;   -0,346;   -0,318
447,857; 7342,567;    0,018;   -1,773
448,445; 7387,258;    0,563;    1,318
449,034; 7510,906;   -1,528;   -1,136
449,622; 7554,273;   -1,073;    3,500
450,210; 6945,870;    2,017;    2,227
450,799; 7381,530;    0,290;   -0,591
451,387; 7260,951;    1,381;   -0,591
451,975; 6941,369;    2,654;    0,864
452,563; 7005,187;    3,472;    2,318
453,151; 6956,375;   -0,528;   -1,227
453,739; 6841,752;   -1,347;    0,136
454,328; 6684,223;    2,381;   -2,136
454,916; 6415,944;    2,562;   -0,136
455,504; 6537,016;    1,017;    1,227
456,092; 6652,277;    0,017;   -1,591
456,679; 6542,892;    1,472;    0,682
457,267; 6610,686;    4,017;    1,045
457,855; 6602,240;    1,017;    1,409
458,443; 6275,774;   -0,165;    1,682
459,031; 6480,815;    0,108;    2,409
459,619; 6768,195;   -1,801;    2,864
460,206; 6760,711;    0,835;    2,045
460,794; 6828,243;   -2,983;   -0,227
461,382; 6965,920;   -0,529;   -0,864
461,970; 6612,948;    1,198;    1,864
462,557; 6604,518;   -0,711;   -0,682
463,145; 6724,541;   -3,165;   -1,682
463,732; 6813,193;    2,016;   -1,045
464,320; 6688,668;   -0,075;   -3,045
464,907; 6429,879;    2,743;   -0,773
465,495; 6273,462;    0,743;   -1,227
466,082; 6386,416;   -1,984;   -0,045
466,670; 6231,157;   -2,529;    1,227
467,257; 6549,372;   -1,711;    2,045
467,844; 6707,888;   -0,075;    0,045
468,432; 6691,751;    0,834;    3,500
469,019; 6251,540;    0,925;   -1,773
469,606; 6588,910;    0,470;    3,682
470,193; 6409,270;   -1,439;    0,227
470,780; 6070,597;   -2,075;    0,864
471,368; 6261,325;   -1,257;   -0,773
471,955; 6093,749;    1,379;   -0,682
472,542; 5754,595;    0,652;   -1,136
473,129; 5844,193;   -0,166;    0,136
473,716; 5596,592;    1,470;    0,591
474,303; 5648,690;    0,652;   -0,864
474,890; 5810,059;   -1,439;   -0,500
475,477; 5840,707;   -1,621;    0,409
476,064; 5683,986;    1,106;   -1,591
476,650; 5514,899;    0,288;    0,318
477,237; 5300,445;   -0,258;    0,955
477,824; 5382,041;   -1,076;    0,864
478,411; 5278,574;   -1,894;   -0,318
478,997; 5355,014;    0,560;   -0,773
479,584; 5298,809;    1,196;   -0,409
480,171; 5759,769;   -0,440;   -0,773
480,757; 5482,618;    2,651;    0,773
481,344; 5533,472;    0,469;    0,409
481,931; 5084,164;    1,105;    1,045
482,517; 5685,778;   -1,258;    0,318
483,104; 5886,869;    1,106;    2,864
483,690; 5875,606;   -1,804;    0,045
484,276; 5911,347;   -0,895;    0,227
484,863; 5758,576;    2,469;    1,136
485,449; 5974,588;   -0,077;    0,318
486,035; 5882,269;   -1,986;   -0,136
486,622; 6146,654;   -0,895;    0,045
487,208; 6003,306;    1,378;    1,500
487,794; 5872,946;    0,741;    0,318
488,380; 5928,427;    0,105;   -1,409
488,967; 5957,193;   -1,168;   -0,409
489,553; 5993,353;   -1,895;   -1,409
490,139; 6155,510;    1,559;    0,773
490,725; 5821,799;    0,741;   -0,227
491,311; 5603,387;    3,287;    3,045
491,897; 5245,579;   -0,986;    1,500
492,483; 5318,728;    0,105;    1,227
493,069; 5628,379;    3,923;    0,864
493,655; 5439,383;    1,650;    0,682
494,241; 5412,789;    1,377;   -0,955
494,826; 5726,077;    0,287;   -1,045
495,412; 5431,199;    2,559;   -0,682
495,998; 5645,368;   -0,805;   -0,318
496,584; 5777,993;    0,377;    1,045
497,169; 5809,816;    1,014;   -0,682
497,755; 5946,722;    0,650;    1,227
498,341; 6603,722;    0,559;    0,318
498,926; 6426,744;    1,832;    1,955
499,512; 6657,856;    1,286;    2,955
500,097; 6788,288;    0,195;   -0,318
500,683; 6928,430;   -0,350;    2,136
501,268; 7454,105;   -0,169;   -0,955
501,854; 7446,113;   -0,169;    1,227
502,439; 7544,751;   -0,624;   -1,773
503,024; 7877,563;    0,195;    0,500
503,610; 8130,584;   -0,078;   -0,682
504,195; 8317,834;    0,558;    1,955
504,780; 8675,572;    2,922;    1,227
505,366; 8764,916;    3,013;    2,864
505,951; 8746,258;    0,740;    1,045
506,536; 8946,178;   -3,260;   -3,682
507,121; 9112,624;    0,285;   -0,318
507,706; 9769,725;    2,376;    1,045
508,291;10257,352;    2,649;    1,136
508,876; 9989,202;   -0,988;    2,591
509,461; 9696,042;   -0,169;   -0,773
510,046;10243,242;    0,194;    0,318
510,631;10625,730;   -0,351;   -0,773
511,216;10473,473;    2,467;   -0,500
511,801;10983,884;   -0,442;    2,591
512,386;11424,089;    0,740;    0,500
512,971;11480,364;   -2,988;    0,955
513,555;11208,088;   -0,897;   -1,500
514,140;12080,870;   -0,442;   -3,136
514,725;12201,126;   -0,715;   -1,136
515,309;12416,652;   -0,533;    0,318
515,894;11977,435;   -0,624;   -2,227
516,479;12491,469;   -0,624;   -0,955
517,063;12455,893;    0,376;    1,227
517,648;12652,997;    1,012;   -1,136
518,232;12377,010;   -0,261;   -1,409
518,817;12779,530;   -0,079;    1,682
519,401;13070,479;    2,194;    0,591
519,985;12625,634;    1,103;    1,136
520,570;12577,453;    0,830;   -1,955
521,154;12885,013;    2,102;    0,591
521,738;13109,379;   -2,352;    2,409
522,323;13698,448;   -0,170;    1,682
522,907;13495,519;    0,466;   -0,136
523,491;13244,348;    0,557;    0,955
524,075;13231,959;    2,284;    0,591
524,659;13365,571;    1,466;    0,591
525,243;12861,433;    1,739;    0,409
525,827;13103,931;    0,648;   -0,045
526,411;14017,843;   -1,989;   -0,136
526,995;14216,118;   -0,352;    1,409
527,579;13854,604;   -0,443;   -1,045
528,163;14193,143;    0,375;   -1,500
528,747;14076,854;    2,466;   -0,773
529,331;14376,142;   -0,080;   -1,409
529,915;14624,091;    1,738;    0,955
530,499;14607,514;   -0,807;    1,227
531,082;14321,325;   -0,534;    1,591
531,666;13762,079;    1,374;    0,773
532,250;14479,920;    1,284;    2,682
532,833;14807,213;    0,920;    2,773
533,417;14641,342;   -1,807;    0,864
534,001;14653,800;    1,647;   -0,318
534,584;15354,810;    0,374;    0,500
535,168;15183,895;    0,465;    1,409
535,751;15269,569;    0,647;    0,045
536,334;14703,599;   -0,898;   -0,409
536,918;15285,711;    0,011;    1,591
537,501;15404,303;   -0,899;    1,318
538,085;15395,144;   -0,444;    1,045
538,668;15622,756;    0,829;    2,409
539,251;15924,367;    1,829;    3,773
539,834;15912,718;    0,101;    0,773
540,418;15840,479;   -1,990;    4,318
541,001;15981,511;   -0,990;    1,773
541,584;15938,818;    2,101;    2,227
542,167;15694,069;    1,374;    2,955
542,750;15799,494;    1,919;   -0,773
543,333;15454,299;    0,555;    2,136
543,916;16208,439;    0,192;    2,500
544,499;16803,986;   -1,354;    0,227
545,082;16856,147;    1,374;    3,591
545,665;16940,243;    1,919;    1,500
546,248;17314,754;    1,010;   -0,318
546,830;16998,887;   -0,445;    1,955
547,413;17370,023;    1,010;   -0,773
547,996;17915,035;    0,555;    0,500
548,579;17722,333;    0,919;    0,955
549,161;17492,311;    1,828;    2,682
549,744;17273,155;   -0,809;    0,409
550,326;17764,616;   -0,809;   -1,136
550,909;17576,540;    2,737;    0,591
551,492;17959,687;   -0,263;    0,227
552,074;17765,234;   -0,173;   -1,318
552,657;18351,479;    2,373;    0,045
553,239;18050,314;   -0,173;   -0,773
553,821;17969,156;   -1,082;    1,045
554,404;17493,262;    1,282;    1,136
554,986;17858,120;    0,464;    1,045
555,568;18484,773;    1,191;   -0,955
556,151;17660,021;    1,191;   -0,227
556,733;17860,831;   -0,264;   -0,864
557,315;18348,028;    0,100;    0,500
557,897;18175,165;    0,554;   -0,500
558,479;18279,931;   -1,991;    1,318
559,061;18458,212;   -0,719;   -0,864
559,643;18808,134;   -0,264;    0,045
560,225;19169,116;    1,645;    2,864
560,807;19179,862;    0,918;    0,318
561,389;18607,850;    0,554;    2,318
561,971;19388,431;    0,463;    2,136
562,553;19196,701;   -1,628;    1,591
563,135;19316,814;   -0,537;    1,136
563,717;18937,415;    3,372;    1,136
564,298;19695,935;    3,645;   -0,045
564,880;19391,046;    0,645;   -1,409
565,462;19555,046;    0,645;    1,318
566,043;20733,604;   -0,446;    2,318
566,625;20288,964;    1,918;    1,227
567,207;20128,206;    1,099;    1,682
567,788;21268,495;   -1,264;    1,500
568,370;22089,365;    1,917;   -0,500
568,951;21943,578;    0,190;    0,227
569,533;22819,957;   -0,628;   -0,500
570,114;23243,393;   -0,446;    0,682
570,695;23795,431;   -0,174;   -1,318
571,277;24301,926;   -0,265;   -1,682
571,858;25063,742;    2,008;   -1,136
572,439;25965,758;    1,554;   -1,045
573,021;26124,875;    2,099;   -2,773
573,602;26605,195;   -1,265;    0,318
574,183;27551,298;   -2,083;    2,227
574,764;27657,439;   -1,629;    0,409
575,345;28244,475;    0,917;   -0,136
575,926;28847,301;   -0,356;    0,136
576,507;28754,738;    1,099;   -0,227
577,088;29929,524;    3,099;    1,682
577,669;29932,192;    0,735;    1,955
578,250;30771,662;    0,644;   -1,045
578,831;31412,380;   -1,356;   -2,227
579,412;31640,168;   -0,810;    0,955
579,993;32501,419;    1,008;    0,227
580,573;32781,726;   -0,629;   -0,955
581,154;31813,863;    0,735;   -0,591
581,735;32680,976;    0,644;    0,773
582,315;32187,430;   -0,629;    2,136
582,896;32403,348;   -0,174;    1,227
583,477;31851,064;    0,189;    1,227
584,057;32020,387;    0,553;    0,955
584,638;32368,510;    2,553;    2,318
585,218;32368,472;   -0,538;    2,682
585,799;32536,568;    0,281;   -0,227
586,379;32455,252;    0,372;    1,591
586,959;31190,543;    0,735;    0,318
587,540;30457,003;   -0,629;    2,227
588,120;30074,945;    1,007;   -0,045
588,700;29072,355;    2,553;    2,136
589,281;29456,936;    0,462;   -0,955
589,861;29362,624;    0,099;   -1,682
590,441;29153,397;    2,371;   -2,682
591,021;28065,143;   -0,265;   -2,591
591,601;28277,078;   -0,537;    0,500
592,181;28340,642;   -0,719;   -0,773
592,761;27639,833;    0,007;    1,409
593,341;27580,326;   -0,901;    0,045
593,921;27590,947;   -0,265;    1,591
594,501;27448,120;   -0,538;    1,318
595,081;27330,245;    0,917;   -0,318
595,661;27682,523;   -1,447;    0,955
596,240;28192,018;   -0,537;    0,136
596,820;27871,805;    0,372;    1,955
597,400;28041,726;    2,008;    0,773
597,980;28219,660;    2,008;    1,045
598,559;28229,262;    2,735;   -0,227
599,139;27903,918;   -0,174;   -1,227
599,718;27830,827;   -0,174;   -0,409
600,298;28102,111;    0,735;    0,682
600,877;28363,215;    2,917;    1,409
601,457;28628,547;    2,281;    1,136
602,036;28478,802;    0,190;    2,045
602,616;28752,020;    0,644;    1,682
603,195;29078,362;   -0,355;    3,500
603,774;28649,714;   -0,901;    2,045
604,354;28493,507;    0,826;   -0,500
604,933;27985,523;    0,463;    1,864
605,512;28136,759;    3,554;    0,591
606,091;28129,671;   -0,537;    3,773
606,671;28975,428;    0,281;    0,773
607,250;28081,889;    1,644;    3,136
607,829;28340,631;    2,372;    3,227
608,408;28138,633;    1,190;    2,591
608,987;27172,621;    1,281;    3,409
609,566;27523,617;   -1,265;   -2,500
610,145;27604,512;   -1,082;    0,682
610,723;27987,193;    4,372;    6,864
611,302;27254,591;   -0,446;    1,682
611,881;26788,436;    5,008;   11,227
612,460;27696,778;    1,645;    3,955
613,039;28029,834;   -0,082;    2,045
613,617;26740,585;    1,736;    4,773
614,196;26871,446;    1,099;    1,227
614,775;27313,432;    1,009;    2,409
615,353;27290,273;    0,736;    0,864
615,932;27041,979;    0,100;    2,409
616,510;27551,338;    0,554;    0,591
617,089;27085,594;    7,100;   17,591
617,667;26794,255;    2,372;    6,136
618,246;26648,610;   -1,537;    1,318
618,824;26889,138;   -3,355;   -0,955
619,402;26414,414;   -2,900;   -1,773
619,981;26896,825;   -0,173;   -1,045
620,559;26709,946;    0,009;    1,682
621,137;26213,934;   -0,718;    1,864
621,715;26313,342;   -1,173;   -0,682
622,293;26259,536;   -0,537;   -0,773
622,871;26645,119;   -0,718;    0,500
623,450;26190,679;    0,373;   -0,864
624,028;26089,792;    0,191;   -0,955
624,606;25775,514;   -1,718;    1,682
625,183;26166,891;   -1,536;   -1,136
625,761;25778,887;    1,009;    1,136
626,339;26086,590;    1,373;    2,591
626,917;26467,181;   -0,172;   -0,045
627,495;26485,495;   -0,354;    1,318
628,073;25926,750;   -0,263;    2,864
628,650;25626,162;    0,100;    2,136
629,228;26036,606;    0,373;    4,409
629,806;25417,077;    2,282;    1,136
630,383;25677,262;    1,464;   -0,318
630,961;25505,654;    2,555;   -0,955
631,539;25243,133;    2,464;    0,227
632,116;24696,109;   11,373;   15,409
632,694;25211,541;    2,555;    6,500
633,271;25507,830;    0,828;    2,682
633,848;25423,513;    1,828;    2,045
634,426;25434,129;   -1,081;    1,773
635,003;24601,251;    1,101;   -0,409
635,580;24915,601;    1,192;    3,682
636,158;25439,299;    3,737;    1,227
636,735;25441,316;    0,555;   -0,500
637,312;25589,953;   -0,809;   -0,682
637,889;25667,718;   -4,354;   -0,682
638,466;25148,400;   -3,990;   -0,409
639,043;25157,698;    2,101;   -1,136
639,620;25471,573;   -2,262;   -0,955
640,197;25786,047;    1,100;    1,682
640,774;25891,100;   -0,172;    1,136
641,351;26295,336;    0,737;    1,136
641,928;25755,389;   -0,627;    1,409
642,505;25391,352;    0,828;   -0,500
643,082;25495,769;   -1,718;    1,227
643,658;24498,550;   -0,718;    1,500
644,235;25198,694;    1,191;    2,500
644,812;25581,475;    1,918;    0,773
645,388;25358,529;   -0,991;    1,409
645,965;25404,309;   -0,809;    1,682
646,542;25517,908;   -1,445;   -0,227
647,118;25497,416;    1,009;   -0,955
647,695;25779,925;   -0,263;    1,136
648,271;25692,069;   -0,536;    0,500
648,848;25986,941;    0,736;    2,227
649,424;25845,631;    0,827;    1,318
650,000;25627,684;   -0,354;   -1,045
650,577;25403,919;   -0,627;   -0,955
651,153;25903,882;   -1,809;    0,955
651,729;26907,936;    1,191;    0,864
652,305;27456,444;    0,645;    2,773
652,881;32666,588;   -0,082;    1,136
653,458;39472,732;    1,100;    0,227
654,034;42791,422;    0,282;    1,591
654,610;43953,476;    0,554;    0,773
655,186;45211,348;    0,645;    3,045
655,762;44849,765;   -0,991;    0,409
656,338;44757,455;    0,100;    0,136
656,913;45677,963;   -0,082;    0,409
657,489;44910,562;    0,827;   -0,318
658,065;44898,615;   -0,173;   -1,591
658,641;45525,487;   -0,900;   -0,864
659,217;44759,449;   -0,991;    0,409
659,792;44256,776;    0,645;   -0,409
660,368;44393,193;   -2,173;   -0,682
660,944;43800,883;   -2,082;    1,227
661,519;38601,209;   -0,628;    0,409
662,095;32685,535;   -1,719;    0,591
662,670;28589,498;    1,281;   -0,136
663,246;27743,460;    1,009;   -0,409
663,821;27120,332;    0,281;    1,682
664,396;26618,749;    0,009;    1,864
664,972;26910,803;    0,009;   -0,500
665,547;27205,765;    1,372;    0,136
666,122;27289,183;   -1,082;    0,318
666,698;27501,054;   -0,173;    0,318
667,273;26840,017;   -0,173;    0,136
667,848;27738,798;    2,372;    1,500
668,423;27534,942;    2,190;    2,318
668,998;28029,087;    2,827;   -0,682
669,573;28608,322;   -3,264;   -1,500
670,148;28470,012;   -1,446;   -0,682
670,723;28252,884;   -1,810;    0,318
671,298;28645,573;    2,372;    1,045
671,873;28732,172;   -0,082;   -0,136
672,448;28658,317;    0,645;    0,136
673,023;29001,552;   -1,992;   -0,227
673,597;29345,151;    0,827;    2,318
674,172;29148,841;   -0,355;    0,318
674,747;28574,349;    0,372;   -1,045
675,321;28423,493;   -0,628;    3,318
675,896;28031,729;    0,645;    1,045
676,471;28994,055;    2,645;    1,591
677,045;28760,563;   -1,264;    0,682
677,620;28816,526;    0,190;    1,136
678,194;29155,852;   -2,628;    1,136
678,769;28735,906;   -1,083;   -0,318
679,343;29044,232;   -0,628;    1,773
679,917;28900,740;   -1,446;    1,955
680,492;28988,430;    0,826;    3,227
681,066;29110,301;    3,372;    0,409
681,640;29109,809;    1,463;   -0,318
682,214;29945,318;    0,735;    0,500
682,788;29504,098;   -1,356;   -0,773
683,363;29443,243;   -1,810;    1,682
683,937;29134,751;   -1,719;   -0,318
684,511;29896,350;    0,463;   -0,591
685,085;29579,131;   -1,356;    0,318
685,659;29285,457;   -2,538;    0,864
686,232;29591,874;   -0,356;   -0,318
686,806;29307,200;   -0,901;    0,409
687,380;29972,890;   -0,174;    0,591
687,954;30157,762;   -1,174;    1,136
688,528;29848,724;   -0,719;    1,955
689,101;30627,960;   -3,992;    1,045
689,675;30221,559;   -0,356;   -0,136
690,249;29577,158;   -0,719;    0,409
690,822;29893,939;    0,280;    0,318
691,396;29975,810;   -0,265;    1,227
691,969;29431,046;    1,280;    0,136
692,543;29870,372;   -0,447;   -1,955
693,116;29486,153;   -0,265;   -1,409
693,690;29440,297;    0,099;    0,500
694,263;29978,987;   -1,083;    2,955
694,836;29989,586;    1,371;    3,591
695,410;28638,094;   -0,265;    1,773
695,983;29160,420;    0,189;    0,591
696,556;29106,656;   -0,447;   -1,045
697,129;29453,345;   -0,356;    1,409
697,703;29115,035;   -1,629;    1,955
698,276;29085,907;    1,462;   -0,773
698,849;28885,233;    1,280;    1,409
699,422;29271,196;   -1,083;    0,591
699,995;28953,249;    0,007;    0,136
700,568;29459,212;   -0,629;    3,045
701,140;29470,356;   -2,811;    1,682
701,713;29203,592;   -0,174;    2,409
702,286;28998,100;   -0,538;    0,864
702,859;28863,699;   -0,902;   -0,591
703,432;28004,934;    0,825;    0,682
704,004;28527,169;    0,462;    0,318
704,577;28461,405;   -0,629;    0,136
705,150;29013,822;    0,189;    2,500
705,722;28776,421;   -0,356;   -3,227
706,295;28542,020;   -0,175;   -0,591
706,867;28429,710;   -0,175;    1,955
707,440;28614,309;   -1,720;   -0,409
708,012;28845,817;    0,462;    0,591
708,584;28785,416;    2,462;    0,227
709,157;29089,378;    1,825;   -0,591
709,729;28716,977;    2,280;    2,045
710,301;29553,940;    0,734;    0,045
710,874;29551,266;   -1,447;   -0,227
711,446;28458,865;    0,371;    0,864
712,018;28298,373;    0,098;    0,500
712,590;28016,518;   -1,993;    1,682
713,162;28619,571;    0,825;    1,318
713,734;28778,625;    1,825;   -2,045
714,306;28700,224;   -1,902;   -0,409
714,878;27410,095;    0,825;    0,864
715,450;28239,058;    0,643;    0,864
716,022;28496,657;    1,552;    1,318
716,593;28654,347;    0,189;    0,591
717,165;28598,491;   -3,175;   -1,227
717,737;28309,454;    0,280;    0,409
718,309;27909,780;    0,280;   -0,045
718,880;27880,561;   -0,539;   -1,409
719,452;28068,705;   -0,175;   -1,591
720,024;27665,941;    0,734;   -0,591
720,595;28282,722;   -2,902;    0,955
721,167;27869,230;    0,370;   -2,045
721,738;27366,829;   -0,812;   -1,045
722,309;27348,700;   -0,993;   -1,227
722,881;27153,117;   -1,357;    0,773
723,452;27766,353;   -2,630;    2,864
724,023;27945,315;   -0,721;    2,682
724,595;27734,642;    0,007;    0,682
725,166;27444,331;    0,007;   -0,409
725,737;27099,203;    1,734;    0,227
726,308;27168,893;   -0,266;    0,318
726,879;27671,583;   -1,630;    1,227
727,450;27535,636;    0,552;   -0,045
728,021;27478,690;    3,097;    0,682
728,592;27218,834;    0,734;    0,500
729,163;27574,342;    0,643;   -0,136
729,734;27645,396;    0,188;   -0,227
730,305;27999,359;    1,734;    0,136
730,876;28342,412;    0,188;    2,955
731,447;28024,375;    2,188;    2,682
732,017;28130,428;    1,097;    1,864
732,588;27535,391;    0,734;    1,227
733,159;27792,535;    0,643;   -1,045
733,729;27613,043;    0,006;    0,409
734,300;26886,188;    0,915;    0,864
734,870;27280,241;    3,461;    0,591
735,441;27838,477;    0,370;   -0,591
736,011;27577,348;    0,643;   -1,591
736,582;27540,766;   -0,812;    0,045
737,152;26998,728;   -1,721;   -2,045
737,722;27464,691;   -0,267;   -0,682
738,293;27138,472;   -1,358;    1,318
738,863;27051,343;    2,461;    2,318
739,433;26853,488;    5,279;    0,318
740,003;27461,723;   -0,994;   -0,682
740,573;26924,322;    2,097;   -1,591
741,143;26856,194;   -1,085;    0,318
741,713;27620,884;    1,188;   -0,500
742,283;27338,937;    0,915;    1,591
742,853;27093,900;    1,915;    1,591
743,423;26524,590;    1,733;    0,045
743,993;26673,734;   -0,358;    1,500
744,563;26088,333;    0,097;   -0,864
745,133;26048,932;   -0,812;   -0,864
745,702;26714,713;   -0,267;    1,773
746,272;25901,675;   -0,176;    0,591
746,842;25738,820;   -1,358;   -0,591
747,411;26117,782;   -0,267;   -0,318
747,981;26284,109;    0,097;    0,500
748,551;26314,799;    2,278;   -1,045
749,120;26219,579;    0,642;   -0,227
749,690;26595,451;   -0,631;    2,409
750,259;26906,232;    1,369;    2,955
750,828;26871,104;    1,551;   -1,955
751,398;27068,702;    1,278;   -0,045
751,967;26656,392;    2,187;    0,409
752,536;26821,355;   -0,813;   -0,227
753,105;27225,136;    0,096;    0,227
753,675;27036,189;    0,096;    1,773
754,244;26974,970;   -0,904;    3,591
754,813;26992,205;    0,551;    1,227
755,382;26612,168;    0,460;    0,955
755,951;27185,131;    1,551;    3,682
756,520;26676,002;   -0,085;    1,864
757,089;27254,056;    0,278;    0,500
757,658;27407,473;    1,733;    1,227
758,227;27390,254;    1,096;    0,318
758,795;27678,671;    1,187;    1,136
759,364;27872,997;   -0,086;   -0,591
759,933;26941,505;   -1,176;   -0,045
760,501;26424,741;    0,733;   -1,318
761,070;26868,430;   -2,813;   -1,409
761,639;27594,302;   -1,904;    1,318
762,207;27048,538;    1,551;   -0,955
762,776;26975,137;    0,369;    0,864
763,344;26860,826;   -0,995;    0,591
763,913;25941,153;   -0,722;    1,409
764,481;26685,661;    1,005;   -0,136
765,049;26466,078;   -1,358;    1,409
765,618;26332,768;   -0,086;    0,318
766,186;26432,367;    0,278;    0,136
766,754;26612,784;    0,005;    1,864
767,322;25647,837;   -1,995;    0,409
767,890;25664,982;   -0,722;   -1,773
768,459;26052,944;   -2,177;   -0,318
769,027;26268,089;    1,641;    3,409
769,595;25236,506;    3,278;    2,591
770,163;25621,014;    3,823;    2,955
770,730;25322,704;    0,732;   -0,136
771,298;25248,939;    0,187;   -1,409
771,866;25373,629;   -1,541;    4,955
772,434;25625,955;   -0,631;   -1,864
773,002;25828,645;    0,005;    0,682
773,569;25441,517;    0,914;    1,682
774,137;25298,843;   -0,268;   -0,045
774,705;26046,260;    0,278;   -0,136
775,272;25540,587;    0,641;    0,682
775,840;25313,549;   -0,177;    2,682
776,407;24837,512;    0,277;    1,955
776,975;24463,020;   -0,632;    0,318
777,542;25405,255;   -1,086;   -0,045
778,110;25314,309;   -1,268;   -0,045
778,677;24953,453;   -2,359;   -0,864
779,244;24724,416;    2,186;    1,045
779,812;24851,742;    1,823;    0,864
780,379;24787,341;    0,005;    1,136
780,946;24974,395;    1,005;   -0,773
781,513;25279,357;   -1,450;    0,318
782,080;24682,320;   -0,086;    2,864
782,647;25434,919;   -0,268;    3,045
783,214;24953,245;   -0,177;    3,864
783,781;24563,117;   -0,723;   -0,682
784,348;24463,352;   -0,632;    1,500
784,915;24912,860;   -3,177;    0,318
785,482;24707,459;    1,368;    2,591
786,049;25109,422;    0,186;   -0,591
786,615;25211,930;    0,277;   -0,955
787,182;24944,892;    0,186;   -0,682
787,749;24573,037;   -2,814;    1,409
788,315;23979,999;   -1,632;   -0,409
788,882;24261,326;    1,550;   -1,227
789,448;24969,016;    1,732;   -0,955
790,015;24959,705;    1,095;    3,227
790,581;24526,486;    1,459;    0,227
791,148;24463,085;    0,641;    1,045
791,714;24634,775;   -0,541;    3,136
792,280;24292,283;    0,186;    1,591
792,847;23863,246;    0,550;    2,500
793,413;24419,845;   -0,269;   -0,318
793,979;23993,716;    3,459;   -1,318
794,545;24090,588;    4,459;    2,682
795,111;23494,460;    2,186;    1,318
795,678;23696,241;    0,731;   -1,682
796,244;23337,385;    3,368;    0,136
796,810;23833,893;    1,731;    0,773
797,375;23564,856;    0,549;   -2,136
797,941;23600,727;   -0,541;    0,591
798,507;23730,872;   -0,451;   -0,955
799,073;23282,834;   -0,360;    0,591
799,639;23331,524;   -2,632;    3,136
800,205;23359,942;    0,095;    2,682
800,770;22909,450;    0,640;    1,773
801,336;23060,412;    1,368;   -0,955
801,901;22737,193;    4,549;    3,136
802,467;23240,883;   -0,542;    2,045
803,033;22596,300;   -0,087;    0,864
803,598;22831,535;    1,913;   -1,045
804,163;22833,134;    1,095;   -0,318
804,729;22818,642;   -0,178;    1,136
805,294;23182,332;    0,822;    2,227
805,859;22974,659;    0,731;   -0,409
806,425;22449,985;    1,186;    2,682
806,990;22144,766;    2,186;    4,318
807,555;22605,546;   -1,451;    2,591
808,120;22554,145;    0,822;   -0,409
808,685;22580,199;    0,185;   -2,500
809,250;22096,616;    0,004;   -0,500
809,815;22373,306;    1,913;    0,682
810,380;22952,632;   -0,269;    1,591
810,945;23491,049;   -1,087;    2,045
811,510;22614,012;    2,094;    1,591
812,075;22373,247;   -0,633;   -1,409
812,640;22368,573;    2,003;    1,409
813,204;22444,082;    0,822;   -0,227
813,769;22918,771;    2,094;   -0,045
814,334;22362,370;    0,458;    0,864
814,898;22405,060;    0,367;    0,591
815,463;22220,205;    1,276;   -0,773
816,027;22210,440;   -0,724;   -2,318
816,592;22278,948;    0,640;   -2,045
817,156;21849,274;    2,094;    1,136
817,721;21678,601;    4,276;    2,318
818,285;21639,927;    2,912;    1,500
818,849;22282,162;   -1,451;    1,682
819,414;22193,125;   -0,269;    2,955
819,978;21753,997;   -1,269;    1,773
820,542;22342,232;    2,003;    0,500
821,106;22020,649;   -0,815;    0,682
821,670;22114,793;   -0,815;    2,591
822,234;21856,211;   -0,270;    1,409
822,798;21228,355;    0,003;    0,500
823,362;21226,318;   -0,633;    4,227
823,926;20557,826;    0,094;    1,136
824,490;20776,061;   -0,997;   -0,682
825,054;21187,478;   -0,088;   -1,136
825,618;20816,623;   -1,542;   -1,500
826,181;20779,313;    0,458;   -1,318
826,745;20701,093;    1,367;   -1,045
827,309;21078,510;    1,185;    1,318
827,872;20435,109;    1,367;    0,955
828,436;21417,799;    1,185;   -0,773
828,999;21466,035;   -0,997;    1,227
829,563;20266,725;   -0,179;    1,136
830,126;20075,687;   -0,179;   -0,591
830,690;20109,377;   -1,997;    2,864
831,253;19616,158;   -0,543;    2,227
831,816;19776,393;   -1,906;    0,500
832,380;19697,719;    0,185;    0,864
832,943;19926,318;   -1,361;   -0,500
833,506;19380,099;    2,639;   -1,227
834,069;20144,516;    3,912;   -0,955
834,632;20236,570;    1,730;    1,318
835,195;20110,351;    1,003;    0,955
835,758;19301,404;   -0,997;    1,955
836,321;19206,639;    0,730;   -1,045
836,884;19346,420;   -0,725;   -0,955
837,447;19304,656;   -2,816;    1,773
838,010;19627,346;    0,366;    3,227
838,573;19903,490;   -1,179;    0,773
839,135;19876,725;   -1,361;   -0,955
839,698;19347,870;    1,275;    0,409
840,261;18858,196;    1,003;   -0,227
840,823;18674,431;   -0,543;    0,864
841,386;18963,303;   -0,452;   -2,409
841,948;18839,357;   -1,361;    1,773
842,511;18566,592;    0,912;    1,682
843,073;18757,554;    1,912;    0,227
843,636;18541,699;   -0,361;   -0,227
844,198;18500,661;    0,911;    0,591
844,760;18606,988;    1,093;    1,955
845,322;18242,587;    0,548;    1,136
845,885;18660,640;    0,730;    0,591
846,447;19108,694;   -1,998;    0,227
847,009;18760,656;    1,911;   -0,682
847,571;19038,437;    0,820;   -2,045
848,133;19125,491;   -1,089;   -1,864
848,695;18875,271;   -0,543;    1,409
849,257;18469,507;   -1,089;   -1,682
849,819;18655,833;   -0,998;   -0,409
850,381;18710,523;   -0,725;   -0,864
850,942;19060,849;    1,093;   -0,591
851,504;19062,266;    1,184;    0,227
852,066;19082,774;    1,275;   -1,591
852,628;18576,919;   -0,180;    1,955
853,189;18144,427;    1,638;    2,682
853,751;18260,753;   -0,907;    1,409
854,312;18057,534;   -0,453;   -1,682
854,874;18535,042;   -2,089;   -0,773
855,435;19046,186;   -0,907;   -1,682
855,997;19248,240;   -1,816;   -0,136
856,558;18519,293;    0,366;    1,773
857,119;18635,438;    0,820;    2,864
857,681;18327,037;    0,002;    0,318
858,242;18411,181;    1,911;   -2,136
858,803;18783,780;    0,456;   -0,773
859,364;19347,197;    0,184;   -4,773
859,925;18634,978;   -2,453;   -0,955
860,486;18538,032;   -0,453;   -0,955
861,047;18269,449;   -0,544;   -1,227
861,608;18126,412;   -1,089;   -0,773
862,169;18234,101;    0,638;   -0,045
862,730;18033,700;    0,456;    1,409
863,291;18278,299;   -0,635;   -0,500
863,852;18680,626;   -0,635;    1,955
864,412;18079,679;   -0,271;   -0,864
864,973;16669,187;   -0,089;    0,500
865,534;16544,423;   -1,726;    0,227
866,094;18040,567;    1,820;    0,227
866,655;17710,711;    1,274;    3,318
867,215;17965,219;    0,274;    0,136
867,776;17813,637;    0,547;   -0,136
868,336;17944,417;   -1,453;    0,136
868,897;17402,016;    2,638;    1,682
869,457;17115,524;    1,365;    0,318
870,017;17352,942;    0,547;   -1,227
870,578;17863,541;   -0,817;    0,773
871,138;17571,321;   -2,089;   -0,955
871,698;17126,920;   -0,817;   -1,318
872,258;16990,247;   -0,453;   -2,864
872,818;17386,118;    2,729;    0,045
873,378;17314,808;    0,638;    1,045
873,938;16867,498;    0,547;    0,500
874,498;17169,824;    0,274;   -1,955
875,058;17131,151;    2,183;    1,773
875,618;16945,113;    1,910;   -2,682
876,177;16857,258;    1,274;    0,136
876,737;16474,766;   -0,090;    1,955
877,297;16515,274;    0,183;    1,955
877,856;16561,600;   -0,362;    0,318
878,416;16481,199;    1,183;   -0,136
878,976;16683,525;   -1,817;    0,409
879,535;16847,033;    0,092;    3,136
880,095;16606,541;   -0,544;    0,045
880,654;16716,958;   -1,090;    1,318
881,213;16831,012;    2,456;    1,500
881,773;16467,247;    2,637;    2,682
882,332;16846,755;    3,365;    5,136
882,891;16684,809;    3,092;    2,136
883,451;17170,226;   -1,272;    1,682
884,010;16561,643;   -2,908;   -0,409
884,569;16645,515;   -0,999;   -0,045
885,128;16799,114;    2,819;   -1,864
885,687;16900,349;    4,455;    0,682
886,246;16604,857;    1,455;    2,136
886,805;16350,274;    2,455;    2,045
887,364;16637,601;   -0,999;   -0,500
887,922;16968,200;   -1,181;    0,045
888,481;16515,071;   -1,545;    0,591
889,040;16821,943;    1,183;    2,136
889,599;17482,997;    2,455;    1,409
890,157;17552,959;    1,455;    2,409
890,716;17223,013;   -0,090;    0,227
891,274;17007,975;    0,092;   -1,136
891,833;17455,665;    1,546;    0,864
892,391;17345,355;   -0,454;    0,500
892,950;17406,499;    1,819;   -0,773
893,508;17768,371;    0,455;   -0,409
894,067;17074,334;    0,637;    0,136
894,625;16980,115;   -0,636;   -1,500
895,183;17236,259;   -0,363;   -0,682
895,741;17176,222;    1,728;   -1,773
896,299;16973,912;   -0,545;   -2,409
896,858;17161,147;    0,819;   -1,591
897,416;17262,109;    2,728;   -1,318
897,974;16962,890;    1,819;    0,318
898,532;17229,217;    6,091;    2,682
899,089;17090,179;    2,091;   -0,682
899,647;17122,324;   -1,454;    1,318
900,205;16872,832;    1,182;    1,045
900,763;16987,067;   -0,454;    0,227
901,321;17020,484;    2,364;   -1,409
901,878;16447,719;   -1,000;   -0,773
902,436;16332,228;   -1,363;    1,318
902,994;16749,917;    4,728;    3,682
903,551;16159,244;    0,728;    0,409
904,109;16567,388;    0,182;   -1,409
904,666;16118,987;    2,455;    1,045
905,224;15947,859;    0,182;   -0,409
905,781;15750,094;    0,727;   -0,318
906,338;15775,966;   -1,363;    1,045
906,895;15679,019;    0,637;    2,045
907,453;15652,436;    1,727;    1,136
908,010;15682,217;   -0,909;    0,409
908,567;15342,089;    1,273;    0,591
909,124;14831,324;    0,364;   -1,500
909,681;14947,923;   -2,909;    0,682
910,238;15076,431;    0,636;   -1,318
910,795;15376,212;   -0,273;   -1,136
911,352;14976,303;   -2,909;   -2,682
911,909;14408,212;   -1,364;   -0,864
912,466;14926,212;   -3,182;    1,500
913,022;14471,303;   -1,636;    0,500
913,579;14848,939;   -0,909;    2,045
914,136;14523,485;    1,636;    0,955
914,692;14872,212;    0,091;   -1,227
915,249;14458,667;    1,455;    0,409
915,806;14670,303;    0,182;    1,955
916,362;14490,394;    1,909;    1,864
916,918;14042,848;    2,000;    1,045
917,475;13988,848;   -1,182;    0,955
918,031;14046,394;    3,364;   -0,045
918,587;13507,667;   -0,909;   -0,318
919,144;13727,030;   -2,273;    0,227
919,700;14022,758;    1,727;    0,773
920,256;13632,939;    0,727;    0,045
920,812;13245,394;   -0,727;   -1,045
921,368;13214,485;   -1,727;   -1,045
921,924;12857,848;    0,182;   -0,136
922,480;12450,758;   -0,545;    1,227
923,036;13092,212;    1,273;    1,955
923,592;13006,303;    0,455;    0,318
924,148;12966,576;    0,455;   -0,955
924,704;12268,121;   -1,364;   -0,409
925,259;12510,030;   -0,273;    0,591
925,815;12277,848;    1,455;    0,500
926,371;11787,758;    2,909;    1,409
926,926;11680,212;    2,091;    0,591
927,482;11365,485;   -1,364;    0,773
928,037;11239,394;    0,909;    2,045
928,593;11505,394;    1,636;    1,045
929,148;11296,121;   -1,818;   -1,500
929,704;10804,394;   -1,455;   -0,500
930,259;11019,303;    0,091;   -0,136
930,814;10061,848;   -0,818;    1,955
931,369; 9779,939;    1,091;   -0,773
931,925; 9637,394;   -0,091;    0,136
932,480; 9557,848;   -2,818;   -2,591
933,035; 9457,848;    0,545;   -0,318
933,590; 9245,758;    0,364;   -1,773
934,145; 8860,939;   -1,364;   -0,318
934,700; 9193,667;    0,455;   -0,591
935,255; 9003,030;   -0,091;    0,045
935,809; 8297,212;    3,182;    0,864
936,364; 7420,303;   -0,455;   -0,136
936,919; 7387,758;    0,455;   -1,773
937,474; 7259,848;    1,455;    0,136
938,028; 7033,848;   -1,636;    1,136
938,583; 6549,848;    1,818;    4,682
939,138; 6784,121;    2,091;    2,136
939,692; 6218,758;    1,636;   -1,136
940,247; 5941,667;   -0,727;   -1,045
940,801; 5488,758;   -0,636;    0,227
941,355; 5372,303;   -0,364;    2,591
941,910; 5027,303;   -0,273;   -2,136
942,464; 5150,576;   -0,818;   -0,318
943,018; 4959,848;    1,000;   -0,227
943,572; 4911,848;    2,545;   -0,682
944,126; 4314,303;    0,091;   -0,409
944,681; 4226,303;    3,091;    0,227
945,235; 4211,848;    1,000;   -0,591
945,789; 4150,939;    0,364;   -1,864
946,342; 4230,848;    0,455;   -0,591
946,896; 4050,030;   -2,273;    0,955
947,450; 3795,576;    1,545;   -0,227
948,004; 4007,939;    1,727;   -0,045
948,558; 4023,394;    0,273;   -0,864
949,111; 3940,758;   -0,273;   -0,318
949,665; 3977,667;    1,636;   -0,682
950,219; 3860,939;   -0,091;   -1,045
950,772; 3935,576;   -1,909;    1,864
951,326; 3822,212;    0,545;   -0,955
951,879; 3904,030;    0,727;   -2,318
952,433; 3957,030;    0,000;    2,227
952,986; 3777,576;    2,909;    0,682
953,539; 3736,485;   -0,273;    0,591
954,093; 3654,758;    0,545;   -1,318
954,646; 3820,030;    0,909;    1,318
955,199; 3618,667;    0,000;   -0,500
955,752; 3509,667;   -0,455;    1,773
956,305; 3455,485;   -0,091;    2,955
956,858; 3624,212;    0,818;   -0,318
957,411; 3793,030;   -0,545;    2,136
957,964; 3644,030;    1,364;    2,136
958,517; 3620,212;   -1,545;    3,136
959,070; 3444,121;   -0,455;    1,955
959,623; 3535,303;    1,091;    1,500
960,176; 3288,667;    1,727;    2,045
960,728; 3285,758;   -2,727;    0,773
961,281; 3337,848;    0,545;    0,500
961,834; 3397,303;   -0,909;    0,864
962,386; 3288,303;    1,727;    1,045
962,939; 3222,667;    0,364;   -0,318
963,491; 3366,212;    0,455;    1,136
964,043; 3223,667;    1,182;    2,409
964,596; 3364,848;   -1,000;    2,227
965,148; 3208,303;   -1,000;    1,773
965,700; 3121,212;    1,091;   -0,227
966,253; 3270,485;   -0,636;    0,318
966,805; 3116,939;   -2,273;    0,773
967,357; 3162,394;    1,091;   -1,500
967,909; 3121,030;    0,455;   -1,227
968,461; 3210,485;    0,545;    3,136
969,013; 3160,303;   -0,182;   -0,864
969,565; 3245,030;   -0,455;   -1,136
970,117; 3299,848;   -0,364;    1,045
970,669; 3122,758;    0,182;   -0,136
971,220; 2995,303;   -0,455;   -1,500
971,772; 2916,303;   -0,636;   -0,318
972,324; 3052,303;    0,091;   -0,500
972,876; 2980,121;    0,818;   -0,045
973,427; 3135,667;    1,909;   -1,045
973,979; 3099,758;   -0,727;   -2,500
974,530; 3111,303;    1,818;    1,318
975,082; 3130,576;   -0,545;    1,682
975,633; 3025,758;    1,091;    1,682
976,184; 3178,576;    0,909;    0,773
976,736; 2976,394;    0,091;    0,227
977,287; 2759,303;   -0,909;   -0,500
977,838; 2950,576;    0,909;   -0,318
978,389; 3019,667;   -1,000;   -0,500
978,940; 2886,576;    0,545;   -0,409
979,491; 2903,303;    0,091;   -0,500
980,042; 2864,303;    0,182;    3,045
980,593; 2933,121;   -2,545;    0,227
981,144; 2988,758;    2,545;   -0,500
981,695; 2932,394;    1,455;    1,500
982,246; 2903,121;   -0,273;    1,045
982,797; 3046,212;   -1,727;    0,682
983,347; 3152,848;    0,364;    0,591
983,898; 3345,939;    3,091;    0,409
984,449; 3150,303;    2,182;    0,773
984,999; 3058,303;    1,455;   -1,136
985,550; 2845,121;    0,182;   -0,318
986,100; 2852,303;   -0,455;   -0,318
986,651; 2891,303;   -0,818;    0,045
987,201; 2850,394;   -1,000;   -0,591
987,751; 2939,758;    0,818;    2,864
988,302; 2948,485;    2,636;    1,500
988,852; 2971,667;    0,455;   -1,136
989,402; 3031,576;    0,091;    0,682
989,952; 2946,030;   -2,182;    0,864
990,502; 3017,758;   -0,091;    0,682
991,052; 2984,121;   -0,727;    0,045
991,602; 2859,303;   -2,909;    1,318
992,152; 2854,121;    0,455;    0,682
992,702; 2831,939;    1,364;   -0,045
993,252; 2771,212;   -3,000;   -0,500
993,802; 2853,939;   -0,273;    1,318
994,352; 3101,394;   -1,545;    1,136
994,901; 3168,303;   -0,182;    3,227
995,451; 3077,485;   -0,182;    0,318
996,000; 3175,667;    1,636;    0,318
996,550; 2887,576;    2,273;    0,227
997,100; 2890,485;    1,273;   -0,045
997,649; 3156,576;    2,182;    0,955
998,198; 2803,212;    1,727;   -1,500
998,748; 3011,394;    1,091;   -2,318
999,297; 2913,939;   -0,818;   -0,409
999,846; 2961,394;    1,000;   -0,773
1000,395; 3017,030;   -0,818;    0,500
1000,945; 2974,121;    1,818;   -0,773
1001,494; 3057,576;    2,364;    0,682
1002,043; 3045,212;    4,636;    0,864
1002,592; 2887,212;   -1,091;    1,955
1003,141; 3029,394;   -0,455;   -0,682
1003,690; 2892,576;    1,727;    0,500
1004,238; 2968,576;    1,455;   -0,045
1004,787; 2590,394;    1,364;    1,227
1005,336; 2847,303;    0,364;    0,682
1005,885; 2981,303;    1,364;   -2,773
1006,433; 3120,030;    0,545;    0,955
1006,982; 3188,394;    0,455;    1,682
1007,531; 3086,758;   -1,818;   -0,227
1008,079; 3033,394;   -2,273;    0,500
1008,627; 3162,303;   -1,455;    0,409
1009,176; 2906,939;    0,000;   -1,955
1009,724; 2957,939;    1,091;    0,864
1010,273; 3002,303;    1,273;    0,500
1010,821; 3090,121;    0,091;    1,409
1011,369; 2849,212;   -1,364;    1,318
1011,917; 2843,848;   -1,364;   -0,591
1012,465; 3126,576;    1,273;   -1,591
1013,013; 3207,121;    2,091;   -1,682
1013,561; 3096,667;    0,455;   -0,773
1014,109; 3179,939;   -1,909;    1,682
1014,657; 3022,848;    0,364;    0,591
1015,205; 3149,121;    1,636;   -0,955
1015,753; 3183,303;   -0,545;   -1,409
1016,301; 3227,758;   -2,636;    3,045
1016,848; 3215,030;   -1,273;    0,409
1017,396; 3271,667;    2,545;    0,045
1017,944; 3383,576;    1,182;    1,864
1018,491; 3149,939;    0,273;    1,409
1019,039; 3322,030;    0,455;    0,591
1019,586; 3209,030;   -1,364;    1,682
1020,134; 3306,030;    0,455;    1,500
1020,681; 3342,303;    0,182;   -1,136
1021,228; 3317,212;    2,909;   -2,227
1021,776; 3143,939;    1,182;   -1,136
1022,323; 3383,485;    0,455;    0,773
1022,870; 3308,485;   -1,000;   -0,045
1023,417; 3234,030;    2,636;    1,864
1023,964; 3341,394;    2,636;    1,227
1024,511; 3188,485;    1,000;    0,773
1025,058; 2987,121;    3,182;   -0,045
1025,605; 3059,121;   -2,273;    3,136
1026,152; 3293,485;    1,727;   -0,591
1026,699; 3005,939;    1,818;    1,318
1027,245; 3141,212;   -0,091;    0,318
1027,792; 3358,212;   -1,000;    1,409
1028,339; 3262,212;    2,364;   -0,045
1028,885; 3103,394;    1,000;   -0,227
1029,432; 3039,667;   -0,091;    0,227
1029,978; 3115,121;   -1,000;   -1,591
1030,525; 3007,394;    1,000;    0,409
1031,071; 3232,030;   -1,364;    1,136
1031,618; 3362,394;    0,364;    1,682
1032,164; 3127,576;   -0,091;    3,045
1032,710; 3184,030;    1,636;   -1,500
1033,256; 3087,667;   -0,636;   -0,136
1033,803; 3088,667;   -0,545;    1,500
1034,349; 2783,394;   -1,364;    0,136
1034,895; 2932,758;    0,000;   -0,318
1035,441; 2942,576;   -0,818;    0,318
1035,987; 2938,394;   -2,364;   -0,682
1036,533; 2940,939;   -1,455;   -0,955
1037,078; 3146,030;    1,455;    1,682
1037,624; 2952,121;    2,455;   -0,955
1038,170; 2982,485;    0,455;   -0,318
1038,716; 2910,394;    1,636;   -0,409
1039,261; 2811,212;   -2,273;   -0,773
1039,807; 2738,758;   -0,091;    3,409
1040,352; 2823,212;   -1,909;   -0,318
1040,898; 2863,758;   -1,545;   -0,682
1041,443; 2754,030;   -1,455;   -2,591
1041,989; 2782,030;    1,091;    1,591
1042,534; 2649,212;   -0,364;    2,591
1043,079; 2766,030;    2,909;    0,955
1043,625; 2580,485;    1,818;    0,500
1044,170; 2619,939;   -1,364;    1,045
1044,715; 2881,576;    2,455;    0,955
1045,260; 2692,667;    2,182;   -0,955
1045,805; 2734,667;    1,182;   -0,591
1046,350; 2664,758;    1,364;   -0,409
1046,895; 2630,939;    2,909;    1,591
1047,440; 2577,030;    5,364;    0,409
1047,985; 2476,121;    2,818;   -0,955
1048,530; 2395,121;    1,545;    1,227
1049,074; 2455,394;    0,000;    0,318
1049,619; 2428,030;   -1,364;    1,955
1050,164; 2239,394;    0,455;    0,227
1050,708; 2281,121;   -0,455;    0,045
1051,253; 2660,121;    1,273;   -2,227
1051,797; 2369,212;    0,818;   -1,318
1052,342; 2366,667;   -1,182;    1,045
1052,886; 2373,121;    0,364;   -1,409
1053,430; 2246,848;   -1,364;    0,136
1053,975; 2257,939;   -0,818;   -0,318
1054,519; 2234,030;   -0,727;    3,227
1055,063; 2266,394;    0,909;    1,318
1055,607; 2157,758;   -0,182;    0,227
1056,151; 2168,212;    2,909;    1,682
1056,695; 2078,121;    2,273;   -1,136
1057,239; 2162,939;   -1,727;   -0,682
1057,783; 2153,939;    0,818;   -1,500
1058,327; 2109,758;    0,000;    1,409
1058,871; 2341,576;   -0,545;    1,318
1059,415; 2060,394;   -0,818;   -0,045
1059,958; 2326,939;    1,455;    2,591
1060,502; 2043,394;   -1,000;   -0,773
1061,046; 1938,030;    0,364;   -0,955
1061,589; 1911,939;   -3,000;   -1,136
1062,133; 1786,758;   -1,273;    1,864
1062,676; 1740,212;    1,182;    0,864
1063,220; 1754,303;    1,091;    0,500
1063,763; 1785,485;    0,909;    1,136
1064,306; 1858,848;   -0,909;    1,864
1064,849; 1736,394;   -0,909;    0,591
1065,393; 1746,121;    2,000;   -1,500
1065,936; 1860,667;    0,182;   -0,409
1066,479; 1723,121;   -1,455;    1,318
1067,022; 1752,848;   -0,273;   -0,227
1067,565; 1663,303;   -0,091;   -1,318
1068,108; 1692,121;    0,727;   -0,591
1068,651; 1661,212;   -0,636;    1,409
1069,194; 1585,939;   -0,455;   -1,682
1069,736; 1591,848;   -1,273;    0,955
1070,279; 1571,939;   -1,364;   -0,500
1070,822; 1626,667;   -2,000;   -0,318
1071,364; 1725,848;   -0,364;    1,318
1071,907; 1528,121;   -0,727;    3,227
1072,450; 1408,939;    0,000;   -0,045
1072,992; 1418,303;   -0,273;    3,136
1073,535; 1577,394;    2,091;    2,136
1074,077; 1362,939;   -0,727;    2,045
1074,619; 1328,758;   -1,364;    0,591
1075,161; 1376,212;   -1,091;    1,500
1075,704; 1561,939;    1,545;    1,227
1076,246; 1344,485;   -0,182;    0,682
1076,788; 1280,758;   -0,364;    1,773
1077,330; 1333,667;    1,273;    2,136
1077,872; 1310,667;    0,909;    0,955
1078,414; 1551,939;    2,727;    0,773
1078,956; 1279,394;    1,273;   -0,227
1079,498; 1546,030;    1,636;    0,318
1080,040; 1257,576;    1,909;   -1,318
1080,581; 1182,758;    1,636;   -0,318
1081,123; 1105,576;    0,091;   -0,773
1081,665; 1153,121;   -1,182;   -0,955
1082,206; 1472,485;    1,364;   -0,500
1082,748; 1325,667;    0,727;    2,045
1083,289; 1190,121;   -2,000;    1,318
1083,831; 1093,939;   -0,545;    0,227
1084,372; 1134,758;    0,000;    0,591
1084,913; 1150,212;    1,091;    0,864
1085,455; 1102,576;   -1,909;   -2,045
1085,996; 1066,758;   -2,273;    0,136
1086,537; 1090,667;   -0,091;    0,864
1087,078; 1125,303;   -0,909;   -2,136
1087,619; 1177,030;   -1,273;    0,227
1088,160; 1096,758;    0,000;    1,318
1088,701; 1068,667;   -1,091;    0,682
1089,242; 1018,758;    1,364;   -2,227
1089,783; 1128,394;   -0,273;    1,409
1090,324; 1098,121;    0,455;    0,682
1090,865;  958,667;    2,727;   -0,409
1091,405;  926,212;    0,727;    2,227
1091,946;  952,758;    0,182;   -0,955
1092,487;  883,303;    0,818;   -1,409
1093,027; 1054,485;   -1,364;   -1,500
1093,568;  914,121;   -0,364;    1,227
1094,108; 1025,121;    0,273;    1,773
1094,649;  946,485;   -1,182;    0,136
1095,189;  875,303;   -0,636;   -0,682
1095,729;  825,394;   -0,091;    0,955
1096,269;  827,576;    0,727;   -0,955
1096,810; 1165,212;   -1,364;    0,500
1097,350;  987,212;    1,364;   -0,773
1097,890;  889,030;    0,364;    1,227
1098,430; 1151,303;    2,364;    2,864
1098,970; 1023,758;    2,182;    1,682
1099,510;  863,394;    0,545;   -2,318
1100,050;  794,848;    1,000;   -1,591
1100,589;  761,030;   -0,727;   -0,318
1101,129;  892,485;    0,818;   -0,955
1101,669; 1048,030;    1,727;    2,136
1102,209;  869,485;   -0,091;    2,227
1102,748;  815,030;    0,000;    0,955
1103,288;  817,121;    1,273;   -1,227
1103,827;  844,212;    3,091;   -2,227
1104,367;  712,576;   -0,091;   -2,409
1104,906;  685,667;    1,364;   -1,136
1105,445;  754,303;    0,636;   -1,136
1105,985;  706,485;   -0,727;    1,500
1106,524;  749,212;   -1,727;   -0,682
1107,063;  723,848;   -2,727;    1,409
1107,602;  689,758;   -1,909;   -1,500
1108,141;  622,485;   -1,909;    1,500
1108,680;  733,030;   -3,455;   -0,591
1109,219;  660,667;   -0,909;   -0,500
1109,758;  659,848;    0,455;    0,682
1110,297;  624,212;    1,000;   -0,682
1110,836;  578,212;   -0,727;    0,955
1111,375;  748,485;   -2,545;    0,409
1111,913;  754,939;   -1,000;    0,773
1112,452;  687,121;   -0,273;    0,136
1112,991;  563,303;    1,091;    1,955
1113,529;  526,030;   -0,818;   -0,045
1114,068;  596,848;   -0,273;    2,955
1114,606;  506,667;   -0,364;   -0,955
1115,144;  675,121;   -1,273;    1,045
1115,683;  607,485;   -0,727;    0,318
1116,221;  645,303;   -0,455;   -0,864
1116,759;  557,758;    0,636;   -0,864
1117,297;  766,303;    0,000;    1,864
1117,836;  564,212;   -2,182;   -1,227
1118,374;  578,576;    0,182;   -0,682
1118,912;  529,030;    0,909;    2,682
1119,450;  508,303;    1,000;    0,864
1119,988;  564,303;    1,545;    2,136
1120,525; 1033,121;    5,091;    3,318
1121,063;  733,212;    1,182;    1,864
1121,601;  525,394;   -0,909;   -1,227
1122,139;  478,758;   -0,727;   -2,045
1122,676;  680,848;   -0,727;    2,773
1123,214;  607,485;   -1,182;    4,409
1123,751;  414,394;    1,727;    2,227
1124,289;  550,030;   -0,091;   -0,409
1124,826;  423,848;    1,727;    0,227
1125,364;  349,212;    1,727;   -0,955
1125,901;  541,939;    1,182;    1,227
1126,438;  656,303;    0,818;    0,955
1126,975;  374,394;   -0,727;   -0,773
1127,513;  440,939;    0,273;    2,136
1128,050;  345,212;    1,636;   -0,682
1128,587;  456,303;    2,000;   -0,227
1129,124;  506,212;    0,091;    1,318
1129,661;  363,121;    0,273;    0,227
1130,198;  530,303;    1,636;    0,773
1130,734;  464,667;    0,182;    1,409
1131,271;  325,303;   -0,909;    0,864
1131,808;  503,394;    2,909;    3,045
1132,345;  375,030;    1,545;    0,318
1132,881;  242,394;   -1,545;   -1,864
1133,418;  385,939;    0,727;   -1,136
1133,954;  316,303;    2,455;   -2,682
1134,491;  395,212;    1,364;   -0,773
1135,027;  297,485;    2,364;    0,864
1135,564;  384,485;    0,273;    2,955
1136,100;  372,848;    0,364;    2,136
1136,636;  253,667;   -1,273;   -1,045
1137,172;  347,212;    0,000;   -1,045
1137,708;  273,303;   -1,364;   -1,045
1138,245;  280,848;    1,273;   -1,227
1138,781;  224,848;    1,091;   -3,318
1139,317;  307,939;    1,273;   -1,409
1139,852;  283,121;    3,091;    0,136
1140,388;  404,030;   -1,182;   -0,409
1140,924;  288,758;   -1,091;   -2,227
1141,460;  225,576;   -1,636;    0,136
1141,996;  159,576;   -1,364;    2,682
1142,531;  211,212;    1,364;    3,318
1143,067;  425,394;    1,182;    1,045
1143,602;  493,758;   -0,091;   -0,318
1144,138;  328,939;   -2,636;    1,045
1144,673;  192,667;   -1,455;    1,409
1145,209;  268,485;   -1,909;   -0,318
1145,744;  179,303;   -0,727;    0,864
1146,279;  324,939;    1,818;   -0,136
1146,815;  232,485;    1,545;   -2,682
1147,350;  278,394;   -1,364;    0,045
1147,885;  188,758;   -0,818;   -1,318
1148,420;  182,030;   -2,273;    0,773
1148,955;  166,667;   -1,727;    1,864
1149,490;  196,667;   -0,909;   -1,591
1150,025;  176,030;    0,455;   -1,773
1150,560;  293,758;    1,091;   -0,955
1151,094;  265,576;    1,455;   -0,591
1151,629;  272,576;    1,636;    0,864
1152,164;  189,121;    1,364;    1,318
1152,698;  139,758;   -0,182;   -0,136
1153,233;  100,667;    0,091;   -0,682
1153,767;  153,667;   -3,000;   -2,318
1154,302;  199,576;   -1,455;    1,773
1154,836;  198,030;   -0,455;   -2,136
1155,371;  260,848;   -1,364;    3,682
1155,905;  205,485;   -0,636;    1,682
1156,439;  172,848;   -0,636;   -0,500
1156,973;  204,394;    0,364;    0,318
1157,507;  139,394;   -0,364;    0,682
1158,042;  166,485;   -0,727;    1,045
1158,576;  216,212;    0,182;    1,773
1159,110;  208,576;   -0,818;    2,409
1159,643;  177,939;    0,636;   -0,045
1160,177;  112,212;   -1,545;    1,500

