
Integration time [ms]:   0,040
Averaging Nr. [scans]: 11
Smoothing Nr. [pixels]: 0
Data measured with spectrometer [name]: 7318044SP
Wave   ;Sample   ;Dark     ;Reference
[nm]   ;[counts] ;[counts] ;[counts] 

186,757;   25,130;   31,551;    1,318
187,357;   67,431;   22,551;    0,955
187,958;   37,777;   15,460;   -1,591
188,558;   83,487;    8,915;   -1,227
189,159;   56,532;    6,733;   -4,500
189,759;   22,407;    7,278;   -3,591
190,360;   23,952;    2,824;   -2,136
190,960;   68,067;    2,915;   -4,136
191,560;   77,211;    3,189;   -6,591
192,161;  338,074;    4,372;   -3,500
192,761;  187,221;    4,010;   -3,227
193,361;  120,641;    1,556;   -3,773
193,962;  169,421;    2,010;   -2,682
194,562;   90,165;    1,189;   -3,955
195,162;  128,882;   -2,448;   -2,227
195,762;  292,302;   -3,176;   -0,045
196,362;  246,980;    1,370;   -2,500
196,963;   97,707;    2,006;   -0,864
197,563;  179,854;    1,551;   -0,955
198,163;  118,099;    0,096;   -0,682
198,763;  135,707;    1,733;   -0,500
199,363;  256,141;    3,096;   -0,500
199,963;  215,162;    0,369;    0,409
200,563;  189,421;    2,823;   -1,409
201,163;  157,326;    3,277;   -0,227
201,763;  260,400;    3,732;    0,318
202,363;  189,945;    1,459;    1,500
202,963;  305,518;    1,459;    1,045
203,563;  427,239;    0,277;    0,500
204,162;  259,525;    2,096;   -1,864
204,762;  254,858;    0,550;    0,591
205,362;  219,585;    3,004;    1,955
205,962;  331,050;    3,096;    1,955
206,562;  321,949;    1,823;    2,318
207,161;  281,865;   -0,087;    0,318
207,761;  447,435;    1,277;    2,409
208,361;  313,442;   -0,268;    1,409
208,960;  421,085;    0,459;    1,500
209,560;  503,686;    1,277;    1,591
210,160;  482,001;    0,550;    1,864
210,759;  445,543;    4,186;    1,227
211,359;  456,466;    1,459;    1,045
211,958;  731,466;    1,277;    2,045
212,558;  818,263;    1,732;    1,864
213,157;  647,945;    1,822;    1,500
213,757; 1111,487;    3,822;   -0,227
214,356;  804,008;    1,277;   -0,409
214,956; 1160,057;    3,095;    0,409
215,555;  764,777;    2,095;    2,136
216,154;  684,809;   -2,723;   -0,591
216,754;  700,438;    0,277;    0,773
217,353;  851,060;   -0,268;   -1,045
217,952;  687,819;   -0,178;    0,318
218,552;  946,732;    1,368;   -0,773
219,151;  838,896;    0,277;    0,955
219,750;  829,753;    0,004;   -0,227
220,349;  976,445;   -0,451;    1,045
220,948; 1044,039;   -1,360;    1,136
221,548; 1071,074;    0,913;    1,227
222,147; 1187,543;   -0,087;   -0,409
222,746; 1475,029;   -0,451;   -0,955
223,345; 1363,228;    0,731;    0,500
223,944; 1370,130;   -0,451;    0,773
224,543; 1561,267;    1,004;   -1,409
225,142; 1663,449;    0,094;    0,136
225,741; 1568,851;   -0,814;    1,045
226,340; 1611,081;   -0,451;   -0,955
226,939; 2073,354;   -0,996;   -0,136
227,538; 2053,326;   -0,360;   -0,773
228,137; 2208,204;   -0,814;    0,864
228,735; 2369,018;   -0,541;    1,227
229,334; 2119,011;   -0,905;   -0,227
229,933; 2504,445;    0,459;    0,591
230,532; 2632,039;    1,186;   -0,409
231,131; 2673,952;    1,732;    0,318
231,729; 2841,791;   -2,450;   -2,318
232,328; 2974,204;   -0,723;   -1,500
232,927; 3063,809;    1,004;   -0,500
233,525; 3211,714;    3,640;    0,045
234,124; 3431,099;    2,368;   -1,591
234,723; 3434,491;    0,913;   -1,045
235,321; 3612,242;    2,277;    0,136
235,920; 3840,795;    1,186;   -1,227
236,518; 4106,546;    3,459;    0,318
237,117; 4328,592;    0,004;   -0,227
237,715; 4513,438;    0,640;   -0,500
238,314; 4547,595;   -0,087;   -2,318
238,912; 4662,536;   -0,723;   -1,409
239,510; 4687,522;    0,459;   -1,227
240,109; 4887,267;    0,004;    3,773
240,707; 4922,798;   -0,996;    1,227
241,305; 5319,309;    0,550;    0,136
241,904; 5546,581;   -0,178;   -2,045
242,502; 5526,319;   -0,632;   -0,227
243,100; 5455,977;   -0,087;   -0,955
243,698; 5717,005;    0,732;    1,682
244,297; 5893,470;   -0,632;    0,682
244,895; 5706,872;   -0,269;   -2,318
245,493; 6043,602;    2,186;   -0,591
246,091; 6111,557;    1,368;   -1,318
246,689; 6096,917;    1,004;    0,591
247,287; 6285,246;    0,822;   -1,136
247,885; 6569,043;   -1,451;    1,227
248,483; 6655,665;    1,822;   -0,500
249,081; 6791,896;    0,185;    1,591
249,679; 6974,459;   -0,178;    1,682
250,277; 7247,018;   -1,723;    0,864
250,875; 7193,889;   -1,087;   -1,045
251,473; 7249,718;   -1,178;    0,500
252,071; 7460,938;    1,459;    1,045
252,669; 7620,494;   -1,814;    0,318
253,267; 7872,067;   -0,087;    0,773
253,864; 7817,337;   -0,360;    0,682
254,462; 7674,305;    1,640;    1,591
255,060; 7654,560;   -0,269;    1,318
255,658; 8008,858;    0,822;   -0,136
256,255; 8427,060;    0,186;   -2,045
256,853; 8309,407;   -0,269;    1,409
257,451; 8287,050;    0,822;    1,864
258,048; 8548,942;    1,822;    1,864
258,646; 8312,120;    1,731;   -1,045
259,243; 8498,952;   -0,087;    2,227
259,841; 8586,648;   -0,814;    0,318
260,438; 8441,197;   -0,087;    0,864
261,036; 9214,505;   -1,905;    1,409
261,633; 9070,774;   -0,087;    2,227
262,231; 8796,970;    2,731;   -0,045
262,828; 8882,116;   -0,905;    1,136
263,425; 8966,480;    0,913;   -0,591
264,023; 9241,379;    0,186;    0,045
264,620; 8792,658;   -0,360;   -0,318
265,217; 9160,134;   -2,087;    3,136
265,815; 9216,616;   -1,905;    2,136
266,412; 9029,232;    0,731;    0,136
267,009; 9081,774;   -1,451;    0,773
267,606; 8929,756;    0,822;   -0,955
268,203; 8911,004;   -0,269;   -0,591
268,801; 9220,704;    1,731;    0,591
269,398; 9490,085;   -0,360;    2,500
269,995; 9526,298;    0,277;    1,591
270,592; 9295,225;   -0,632;   -0,500
271,189; 9477,389;    0,186;    0,409
271,786; 9586,970;   -0,632;    1,227
272,383; 9414,148;   -1,087;    0,227
272,980; 9628,295;    0,277;    0,318
273,577;10122,728;    0,004;    1,227
274,174; 9698,137;    0,822;    2,591
274,771; 9670,130;   -0,814;   -0,773
275,367; 9812,088;    2,277;    1,409
275,964; 9763,193;    0,731;   -0,500
276,561; 9851,595;    1,549;   -1,045
277,158;10081,095;    0,095;   -1,773
277,755;10206,351;    2,185;    0,409
278,351; 9597,207;   -0,451;   -1,500
278,948; 9938,498;   -0,815;    0,045
279,545; 9946,396;   -1,360;    2,318
280,141;10614,763;   -1,723;   -2,045
280,738;10463,487;   -0,451;   -0,136
281,334;10714,903;   -1,633;    0,591
281,931;10070,805;   -0,087;   -1,318
282,528;10128,910;    0,822;   -0,500
283,124;10853,032;   -1,087;   -0,500
283,721;10795,609;   -0,451;    1,409
284,317;10585,144;    0,185;    2,500
284,913;11170,130;   -1,360;    0,591
285,510;11347,676;    0,640;   -0,318
286,106;11370,417;   -2,269;   -0,955
286,703;10980,819;   -0,360;    1,955
287,299;11225,011;   -1,451;   -0,591
287,895;11412,326;    0,822;   -1,045
288,491;11975,267;    0,186;    2,136
289,088;11686,085;   -2,360;    2,409
289,684;11764,585;   -1,723;    1,500
290,280;11782,753;    0,368;    0,682
290,876;11896,714;    1,822;    5,500
291,472;11732,854;    1,276;    2,227
292,068;11873,333;    1,367;    0,227
292,665;11549,375;    2,095;    0,773
293,261;11165,669;    0,276;    2,136
293,857;11592,837;    2,913;    2,136
294,453;11485,442;    3,550;    0,955
295,049;11336,039;   -0,268;    1,955
295,644;11357,106;    0,095;    0,136
296,240;11271,651;   -0,905;   -0,136
296,836;11321,665;   -0,995;    0,318
297,432;11616,543;    1,096;   -0,500
298,028;11672,333;    0,732;    0,773
298,624;12103,221;    1,459;    1,864
299,220;12326,249;    2,368;    0,591
299,815;11987,718;    1,005;   -0,409
300,411;11790,312;    0,914;    1,773
301,007;11790,959;    1,368;    0,227
301,602;11805,368;   -0,541;   -2,318
302,198;12009,379;    0,732;   -0,773
302,794;12389,207;    1,187;   -0,500
303,389;12507,854;   -1,177;    1,045
303,985;12572,106;    0,550;    1,409
304,580;12523,386;    1,459;    1,591
305,176;12482,099;   -3,086;    0,136
305,771;12416,525;   -1,268;   -1,227
306,367;12288,428;    4,095;    0,136
306,962;12612,368;    0,641;    1,500
307,558;12339,942;   -0,450;    0,136
308,153;12267,193;    1,095;   -1,136
308,748;12487,050;   -0,814;    1,682
309,344;12431,186;   -0,632;   -1,318
309,939;12510,823;   -1,905;   -1,318
310,534;12810,777;   -0,086;   -1,682
311,130;12735,662;    0,459;   -2,500
311,725;12483,053;    1,004;   -0,500
312,320;12798,798;    2,459;    0,045
312,915;12642,508;    1,459;   -1,045
313,510;12750,270;    1,550;   -0,500
314,105;13238,973;    1,096;    1,409
314,700;12615,728;   -3,086;   -1,045
315,295;12196,022;   -0,904;    0,045
315,890;11805,452;    1,277;    0,864
316,485;12208,333;   -0,359;   -0,318
317,080;12283,830;   -3,086;    1,591
317,675;12897,074;    2,005;   -0,682
318,270;12282,942;    5,550;    3,318
318,865;12261,574;    3,278;    3,045
319,460;12077,428;   -0,904;    0,591
320,055;12311,875;   -0,541;   -1,227
320,650;11987,463;   -1,995;   -0,591
321,244;12018,711;   -0,177;   -1,409
321,839;12972,921;   -1,541;   -0,227
322,434;12883,162;   -1,086;   -1,591
323,029;12491,536;    1,732;    1,591
323,623;12320,505;    1,550;    0,773
324,218;12024,148;    2,368;    1,409
324,812;11935,120;    1,096;    1,591
325,407;11740,337;   -0,814;    2,045
326,002;11668,039;    0,277;   -0,409
326,596;11985,718;    0,914;    1,318
327,191;12162,022;    0,823;   -1,045
327,785;11747,627;   -0,813;   -0,227
328,379;11970,235;    1,368;    0,136
328,974;11775,721;    0,914;   -3,955
329,568;12007,700;    0,186;   -2,409
330,163;11789,393;    2,096;    1,045
330,757;12136,312;    2,459;    1,591
331,351;11424,032;    0,459;    0,682
331,945;11753,840;    0,914;    1,409
332,540;11371,945;   -1,723;   -0,591
333,134;11528,106;   -1,086;    0,773
333,728;11791,823;    0,005;    0,318
334,322;12122,714;   -1,177;   -0,864
334,916;11386,295;    0,277;    0,955
335,510;11716,875;   -0,450;   -0,136
336,105;11961,295;   -1,086;    1,591
336,699;11658,228;   -1,086;    0,591
337,293;11557,438;   -1,723;    0,318
337,887;11712,375;   -2,723;    1,955
338,481;11860,518;    0,459;    0,591
339,074;11991,382;   -0,359;    2,682
339,668;11812,697;   -1,632;    1,227
340,262;12096,959;    1,732;    3,227
340,856;11587,480;    1,822;   -0,682
341,450;10937,025;    1,004;    1,864
342,044;11837,711;    1,459;    0,136
342,637;11603,630;    0,913;   -2,136
343,231;11486,931;   -2,360;    0,682
343,825;11449,952;   -1,086;   -0,591
344,419;11378,225;   -1,995;    0,500
345,012;11161,316;    2,459;    4,045
345,606;11177,536;    4,641;    1,591
346,199;11006,249;   -1,813;   -0,227
346,793;10540,564;    1,914;    2,045
347,386;10736,449;   -0,813;   -1,136
347,980;10755,281;   -0,268;   -0,045
348,573;10528,648;    2,278;    0,409
349,167;10193,644;    5,278;    4,773
349,760;10507,865;    2,914;    2,682
350,354;10482,005;   -0,813;    1,136
350,947;10250,473;    1,096;    1,682
351,540; 9923,043;   -0,358;   -1,409
352,134; 9856,260;    1,096;    1,136
352,727; 9959,354;   -0,086;    1,136
353,320; 9718,218;    0,005;    0,591
353,913; 9581,725;   -1,995;    1,864
354,507; 9780,379;    0,823;   -1,227
355,100; 9754,630;    0,460;    0,864
355,693; 9034,410;    2,005;    2,409
356,286; 9086,438;    0,823;    2,773
356,879; 9407,235;   -0,722;    1,227
357,472; 9006,277;   -0,904;    1,500
358,065; 9211,190;   -0,722;    2,500
358,658; 9074,686;   -0,540;    2,318
359,251; 8728,966;   -1,631;   -0,591
359,844; 8248,816;   -1,904;   -1,136
360,437; 8437,060;   -2,995;    0,045
361,030; 8654,025;    1,369;   -0,682
361,623; 8232,963;    2,824;    0,318
362,215; 8344,393;   -0,086;    2,045
362,808; 8186,414;   -2,358;   -1,682
363,401; 8364,539;   -2,449;    0,136
363,994; 8139,022;   -0,631;   -1,500
364,586; 7998,770;    0,824;   -1,500
365,179; 8234,193;   -0,449;   -1,136
365,772; 7714,491;   -1,995;    2,045
366,364; 8025,078;    1,915;   -3,227
366,957; 8210,644;    2,279;   -0,045
367,549; 8233,270;    2,188;   -0,864
368,142; 7881,001;    1,825;   -1,500
368,734; 8103,767;    0,734;   -2,136
369,327; 8039,609;    1,643;   -0,500
369,919; 7962,281;   -1,538;    0,409
370,512; 7730,326;   -1,083;   -0,500
371,104; 7503,449;   -0,901;    1,591
371,696; 7686,033;    1,191;   -0,955
372,289; 7770,508;    0,373;    1,136
372,881; 7916,809;   -2,080;    1,318
373,473; 7841,847;   -2,170;    1,136
374,066; 7672,057;   -0,169;    0,500
374,658; 7520,987;    0,378;    1,136
375,250; 7832,774;    0,653;   -1,409
375,842; 7694,096;    0,473;   -0,045
376,434; 7571,931;   -0,435;   -0,409
377,026; 8170,365;    0,204;   -2,500
377,618; 8042,868;   -0,158;   -0,682
378,210; 7873,655;   -0,338;   -1,955
378,802; 7760,704;    0,754;   -0,591
379,394; 7733,368;    1,846;    0,682
379,986; 8282,267;    1,393;   -0,955
380,578; 8372,319;   -0,153;    0,773
381,170; 7724,145;   -0,972;    0,045
381,762; 7704,141;    0,755;    1,409
382,354; 7896,596;   -0,065;   -1,318
382,945; 7999,910;   -2,976;    0,318
383,537; 8137,082;   -2,705;   -1,955
384,129; 8128,012;   -2,160;   -1,136
384,721; 8352,361;   -0,252;    0,955
385,312; 8284,984;   -0,161;   -0,955
385,904; 8373,847;   -2,706;    1,591
386,496; 7732,637;   -0,979;    1,045
387,087; 7887,515;    1,022;    2,500
387,679; 7924,414;   -1,160;    0,045
388,270; 8049,970;    2,840;    2,045
388,862; 8161,239;    1,295;   -0,318
389,453; 8086,749;   -0,887;    1,045
390,045; 8361,809;   -0,705;   -2,682
390,636; 8276,501;    0,204;   -0,591
391,227; 8123,347;   -0,523;   -0,045
391,819; 8234,498;    0,204;    0,773
392,410; 8287,368;    1,022;    0,045
393,001; 8230,648;   -0,979;   -1,591
393,593; 8534,459;    1,930;   -0,045
394,184; 8376,291;    1,385;   -0,409
394,775; 8313,690;    1,839;    2,136
395,366; 8498,624;    1,385;    0,773
395,957; 8513,861;    0,113;    0,136
396,548; 8813,589;   -0,342;    2,682
397,139; 9127,721;   -2,433;    0,591
397,730; 8882,040;   -1,888;    0,955
398,321; 8932,669;   -1,252;    0,955
398,912; 8947,365;   -0,615;    0,136
399,503; 9009,753;   -3,524;   -1,409
400,094; 8439,386;    0,294;    1,682
400,685; 8295,868;   -0,433;    0,045
401,276; 8379,295;    0,930;   -0,955
401,867; 8727,179;   -0,888;    0,773
402,458; 8786,984;   -2,251;   -2,318
403,048; 8769,568;    1,112;    0,591
403,639; 8394,096;    0,840;    0,864
404,230; 8639,424;    2,476;    0,318
404,821; 8557,117;   -0,615;    0,045
405,411; 8684,393;    1,203;   -2,591
406,002; 8277,515;   -1,252;   -1,136
406,592; 8134,512;    2,294;    0,045
407,183; 8428,022;    0,566;   -1,500
407,774; 8347,945;    3,475;   -0,136
408,364; 8684,064;    0,930;    0,409
408,954; 8297,617;    0,384;    1,227
409,545; 8354,333;    1,021;    1,045
410,135; 7888,068;    1,293;    0,500
410,726; 8054,092;    1,838;    0,318
411,316; 8441,389;    0,111;    0,773
411,906; 8084,679;   -0,253;   -0,409
412,497; 7596,945;   -1,070;   -0,045
413,087; 8183,651;   -1,980;   -0,227
413,677; 8574,033;   -0,707;    3,864
414,267; 8414,078;    0,656;    1,409
414,857; 8432,644;   -2,980;    4,227
415,448; 8734,882;    0,839;    0,500
416,038; 8392,568;    0,020;   -0,591
416,628; 8381,840;   -0,889;    0,409
417,218; 7844,585;    0,565;    3,318
417,808; 8101,970;    0,202;   -0,409
418,398; 8576,914;    0,020;    2,682
418,988; 8593,172;    2,020;    0,591
419,578; 8861,022;   -0,707;    1,409
420,168; 9200,323;   -1,343;   -0,955
420,757; 8796,186;   -1,343;   -1,500
421,347; 8458,068;    0,111;   -0,227
421,937; 8617,634;    2,292;    1,409
422,527; 8569,498;    0,838;   -0,773
423,116; 8383,578;   -0,253;   -0,045
423,706; 8715,047;   -1,889;    0,318
424,296; 8677,949;    1,384;    0,682
424,885; 9142,130;   -0,071;   -3,045
425,475; 9395,001;    1,474;   -2,864
426,065; 9312,662;   -0,980;   -0,318
426,654; 8948,505;   -0,435;   -0,318
427,244; 9113,137;    0,020;    1,409
427,833; 8573,658;    1,383;   -0,500
428,423; 9013,253;   -0,526;    1,136
429,012; 9779,165;   -0,344;   -1,136
429,601; 9282,428;   -1,344;    0,136
430,191; 9509,186;    1,292;    4,318
430,780; 9155,319;   -0,344;   -0,409
431,369; 9072,249;    0,746;   -0,045
431,959; 9679,935;   -1,254;    0,500
432,548; 9480,522;   -1,163;   -0,045
433,137; 9601,291;   -1,254;   -1,318
433,726;10122,442;    0,292;    0,500
434,315; 9485,442;   -0,526;    2,409
434,905; 9587,340;   -1,254;    1,409
435,494; 9474,575;    0,746;    0,955
436,083; 9903,064;   -0,981;   -0,955
436,672; 9798,561;    0,110;    0,500
437,261; 9366,242;    0,292;   -1,955
437,850; 9473,449;    1,383;    0,682
438,439; 9503,456;    3,291;    1,955
439,027; 9352,211;    3,655;    1,773
439,616; 9695,858;    2,927;    1,227
440,205; 9556,214;    0,200;   -2,136
440,794; 9638,239;    2,109;   -0,045
441,383; 9920,658;   -1,346;   -0,591
441,971; 9736,372;   -2,436;    0,591
442,560; 9607,123;    0,563;   -1,773
443,149; 9342,141;    0,379;   -1,318
443,737; 9494,784;   -0,074;   -2,318
444,326; 9783,952;    0,018;    0,318
444,915; 9821,875;   -1,982;    0,864
445,503;10225,382;   -2,891;   -0,318
446,092; 9459,410;    0,382;    2,136
446,680; 9978,281;    0,382;    0,318
447,269;10158,008;   -0,346;   -0,318
447,857; 9908,714;    0,018;   -1,773
448,445;10015,952;    0,563;    1,318
449,034;10236,326;   -1,528;   -1,136
449,622;10382,784;   -1,073;    3,500
450,210; 9601,935;    2,017;    2,227
450,799;10160,959;    0,290;   -0,591
451,387;10124,928;    1,381;   -0,591
451,975; 9744,435;    2,654;    0,864
452,563; 9848,977;    3,472;    2,318
453,151; 9850,260;   -0,528;   -1,227
453,739; 9827,372;   -1,347;    0,136
454,328; 9667,386;    2,381;   -2,136
454,916; 9379,564;    2,562;   -0,136
455,504; 9542,270;    1,017;    1,227
456,092; 9666,165;    0,017;   -1,591
456,679; 9711,326;    1,472;    0,682
457,267; 9652,942;    4,017;    1,045
457,855; 9776,952;    1,017;    1,409
458,443; 9535,127;   -0,165;    1,682
459,031; 9685,075;    0,108;    2,409
459,619;10160,634;   -1,801;    2,864
460,206;10304,061;    0,835;    2,045
460,794;10323,050;   -2,983;   -0,227
461,382;10589,823;   -0,529;   -0,864
461,970;10198,487;    1,198;    1,864
462,557;10231,057;   -0,711;   -0,682
463,145;10413,078;   -3,165;   -1,682
463,732;10582,008;    2,016;   -1,045
464,320;10475,669;   -0,075;   -3,045
464,907;10149,242;    2,743;   -0,773
465,495;10030,651;    0,743;   -1,227
466,082;10193,690;   -1,984;   -0,045
466,670;10111,613;   -2,529;    1,227
467,257;10504,557;   -1,711;    2,045
467,844;10656,711;   -0,075;    0,045
468,432;10677,393;    0,834;    3,500
469,019;10164,914;    0,925;   -1,773
469,606;10647,463;    0,470;    3,682
470,193;10455,557;   -1,439;    0,227
470,780; 9993,970;   -2,075;    0,864
471,368;10391,609;   -1,257;   -0,773
471,955;10179,487;    1,379;   -0,682
472,542; 9798,519;    0,652;   -1,136
473,129;10020,477;   -0,166;    0,136
473,716; 9760,602;    1,470;    0,591
474,303; 9972,882;    0,652;   -0,864
474,890;10267,169;   -1,439;   -0,500
475,477;10304,183;   -1,621;    0,409
476,064;10156,830;    1,106;   -1,591
476,650;10157,557;    0,288;    0,318
477,237; 9948,739;   -0,258;    0,955
477,824;10111,882;   -1,076;    0,864
478,411;10079,959;   -1,894;   -0,318
478,997;10300,767;    0,560;   -0,773
479,584;10358,022;    1,196;   -0,409
480,171;11086,616;   -0,440;   -0,773
480,757;10732,651;    2,651;    0,773
481,344;11043,137;    0,469;    0,409
481,931;10531,753;    1,105;    1,045
482,517;11598,816;   -1,258;    0,318
483,104;12186,718;    1,106;    2,864
483,690;12449,274;   -1,804;    0,045
484,276;12742,473;   -0,895;    0,227
484,863;12465,791;    2,469;    1,136
485,449;13088,263;   -0,077;    0,318
486,035;13090,672;   -1,986;   -0,136
486,622;13471,508;   -0,895;    0,045
487,208;13385,889;    1,378;    1,500
487,794;13229,351;    0,741;    0,318
488,380;13346,197;    0,105;   -1,409
488,967;13439,697;   -1,168;   -0,409
489,553;13485,400;   -1,895;   -1,409
490,139;13672,102;    1,559;    0,773
490,725;13048,393;    0,741;   -0,227
491,311;12565,798;    3,287;    3,045
491,897;11911,809;   -0,986;    1,500
492,483;11762,959;    0,105;    1,227
493,069;11620,428;    3,923;    0,864
493,655;11615,980;    1,650;    0,682
494,241;11523,658;    1,377;   -0,955
494,826;11913,305;    0,287;   -1,045
495,412;11400,337;    2,559;   -0,682
495,998;11534,333;   -0,805;   -0,318
496,584;11713,774;    0,377;    1,045
497,169;11745,054;    1,014;   -0,682
497,755;11661,966;    0,650;    1,227
498,341;12264,777;    0,559;    0,318
498,926;11884,529;    1,832;    1,955
499,512;12025,473;    1,286;    2,955
500,097;12161,991;    0,195;   -0,318
500,683;12136,130;   -0,350;    2,136
501,268;12523,442;   -0,169;   -0,955
501,854;12265,907;   -0,169;    1,227
502,439;12192,005;   -0,624;   -1,773
503,024;12398,630;    0,195;    0,500
503,610;12496,197;   -0,078;   -0,682
504,195;12465,267;    0,558;    1,955
504,780;12645,365;    2,922;    1,227
505,366;12517,798;    3,013;    2,864
505,951;12231,151;    0,740;    1,045
506,536;12255,798;   -3,260;   -3,682
507,121;12232,424;    0,285;   -0,318
507,706;12756,707;    2,376;    1,045
508,291;13137,973;    2,649;    1,136
508,876;12614,015;   -0,988;    2,591
509,461;12110,396;   -0,169;   -0,773
510,046;12527,141;    0,194;    0,318
510,631;12775,354;   -0,351;   -0,773
511,216;12448,008;    2,467;   -0,500
511,801;12846,777;   -0,442;    2,591
512,386;13189,805;    0,740;    0,500
512,971;13105,176;   -2,988;    0,955
513,555;12684,987;   -0,897;   -1,500
514,140;13474,407;   -0,442;   -3,136
514,725;13459,578;   -0,715;   -1,136
515,309;13603,739;   -0,533;    0,318
515,894;13056,977;   -0,624;   -2,227
516,479;13490,102;   -0,624;   -0,955
517,063;13353,798;    0,376;    1,227
517,648;13456,358;    1,012;   -1,136
518,232;13146,742;   -0,261;   -1,409
518,817;13494,627;   -0,079;    1,682
519,401;13707,029;    2,194;    0,591
519,985;13186,274;    1,103;    1,136
520,570;13116,823;    0,830;   -1,955
521,154;13378,749;    2,102;    0,591
521,738;13564,665;   -2,352;    2,409
522,323;14134,819;   -0,170;    1,682
522,907;13877,533;    0,466;   -0,136
523,491;13557,907;    0,557;    0,955
524,075;13551,882;    2,284;    0,591
524,659;13669,491;    1,466;    0,591
525,243;13137,627;    1,739;    0,409
525,827;13380,581;    0,648;   -0,045
526,411;14227,400;   -1,989;   -0,136
526,995;14458,585;   -0,352;    1,409
527,579;14067,805;   -0,443;   -1,045
528,163;14367,802;    0,375;   -1,500
528,747;14283,330;    2,466;   -0,773
529,331;14613,889;   -0,080;   -1,409
529,915;14813,204;    1,738;    0,955
530,499;14769,627;   -0,807;    1,227
531,082;14451,889;   -0,534;    1,591
531,666;13895,924;    1,374;    0,773
532,250;14574,669;    1,284;    2,682
532,833;14913,057;    0,920;    2,773
533,417;14729,823;   -1,807;    0,864
534,001;14754,921;    1,647;   -0,318
534,584;15473,571;    0,374;    0,500
535,168;15332,746;    0,465;    1,409
535,751;15390,505;    0,647;    0,045
536,334;14791,809;   -0,898;   -0,409
536,918;15393,012;    0,011;    1,591
537,501;15488,970;   -0,899;    1,318
538,085;15482,176;   -0,444;    1,045
538,668;15697,333;    0,829;    2,409
539,251;16034,945;    1,829;    3,773
539,834;15985,022;    0,101;    0,773
540,418;15918,879;   -1,990;    4,318
541,001;16064,819;   -0,990;    1,773
541,584;16046,134;    2,101;    2,227
542,167;15737,470;    1,374;    2,955
542,750;15904,169;    1,919;   -0,773
543,333;15484,616;    0,555;    2,136
543,916;16267,116;    0,192;    2,500
544,499;16888,484;   -1,354;    0,227
545,082;16908,008;    1,374;    3,591
545,665;17062,921;    1,919;    1,500
546,248;17367,435;    1,010;   -0,318
546,830;17013,840;   -0,445;    1,955
547,413;17427,071;    1,010;   -0,773
547,996;17965,721;    0,555;    0,500
548,579;17743,477;    0,919;    0,955
549,161;17544,546;    1,828;    2,682
549,744;17323,574;   -0,809;    0,409
550,326;17832,127;   -0,809;   -1,136
550,909;17658,690;    2,737;    0,591
551,492;18020,833;   -0,263;    0,227
552,074;17807,386;   -0,173;   -1,318
552,657;18378,721;    2,373;    0,045
553,239;18122,921;   -0,173;   -0,773
553,821;17987,305;   -1,082;    1,045
554,404;17506,414;    1,282;    1,136
554,986;17922,819;    0,464;    1,045
555,568;18514,109;    1,191;   -0,955
556,151;17740,085;    1,191;   -0,227
556,733;17942,074;   -0,264;   -0,864
557,315;18426,641;    0,100;    0,500
557,897;18200,050;    0,554;   -0,500
558,479;18336,543;   -1,991;    1,318
559,061;18470,466;   -0,719;   -0,864
559,643;18827,749;   -0,264;    0,045
560,225;19191,361;    1,645;    2,864
560,807;19210,113;    0,918;    0,318
561,389;18664,284;    0,554;    2,318
561,971;19434,417;    0,463;    2,136
562,553;19217,865;   -1,628;    1,591
563,135;19390,431;   -0,537;    1,136
563,717;19010,669;    3,372;    1,136
564,298;19734,008;    3,645;   -0,045
564,880;19437,400;    0,645;   -1,409
565,462;19602,854;    0,645;    1,318
566,043;20771,407;   -0,446;    2,318
566,625;20297,676;    1,918;    1,227
567,207;20169,739;    1,099;    1,682
567,788;21345,847;   -1,264;    1,500
568,370;22155,994;    1,917;   -0,500
568,951;22012,658;    0,190;    0,227
569,533;22866,225;   -0,628;   -0,500
570,114;23293,833;   -0,446;    0,682
570,695;23816,788;   -0,174;   -1,318
571,277;24413,284;   -0,265;   -1,682
571,858;25104,008;    2,008;   -1,136
572,439;25962,386;    1,554;   -1,045
573,021;26204,875;    2,099;   -2,773
573,602;26681,830;   -1,265;    0,318
574,183;27640,571;   -2,083;    2,227
574,764;27707,256;   -1,629;    0,409
575,345;28276,295;    0,917;   -0,136
575,926;28886,298;   -0,356;    0,136
576,507;28811,190;    1,099;   -0,227
577,088;29969,977;    3,099;    1,682
577,669;29970,193;    0,735;    1,955
578,250;30789,207;    0,644;   -1,045
578,831;31474,113;   -1,356;   -2,227
579,412;31708,442;   -0,810;    0,955
579,993;32550,421;    1,008;    0,227
580,573;32885,183;   -0,629;   -0,955
581,154;31842,592;    0,735;   -0,591
581,735;32762,795;    0,644;    0,773
582,315;32255,795;   -0,629;    2,136
582,896;32487,165;   -0,174;    1,227
583,477;31912,340;    0,189;    1,227
584,057;32082,844;    0,553;    0,955
584,638;32436,512;    2,553;    2,318
585,218;32506,655;   -0,538;    2,682
585,799;32588,840;    0,281;   -0,227
586,379;32515,977;    0,372;    1,591
586,959;31207,725;    0,735;    0,318
587,540;30527,826;   -0,629;    2,227
588,120;30084,774;    1,007;   -0,045
588,700;29118,361;    2,553;    2,136
589,281;29488,756;    0,462;   -0,955
589,861;29419,354;    0,099;   -1,682
590,441;29211,672;    2,371;   -2,682
591,021;28171,690;   -0,265;   -2,591
591,601;28390,893;   -0,537;    0,500
592,181;28400,637;   -0,719;   -0,773
592,761;27702,840;    0,007;    1,409
593,341;27628,053;   -0,901;    0,045
593,921;27650,309;   -0,265;    1,591
594,501;27535,756;   -0,538;    1,318
595,081;27348,424;    0,917;   -0,318
595,661;27748,431;   -1,447;    0,955
596,240;28199,470;   -0,537;    0,136
596,820;27910,162;    0,372;    1,955
597,400;28065,361;    2,008;    0,773
597,980;28255,746;    2,008;    1,045
598,559;28228,896;    2,735;   -0,227
599,139;27969,553;   -0,174;   -1,227
599,718;27895,099;   -0,174;   -0,409
600,298;28105,928;    0,735;    0,682
600,877;28374,665;    2,917;    1,409
601,457;28660,903;    2,281;    1,136
602,036;28578,071;    0,190;    2,045
602,616;28841,379;    0,644;    1,682
603,195;29177,627;   -0,355;    3,500
603,774;28744,253;   -0,901;    2,045
604,354;28552,319;    0,826;   -0,500
604,933;28044,246;    0,463;    1,864
605,512;28179,116;    3,554;    0,591
606,091;28195,116;   -0,537;    3,773
606,671;29009,421;    0,281;    0,773
607,250;28140,155;    1,644;    3,136
607,829;28385,893;    2,372;    3,227
608,408;28179,442;    1,190;    2,591
608,987;27246,879;    1,281;    3,409
609,566;27574,889;   -1,265;   -2,500
610,145;27654,225;   -1,082;    0,682
610,723;28047,816;    4,372;    6,864
611,302;27315,665;   -0,446;    1,682
611,881;26799,966;    5,008;   11,227
612,460;27627,945;    1,645;    3,955
613,039;28077,816;   -0,082;    2,045
613,617;26815,211;    1,736;    4,773
614,196;26987,431;    1,099;    1,227
614,775;27343,050;    1,009;    2,409
615,353;27257,707;    0,736;    0,864
615,932;26979,686;    0,100;    2,409
616,510;27537,774;    0,554;    0,591
617,089;27102,665;    7,100;   17,591
617,667;26875,053;    2,372;    6,136
618,246;26701,770;   -1,537;    1,318
618,824;26880,207;   -3,355;   -0,955
619,402;26438,302;   -2,900;   -1,773
619,981;26968,074;   -0,173;   -1,045
620,559;26757,921;    0,009;    1,682
621,137;26261,546;   -0,718;    1,864
621,715;26378,865;   -1,173;   -0,682
622,293;26313,693;   -0,537;   -0,773
622,871;26749,186;   -0,718;    0,500
623,450;26268,742;    0,373;   -0,864
624,028;26175,676;    0,191;   -0,955
624,606;25835,669;   -1,718;    1,682
625,183;26203,043;   -1,536;   -1,136
625,761;25815,403;    1,009;    1,136
626,339;26154,655;    1,373;    2,591
626,917;26534,148;   -0,172;   -0,045
627,495;26526,553;   -0,354;    1,318
628,073;25926,078;   -0,263;    2,864
628,650;25646,221;    0,100;    2,136
629,228;26113,669;    0,373;    4,409
629,806;25521,046;    2,282;    1,136
630,383;25761,956;    1,464;   -0,318
630,961;25605,623;    2,555;   -0,955
631,539;25332,372;    2,464;    0,227
632,116;24741,260;   11,373;   15,409
632,694;25305,690;    2,555;    6,500
633,271;25541,155;    0,828;    2,682
633,848;25482,113;    1,828;    2,045
634,426;25441,816;   -1,081;    1,773
635,003;24584,204;    1,101;   -0,409
635,580;24953,099;    1,192;    3,682
636,158;25505,438;    3,737;    1,227
636,735;25483,732;    0,555;   -0,500
637,312;25649,281;   -0,809;   -0,682
637,889;25711,949;   -4,354;   -0,682
638,466;25202,623;   -3,990;   -0,409
639,043;25233,826;    2,101;   -1,136
639,620;25532,519;   -2,262;   -0,955
640,197;25831,555;    1,100;    1,682
640,774;25939,336;   -0,172;    1,136
641,351;26354,481;    0,737;    1,136
641,928;25764,626;   -0,627;    1,409
642,505;25437,498;    0,828;   -0,500
643,082;25545,643;   -1,718;    1,227
643,658;24554,879;   -0,718;    1,500
644,235;25290,024;    1,191;    2,500
644,812;25595,168;    1,918;    0,773
645,388;25359,404;   -0,991;    1,409
645,965;25477,822;   -0,809;    1,682
646,542;25555,239;   -1,445;   -0,227
647,118;25561,930;    1,009;   -0,955
647,695;25796,438;   -0,263;    1,136
648,271;25694,220;   -0,536;    0,500
648,848;26010,728;    0,736;    2,227
649,424;25879,691;    0,827;    1,318
650,000;25672,381;   -0,354;   -1,045
650,577;25455,981;   -0,627;   -0,955
651,153;25977,035;   -1,809;    0,955
651,729;26935,271;    1,191;    0,864
652,305;27474,870;    0,645;    2,773
652,881;32612,924;   -0,082;    1,136
653,458;39483,796;    1,100;    0,227
654,034;42824,032;    0,282;    1,591
654,610;44122,995;    0,554;    0,773
655,186;45297,049;    0,645;    3,045
655,762;44902,739;   -0,991;    0,409
656,338;44877,611;    0,100;    0,136
656,913;45774,574;   -0,082;    0,409
657,489;45026,356;    0,827;   -0,318
658,065;44965,864;   -0,173;   -1,591
658,641;45503,645;   -0,900;   -0,864
659,217;44861,972;   -0,991;    0,409
659,792;44295,208;    0,645;   -0,409
660,368;44428,898;   -2,173;   -0,682
660,944;43813,316;   -2,082;    1,227
661,519;38639,733;   -0,628;    0,409
662,095;32762,424;   -1,719;    0,591
662,670;28621,023;    1,281;   -0,136
663,246;27767,986;    1,009;   -0,409
663,821;27185,222;    0,281;    1,682
664,396;26659,821;    0,009;    1,864
664,972;26962,239;    0,009;   -0,500
665,547;27289,656;    1,372;    0,136
666,122;27320,619;   -1,082;    0,318
666,698;27573,946;   -0,173;    0,318
667,273;26913,455;   -0,173;    0,136
667,848;27746,872;    2,372;    1,500
668,423;27561,744;    2,190;    2,318
668,998;28121,617;    2,827;   -0,682
669,573;28653,034;   -3,264;   -1,500
670,148;28491,543;   -1,446;   -0,682
670,723;28323,687;   -1,810;    0,318
671,298;28666,651;    2,372;    1,045
671,873;28822,795;   -0,082;   -0,136
672,448;28802,849;    0,645;    0,136
673,023;29115,176;   -1,992;   -0,227
673,597;29477,321;    0,827;    2,318
674,172;29237,920;   -0,355;    0,318
674,747;28669,338;    0,372;   -1,045
675,321;28460,846;   -0,628;    3,318
675,896;28003,900;    0,645;    1,045
676,471;29088,409;    2,645;    1,591
677,045;28866,736;   -1,264;    0,682
677,620;28901,608;    0,190;    1,136
678,194;29186,298;   -2,628;    1,136
678,769;28748,716;   -1,083;   -0,318
679,343;29034,861;   -0,628;    1,773
679,917;28915,005;   -1,446;    1,955
680,492;28969,241;    0,826;    3,227
681,066;29135,931;    3,372;    0,409
681,640;29161,258;    1,463;   -0,318
682,214;30049,221;    0,735;    0,500
682,788;29562,366;   -1,356;   -0,773
683,363;29496,693;   -1,810;    1,682
683,937;29169,656;   -1,719;   -0,318
684,511;29929,982;    0,463;   -0,591
685,085;29644,309;   -1,356;    0,318
685,659;29357,909;   -2,538;    0,864
686,232;29674,508;   -0,356;   -0,318
686,806;29351,380;   -0,901;    0,409
687,380;30023,343;   -0,174;    0,591
687,954;30226,943;   -1,174;    1,136
688,528;29876,178;   -0,719;    1,955
689,101;30640,232;   -3,992;    1,045
689,675;30258,741;   -0,356;   -0,136
690,249;29660,249;   -0,719;    0,409
690,822;29972,667;    0,280;    0,318
691,396;30059,085;   -0,265;    1,227
691,969;29524,411;    1,280;    0,136
692,543;29979,011;   -0,447;   -1,955
693,116;29582,428;   -0,265;   -1,409
693,690;29431,209;    0,099;    0,500
694,263;30018,173;   -1,083;    2,955
694,836;30093,408;    1,371;    3,591
695,410;28779,917;   -0,265;    1,773
695,983;29252,880;    0,189;    0,591
696,556;29168,479;   -0,447;   -1,045
697,129;29531,351;   -0,356;    1,409
697,703;29179,042;   -1,629;    1,955
698,276;29174,187;    1,462;   -0,773
698,849;28968,150;    1,280;    1,409
699,422;29333,385;   -1,083;    0,591
699,995;29021,348;    0,007;    0,136
700,568;29559,039;   -0,629;    3,045
701,140;29572,820;   -2,811;    1,682
701,713;29283,601;   -0,174;    2,409
702,286;29032,382;   -0,538;    0,864
702,859;28932,891;   -0,902;   -0,591
703,432;28060,763;    0,825;    0,682
704,004;28523,817;    0,462;    0,318
704,577;28436,962;   -0,629;    0,136
705,150;29046,470;    0,189;    2,500
705,722;28795,797;   -0,356;   -3,227
706,295;28624,397;   -0,175;   -0,591
706,867;28508,541;   -0,175;    1,955
707,440;28694,050;   -1,720;   -0,409
708,012;28967,104;    0,462;    0,591
708,584;28865,794;    2,462;    0,227
709,157;29118,666;    1,825;   -0,591
709,729;28783,720;    2,280;    2,045
710,301;29570,774;    0,734;    0,045
710,874;29617,374;   -1,447;   -0,227
711,446;28484,700;    0,371;    0,864
712,018;28381,391;    0,098;    0,500
712,590;28146,263;   -1,993;    1,682
713,162;28667,862;    0,825;    1,318
713,734;28927,280;    1,825;   -2,045
714,306;28785,788;   -1,902;   -0,409
714,878;27498,206;    0,825;    0,864
715,450;28324,714;    0,643;    0,864
716,022;28551,950;    1,552;    1,318
716,593;28704,277;    0,189;    0,591
717,165;28614,604;   -3,175;   -1,227
717,737;28336,839;    0,280;    0,409
718,309;27986,075;    0,280;   -0,045
718,880;27947,493;   -0,539;   -1,409
719,452;28162,274;   -0,175;   -1,591
720,024;27779,237;    0,734;   -0,591
720,595;28330,745;   -2,902;    0,955
721,167;27870,709;    0,370;   -2,045
721,738;27422,581;   -0,812;   -1,045
722,309;27416,907;   -0,993;   -1,227
722,881;27176,598;   -1,357;    0,773
723,452;27813,743;   -2,630;    2,864
724,023;27971,887;   -0,721;    2,682
724,595;27686,941;    0,007;    0,682
725,166;27506,814;    0,007;   -0,409
725,737;27202,049;    1,734;    0,227
726,308;27271,649;   -0,266;    0,318
726,879;27716,884;   -1,630;    1,227
727,450;27560,120;    0,552;   -0,045
728,021;27497,265;    3,097;    0,682
728,592;27338,410;    0,734;    0,500
729,163;27707,009;    0,643;   -0,136
729,734;27692,245;    0,188;   -0,227
730,305;28033,390;    1,734;    0,136
730,876;28376,808;    0,188;    2,955
731,447;28094,589;    2,188;    2,682
732,017;28190,097;    1,097;    1,864
732,588;27624,424;    0,734;    1,227
733,159;27916,205;    0,643;   -1,045
733,729;27658,987;    0,006;    0,409
734,300;26927,768;    0,915;    0,864
734,870;27290,640;    3,461;    0,591
735,441;27853,330;    0,370;   -0,591
736,011;27678,021;    0,643;   -1,591
736,582;27704,074;   -0,812;    0,045
737,152;27085,219;   -1,721;   -2,045
737,722;27530,455;   -0,267;   -0,682
738,293;27230,600;   -1,358;    1,318
738,863;27121,654;    2,461;    2,318
739,433;26921,890;    5,279;    0,318
740,003;27529,125;   -0,994;   -0,682
740,573;26939,725;    2,097;   -1,591
741,143;26922,961;   -1,085;    0,318
741,713;27719,924;    1,188;   -0,500
742,283;27423,978;    0,915;    1,591
742,853;27121,850;    1,915;    1,591
743,423;26577,813;    1,733;    0,045
743,993;26745,776;   -0,358;    1,500
744,563;26109,648;    0,097;   -0,864
745,133;26053,520;   -0,812;   -0,864
745,702;26740,211;   -0,267;    1,773
746,272;25963,537;   -0,176;    0,591
746,842;25754,955;   -1,358;   -0,591
747,411;26192,191;   -0,267;   -0,318
747,981;26309,699;    0,097;    0,500
748,551;26406,299;    2,278;   -1,045
749,120;26236,989;    0,642;   -0,227
749,690;26621,770;   -0,631;    2,409
750,259;26955,369;    1,369;    2,955
750,828;26818,787;    1,551;   -1,955
751,398;27149,296;    1,278;   -0,045
751,967;26696,986;    2,187;    0,409
752,536;26884,403;   -0,813;   -0,227
753,105;27315,276;    0,096;    0,227
753,675;27106,875;    0,096;    1,773
754,244;27045,747;   -0,904;    3,591
754,813;27033,347;    0,551;    1,227
755,382;26610,764;    0,460;    0,955
755,951;27218,636;    1,551;    3,682
756,520;26776,236;   -0,085;    1,864
757,089;27292,199;    0,278;    0,500
757,658;27431,707;    1,733;    1,227
758,227;27434,216;    1,096;    0,318
758,795;27717,633;    1,187;    1,136
759,364;27909,142;   -0,086;   -0,591
759,933;26947,014;   -1,176;   -0,045
760,501;26470,704;    0,733;   -1,318
761,070;26931,667;   -2,813;   -1,409
761,639;27652,085;   -1,904;    1,318
762,207;26990,230;    1,551;   -0,955
762,776;26929,920;    0,369;    0,864
763,344;26922,247;   -0,995;    0,591
763,913;25979,392;   -0,722;    1,409
764,481;26738,173;    1,005;   -0,136
765,049;26499,591;   -1,358;    1,409
765,618;26357,826;   -0,086;    0,318
766,186;26455,062;    0,278;    0,136
766,754;26645,298;    0,005;    1,864
767,322;25701,897;   -1,995;    0,409
767,890;25692,042;   -0,722;   -1,773
768,459;26104,005;   -2,177;   -0,318
769,027;26265,514;    1,641;    3,409
769,595;25214,931;    3,278;    2,591
770,163;25674,258;    3,823;    2,955
770,730;25434,857;    0,732;   -0,136
771,298;25223,275;    0,187;   -1,409
771,866;25327,147;   -1,541;    4,955
772,434;25636,019;   -0,631;   -1,864
773,002;25813,073;    0,005;    0,682
773,569;25483,764;    0,914;    1,682
774,137;25299,727;   -0,268;   -0,045
774,705;26100,962;    0,278;   -0,136
775,272;25603,925;    0,641;    0,682
775,840;25341,434;   -0,177;    2,682
776,407;24860,124;    0,277;    1,955
776,975;24468,905;   -0,632;    0,318
777,542;25483,414;   -1,086;   -0,045
778,110;25258,468;   -1,268;   -0,045
778,677;24955,158;   -2,359;   -0,864
779,244;24749,394;    2,186;    1,045
779,812;24851,539;    1,823;    0,864
780,379;24738,411;    0,005;    1,136
780,946;25014,738;    1,005;   -0,773
781,513;25319,155;   -1,450;    0,318
782,080;24693,664;   -0,086;    2,864
782,647;25431,354;   -0,268;    3,045
783,214;25009,135;   -0,177;    3,864
783,781;24639,917;   -0,723;   -0,682
784,348;24493,789;   -0,632;    1,500
784,915;24930,752;   -3,177;    0,318
785,482;24734,897;    1,368;    2,591
786,049;25136,587;    0,186;   -0,591
786,615;25240,368;    0,277;   -0,955
787,182;24938,059;    0,186;   -0,682
787,749;24632,567;   -2,814;    1,409
788,315;24007,166;   -1,632;   -0,409
788,882;24328,675;    1,550;   -1,227
789,448;24998,274;    1,732;   -0,955
790,015;24999,965;    1,095;    3,227
790,581;24571,019;    1,459;    0,227
791,148;24503,254;    0,641;    1,045
791,714;24705,127;   -0,541;    3,136
792,280;24322,362;    0,186;    1,591
792,847;23894,689;    0,550;    2,500
793,413;24454,288;   -0,269;   -0,318
793,979;24026,979;    3,459;   -1,318
794,545;24111,760;    4,459;    2,682
795,111;23540,359;    2,186;    1,318
795,678;23741,322;    0,731;   -1,682
796,244;23387,286;    3,368;    0,136
796,810;23924,794;    1,731;    0,773
797,375;23644,757;    0,549;   -2,136
797,941;23694,175;   -0,541;    0,591
798,507;23826,229;   -0,451;   -0,955
799,073;23336,828;   -0,360;    0,591
799,639;23358,700;   -2,632;    3,136
800,205;23430,209;    0,095;    2,682
800,770;22957,354;    0,640;    1,773
801,336;23046,135;    1,368;   -0,955
801,901;22800,371;    4,549;    3,136
802,467;23317,697;   -0,542;    2,045
803,033;22652,115;   -0,087;    0,864
803,598;22868,714;    1,913;   -1,045
804,163;22860,314;    1,095;   -0,318
804,729;22879,822;   -0,178;    1,136
805,294;23268,422;    0,822;    2,227
805,859;23047,748;    0,731;   -0,409
806,425;22543,711;    1,186;    2,682
806,990;22187,402;    2,186;    4,318
807,555;22677,456;   -1,451;    2,591
808,120;22579,055;    0,822;   -0,409
808,685;22634,473;    0,185;   -2,500
809,250;22095,254;    0,004;   -0,500
809,815;22423,399;    1,913;    0,682
810,380;22972,180;   -0,269;    1,591
810,945;23535,870;   -1,087;    2,045
811,510;22641,833;    2,094;    1,591
812,075;22388,887;   -0,633;   -1,409
812,640;22430,759;    2,003;    1,409
813,204;22482,086;    0,822;   -0,227
813,769;22953,958;    2,094;   -0,045
814,334;22386,558;    0,458;    0,864
814,898;22428,884;    0,367;    0,591
815,463;22276,847;    1,276;   -0,773
816,027;22233,901;   -0,724;   -2,318
816,592;22318,683;    0,640;   -2,045
817,156;21863,282;    2,094;    1,136
817,721;21762,972;    4,276;    2,318
818,285;21687,663;    2,912;    1,500
818,849;22310,807;   -1,451;    1,682
819,414;22246,134;   -0,269;    2,955
819,978;21769,552;   -1,269;    1,773
820,542;22345,424;    2,003;    0,500
821,106;22093,569;   -0,815;    0,682
821,670;22257,350;   -0,815;    2,591
822,234;21914,677;   -0,270;    1,409
822,798;21295,458;    0,003;    0,500
823,362;21302,785;   -0,633;    4,227
823,926;20594,657;    0,094;    1,136
824,490;20848,165;   -0,997;   -0,682
825,054;21226,492;   -0,088;   -1,136
825,618;20893,546;   -1,542;   -1,500
826,181;20862,418;    0,458;   -1,318
826,745;20758,017;    1,367;   -1,045
827,309;21111,162;    1,185;    1,318
827,872;20472,034;    1,367;    0,955
828,436;21435,543;    1,185;   -0,773
828,999;21457,870;   -0,997;    1,227
829,563;20263,833;   -0,179;    1,136
830,126;20128,068;   -0,179;   -0,591
830,690;20127,759;   -1,997;    2,864
831,253;19629,813;   -0,543;    2,227
831,816;19766,776;   -1,906;    0,500
832,380;19702,648;    0,185;    0,864
832,943;19962,156;   -1,361;   -0,500
833,506;19429,938;    2,639;   -1,227
834,069;20217,992;    3,912;   -0,955
834,632;20247,955;    1,730;    1,318
835,195;20146,827;    1,003;    0,955
835,758;19350,972;   -0,997;    1,955
836,321;19250,571;    0,730;   -1,045
836,884;19362,716;   -0,725;   -0,955
837,447;19326,679;   -2,816;    1,773
838,010;19601,097;    0,366;    3,227
838,573;19884,787;   -1,179;    0,773
839,135;19845,568;   -1,361;   -0,955
839,698;19322,531;    1,275;    0,409
840,261;18877,494;    1,003;   -0,227
840,823;18687,094;   -0,543;    0,864
841,386;18990,602;   -0,452;   -2,409
841,948;18889,565;   -1,361;    1,773
842,511;18615,892;    0,912;    1,682
843,073;18763,582;    1,912;    0,227
843,636;18490,454;   -0,361;   -0,227
844,198;18486,508;    0,911;    0,591
844,760;18624,926;    1,093;    1,955
845,322;18234,525;    0,548;    1,136
845,885;18685,852;    0,730;    0,591
846,447;19099,906;   -1,998;    0,227
847,009;18736,142;    1,911;   -0,682
847,571;19011,559;    0,820;   -2,045
848,133;19119,795;   -1,089;   -1,864
848,695;18916,758;   -0,543;    1,409
849,257;18532,267;   -1,089;   -1,682
849,819;18681,866;   -0,998;   -0,409
850,381;18746,465;   -0,725;   -0,864
850,942;19073,701;    1,093;   -0,591
851,504;19065,210;    1,184;    0,227
852,066;19112,809;    1,275;   -1,591
852,628;18586,409;   -0,180;    1,955
853,189;18126,826;    1,638;    2,682
853,751;18256,789;   -0,907;    1,409
854,312;18023,570;   -0,453;   -1,682
854,874;18572,897;   -2,089;   -0,773
855,435;19104,042;   -0,907;   -1,682
855,997;19227,551;   -1,816;   -0,136
856,558;18540,514;    0,366;    1,773
857,119;18635,568;    0,820;    2,864
857,681;18292,349;    0,002;    0,318
858,242;18384,130;    1,911;   -2,136
858,803;18839,457;    0,456;   -0,773
859,364;19395,056;    0,184;   -4,773
859,925;18737,474;   -2,453;   -0,955
860,486;18614,891;   -0,453;   -0,955
861,047;18292,945;   -0,544;   -1,227
861,608;18139,636;   -1,089;   -0,773
862,169;18247,326;    0,638;   -0,045
862,730;18039,834;    0,456;    1,409
863,291;18319,343;   -0,635;   -0,500
863,852;18676,760;   -0,635;    1,955
864,412;18097,542;   -0,271;   -0,864
864,973;16707,596;   -0,089;    0,500
865,534;16593,195;   -1,726;    0,227
866,094;18059,158;    1,820;    0,227
866,655;17699,212;    1,274;    3,318
867,215;17998,084;    0,274;    0,136
867,776;17823,865;    0,547;   -0,136
868,336;17937,465;   -1,453;    0,136
868,897;17422,337;    2,638;    1,682
869,457;17189,027;    1,365;    0,318
870,017;17388,809;    0,547;   -1,227
870,578;17889,044;   -0,817;    0,773
871,138;17607,644;   -2,089;   -0,955
871,698;17165,061;   -0,817;   -1,318
872,258;17066,570;   -0,453;   -2,864
872,818;17438,624;    2,729;    0,045
873,378;17384,678;    0,638;    1,045
873,938;16920,459;    0,547;    0,500
874,498;17233,149;    0,274;   -1,955
875,058;17132,476;    2,183;    1,773
875,618;16960,894;    1,910;   -2,682
876,177;16894,857;    1,274;    0,136
876,737;16503,911;   -0,090;    1,955
877,297;16534,783;    0,183;    1,955
877,856;16533,928;   -0,362;    0,318
878,416;16462,436;    1,183;   -0,136
878,976;16720,036;   -1,817;    0,409
879,535;16874,817;    0,092;    3,136
880,095;16606,053;   -0,544;    0,045
880,654;16723,016;   -1,090;    1,318
881,213;16858,070;    2,456;    1,500
881,773;16542,214;    2,637;    2,682
882,332;16917,450;    3,365;    5,136
882,891;16731,595;    3,092;    2,136
883,451;17124,104;   -1,272;    1,682
884,010;16550,157;   -2,908;   -0,409
884,569;16682,848;   -0,999;   -0,045
885,128;16866,447;    2,819;   -1,864
885,687;16942,501;    4,455;    0,682
886,246;16656,919;    1,455;    2,136
886,805;16410,973;    2,455;    2,045
887,364;16667,027;   -0,999;   -0,500
887,922;17033,990;   -1,181;    0,045
888,481;16548,407;   -1,545;    0,591
889,040;16875,189;    1,183;    2,136
889,599;17532,243;    2,455;    1,409
890,157;17580,206;    1,455;    2,409
890,716;17257,987;   -0,090;    0,227
891,274;17051,768;    0,092;   -1,136
891,833;17505,186;    1,546;    0,864
892,391;17357,512;   -0,454;    0,500
892,950;17444,384;    1,819;   -0,773
893,508;17799,711;    0,455;   -0,409
894,067;17102,674;    0,637;    0,136
894,625;17042,455;   -0,636;   -1,500
895,183;17276,237;   -0,363;   -0,682
895,741;17150,654;    1,728;   -1,773
896,299;16991,708;   -0,545;   -2,409
896,858;17160,489;    0,819;   -1,591
897,416;17310,362;    2,728;   -1,318
897,974;17027,325;    1,819;    0,318
898,532;17224,197;    6,091;    2,682
899,089;17067,523;    2,091;   -0,682
899,647;17149,486;   -1,454;    1,318
900,205;16885,722;    1,182;    1,045
900,763;17047,413;   -0,454;    0,227
901,321;17046,103;    2,364;   -1,409
901,878;16471,975;   -1,000;   -0,773
902,436;16369,756;   -1,363;    1,318
902,994;16795,628;    4,728;    3,682
903,551;16225,864;    0,728;    0,409
904,109;16592,282;    0,182;   -1,409
904,666;16176,154;    2,455;    1,045
905,224;15981,208;    0,182;   -0,409
905,781;15753,080;    0,727;   -0,318
906,338;15779,679;   -1,363;    1,045
906,895;15785,915;    0,637;    2,045
907,453;15712,424;    1,727;    1,136
908,010;15714,750;   -0,909;    0,409
908,567;15391,077;    1,273;    0,591
909,124;14859,404;    0,364;   -1,500
909,681;14957,458;   -2,909;    0,682
910,238;15105,148;    0,636;   -1,318
910,795;15440,293;   -0,273;   -1,136
911,352;15017,566;   -2,909;   -2,682
911,909;14451,747;   -1,364;   -0,864
912,466;14943,202;   -3,182;    1,500
913,022;14489,475;   -1,636;    0,500
913,579;14858,202;   -0,909;    2,045
914,136;14530,929;    1,636;    0,955
914,692;14862,475;    0,091;   -1,227
915,249;14500,202;    1,455;    0,409
915,806;14771,384;    0,182;    1,955
916,362;14519,657;    1,909;    1,864
916,918;14098,020;    2,000;    1,045
917,475;14041,929;   -1,182;    0,955
918,031;14069,929;    3,364;   -0,045
918,587;13542,202;   -0,909;   -0,318
919,144;13779,747;   -2,273;    0,227
919,700;14048,475;    1,727;    0,773
920,256;13607,293;    0,727;    0,045
920,812;13226,293;   -0,727;   -1,045
921,368;13256,202;   -1,727;   -1,045
921,924;12872,384;    0,182;   -0,136
922,480;12489,293;   -0,545;    1,227
923,036;13083,747;    1,273;    1,955
923,592;13021,747;    0,455;    0,318
924,148;12926,111;    0,455;   -0,955
924,704;12249,020;   -1,364;   -0,409
925,259;12497,111;   -0,273;    0,591
925,815;12282,838;    1,455;    0,500
926,371;11779,020;    2,909;    1,409
926,926;11735,202;    2,091;    0,591
927,482;11336,202;   -1,364;    0,773
928,037;11180,838;    0,909;    2,045
928,593;11502,747;    1,636;    1,045
929,148;11335,929;   -1,818;   -1,500
929,704;10814,293;   -1,455;   -0,500
930,259;11049,202;    0,091;   -0,136
930,814;10122,657;   -0,818;    1,955
931,369; 9791,838;    1,091;   -0,773
931,925; 9699,747;   -0,091;    0,136
932,480; 9604,657;   -2,818;   -2,591
933,035; 9487,111;    0,545;   -0,318
933,590; 9249,747;    0,364;   -1,773
934,145; 8855,838;   -1,364;   -0,318
934,700; 9209,566;    0,455;   -0,591
935,255; 9031,838;   -0,091;    0,045
935,809; 8348,566;    3,182;    0,864
936,364; 7443,293;   -0,455;   -0,136
936,919; 7403,566;    0,455;   -1,773
937,474; 7280,838;    1,455;    0,136
938,028; 7038,657;   -1,636;    1,136
938,583; 6534,202;    1,818;    4,682
939,138; 6801,747;    2,091;    2,136
939,692; 6212,838;    1,636;   -1,136
940,247; 5965,747;   -0,727;   -1,045
940,801; 5516,747;   -0,636;    0,227
941,355; 5380,657;   -0,364;    2,591
941,910; 5023,838;   -0,273;   -2,136
942,464; 5154,111;   -0,818;   -0,318
943,018; 4979,929;    1,000;   -0,227
943,572; 4912,929;    2,545;   -0,682
944,126; 4345,929;    0,091;   -0,409
944,681; 4238,475;    3,091;    0,227
945,235; 4201,747;    1,000;   -0,591
945,789; 4149,838;    0,364;   -1,864
946,342; 4275,202;    0,455;   -0,591
946,896; 4062,929;   -2,273;    0,955
947,450; 3823,293;    1,545;   -0,227
948,004; 4009,475;    1,727;   -0,045
948,558; 4018,566;    0,273;   -0,864
949,111; 3926,657;   -0,273;   -0,318
949,665; 3977,566;    1,636;   -0,682
950,219; 3850,838;   -0,091;   -1,045
950,772; 3915,020;   -1,909;    1,864
951,326; 3825,657;    0,545;   -0,955
951,879; 3928,838;    0,727;   -2,318
952,433; 3971,202;    0,000;    2,227
952,986; 3810,384;    2,909;    0,682
953,539; 3768,657;   -0,273;    0,591
954,093; 3670,747;    0,545;   -1,318
954,646; 3810,838;    0,909;    1,318
955,199; 3611,384;    0,000;   -0,500
955,752; 3533,566;   -0,455;    1,773
956,305; 3478,929;   -0,091;    2,955
956,858; 3656,566;    0,818;   -0,318
957,411; 3810,657;   -0,545;    2,136
957,964; 3645,111;    1,364;    2,136
958,517; 3628,475;   -1,545;    3,136
959,070; 3448,202;   -0,455;    1,955
959,623; 3546,747;    1,091;    1,500
960,176; 3317,838;    1,727;    2,045
960,728; 3287,111;   -2,727;    0,773
961,281; 3345,747;    0,545;    0,500
961,834; 3397,384;   -0,909;    0,864
962,386; 3287,020;    1,727;    1,045
962,939; 3219,111;    0,364;   -0,318
963,491; 3363,111;    0,455;    1,136
964,043; 3228,111;    1,182;    2,409
964,596; 3369,202;   -1,000;    2,227
965,148; 3203,111;   -1,000;    1,773
965,700; 3124,929;    1,091;   -0,227
966,253; 3275,475;   -0,636;    0,318
966,805; 3117,929;   -2,273;    0,773
967,357; 3182,838;    1,091;   -1,500
967,909; 3149,747;    0,455;   -1,227
968,461; 3246,111;    0,545;    3,136
969,013; 3164,475;   -0,182;   -0,864
969,565; 3232,202;   -0,455;   -1,136
970,117; 3321,475;   -0,364;    1,045
970,669; 3140,475;    0,182;   -0,136
971,220; 3000,747;   -0,455;   -1,500
971,772; 2926,657;   -0,636;   -0,318
972,324; 3056,747;    0,091;   -0,500
972,876; 2995,020;    0,818;   -0,045
973,427; 3137,020;    1,909;   -1,045
973,979; 3097,111;   -0,727;   -2,500
974,530; 3125,384;    1,818;    1,318
975,082; 3132,657;   -0,545;    1,682
975,633; 3035,929;    1,091;    1,682
976,184; 3179,747;    0,909;    0,773
976,736; 2962,929;    0,091;    0,227
977,287; 2782,657;   -0,909;   -0,500
977,838; 2945,475;    0,909;   -0,318
978,389; 3034,384;   -1,000;   -0,500
978,940; 2904,020;    0,545;   -0,409
979,491; 2932,475;    0,091;   -0,500
980,042; 2890,293;    0,182;    3,045
980,593; 2929,293;   -2,545;    0,227
981,144; 2972,838;    2,545;   -0,500
981,695; 2933,475;    1,455;    1,500
982,246; 2887,747;   -0,273;    1,045
982,797; 3048,202;   -1,727;    0,682
983,347; 3156,566;    0,364;    0,591
983,898; 3334,929;    3,091;    0,409
984,449; 3164,929;    2,182;    0,773
984,999; 3075,657;    1,455;   -1,136
985,550; 2845,475;    0,182;   -0,318
986,100; 2856,293;   -0,455;   -0,318
986,651; 2897,202;   -0,818;    0,045
987,201; 2870,475;   -1,000;   -0,591
987,751; 2966,747;    0,818;    2,864
988,302; 2960,475;    2,636;    1,500
988,852; 2968,384;    0,455;   -1,136
989,402; 3006,566;    0,091;    0,682
989,952; 2933,202;   -2,182;    0,864
990,502; 3042,747;   -0,091;    0,682
991,052; 2999,475;   -0,727;    0,045
991,602; 2867,293;   -2,909;    1,318
992,152; 2870,202;    0,455;    0,682
992,702; 2845,747;    1,364;   -0,045
993,252; 2760,293;   -3,000;   -0,500
993,802; 2862,566;   -0,273;    1,318
994,352; 3101,202;   -1,545;    1,136
994,901; 3177,657;   -0,182;    3,227
995,451; 3084,475;   -0,182;    0,318
996,000; 3187,111;    1,636;    0,318
996,550; 2903,293;    2,273;    0,227
997,100; 2899,475;    1,273;   -0,045
997,649; 3173,747;    2,182;    0,955
998,198; 2808,747;    1,727;   -1,500
998,748; 3006,384;    1,091;   -2,318
999,297; 2916,929;   -0,818;   -0,409
999,846; 2959,475;    1,000;   -0,773
1000,395; 3007,566;   -0,818;    0,500
1000,945; 2961,657;    1,818;   -0,773
1001,494; 3073,929;    2,364;    0,682
1002,043; 3060,929;    4,636;    0,864
1002,592; 2884,657;   -1,091;    1,955
1003,141; 3040,475;   -0,455;   -0,682
1003,690; 2895,838;    1,727;    0,500
1004,238; 2969,838;    1,455;   -0,045
1004,787; 2590,657;    1,364;    1,227
1005,336; 2853,747;    0,364;    0,682
1005,885; 2993,929;    1,364;   -2,773
1006,433; 3156,111;    0,545;    0,955
1006,982; 3200,475;    0,455;    1,682
1007,531; 3097,475;   -1,818;   -0,227
1008,079; 3039,293;   -2,273;    0,500
1008,627; 3173,929;   -1,455;    0,409
1009,176; 2924,384;    0,000;   -1,955
1009,724; 2971,747;    1,091;    0,864
1010,273; 3038,111;    1,273;    0,500
1010,821; 3126,566;    0,091;    1,409
1011,369; 2843,020;   -1,364;    1,318
1011,917; 2836,293;   -1,364;   -0,591
1012,465; 3137,384;    1,273;   -1,591
1013,013; 3222,293;    2,091;   -1,682
1013,561; 3107,747;    0,455;   -0,773
1014,109; 3170,111;   -1,909;    1,682
1014,657; 3042,384;    0,364;    0,591
1015,205; 3154,929;    1,636;   -0,955
1015,753; 3198,747;   -0,545;   -1,409
1016,301; 3245,838;   -2,636;    3,045
1016,848; 3232,111;   -1,273;    0,409
1017,396; 3273,929;    2,545;    0,045
1017,944; 3398,020;    1,182;    1,864
1018,491; 3164,384;    0,273;    1,409
1019,039; 3319,293;    0,455;    0,591
1019,586; 3225,929;   -1,364;    1,682
1020,134; 3318,202;    0,455;    1,500
1020,681; 3353,566;    0,182;   -1,136
1021,228; 3356,111;    2,909;   -2,227
1021,776; 3195,020;    1,182;   -1,136
1022,323; 3397,747;    0,455;    0,773
1022,870; 3307,838;   -1,000;   -0,045
1023,417; 3227,475;    2,636;    1,864
1023,964; 3365,111;    2,636;    1,227
1024,511; 3221,202;    1,000;    0,773
1025,058; 2997,020;    3,182;   -0,045
1025,605; 3060,929;   -2,273;    3,136
1026,152; 3304,929;    1,727;   -0,591
1026,699; 3021,202;    1,818;    1,318
1027,245; 3162,475;   -0,091;    0,318
1027,792; 3370,384;   -1,000;    1,409
1028,339; 3269,657;    2,364;   -0,045
1028,885; 3121,293;    1,000;   -0,227
1029,432; 3052,566;   -0,091;    0,227
1029,978; 3130,020;   -1,000;   -1,591
1030,525; 3029,747;    1,000;    0,409
1031,071; 3265,747;   -1,364;    1,136
1031,618; 3375,293;    0,364;    1,682
1032,164; 3141,475;   -0,091;    3,045
1032,710; 3189,657;    1,636;   -1,500
1033,256; 3101,020;   -0,636;   -0,136
1033,803; 3087,384;   -0,545;    1,500
1034,349; 2791,747;   -1,364;    0,136
1034,895; 2928,566;    0,000;   -0,318
1035,441; 2926,475;   -0,818;    0,318
1035,987; 2924,747;   -2,364;   -0,682
1036,533; 2924,202;   -1,455;   -0,955
1037,078; 3145,838;    1,455;    1,682
1037,624; 2947,293;    2,455;   -0,955
1038,170; 2985,475;    0,455;   -0,318
1038,716; 2905,202;    1,636;   -0,409
1039,261; 2817,020;   -2,273;   -0,773
1039,807; 2743,384;   -0,091;    3,409
1040,352; 2828,111;   -1,909;   -0,318
1040,898; 2863,475;   -1,545;   -0,682
1041,443; 2764,202;   -1,455;   -2,591
1041,989; 2800,111;    1,091;    1,591
1042,534; 2670,838;   -0,364;    2,591
1043,079; 2771,747;    2,909;    0,955
1043,625; 2582,929;    1,818;    0,500
1044,170; 2622,566;   -1,364;    1,045
1044,715; 2877,111;    2,455;    0,955
1045,260; 2702,747;    2,182;   -0,955
1045,805; 2749,202;    1,182;   -0,591
1046,350; 2665,293;    1,364;   -0,409
1046,895; 2637,111;    2,909;    1,591
1047,440; 2591,747;    5,364;    0,409
1047,985; 2485,020;    2,818;   -0,955
1048,530; 2404,202;    1,545;    1,227
1049,074; 2486,111;    0,000;    0,318
1049,619; 2437,475;   -1,364;    1,955
1050,164; 2249,657;    0,455;    0,227
1050,708; 2285,566;   -0,455;    0,045
1051,253; 2666,566;    1,273;   -2,227
1051,797; 2374,293;    0,818;   -1,318
1052,342; 2375,566;   -1,182;    1,045
1052,886; 2384,384;    0,364;   -1,409
1053,430; 2249,202;   -1,364;    0,136
1053,975; 2272,202;   -0,818;   -0,318
1054,519; 2263,202;   -0,727;    3,227
1055,063; 2292,202;    0,909;    1,318
1055,607; 2169,657;   -0,182;    0,227
1056,151; 2173,293;    2,909;    1,682
1056,695; 2099,475;    2,273;   -1,136
1057,239; 2182,929;   -1,727;   -0,682
1057,783; 2174,384;    0,818;   -1,500
1058,327; 2128,111;    0,000;    1,409
1058,871; 2347,475;   -0,545;    1,318
1059,415; 2065,384;   -0,818;   -0,045
1059,958; 2331,747;    1,455;    2,591
1060,502; 2043,475;   -1,000;   -0,773
1061,046; 1942,202;    0,364;   -0,955
1061,589; 1919,838;   -3,000;   -1,136
1062,133; 1815,202;   -1,273;    1,864
1062,676; 1741,202;    1,182;    0,864
1063,220; 1756,111;    1,091;    0,500
1063,763; 1776,020;    0,909;    1,136
1064,306; 1858,747;   -0,909;    1,864
1064,849; 1757,747;   -0,909;    0,591
1065,393; 1759,202;    2,000;   -1,500
1065,936; 1876,929;    0,182;   -0,409
1066,479; 1750,475;   -1,455;    1,318
1067,022; 1766,293;   -0,273;   -0,227
1067,565; 1663,747;   -0,091;   -1,318
1068,108; 1697,566;    0,727;   -0,591
1068,651; 1650,747;   -0,636;    1,409
1069,194; 1601,929;   -0,455;   -1,682
1069,736; 1599,566;   -1,273;    0,955
1070,279; 1561,111;   -1,364;   -0,500
1070,822; 1635,838;   -2,000;   -0,318
1071,364; 1726,202;   -0,364;    1,318
1071,907; 1536,929;   -0,727;    3,227
1072,450; 1439,657;    0,000;   -0,045
1072,992; 1445,838;   -0,273;    3,136
1073,535; 1589,747;    2,091;    2,136
1074,077; 1373,475;   -0,727;    2,045
1074,619; 1336,020;   -1,364;    0,591
1075,161; 1376,747;   -1,091;    1,500
1075,704; 1566,293;    1,545;    1,227
1076,246; 1353,293;   -0,182;    0,682
1076,788; 1285,838;   -0,364;    1,773
1077,330; 1345,929;    1,273;    2,136
1077,872; 1318,657;    0,909;    0,955
1078,414; 1545,566;    2,727;    0,773
1078,956; 1286,747;    1,273;   -0,227
1079,498; 1552,293;    1,636;    0,318
1080,040; 1245,293;    1,909;   -1,318
1080,581; 1193,475;    1,636;   -0,318
1081,123; 1116,475;    0,091;   -0,773
1081,665; 1158,202;   -1,182;   -0,955
1082,206; 1470,475;    1,364;   -0,500
1082,748; 1325,657;    0,727;    2,045
1083,289; 1192,111;   -2,000;    1,318
1083,831; 1094,475;   -0,545;    0,227
1084,372; 1152,566;    0,000;    0,591
1084,913; 1163,202;    1,091;    0,864
1085,455; 1121,475;   -1,909;   -2,045
1085,996; 1091,384;   -2,273;    0,136
1086,537; 1122,566;   -0,091;    0,864
1087,078; 1144,929;   -0,909;   -2,136
1087,619; 1196,838;   -1,273;    0,227
1088,160; 1105,657;    0,000;    1,318
1088,701; 1095,747;   -1,091;    0,682
1089,242; 1032,657;    1,364;   -2,227
1089,783; 1139,111;   -0,273;    1,409
1090,324; 1102,838;    0,455;    0,682
1090,865;  970,384;    2,727;   -0,409
1091,405;  921,566;    0,727;    2,227
1091,946;  954,384;    0,182;   -0,955
1092,487;  887,838;    0,818;   -1,409
1093,027; 1063,838;   -1,364;   -1,500
1093,568;  919,384;   -0,364;    1,227
1094,108; 1016,293;    0,273;    1,773
1094,649;  941,384;   -1,182;    0,136
1095,189;  883,838;   -0,636;   -0,682
1095,729;  837,838;   -0,091;    0,955
1096,269;  824,929;    0,727;   -0,955
1096,810; 1155,020;   -1,364;    0,500
1097,350;  980,929;    1,364;   -0,773
1097,890;  880,293;    0,364;    1,227
1098,430; 1143,657;    2,364;    2,864
1098,970; 1019,202;    2,182;    1,682
1099,510;  871,384;    0,545;   -2,318
1100,050;  804,929;    1,000;   -1,591
1100,589;  770,111;   -0,727;   -0,318
1101,129;  902,202;    0,818;   -0,955
1101,669; 1052,657;    1,727;    2,136
1102,209;  874,384;   -0,091;    2,227
1102,748;  821,838;    0,000;    0,955
1103,288;  818,929;    1,273;   -1,227
1103,827;  847,293;    3,091;   -2,227
1104,367;  717,111;   -0,091;   -2,409
1104,906;  677,202;    1,364;   -1,136
1105,445;  759,202;    0,636;   -1,136
1105,985;  710,838;   -0,727;    1,500
1106,524;  755,111;   -1,727;   -0,682
1107,063;  727,838;   -2,727;    1,409
1107,602;  689,202;   -1,909;   -1,500
1108,141;  616,202;   -1,909;    1,500
1108,680;  735,293;   -3,455;   -0,591
1109,219;  666,202;   -0,909;   -0,500
1109,758;  662,929;    0,455;    0,682
1110,297;  636,020;    1,000;   -0,682
1110,836;  588,020;   -0,727;    0,955
1111,375;  754,293;   -2,545;    0,409
1111,913;  760,929;   -1,000;    0,773
1112,452;  681,929;   -0,273;    0,136
1112,991;  566,293;    1,091;    1,955
1113,529;  543,020;   -0,818;   -0,045
1114,068;  603,747;   -0,273;    2,955
1114,606;  498,475;   -0,364;   -0,955
1115,144;  674,202;   -1,273;    1,045
1115,683;  610,747;   -0,727;    0,318
1116,221;  656,202;   -0,455;   -0,864
1116,759;  564,838;    0,636;   -0,864
1117,297;  765,657;    0,000;    1,864
1117,836;  569,747;   -2,182;   -1,227
1118,374;  589,384;    0,182;   -0,682
1118,912;  523,929;    0,909;    2,682
1119,450;  513,747;    1,000;    0,864
1119,988;  570,020;    1,545;    2,136
1120,525; 1030,111;    5,091;    3,318
1121,063;  730,111;    1,182;    1,864
1121,601;  530,293;   -0,909;   -1,227
1122,139;  480,384;   -0,727;   -2,045
1122,676;  689,020;   -0,727;    2,773
1123,214;  629,293;   -1,182;    4,409
1123,751;  425,566;    1,727;    2,227
1124,289;  557,747;   -0,091;   -0,409
1124,826;  421,384;    1,727;    0,227
1125,364;  337,475;    1,727;   -0,955
1125,901;  545,111;    1,182;    1,227
1126,438;  658,111;    0,818;    0,955
1126,975;  378,475;   -0,727;   -0,773
1127,513;  437,111;    0,273;    2,136
1128,050;  338,293;    1,636;   -0,682
1128,587;  453,475;    2,000;   -0,227
1129,124;  505,293;    0,091;    1,318
1129,661;  357,566;    0,273;    0,227
1130,198;  534,020;    1,636;    0,773
1130,734;  480,475;    0,182;    1,409
1131,271;  332,747;   -0,909;    0,864
1131,808;  502,020;    2,909;    3,045
1132,345;  377,747;    1,545;    0,318
1132,881;  236,657;   -1,545;   -1,864
1133,418;  391,747;    0,727;   -1,136
1133,954;  328,020;    2,455;   -2,682
1134,491;  408,384;    1,364;   -0,773
1135,027;  295,566;    2,364;    0,864
1135,564;  393,384;    0,273;    2,955
1136,100;  378,202;    0,364;    2,136
1136,636;  256,111;   -1,273;   -1,045
1137,172;  360,838;    0,000;   -1,045
1137,708;  285,111;   -1,364;   -1,045
1138,245;  284,020;    1,273;   -1,227
1138,781;  230,293;    1,091;   -3,318
1139,317;  303,747;    1,273;   -1,409
1139,852;  292,657;    3,091;    0,136
1140,388;  416,384;   -1,182;   -0,409
1140,924;  289,293;   -1,091;   -2,227
1141,460;  225,475;   -1,636;    0,136
1141,996;  156,384;   -1,364;    2,682
1142,531;  216,929;    1,364;    3,318
1143,067;  436,202;    1,182;    1,045
1143,602;  498,657;   -0,091;   -0,318
1144,138;  343,202;   -2,636;    1,045
1144,673;  189,475;   -1,455;    1,409
1145,209;  258,838;   -1,909;   -0,318
1145,744;  178,657;   -0,727;    0,864
1146,279;  319,838;    1,818;   -0,136
1146,815;  237,747;    1,545;   -2,682
1147,350;  275,111;   -1,364;    0,045
1147,885;  187,293;   -0,818;   -1,318
1148,420;  183,929;   -2,273;    0,773
1148,955;  165,111;   -1,727;    1,864
1149,490;  196,020;   -0,909;   -1,591
1150,025;  175,475;    0,455;   -1,773
1150,560;  296,838;    1,091;   -0,955
1151,094;  268,293;    1,455;   -0,591
1151,629;  267,202;    1,636;    0,864
1152,164;  189,475;    1,364;    1,318
1152,698;  145,747;   -0,182;   -0,136
1153,233;  108,384;    0,091;   -0,682
1153,767;  153,202;   -3,000;   -2,318
1154,302;  210,747;   -1,455;    1,773
1154,836;  207,384;   -0,455;   -2,136
1155,371;  254,384;   -1,364;    3,682
1155,905;  209,475;   -0,636;    1,682
1156,439;  172,020;   -0,636;   -0,500
1156,973;  218,747;    0,364;    0,318
1157,507;  150,384;   -0,364;    0,682
1158,042;  169,929;   -0,727;    1,045
1158,576;  228,293;    0,182;    1,773
1159,110;  214,838;   -0,818;    2,409
1159,643;  174,929;    0,636;   -0,045
1160,177;  109,111;   -1,545;    1,500

