
Integration time [ms]:   0,040
Averaging Nr. [scans]: 11
Smoothing Nr. [pixels]: 0
Data measured with spectrometer [name]: 7318044SP
Wave   ;Sample   ;Dark     ;Reference
[nm]   ;[counts] ;[counts] ;[counts] 

186,757;   21,423;   31,551;    1,318
187,357;   60,996;   22,551;    0,955
187,958;   39,160;   15,460;   -1,591
188,558;   86,961;    8,915;   -1,227
189,159;   57,097;    6,733;   -4,500
189,759;   25,880;    7,278;   -3,591
190,360;   21,880;    2,824;   -2,136
190,960;   65,994;    2,915;   -4,136
191,560;   79,318;    3,189;   -6,591
192,161;  342,905;    4,372;   -3,500
192,761;  172,504;    4,010;   -3,227
193,361;  114,559;    1,556;   -3,773
193,962;  176,159;    2,010;   -2,682
194,562;   96,817;    1,189;   -3,955
195,162;  135,627;   -2,448;   -2,227
195,762;  303,775;   -3,176;   -0,045
196,362;  246,271;    1,370;   -2,500
196,963;  102,908;    2,006;   -0,864
197,563;  185,419;    1,551;   -0,955
198,163;  120,937;    0,096;   -0,682
198,763;  138,909;    1,733;   -0,500
199,363;  261,797;    3,096;   -0,500
199,963;  214,091;    0,369;    0,409
200,563;  182,623;    2,823;   -1,409
201,163;  162,892;    3,277;   -0,227
201,763;  256,238;    3,732;    0,318
202,363;  190,420;    1,459;    1,500
202,963;  316,721;    1,459;    1,045
203,563;  427,896;    0,277;    0,500
204,162;  260,183;    2,096;   -1,864
204,762;  249,061;    0,550;    0,591
205,362;  212,970;    3,004;    1,955
205,962;  328,707;    3,096;    1,955
206,562;  326,152;    1,823;    2,318
207,161;  286,068;   -0,087;    0,318
207,761;  454,456;    1,277;    2,409
208,361;  329,372;   -0,268;    1,409
208,960;  433,288;    0,459;    1,500
209,560;  508,617;    1,277;    1,591
210,160;  480,113;    0,550;    1,864
210,759;  442,201;    4,186;    1,227
211,359;  459,943;    1,459;    1,045
211,958;  731,397;    1,277;    2,045
212,558;  817,467;    1,732;    1,864
213,157;  650,603;    1,822;    1,500
213,757; 1113,145;    3,822;   -0,227
214,356;  791,030;    1,277;   -0,409
214,956; 1144,987;    3,095;    0,409
215,555;  753,799;    2,095;    2,136
216,154;  684,922;   -2,723;   -0,591
216,754;  694,006;    0,277;    0,773
217,353;  848,082;   -0,268;   -1,045
217,952;  695,933;   -0,178;    0,318
218,552;  941,936;    1,368;   -0,773
219,151;  836,282;    0,277;    0,955
219,750;  839,776;    0,004;   -0,227
220,349;  984,831;   -0,451;    1,045
220,948; 1040,880;   -1,360;    1,136
221,548; 1070,188;    0,913;    1,227
222,147; 1192,474;   -0,087;   -0,409
222,746; 1485,143;   -0,451;   -0,955
223,345; 1361,069;    0,731;    0,500
223,944; 1375,880;   -0,451;    0,773
224,543; 1565,016;    1,004;   -1,409
225,142; 1673,563;    0,094;    0,136
225,741; 1584,328;   -0,814;    1,045
226,340; 1624,013;   -0,451;   -0,955
226,939; 2088,286;   -0,996;   -0,136
227,538; 2078,621;   -0,360;   -0,773
228,137; 2229,681;   -0,814;    0,864
228,735; 2392,495;   -0,541;    1,227
229,334; 2145,125;   -0,905;   -0,227
229,933; 2530,376;    0,459;    0,591
230,532; 2628,698;    1,186;   -0,409
231,131; 2680,247;    1,732;    0,318
231,729; 2858,995;   -2,450;   -2,318
232,328; 3006,862;   -0,723;   -1,500
232,927; 3120,830;    1,004;   -0,500
233,525; 3247,282;    3,640;    0,045
234,124; 3463,939;    2,368;   -1,591
234,723; 3467,876;    0,913;   -1,045
235,321; 3633,901;    2,277;    0,136
235,920; 3900,362;    1,186;   -1,227
236,518; 4164,660;    3,459;    0,318
237,117; 4347,069;    0,004;   -0,227
237,715; 4546,915;    0,640;   -0,500
238,314; 4580,072;   -0,087;   -2,318
238,912; 4688,376;   -0,723;   -1,409
239,510; 4735,453;    0,459;   -1,227
240,109; 4929,834;    0,004;    3,773
240,707; 4957,729;   -0,996;    1,227
241,305; 5357,240;    0,550;    0,136
241,904; 5586,421;   -0,178;   -2,045
242,502; 5526,977;   -0,632;   -0,227
243,100; 5469,635;   -0,087;   -0,955
243,698; 5728,572;    0,732;    1,682
244,297; 5929,673;   -0,632;    0,682
244,895; 5750,621;   -0,269;   -2,318
245,493; 6115,079;    2,186;   -0,591
246,091; 6131,307;    1,368;   -1,318
246,689; 6128,758;    1,004;    0,591
247,287; 6289,541;    0,822;   -1,136
247,885; 6592,157;   -1,451;    1,227
248,483; 6703,869;    1,822;   -0,500
249,081; 6841,555;    0,185;    1,591
249,679; 6991,209;   -0,178;    1,682
250,277; 7255,223;   -1,723;    0,864
250,875; 7266,457;   -1,087;   -1,045
251,473; 7291,831;   -1,178;    0,500
252,071; 7489,506;    1,459;    1,045
252,669; 7622,971;   -1,814;    0,318
253,267; 7910,000;   -0,087;    0,773
253,864; 7873,904;   -0,360;    0,682
254,462; 7734,601;    1,640;    1,591
255,060; 7693,038;   -0,269;    1,318
255,658; 8056,698;    0,822;   -0,136
256,255; 8489,810;    0,186;   -2,045
256,853; 8334,975;   -0,269;    1,409
257,451; 8336,072;    0,822;    1,864
258,048; 8608,055;    1,822;    1,864
258,646; 8354,324;    1,731;   -1,045
259,243; 8535,702;   -0,087;    2,227
259,841; 8594,943;   -0,814;    0,318
260,438; 8471,856;   -0,087;    0,864
261,036; 9223,799;   -1,905;    1,409
261,633; 9119,342;   -0,087;    2,227
262,231; 8855,719;    2,731;   -0,045
262,828; 8934,138;   -0,905;    1,136
263,425; 8991,775;    0,913;   -0,591
264,023; 9278,038;    0,186;    0,045
264,620; 8835,863;   -0,360;   -0,318
265,217; 9194,156;   -2,087;    3,136
265,815; 9301,821;   -1,905;    2,136
266,412; 9048,254;    0,731;    0,136
267,009; 9120,978;   -1,451;    0,773
267,606; 8961,506;    0,822;   -0,955
268,203; 8946,481;   -0,269;   -0,591
268,801; 9277,272;    1,731;    0,591
269,398; 9591,380;   -0,360;    2,500
269,995; 9526,048;    0,277;    1,591
270,592; 9297,792;   -0,632;   -0,500
271,189; 9485,412;    0,186;    0,409
271,786; 9649,537;   -0,632;    1,227
272,383; 9484,352;   -1,087;    0,227
272,980; 9673,681;    0,277;    0,318
273,577;10190,659;    0,004;    1,227
274,174; 9730,341;    0,822;    2,591
274,771; 9702,335;   -0,814;   -0,773
275,367; 9819,474;    2,277;    1,409
275,964; 9788,670;    0,731;   -0,500
276,561; 9883,800;    1,549;   -1,045
277,158;10128,846;    0,095;   -1,773
277,755;10251,919;    2,185;    0,409
278,351; 9625,866;   -0,451;   -1,500
278,948; 9962,611;   -0,815;    0,045
279,545; 9972,692;   -1,360;    2,318
280,141;10607,695;   -1,723;   -2,045
280,738;10498,691;   -0,451;   -0,136
281,334;10746,380;   -1,633;    0,591
281,931;10113,828;   -0,087;   -1,318
282,528;10204,115;    0,822;   -0,500
283,124;10924,328;   -1,087;   -0,500
283,721;10848,451;   -0,451;    1,409
284,317;10628,259;    0,185;    2,500
284,913;11213,063;   -1,360;    0,591
285,510;11406,426;    0,640;   -0,318
286,106;11441,440;   -2,269;   -0,955
286,703;11027,660;   -0,360;    1,955
287,299;11231,034;   -1,451;   -0,591
287,895;11421,258;    0,822;   -1,045
288,491;11980,744;    0,186;    2,136
289,088;11728,926;   -2,360;    2,409
289,684;11820,698;   -1,723;    1,500
290,280;11847,230;    0,368;    0,682
290,876;11930,737;    1,822;    5,500
291,472;11780,513;    1,276;    2,227
292,068;11886,538;    1,367;    0,227
292,665;11588,670;    2,095;    0,773
293,261;11181,419;    0,276;    2,136
293,857;11639,132;    2,913;    2,136
294,453;11525,827;    3,550;    0,955
295,049;11392,515;   -0,268;    1,955
295,644;11397,764;    0,095;    0,136
296,240;11304,400;   -0,905;   -0,136
296,836;11363,505;   -0,995;    0,318
297,432;11675,746;    1,096;   -0,500
298,028;11703,718;    0,732;    0,773
298,624;12127,242;    1,459;    1,864
299,220;12326,998;    2,368;    0,591
299,815;12007,739;    1,005;   -0,409
300,411;11807,061;    0,914;    1,773
301,007;11810,162;    1,368;    0,227
301,602;11852,844;   -0,541;   -2,318
302,198;12016,672;    0,732;   -0,773
302,794;12380,410;    1,187;   -0,500
303,389;12489,330;   -1,177;    1,045
303,985;12567,945;    0,550;    1,409
304,580;12533,043;    1,459;    1,591
305,176;12506,575;   -3,086;    0,136
305,771;12424,820;   -1,268;   -1,227
306,367;12272,631;    4,095;    0,136
306,962;12599,389;    0,641;    1,500
307,558;12345,144;   -0,450;    0,136
308,153;12268,669;    1,095;   -1,136
308,748;12504,708;   -0,814;    1,682
309,344;12462,481;   -0,632;   -1,318
309,939;12564,662;   -1,905;   -1,318
310,534;12829,981;   -0,086;   -1,682
311,130;12773,319;    0,459;   -2,500
311,725;12483,711;    1,004;   -0,500
312,320;12823,910;    2,459;    0,045
312,915;12676,620;    1,459;   -1,045
313,510;12749,019;    1,550;   -0,500
314,105;13266,267;    1,096;    1,409
314,700;12626,204;   -3,086;   -1,045
315,295;12240,861;   -0,904;    0,045
315,890;11797,746;    1,277;    0,864
316,485;12228,082;   -0,359;   -0,318
317,080;12338,487;   -3,086;    1,591
317,675;12900,550;    2,005;   -0,682
318,270;12298,053;    5,550;    3,318
318,865;12303,504;    3,278;    3,045
319,460;12157,721;   -0,904;    0,591
320,055;12364,259;   -0,541;   -1,227
320,650;11977,756;   -1,995;   -0,591
321,244;12010,640;   -0,177;   -1,409
321,839;12993,487;   -1,541;   -0,227
322,434;12879,274;   -1,086;   -1,591
323,029;12517,557;    1,732;    1,591
323,623;12323,980;    1,550;    0,773
324,218;12100,987;    2,368;    1,409
324,812;12004,323;    1,096;    1,591
325,407;11775,812;   -0,814;    2,045
326,002;11700,242;    0,277;   -0,409
326,596;12029,284;    0,914;    1,318
327,191;12189,861;    0,823;   -1,045
327,785;11772,830;   -0,813;   -0,227
328,379;11994,802;    1,368;    0,136
328,974;11798,470;    0,914;   -3,955
329,568;12005,994;    0,186;   -2,409
330,163;11840,504;    2,096;    1,045
330,757;12177,425;    2,459;    1,591
331,351;11470,599;    0,459;    0,682
331,945;11779,952;    0,914;    1,409
332,540;11373,239;   -1,723;   -0,591
333,134;11575,127;   -1,086;    0,773
333,728;11827,571;    0,005;    0,318
334,322;12138,281;   -1,177;   -0,864
334,916;11391,044;    0,277;    0,955
335,510;11715,533;   -0,450;   -0,136
336,105;11961,407;   -1,086;    1,591
336,699;11665,340;   -1,086;    0,591
337,293;11625,460;   -1,723;    0,318
337,887;11774,669;   -2,723;    1,955
338,481;11898,176;    0,459;    0,591
339,074;12055,404;   -0,359;    2,682
339,668;11862,082;   -1,632;    1,227
340,262;12101,617;    1,732;    3,227
340,856;11581,320;    1,822;   -0,682
341,450;10910,593;    1,004;    1,864
342,044;11846,460;    1,459;    0,136
342,637;11635,743;    0,913;   -2,136
343,231;11530,408;   -2,360;    0,682
343,825;11462,973;   -1,086;   -0,591
344,419;11388,064;   -1,995;    0,500
345,012;11157,882;    2,459;    4,045
345,606;11202,466;    4,641;    1,591
346,199;11028,633;   -1,813;   -0,227
346,793;10548,221;    1,914;    2,045
347,386;10705,924;   -0,813;   -1,136
347,980;10707,483;   -0,268;   -0,045
348,573;10499,032;    2,278;    0,409
349,167;10198,391;    5,278;    4,773
349,760;10579,884;    2,914;    2,682
350,354;10521,114;   -0,813;    1,136
350,947;10263,402;    1,096;    1,682
351,540; 9941,517;   -0,358;   -1,409
352,134; 9851,643;    1,096;    1,136
352,727; 9928,011;   -0,086;    1,136
353,320; 9745,510;    0,005;    0,591
353,913; 9576,472;   -1,995;    1,864
354,507; 9794,126;    0,823;   -1,227
355,100; 9757,832;    0,460;    0,864
355,693; 9022,429;    2,005;    2,409
356,286; 9092,912;    0,823;    2,773
356,879; 9411,528;   -0,722;    1,227
357,472; 8983,115;   -0,904;    1,500
358,065; 9192,664;   -0,722;    2,500
358,658; 9109,070;   -0,540;    2,318
359,251; 8775,622;   -1,631;   -0,591
359,844; 8267,290;   -1,904;   -1,136
360,437; 8474,080;   -2,995;    0,045
361,030; 8708,227;    1,369;   -0,682
361,623; 8297,436;    2,824;    0,318
362,215; 8358,412;   -0,086;    2,045
362,808; 8196,706;   -2,358;   -1,682
363,401; 8361,468;   -2,449;    0,136
363,994; 8129,677;   -0,631;   -1,500
364,586; 8004,425;    0,824;   -1,500
365,179; 8236,848;   -0,449;   -1,136
365,772; 7718,328;   -1,995;    2,045
366,364; 8021,187;    1,915;   -3,227
366,957; 8236,389;    2,279;   -0,045
367,549; 8248,288;    2,188;   -0,864
368,142; 7892,836;    1,825;   -1,500
368,734; 8094,965;    0,734;   -2,136
369,327; 8046,444;    1,643;   -0,500
369,919; 7950,660;   -1,538;    0,409
370,512; 7757,614;   -1,083;   -0,500
371,104; 7520,098;   -0,901;    1,591
371,696; 7700,681;    1,191;   -0,955
372,289; 7790,882;    0,373;    1,136
372,881; 7945,454;   -2,080;    1,318
373,473; 7858,582;   -2,170;    1,136
374,066; 7674,971;   -0,169;    0,500
374,658; 7511,806;    0,378;    1,136
375,250; 7861,408;    0,653;   -1,409
375,842; 7696,089;    0,473;   -0,045
376,434; 7587,013;   -0,435;   -0,409
377,026; 8151,624;    0,204;   -2,500
377,618; 8050,942;   -0,158;   -0,682
378,210; 7894,725;   -0,338;   -1,955
378,802; 7740,498;    0,754;   -0,591
379,394; 7722,888;    1,846;    0,682
379,986; 8330,058;    1,393;   -0,955
380,578; 8402,382;   -0,153;    0,773
381,170; 7752,391;   -0,972;    0,045
381,762; 7731,935;    0,755;    1,409
382,354; 7931,665;   -0,065;   -1,318
382,945; 8009,164;   -2,976;    0,318
383,537; 8165,157;   -2,705;   -1,955
384,129; 8156,544;   -2,160;   -1,136
384,721; 8340,531;   -0,252;    0,955
385,312; 8275,609;   -0,161;   -0,955
385,904; 8394,745;   -2,706;    1,591
386,496; 7759,716;   -0,979;    1,045
387,087; 7894,775;    1,022;    2,500
387,679; 7930,400;   -1,160;    0,045
388,270; 8068,774;    2,840;    2,045
388,862; 8203,043;    1,295;   -0,318
389,453; 8090,008;   -0,887;    1,045
390,045; 8367,886;   -0,705;   -2,682
390,636; 8290,578;    0,204;   -0,591
391,227; 8123,334;   -0,523;   -0,045
391,819; 8238,757;    0,204;    0,773
392,410; 8352,173;    1,022;    0,045
393,001; 8267,454;   -0,979;   -1,591
393,593; 8564,084;    1,930;   -0,045
394,184; 8406,370;    1,385;   -0,409
394,775; 8346,678;    1,839;    2,136
395,366; 8515,611;    1,385;    0,773
395,957; 8537,848;    0,113;    0,136
396,548; 8881,212;   -0,342;    2,682
397,139; 9176,799;   -2,433;    0,591
397,730; 8921,027;   -1,888;    0,955
398,321; 8926,384;   -1,252;    0,955
398,912; 8970,626;   -0,615;    0,136
399,503; 9038,741;   -3,524;   -1,409
400,094; 8469,010;    0,294;    1,682
400,685; 8299,674;   -0,433;    0,045
401,276; 8398,101;    0,930;   -0,955
401,867; 8722,531;   -0,888;    0,773
402,458; 8817,335;   -2,251;   -2,318
403,048; 8813,647;    1,112;    0,591
403,639; 8413,720;    0,840;    0,864
404,230; 8668,503;    2,476;    0,318
404,821; 8593,741;   -0,615;    0,045
405,411; 8714,381;    1,203;   -2,591
406,002; 8310,321;   -1,252;   -1,136
406,592; 8159,955;    2,294;    0,045
407,183; 8473,466;    0,566;   -1,500
407,774; 8416,025;    3,475;   -0,136
408,364; 8706,507;    0,930;    0,409
408,954; 8298,060;    0,384;    1,227
409,545; 8353,959;    1,021;    1,045
410,135; 7890,693;    1,293;    0,500
410,726; 8049,900;    1,838;    0,318
411,316; 8468,288;    0,111;    0,773
411,906; 8127,578;   -0,253;   -0,409
412,497; 7598,753;   -1,070;   -0,045
413,087; 8183,732;   -1,980;   -0,227
413,677; 8617,932;   -0,707;    3,864
414,267; 8469,432;    0,656;    1,409
414,857; 8435,544;   -2,980;    4,227
415,448; 8738,417;    0,839;    0,500
416,038; 8390,739;    0,020;   -0,591
416,628; 8389,285;   -0,889;    0,409
417,218; 7830,303;    0,565;    3,318
417,808; 8138,142;    0,202;   -0,409
418,398; 8615,540;    0,020;    2,682
418,988; 8637,436;    2,020;    0,591
419,578; 8914,103;   -0,707;    1,409
420,168; 9234,313;   -1,343;   -0,955
420,757; 8807,903;   -1,343;   -1,500
421,347; 8478,604;    0,111;   -0,227
421,937; 8678,534;    2,292;    1,409
422,527; 8634,307;    0,838;   -0,773
423,116; 8439,296;   -0,253;   -0,045
423,706; 8760,946;   -1,889;    0,318
424,296; 8721,212;    1,384;    0,682
424,885; 9141,030;   -0,071;   -3,045
425,475; 9446,356;    1,474;   -2,864
426,065; 9354,925;   -0,980;   -0,318
426,654; 8991,132;   -0,435;   -0,318
427,244; 9132,128;    0,020;    1,409
427,833; 8573,376;    1,383;   -0,500
428,423; 9056,426;   -0,526;    1,136
429,012; 9823,066;   -0,344;   -1,136
429,601; 9330,420;   -1,344;    0,136
430,191; 9523,087;    1,292;    4,318
430,780; 9184,220;   -0,344;   -0,409
431,369; 9128,241;    0,746;   -0,045
431,959; 9744,472;   -1,254;    0,500
432,548; 9533,423;   -1,163;   -0,045
433,137; 9650,284;   -1,254;   -1,318
433,726;10185,888;    0,292;    0,500
434,315; 9521,888;   -0,526;    2,409
434,905; 9614,242;   -1,254;    1,409
435,494; 9482,294;    0,746;    0,955
436,083; 9947,965;   -0,981;   -0,955
436,672; 9875,644;    0,110;    0,500
437,261; 9411,144;    0,292;   -1,955
437,850; 9525,714;    1,383;    0,682
438,439; 9564,903;    3,291;    1,955
439,027; 9397,568;    3,655;    1,773
439,616; 9754,851;    2,927;    1,227
440,205; 9596,753;    0,200;   -2,136
440,794; 9703,233;    2,109;   -0,045
441,383; 9960,380;   -1,346;   -0,591
441,971; 9758,911;   -2,436;    0,591
442,560; 9630,391;    0,563;   -1,773
443,149; 9406,685;    0,379;   -1,318
443,737; 9568,325;   -0,074;   -2,318
444,326; 9805,583;    0,018;    0,318
444,915; 9901,233;   -1,982;    0,864
445,503;10318,013;   -2,891;   -0,318
446,092; 9540,041;    0,382;    2,136
446,680;10061,912;    0,382;    0,318
447,269;10223,730;   -0,346;   -0,318
447,857; 9990,255;    0,018;   -1,773
448,445;10104,856;    0,563;    1,318
449,034;10372,594;   -1,528;   -1,136
449,622;10504,143;   -1,073;    3,500
450,210; 9693,840;    2,017;    2,227
450,799;10254,410;    0,290;   -0,591
451,387;10210,651;    1,381;   -0,591
451,975; 9814,249;    2,654;    0,864
452,563; 9932,427;    3,472;    2,318
453,151; 9988,074;   -0,528;   -1,227
453,739; 9907,550;   -1,347;    0,136
454,328; 9724,018;    2,381;   -2,136
454,916; 9442,197;    2,562;   -0,136
455,504; 9616,994;    1,017;    1,227
456,092; 9794,253;    0,017;   -1,591
456,679; 9782,686;    1,472;    0,682
457,267; 9762,120;    4,017;    1,045
457,855; 9891,404;    1,017;    1,409
458,443; 9619,124;   -0,165;    1,682
459,031; 9768,344;    0,108;    2,409
459,619;10256,813;   -1,801;    2,864
460,206;10391,057;    0,835;    2,045
460,794;10465,229;   -2,983;   -0,227
461,382;10707,366;   -0,529;   -0,864
461,970;10263,394;    1,198;    1,864
462,557;10290,600;   -0,711;   -0,682
463,145;10486,621;   -3,165;   -1,682
463,732;10661,279;    2,016;   -1,045
464,320;10620,849;   -0,075;   -3,045
464,907;10262,059;    2,743;   -0,773
465,495;10122,287;    0,743;   -1,227
466,082;10273,506;   -1,984;   -0,045
466,670;10183,702;   -2,529;    1,227
467,257;10590,101;   -1,711;    2,045
467,844;10746,164;   -0,075;    0,045
468,432;10785,937;    0,834;    3,500
469,019;10253,276;    0,925;   -1,773
469,606;10756,280;    0,470;    3,682
470,193;10565,466;   -1,439;    0,227
470,780;10121,514;   -2,075;    0,864
471,368;10465,427;   -1,257;   -0,773
471,955;10268,123;    1,379;   -0,682
472,542; 9940,609;    0,652;   -1,136
473,129;10117,567;   -0,166;    0,136
473,716; 9867,238;    1,470;    0,591
474,303;10097,881;    0,652;   -0,864
474,890;10402,169;   -1,439;   -0,500
475,477;10424,365;   -1,621;    0,409
476,064;10297,648;    1,106;   -1,591
476,650;10250,830;    0,288;    0,318
477,237;10054,466;   -0,258;    0,955
477,824;10219,064;   -1,076;    0,864
478,411;10241,414;   -1,894;   -0,318
478,997;10440,313;    0,560;   -0,773
479,584;10497,478;    1,196;   -0,409
480,171;11218,890;   -0,440;   -0,773
480,757;10903,562;    2,651;    0,773
481,344;11181,229;    0,469;    0,409
481,931;10683,482;    1,105;    1,045
482,517;11754,908;   -1,258;    0,318
483,104;12355,628;    1,106;    2,864
483,690;12639,457;   -1,804;    0,045
484,276;12996,565;   -0,895;    0,227
484,863;12678,429;    2,469;    1,136
485,449;13287,265;   -0,077;    0,318
486,035;13237,401;   -1,986;   -0,136
486,622;13693,509;   -0,895;    0,045
487,208;13613,073;    1,378;    1,500
487,794;13432,534;    0,741;    0,318
488,380;13535,199;    0,105;   -1,409
488,967;13649,427;   -1,168;   -0,409
489,553;13706,220;   -1,895;   -1,409
490,139;13859,832;    1,559;    0,773
490,725;13257,668;    0,741;   -0,227
491,311;12797,164;    3,287;    3,045
491,897;12149,902;   -0,986;    1,500
492,483;11977,871;    0,105;    1,227
493,069;11803,248;    3,923;    0,864
493,655;11782,892;    1,650;    0,682
494,241;11707,661;    1,377;   -0,955
494,826;12139,035;    0,287;   -1,045
495,412;11600,612;    2,559;   -0,682
495,998;11726,246;   -0,805;   -0,318
496,584;11863,050;    0,377;    1,045
497,169;11902,148;    1,014;   -0,682
497,755;11848,879;    0,650;    1,227
498,341;12417,599;    0,559;    0,318
498,926;11992,623;    1,832;    1,955
499,512;12162,478;    1,286;    2,955
500,097;12313,267;    0,195;   -0,318
500,683;12271,316;   -0,350;    2,136
501,268;12630,991;   -0,169;   -0,955
501,854;12345,911;   -0,169;    1,227
502,439;12316,009;   -0,624;   -1,773
503,024;12511,544;    0,195;    0,500
503,610;12618,201;   -0,078;   -0,682
504,195;12629,817;    0,558;    1,955
504,780;12747,005;    2,922;    1,227
505,366;12591,984;    3,013;    2,864
505,951;12284,066;    0,740;    1,045
506,536;12301,894;   -3,260;   -3,682
507,121;12285,338;    0,285;   -0,318
507,706;12835,349;    2,376;    1,045
508,291;13243,433;    2,649;    1,136
508,876;12702,748;   -0,988;    2,591
509,461;12179,402;   -0,169;   -0,773
510,046;12593,965;    0,194;    0,318
510,631;12846,087;   -0,351;   -0,773
511,216;12528,741;    2,467;   -0,500
511,801;12891,510;   -0,442;    2,591
512,386;13215,174;    0,740;    0,500
512,971;13149,636;   -2,988;    0,955
513,555;12689,993;   -0,897;   -1,500
514,140;13472,049;   -0,442;   -3,136
514,725;13505,857;   -0,715;   -1,136
515,309;13616,018;   -0,533;    0,318
515,894;13073,619;   -0,624;   -2,227
516,479;13535,745;   -0,624;   -0,955
517,063;13388,532;    0,376;    1,227
517,648;13517,818;    1,012;   -1,136
518,232;13169,567;   -0,261;   -1,409
518,817;13481,725;   -0,079;    1,682
519,401;13690,127;    2,194;    0,591
519,985;13209,735;    1,103;    1,136
520,570;13115,375;    0,830;   -1,955
521,154;13417,029;    2,102;    0,591
521,738;13570,037;   -2,352;    2,409
522,323;14125,281;   -0,170;    1,682
522,907;13861,631;    0,466;   -0,136
523,491;13574,005;    0,557;    0,955
524,075;13581,617;    2,284;    0,591
524,659;13682,225;    1,466;    0,591
525,243;13139,362;    1,739;    0,409
525,827;13386,589;    0,648;   -0,045
526,411;14235,771;   -1,989;   -0,136
526,995;14456,047;   -0,352;    1,409
527,579;14037,723;   -0,443;   -1,045
528,163;14354,174;    0,375;   -1,500
528,747;14279,065;    2,466;   -0,773
529,331;14577,807;   -0,080;   -1,409
529,915;14795,940;    1,738;    0,955
530,499;14748,363;   -0,807;    1,227
531,082;14468,625;   -0,534;    1,591
531,666;13881,297;    1,374;    0,773
532,250;14584,041;    1,284;    2,682
532,833;14907,248;    0,920;    2,773
533,417;14790,832;   -1,807;    0,864
534,001;14822,293;    1,647;   -0,318
534,584;15525,126;    0,374;    0,500
535,168;15312,846;    0,465;    1,409
535,751;15365,332;    0,647;    0,045
536,334;14808,636;   -0,898;   -0,409
536,918;15404,021;    0,011;    1,591
537,501;15500,888;   -0,899;    1,318
538,085;15519,822;   -0,444;    1,045
538,668;15655,161;    0,829;    2,409
539,251;16007,954;    1,829;    3,773
539,834;16009,850;    0,101;    0,773
540,418;15953,888;   -1,990;    4,318
541,001;16032,556;   -0,990;    1,773
541,584;16021,417;    2,101;    2,227
542,167;15743,661;    1,374;    2,955
542,750;15873,906;    1,919;   -0,773
543,333;15502,627;    0,555;    2,136
543,916;16286,672;    0,192;    2,500
544,499;16890,948;   -1,354;    0,227
545,082;16892,746;    1,374;    3,591
545,665;17019,385;    1,919;    1,500
546,248;17398,627;    1,010;   -0,318
546,830;17027,669;   -0,445;    1,955
547,413;17494,718;    1,010;   -0,773
547,996;18001,278;    0,555;    0,500
548,579;17766,579;    0,919;    0,955
549,161;17537,194;    1,828;    2,682
549,744;17291,586;   -0,809;    0,409
550,326;17803,320;   -0,809;   -1,136
550,909;17621,611;    2,737;    0,591
551,492;18015,845;   -0,263;    0,227
552,074;17795,034;   -0,173;   -1,318
552,657;18355,279;    2,373;    0,045
553,239;18107,660;   -0,173;   -0,773
553,821;18007,408;   -1,082;    1,045
554,404;17525,698;    1,282;    1,136
554,986;17923,740;    0,464;    1,045
555,568;18487,667;    1,191;   -0,955
556,151;17713,643;    1,191;   -0,227
556,733;17880,359;   -0,264;   -0,864
557,315;18394,744;    0,100;    0,500
557,897;18200,699;    0,554;   -0,500
558,479;18336,828;   -1,991;    1,318
559,061;18468,206;   -0,719;   -0,864
559,643;18789,126;   -0,264;    0,045
560,225;19183,919;    1,645;    2,864
560,807;19217,853;    0,918;    0,318
561,389;18697,388;    0,554;    2,318
561,971;19495,521;    0,463;    2,136
562,553;19247,787;   -1,628;    1,591
563,135;19378,080;   -0,537;    1,136
563,717;19033,409;    3,372;    1,136
564,298;19710,385;    3,645;   -0,045
564,880;19483,323;    0,645;   -1,409
565,462;19633,323;    0,645;    1,318
566,043;20788,511;   -0,446;    2,318
566,625;20323,235;    1,918;    1,227
567,207;20179,843;    1,099;    1,682
567,788;21331,315;   -1,264;    1,500
568,370;22158,644;    1,917;   -0,500
568,951;21999,945;    0,190;    0,227
569,533;22889,784;   -0,628;   -0,500
570,114;23344,301;   -0,446;    0,682
570,695;23851,256;   -0,174;   -1,318
571,277;24345,935;   -0,265;   -1,682
571,858;25140,749;    2,008;   -1,136
572,439;26050,581;    1,554;   -1,045
573,021;26190,435;    2,099;   -2,773
573,602;26697,481;   -1,265;    0,318
574,183;27606,495;   -2,083;    2,227
574,764;27719,725;   -1,629;    0,409
575,345;28300,219;    0,917;   -0,136
575,926;28876,676;   -0,356;    0,136
576,507;28821,386;    1,099;   -0,227
577,088;29969,173;    3,099;    1,682
577,669;29986,754;    0,735;    1,955
578,250;30816,495;    0,644;   -1,045
578,831;31462,037;   -1,356;   -2,227
579,412;31668,911;   -0,810;    0,955
579,993;32502,799;    1,008;    0,227
580,573;32819,652;   -0,629;   -0,955
581,154;31802,243;    0,735;   -0,591
581,735;32739,991;    0,644;    0,773
582,315;32206,537;   -0,629;    2,136
582,896;32512,271;   -0,174;    1,227
583,477;31897,719;    0,189;    1,227
584,057;32068,677;    0,553;    0,955
584,638;32428,890;    2,553;    2,318
585,218;32438,306;   -0,538;    2,682
585,799;32581,946;    0,281;   -0,227
586,379;32495,809;    0,372;    1,591
586,959;31226,467;    0,735;    0,318
587,540;30517,205;   -0,629;    2,227
588,120;30104,153;    1,007;   -0,045
588,700;29154,831;    2,553;    2,136
589,281;29528,862;    0,462;   -0,955
589,861;29450,733;    0,099;   -1,682
590,441;29218,596;    2,371;   -2,682
591,021;28201,705;   -0,265;   -2,591
591,601;28454,816;   -0,537;    0,500
592,181;28437,197;   -0,719;   -0,773
592,761;27688,492;    0,007;    1,409
593,341;27594,795;   -0,901;    0,045
593,921;27633,050;   -0,265;    1,591
594,501;27559,135;   -0,538;    1,318
595,081;27381,257;    0,917;   -0,318
595,661;27758,900;   -1,447;    0,955
596,240;28303,938;   -0,537;    0,136
596,820;27957,358;    0,372;    1,955
597,400;28115,648;    2,008;    0,773
597,980;28270,578;    2,008;    1,045
598,559;28258,729;    2,735;   -0,227
599,139;28007,750;   -0,174;   -1,227
599,718;27931,204;   -0,174;   -0,409
600,298;28179,760;    0,735;    0,682
600,877;28411,952;    2,917;    1,409
601,457;28693,917;    2,281;    1,136
602,036;28579,085;    0,190;    2,045
602,616;28817,393;    0,644;    1,682
603,195;29150,732;   -0,355;    3,500
603,774;28712,085;   -0,901;    2,045
604,354;28581,970;    0,826;   -0,500
604,933;28069,260;    0,463;    1,864
605,512;28179,949;    3,554;    0,591
606,091;28230,039;   -0,537;    3,773
606,671;29045,798;    0,281;    0,773
607,250;28184,805;    1,644;    3,136
607,829;28401,361;    2,372;    3,227
608,408;28196,819;    1,190;    2,591
608,987;27199,437;    1,281;    3,409
609,566;27548,540;   -1,265;   -2,500
610,145;27644,329;   -1,082;    0,682
610,723;28088,466;    4,372;    6,864
611,302;27367,860;   -0,446;    1,682
611,881;26831,888;    5,008;   11,227
612,460;27672,140;    1,645;    3,955
613,039;28048,738;   -0,082;    2,045
613,617;26776,679;    1,736;    4,773
614,196;26969,626;    1,099;    1,227
614,775;27316,063;    1,009;    2,409
615,353;27304,357;    0,736;    0,864
615,932;27056,154;    0,100;    2,409
616,510;27539,423;    0,554;    0,591
617,089;27092,860;    7,100;   17,591
617,667;26876,430;    2,372;    6,136
618,246;26738,056;   -1,537;    1,318
618,824;26875,402;   -3,355;   -0,955
619,402;26444,678;   -2,900;   -1,773
619,981;26980,814;   -0,173;   -1,045
620,559;26790,660;    0,009;    1,682
621,137;26274,104;   -0,718;    1,864
621,715;26338,514;   -1,173;   -0,682
622,293;26261,160;   -0,537;   -0,773
622,871;26720,290;   -0,718;    0,500
623,450;26328,209;    0,373;   -0,864
624,028;26204,870;    0,191;   -0,955
624,606;25832,681;   -1,718;    1,682
625,183;26237,146;   -1,536;   -1,136
625,761;25843,597;    1,009;    1,136
626,339;26140,031;    1,373;    2,591
626,917;26514,705;   -0,172;   -0,045
627,495;26541,020;   -0,354;    1,318
628,073;25979,453;   -0,263;    2,864
628,650;25702,142;    0,100;    2,136
629,228;26086,681;    0,373;    4,409
629,806;25550,331;    2,282;    1,136
630,383;25810,967;    1,464;   -0,318
630,961;25562,635;    2,555;   -0,955
631,539;25320,929;    2,464;    0,227
632,116;24731,817;   11,373;   15,409
632,694;25303,883;    2,555;    6,500
633,271;25578,075;    0,828;    2,682
633,848;25513,852;    1,828;    2,045
634,426;25503,009;   -1,081;    1,773
635,003;24644,305;    1,101;   -0,409
635,580;24952,837;    1,192;    3,682
636,158;25514,631;    3,737;    1,227
636,735;25491,379;    0,555;   -0,500
637,312;25647,565;   -0,809;   -0,682
637,889;25756,687;   -4,354;   -0,682
638,466;25182,452;   -3,990;   -0,409
639,043;25197,927;    2,101;   -1,136
639,620;25525,801;   -2,262;   -0,955
640,197;25852,748;    1,100;    1,682
640,774;25895,529;   -0,172;    1,136
641,351;26311,674;    0,737;    1,136
641,928;25782,456;   -0,627;    1,409
642,505;25452,419;    0,828;   -0,500
643,082;25607,654;   -1,718;    1,227
643,658;24569,890;   -0,718;    1,500
644,235;25304,308;    1,191;    2,500
644,812;25651,998;    1,918;    0,773
645,388;25382,325;   -0,991;    1,409
645,965;25454,106;   -0,809;    1,682
646,542;25510,069;   -1,445;   -0,227
647,118;25558,487;    1,009;   -0,955
647,695;25863,541;   -0,263;    1,136
648,271;25747,777;   -0,536;    0,500
648,848;26076,194;    0,736;    2,227
649,424;25902,521;    0,827;    1,318
650,000;25673,939;   -0,354;   -1,045
650,577;25509,538;   -0,627;   -0,955
651,153;25958,047;   -1,809;    0,955
651,729;26950,555;    1,191;    0,864
652,305;27503,246;    0,645;    2,773
652,881;32585,391;   -0,082;    1,136
653,458;39471,445;    1,100;    0,227
654,034;42801,499;    0,282;    1,591
654,610;44037,462;    0,554;    0,773
655,186;45298,425;    0,645;    3,045
655,762;44914,570;   -0,991;    0,409
656,338;44909,442;    0,100;    0,136
656,913;45799,132;   -0,082;    0,409
657,489;44975,732;    0,827;   -0,318
658,065;45028,058;   -0,173;   -1,591
658,641;45590,294;   -0,900;   -0,864
659,217;44867,348;   -0,991;    0,409
659,792;44217,493;    0,645;   -0,409
660,368;44438,638;   -2,173;   -0,682
660,944;43830,147;   -2,082;    1,227
661,519;38653,110;   -0,628;    0,409
662,095;32752,800;   -1,719;    0,591
662,670;28625,763;    1,281;   -0,136
663,246;27762,999;    1,009;   -0,409
663,821;27142,417;    0,281;    1,682
664,396;26673,834;    0,009;    1,864
664,972;26964,434;    0,009;   -0,500
665,547;27271,488;    1,372;    0,136
666,122;27325,269;   -1,082;    0,318
666,698;27605,050;   -0,173;    0,318
667,273;26909,195;   -0,173;    0,136
667,848;27741,795;    2,372;    1,500
668,423;27558,849;    2,190;    2,318
668,998;28126,993;    2,827;   -0,682
669,573;28658,229;   -3,264;   -1,500
670,148;28498,101;   -1,446;   -0,682
670,723;28253,246;   -1,810;    0,318
671,298;28719,937;    2,372;    1,045
671,873;28851,263;   -0,082;   -0,136
672,448;28796,408;    0,645;    0,136
673,023;29114,644;   -1,992;   -0,227
673,597;29439,153;    0,827;    2,318
674,172;29215,479;   -0,355;    0,318
674,747;28683,624;    0,372;   -1,045
675,321;28460,497;   -0,628;    3,318
675,896;28039,732;    0,645;    1,045
676,471;29046,150;    2,645;    1,591
677,045;28888,022;   -1,264;    0,682
677,620;28937,985;    0,190;    1,136
678,194;29176,130;   -2,628;    1,136
678,769;28779,821;   -1,083;   -0,318
679,343;29090,511;   -0,628;    1,773
679,917;28950,747;   -1,446;    1,955
680,492;29015,164;    0,826;    3,227
681,066;29147,400;    3,372;    0,409
681,640;29153,181;    1,463;   -0,318
682,214;30011,781;    0,735;    0,500
682,788;29553,108;   -1,356;   -0,773
683,363;29518,252;   -1,810;    1,682
683,937;29183,397;   -1,719;   -0,318
684,511;29892,724;    0,463;   -0,591
685,085;29619,142;   -1,356;    0,318
685,659;29385,650;   -2,538;    0,864
686,232;29691,159;   -0,356;   -0,318
686,806;29310,486;   -0,901;    0,409
687,380;29961,085;   -0,174;    0,591
687,954;30149,139;   -1,174;    1,136
688,528;29902,829;   -0,719;    1,955
689,101;30666,792;   -3,992;    1,045
689,675;30260,846;   -0,356;   -0,136
690,249;29644,719;   -0,719;    0,409
690,822;29980,500;    0,280;    0,318
691,396;30090,190;   -0,265;    1,227
691,969;29521,972;    1,280;    0,136
692,543;29959,207;   -0,447;   -1,955
693,116;29630,080;   -0,265;   -1,409
693,690;29492,497;    0,099;    0,500
694,263;30087,642;   -1,083;    2,955
694,836;30091,060;    1,371;    3,591
695,410;28719,477;   -0,265;    1,773
695,983;29153,440;    0,189;    0,591
696,556;29154,858;   -0,447;   -1,045
697,129;29540,276;   -0,356;    1,409
697,703;29174,057;   -1,629;    1,955
698,276;29137,747;    1,462;   -0,773
698,849;28962,438;    1,280;    1,409
699,422;29296,401;   -1,083;    0,591
699,995;29042,637;    0,007;    0,136
700,568;29548,236;   -0,629;    3,045
701,140;29538,017;   -2,811;    1,682
701,713;29282,344;   -0,174;    2,409
702,286;29011,034;   -0,538;    0,864
702,859;28933,179;   -0,902;   -0,591
703,432;28050,415;    0,825;    0,682
704,004;28577,651;    0,462;    0,318
704,577;28432,978;   -0,629;    0,136
705,150;29066,123;    0,189;    2,500
705,722;28799,631;   -0,356;   -3,227
706,295;28592,594;   -0,175;   -0,591
706,867;28486,375;   -0,175;    1,955
707,440;28688,702;   -1,720;   -0,409
708,012;28961,029;    0,462;    0,591
708,584;28836,537;    2,462;    0,227
709,157;29118,228;    1,825;   -0,591
709,729;28764,918;    2,280;    2,045
710,301;29612,427;    0,734;    0,045
710,874;29624,663;   -1,447;   -0,227
711,446;28473,717;    0,371;    0,864
712,018;28344,043;    0,098;    0,500
712,590;28136,461;   -1,993;    1,682
713,162;28656,060;    0,825;    1,318
713,734;28873,205;    1,825;   -2,045
714,306;28793,259;   -1,902;   -0,409
714,878;27451,950;    0,825;    0,864
715,450;28295,095;    0,643;    0,864
716,022;28570,149;    1,552;    1,318
716,593;28694,384;    0,189;    0,591
717,165;28612,257;   -3,175;   -1,227
717,737;28293,765;    0,280;    0,409
718,309;27964,001;    0,280;   -0,045
718,880;27998,328;   -0,539;   -1,409
719,452;28190,927;   -0,175;   -1,591
720,024;27785,527;    0,734;   -0,591
720,595;28304,762;   -2,902;    0,955
721,167;27887,816;    0,370;   -2,045
721,738;27419,961;   -0,812;   -1,045
722,309;27392,379;   -0,993;   -1,227
722,881;27186,342;   -1,357;    0,773
723,452;27819,123;   -2,630;    2,864
724,023;27988,995;   -0,721;    2,682
724,595;27777,686;    0,007;    0,682
725,166;27519,649;    0,007;   -0,409
725,737;27218,339;    1,734;    0,227
726,308;27250,030;   -0,266;    0,318
726,879;27740,447;   -1,630;    1,227
727,450;27514,229;    0,552;   -0,045
728,021;27502,192;    3,097;    0,682
728,592;27319,155;    0,734;    0,500
729,163;27639,845;    0,643;   -0,136
729,734;27717,081;    0,188;   -0,227
730,305;28029,317;    1,734;    0,136
730,876;28351,098;    0,188;    2,955
731,447;28079,606;    2,188;    2,682
732,017;28208,570;    1,097;    1,864
732,588;27677,169;    0,734;    1,227
733,159;27916,314;    0,643;   -1,045
733,729;27688,732;    0,006;    0,409
734,300;26929,513;    0,915;    0,864
734,870;27342,658;    3,461;    0,591
735,441;27924,803;    0,370;   -0,591
736,011;27690,766;    0,643;   -1,591
736,582;27599,911;   -0,812;    0,045
737,152;27049,056;   -1,721;   -2,045
737,722;27501,110;   -0,267;   -0,682
738,293;27237,254;   -1,358;    1,318
738,863;27096,399;    2,461;    2,318
739,433;26921,635;    5,279;    0,318
740,003;27545,416;   -0,994;   -0,682
740,573;26941,380;    2,097;   -1,591
741,143;26895,888;   -1,085;    0,318
741,713;27668,669;    1,188;   -0,500
742,283;27391,087;    0,915;    1,591
742,853;27111,686;    1,915;    1,591
743,423;26585,013;    1,733;    0,045
743,993;26762,522;   -0,358;    1,500
744,563;26144,485;    0,097;   -0,864
745,133;26067,175;   -0,812;   -0,864
745,702;26718,502;   -0,267;    1,773
746,272;25969,101;   -0,176;    0,591
746,842;25741,246;   -1,358;   -0,591
747,411;26169,028;   -0,267;   -0,318
747,981;26362,718;    0,097;    0,500
748,551;26392,317;    2,278;   -1,045
749,120;26244,553;    0,642;   -0,227
749,690;26648,516;   -0,631;    2,409
750,259;27007,570;    1,369;    2,955
750,828;26926,079;    1,551;   -1,955
751,398;27192,042;    1,278;   -0,045
751,967;26725,459;    2,187;    0,409
752,536;26900,695;   -0,813;   -0,227
753,105;27279,658;    0,096;    0,227
753,675;27112,440;    0,096;    1,773
754,244;27018,766;   -0,904;    3,591
754,813;27063,911;    0,551;    1,227
755,382;26624,602;    0,460;    0,955
755,951;27224,474;    1,551;    3,682
756,520;26717,801;   -0,085;    1,864
757,089;27288,855;    0,278;    0,500
757,658;27439,999;    1,733;    1,227
758,227;27427,690;    1,096;    0,318
758,795;27759,471;    1,187;    1,136
759,364;27957,980;   -0,086;   -0,591
759,933;27013,488;   -1,176;   -0,045
760,501;26470,179;    0,733;   -1,318
761,070;26929,596;   -2,813;   -1,409
761,639;27664,196;   -1,904;    1,318
762,207;27059,431;    1,551;   -0,955
762,776;26973,940;    0,369;    0,864
763,344;26927,085;   -0,995;    0,591
763,913;25968,866;   -0,722;    1,409
764,481;26753,557;    1,005;   -0,136
765,049;26523,701;   -1,358;    1,409
765,618;26408,392;   -0,086;    0,318
766,186;26432,991;    0,278;    0,136
766,754;26630,863;    0,005;    1,864
767,322;25713,736;   -1,995;    0,409
767,890;25698,971;   -0,722;   -1,773
768,459;26133,025;   -2,177;   -0,318
769,027;26303,261;    1,641;    3,409
769,595;25230,497;    3,278;    2,591
770,163;25690,915;    3,823;    2,955
770,730;25416,787;    0,732;   -0,136
771,298;25302,841;    0,187;   -1,409
771,866;25279,622;   -1,541;    4,955
772,434;25643,040;   -0,631;   -1,864
773,002;25860,185;    0,005;    0,682
773,569;25484,966;    0,914;    1,682
774,137;25356,384;   -0,268;   -0,045
774,705;26107,074;    0,278;   -0,136
775,272;25589,673;    0,641;    0,682
775,840;25319,546;   -0,177;    2,682
776,407;24915,509;    0,277;    1,955
776,975;24504,290;   -0,632;    0,318
777,542;25477,617;   -1,086;   -0,045
778,110;25322,489;   -1,268;   -0,045
778,677;25000,816;   -2,359;   -0,864
779,244;24753,506;    2,186;    1,045
779,812;24827,651;    1,823;    0,864
780,379;24727,159;    0,005;    1,136
780,946;25024,395;    1,005;   -0,773
781,513;25344,631;   -1,450;    0,318
782,080;24689,685;   -0,086;    2,864
782,647;25466,921;   -0,268;    3,045
783,214;25019,066;   -0,177;    3,864
783,781;24600,392;   -0,723;   -0,682
784,348;24517,174;   -0,632;    1,500
784,915;24957,591;   -3,177;    0,318
785,482;24766,554;    1,368;    2,591
786,049;25090,336;    0,186;   -0,591
786,615;25248,390;    0,277;   -0,955
787,182;24947,171;    0,186;   -0,682
787,749;24637,043;   -2,814;    1,409
788,315;24042,097;   -1,632;   -0,409
788,882;24309,424;    1,550;   -1,227
789,448;25012,660;    1,732;   -0,955
790,015;25061,896;    1,095;    3,227
790,581;24568,677;    1,459;    0,227
791,148;24459,458;    0,641;    1,045
791,714;24673,785;   -0,541;    3,136
792,280;24329,839;    0,186;    1,591
792,847;23915,256;    0,550;    2,500
793,413;24474,220;   -0,269;   -0,318
793,979;24038,910;    3,459;   -1,318
794,545;24155,782;    4,459;    2,682
795,111;23589,291;    2,186;    1,318
795,678;23728,436;    0,731;   -1,682
796,244;23361,671;    3,368;    0,136
796,810;23884,453;    1,731;    0,773
797,375;23639,961;    0,549;   -2,136
797,941;23658,197;   -0,541;    0,591
798,507;23763,796;   -0,451;   -0,955
799,073;23324,759;   -0,360;    0,591
799,639;23368,359;   -2,632;    3,136
800,205;23386,322;    0,095;    2,682
800,770;22956,831;    0,640;    1,773
801,336;23065,521;    1,368;   -0,955
801,901;22785,302;    4,549;    3,136
802,467;23343,447;   -0,542;    2,045
803,033;22658,410;   -0,087;    0,864
803,598;22858,919;    1,913;   -1,045
804,163;22904,700;    1,095;   -0,318
804,729;22876,845;   -0,178;    1,136
805,294;23262,990;    0,822;    2,227
805,859;23063,589;    0,731;   -0,409
806,425;22522,916;    1,186;    2,682
806,990;22191,334;    2,186;    4,318
807,555;22674,751;   -1,451;    2,591
808,120;22593,623;    0,822;   -0,409
808,685;22645,859;    0,185;   -2,500
809,250;22103,913;    0,004;   -0,500
809,815;22419,240;    1,913;    0,682
810,380;22985,385;   -0,269;    1,591
810,945;23538,075;   -1,087;    2,045
811,510;22706,220;    2,094;    1,591
812,075;22400,820;   -0,633;   -1,409
812,640;22436,965;    2,003;    1,409
813,204;22473,928;    0,822;   -0,227
813,769;22945,436;    2,094;   -0,045
814,334;22399,490;    0,458;    0,864
814,898;22441,544;    0,367;    0,591
815,463;22271,962;    1,276;   -0,773
816,027;22231,561;   -0,724;   -2,318
816,592;22278,161;    0,640;   -2,045
817,156;21856,306;    2,094;    1,136
817,721;21784,360;    4,276;    2,318
818,285;21706,868;    2,912;    1,500
818,849;22333,104;   -1,451;    1,682
819,414;22233,340;   -0,269;    2,955
819,978;21788,394;   -1,269;    1,773
820,542;22370,175;    2,003;    0,500
821,106;22069,684;   -0,815;    0,682
821,670;22206,919;   -0,815;    2,591
822,234;21905,337;   -0,270;    1,409
822,798;21280,573;    0,003;    0,500
823,362;21279,900;   -0,633;    4,227
823,926;20626,590;    0,094;    1,136
824,490;20863,008;   -0,997;   -0,682
825,054;21272,516;   -0,088;   -1,136
825,618;20866,116;   -1,542;   -1,500
826,181;20813,897;    0,458;   -1,318
826,745;20766,314;    1,367;   -1,045
827,309;21108,732;    1,185;    1,318
827,872;20460,604;    1,367;    0,955
828,436;21466,476;    1,185;   -0,773
828,999;21497,258;   -0,997;    1,227
829,563;20344,130;   -0,179;    1,136
830,126;20139,548;   -0,179;   -0,591
830,690;20154,874;   -1,997;    2,864
831,253;19664,474;   -0,543;    2,227
831,816;19783,073;   -1,906;    0,500
832,380;19699,582;    0,185;    0,864
832,943;19949,636;   -1,361;   -0,500
833,506;19419,962;    2,639;   -1,227
834,069;20184,562;    3,912;   -0,955
834,632;20214,616;    1,730;    1,318
835,195;20181,034;    1,003;    0,955
835,758;19389,451;   -0,997;    1,955
836,321;19219,596;    0,730;   -1,045
836,884;19307,923;   -0,725;   -0,955
837,447;19304,977;   -2,816;    1,773
838,010;19627,122;    0,366;    3,227
838,573;19915,812;   -1,179;    0,773
839,135;19833,230;   -1,361;   -0,955
839,698;19313,375;    1,275;    0,409
840,261;18861,429;    1,003;   -0,227
840,823;18669,755;   -0,543;    0,864
841,386;18982,718;   -0,452;   -2,409
841,948;18873,954;   -1,361;    1,773
842,511;18620,736;    0,912;    1,682
843,073;18755,153;    1,912;    0,227
843,636;18514,662;   -0,361;   -0,227
844,198;18511,988;    0,911;    0,591
844,760;18630,679;    1,093;    1,955
845,322;18256,096;    0,548;    1,136
845,885;18726,423;    0,730;    0,591
846,447;19116,841;   -1,998;    0,227
847,009;18736,077;    1,911;   -0,682
847,571;19044,040;    0,820;   -2,045
848,133;19153,366;   -1,089;   -1,864
848,695;18960,511;   -0,543;    1,409
849,257;18485,747;   -1,089;   -1,682
849,819;18676,437;   -0,998;   -0,409
850,381;18721,219;   -0,725;   -0,864
850,942;19077,182;    1,093;   -0,591
851,504;19048,054;    1,184;    0,227
852,066;19093,653;    1,275;   -1,591
852,628;18598,162;   -0,180;    1,955
853,189;18155,943;    1,638;    2,682
853,751;18268,270;   -0,907;    1,409
854,312;18073,415;   -0,453;   -1,682
854,874;18593,560;   -2,089;   -0,773
855,435;19138,068;   -0,907;   -1,682
855,997;19284,395;   -1,816;   -0,136
856,558;18601,449;    0,366;    1,773
857,119;18680,958;    0,820;    2,864
857,681;18316,557;    0,002;    0,318
858,242;18370,157;    1,911;   -2,136
858,803;18824,301;    0,456;   -0,773
859,364;19412,083;    0,184;   -4,773
859,925;18682,955;   -2,453;   -0,955
860,486;18581,827;   -0,453;   -0,955
861,047;18307,427;   -0,544;   -1,227
861,608;18160,571;   -1,089;   -0,773
862,169;18237,716;    0,638;   -0,045
862,730;18015,407;    0,456;    1,409
863,291;18272,279;   -0,635;   -0,500
863,852;18673,151;   -0,635;    1,955
864,412;18107,023;   -0,271;   -0,864
864,973;16712,168;   -0,089;    0,500
865,534;16593,768;   -1,726;    0,227
866,094;18045,003;    1,820;    0,227
866,655;17717,694;    1,274;    3,318
867,215;17978,111;    0,274;    0,136
867,776;17809,893;    0,547;   -0,136
868,336;17921,038;   -1,453;    0,136
868,897;17453,728;    2,638;    1,682
869,457;17155,146;    1,365;    0,318
870,017;17374,745;    0,547;   -1,227
870,578;17924,526;   -0,817;    0,773
871,138;17642,308;   -2,089;   -0,955
871,698;17141,543;   -0,817;   -1,318
872,258;17067,779;   -0,453;   -2,864
872,818;17440,015;    2,729;    0,045
873,378;17384,524;    0,638;    1,045
873,938;16892,123;    0,547;    0,500
874,498;17237,813;    0,274;   -1,955
875,058;17130,049;    2,183;    1,773
875,618;17011,558;    1,910;   -2,682
876,177;16871,975;    1,274;    0,136
876,737;16509,666;   -0,090;    1,955
877,297;16562,902;    0,183;    1,955
877,856;16558,228;   -0,362;    0,318
878,416;16505,100;    1,183;   -0,136
878,976;16739,064;   -1,817;    0,409
879,535;16874,663;    0,092;    3,136
880,095;16618,172;   -0,544;    0,045
880,654;16749,135;   -1,090;    1,318
881,213;16864,825;    2,456;    1,500
881,773;16485,970;    2,637;    2,682
882,332;16853,569;    3,365;    5,136
882,891;16732,078;    3,092;    2,136
883,451;17193,405;   -1,272;    1,682
884,010;16592,186;   -2,908;   -0,409
884,569;16674,785;   -0,999;   -0,045
885,128;16829,658;    2,819;   -1,864
885,687;16954,984;    4,455;    0,682
886,246;16646,766;    1,455;    2,136
886,805;16428,183;    2,455;    2,045
887,364;16683,601;   -0,999;   -0,500
887,922;17025,473;   -1,181;    0,045
888,481;16529,800;   -1,545;    0,591
889,040;16862,581;    1,183;    2,136
889,599;17512,271;    2,455;    1,409
890,157;17595,416;    1,455;    2,409
890,716;17254,652;   -0,090;    0,227
891,274;17084,979;    0,092;   -1,136
891,833;17516,760;    1,546;    0,864
892,391;17358,996;   -0,454;    0,500
892,950;17416,413;    1,819;   -0,773
893,508;17789,286;    0,455;   -0,409
894,067;17134,976;    0,637;    0,136
894,625;17035,485;   -0,636;   -1,500
895,183;17260,266;   -0,363;   -0,682
895,741;17191,593;    1,728;   -1,773
896,299;17036,101;   -0,545;   -2,409
896,858;17190,337;    0,819;   -1,591
897,416;17291,118;    2,728;   -1,318
897,974;17017,990;    1,819;    0,318
898,532;17223,226;    6,091;    2,682
899,089;17121,098;    2,091;   -0,682
899,647;17167,516;   -1,454;    1,318
900,205;16890,297;    1,182;    1,045
900,763;17089,806;   -0,454;    0,227
901,321;17044,042;    2,364;   -1,409
901,878;16501,459;   -1,000;   -0,773
902,436;16385,513;   -1,363;    1,318
902,994;16815,749;    4,728;    3,682
903,551;16262,894;    0,728;    0,409
904,109;16630,130;    0,182;   -1,409
904,666;16199,366;    2,455;    1,045
905,224;16005,511;    0,182;   -0,409
905,781;15751,837;    0,727;   -0,318
906,338;15859,528;   -1,363;    1,045
906,895;15735,218;    0,637;    2,045
907,453;15678,817;    1,727;    1,136
908,010;15760,690;   -0,909;    0,409
908,567;15382,744;    1,273;    0,591
909,124;14857,343;    0,364;   -1,500
909,681;14944,397;   -2,909;    0,682
910,238;15056,087;    0,636;   -1,318
910,795;15384,960;   -0,273;   -1,136
911,352;15016,414;   -2,909;   -2,682
911,909;14448,869;   -1,364;   -0,864
912,466;14963,687;   -3,182;    1,500
913,022;14515,051;   -1,636;    0,500
913,579;14884,960;   -0,909;    2,045
914,136;14548,869;    1,636;    0,955
914,692;14885,232;    0,091;   -1,227
915,249;14490,778;    1,455;    0,409
915,806;14754,505;    0,182;    1,955
916,362;14489,778;    1,909;    1,864
916,918;14031,960;    2,000;    1,045
917,475;14018,414;   -1,182;    0,955
918,031;14097,051;    3,364;   -0,045
918,587;13545,414;   -0,909;   -0,318
919,144;13738,232;   -2,273;    0,227
919,700;14082,051;    1,727;    0,773
920,256;13626,051;    0,727;    0,045
920,812;13275,596;   -0,727;   -1,045
921,368;13277,687;   -1,727;   -1,045
921,924;12872,232;    0,182;   -0,136
922,480;12481,687;   -0,545;    1,227
923,036;13104,596;    1,273;    1,955
923,592;13049,960;    0,455;    0,318
924,148;12949,232;    0,455;   -0,955
924,704;12261,596;   -1,364;   -0,409
925,259;12496,141;   -0,273;    0,591
925,815;12273,869;    1,455;    0,500
926,371;11763,232;    2,909;    1,409
926,926;11683,323;    2,091;    0,591
927,482;11354,323;   -1,364;    0,773
928,037;11232,141;    0,909;    2,045
928,593;11512,778;    1,636;    1,045
929,148;11350,596;   -1,818;   -1,500
929,704;10810,232;   -1,455;   -0,500
930,259;11041,960;    0,091;   -0,136
930,814;10122,596;   -0,818;    1,955
931,369; 9802,141;    1,091;   -0,773
931,925; 9671,596;   -0,091;    0,136
932,480; 9570,778;   -2,818;   -2,591
933,035; 9485,869;    0,545;   -0,318
933,590; 9243,323;    0,364;   -1,773
934,145; 8842,141;   -1,364;   -0,318
934,700; 9196,596;    0,455;   -0,591
935,255; 9026,414;   -0,091;    0,045
935,809; 8320,141;    3,182;    0,864
936,364; 7427,141;   -0,455;   -0,136
936,919; 7411,323;    0,455;   -1,773
937,474; 7274,596;    1,455;    0,136
938,028; 7032,687;   -1,636;    1,136
938,583; 6544,778;    1,818;    4,682
939,138; 6792,414;    2,091;    2,136
939,692; 6230,414;    1,636;   -1,136
940,247; 5951,051;   -0,727;   -1,045
940,801; 5517,687;   -0,636;    0,227
941,355; 5402,778;   -0,364;    2,591
941,910; 5027,323;   -0,273;   -2,136
942,464; 5156,960;   -0,818;   -0,318
943,018; 4959,596;    1,000;   -0,227
943,572; 4892,414;    2,545;   -0,682
944,126; 4349,414;    0,091;   -0,409
944,681; 4229,232;    3,091;    0,227
945,235; 4211,778;    1,000;   -0,591
945,789; 4164,232;    0,364;   -1,864
946,342; 4267,414;    0,455;   -0,591
946,896; 4054,323;   -2,273;    0,955
947,450; 3823,323;    1,545;   -0,227
948,004; 4023,141;    1,727;   -0,045
948,558; 4010,778;    0,273;   -0,864
949,111; 3951,232;   -0,273;   -0,318
949,665; 3993,414;    1,636;   -0,682
950,219; 3850,687;   -0,091;   -1,045
950,772; 3927,960;   -1,909;    1,864
951,326; 3822,778;    0,545;   -0,955
951,879; 3940,232;    0,727;   -2,318
952,433; 3970,505;    0,000;    2,227
952,986; 3793,323;    2,909;    0,682
953,539; 3769,232;   -0,273;    0,591
954,093; 3695,778;    0,545;   -1,318
954,646; 3826,960;    0,909;    1,318
955,199; 3629,051;    0,000;   -0,500
955,752; 3520,141;   -0,455;    1,773
956,305; 3461,141;   -0,091;    2,955
956,858; 3644,869;    0,818;   -0,318
957,411; 3805,323;   -0,545;    2,136
957,964; 3646,232;    1,364;    2,136
958,517; 3646,141;   -1,545;    3,136
959,070; 3466,778;   -0,455;    1,955
959,623; 3565,687;    1,091;    1,500
960,176; 3316,323;    1,727;    2,045
960,728; 3283,141;   -2,727;    0,773
961,281; 3340,505;    0,545;    0,500
961,834; 3395,414;   -0,909;    0,864
962,386; 3293,869;    1,727;    1,045
962,939; 3222,232;    0,364;   -0,318
963,491; 3388,051;    0,455;    1,136
964,043; 3251,414;    1,182;    2,409
964,596; 3363,596;   -1,000;    2,227
965,148; 3216,051;   -1,000;    1,773
965,700; 3119,687;    1,091;   -0,227
966,253; 3269,687;   -0,636;    0,318
966,805; 3125,687;   -2,273;    0,773
967,357; 3167,141;    1,091;   -1,500
967,909; 3134,232;    0,455;   -1,227
968,461; 3231,596;    0,545;    3,136
969,013; 3161,869;   -0,182;   -0,864
969,565; 3240,414;   -0,455;   -1,136
970,117; 3313,051;   -0,364;    1,045
970,669; 3135,960;    0,182;   -0,136
971,220; 3000,414;   -0,455;   -1,500
971,772; 2928,232;   -0,636;   -0,318
972,324; 3050,687;    0,091;   -0,500
972,876; 3009,323;    0,818;   -0,045
973,427; 3151,141;    1,909;   -1,045
973,979; 3106,960;   -0,727;   -2,500
974,530; 3127,414;    1,818;    1,318
975,082; 3136,596;   -0,545;    1,682
975,633; 3039,869;    1,091;    1,682
976,184; 3183,051;    0,909;    0,773
976,736; 2976,141;    0,091;    0,227
977,287; 2789,414;   -0,909;   -0,500
977,838; 2970,141;    0,909;   -0,318
978,389; 3022,414;   -1,000;   -0,500
978,940; 2885,505;    0,545;   -0,409
979,491; 2917,323;    0,091;   -0,500
980,042; 2886,323;    0,182;    3,045
980,593; 2936,141;   -2,545;    0,227
981,144; 2963,778;    2,545;   -0,500
981,695; 2939,960;    1,455;    1,500
982,246; 2917,232;   -0,273;    1,045
982,797; 3057,232;   -1,727;    0,682
983,347; 3150,323;    0,364;    0,591
983,898; 3325,051;    3,091;    0,409
984,449; 3146,960;    2,182;    0,773
984,999; 3049,960;    1,455;   -1,136
985,550; 2817,960;    0,182;   -0,318
986,100; 2839,687;   -0,455;   -0,318
986,651; 2877,141;   -0,818;    0,045
987,201; 2857,869;   -1,000;   -0,591
987,751; 2959,687;    0,818;    2,864
988,302; 2946,051;    2,636;    1,500
988,852; 2957,505;    0,455;   -1,136
989,402; 3007,960;    0,091;    0,682
989,952; 2924,869;   -2,182;    0,864
990,502; 3035,141;   -0,091;    0,682
991,052; 3000,232;   -0,727;    0,045
991,602; 2878,141;   -2,909;    1,318
992,152; 2863,687;    0,455;    0,682
992,702; 2866,960;    1,364;   -0,045
993,252; 2781,505;   -3,000;   -0,500
993,802; 2857,778;   -0,273;    1,318
994,352; 3090,505;   -1,545;    1,136
994,901; 3178,687;   -0,182;    3,227
995,451; 3078,051;   -0,182;    0,318
996,000; 3176,960;    1,636;    0,318
996,550; 2880,323;    2,273;    0,227
997,100; 2877,960;    1,273;   -0,045
997,649; 3179,960;    2,182;    0,955
998,198; 2807,960;    1,727;   -1,500
998,748; 3013,596;    1,091;   -2,318
999,297; 2904,232;   -0,818;   -0,409
999,846; 2965,141;    1,000;   -0,773
1000,395; 3011,051;   -0,818;    0,500
1000,945; 2976,323;    1,818;   -0,773
1001,494; 3069,869;    2,364;    0,682
1002,043; 3045,505;    4,636;    0,864
1002,592; 2873,141;   -1,091;    1,955
1003,141; 3039,141;   -0,455;   -0,682
1003,690; 2896,505;    1,727;    0,500
1004,238; 2978,414;    1,455;   -0,045
1004,787; 2610,232;    1,364;    1,227
1005,336; 2860,687;    0,364;    0,682
1005,885; 3002,323;    1,364;   -2,773
1006,433; 3142,687;    0,545;    0,955
1006,982; 3190,232;    0,455;    1,682
1007,531; 3084,232;   -1,818;   -0,227
1008,079; 3019,141;   -2,273;    0,500
1008,627; 3179,414;   -1,455;    0,409
1009,176; 2915,141;    0,000;   -1,955
1009,724; 2959,596;    1,091;    0,864
1010,273; 3032,869;    1,273;    0,500
1010,821; 3139,687;    0,091;    1,409
1011,369; 2871,323;   -1,364;    1,318
1011,917; 2859,051;   -1,364;   -0,591
1012,465; 3137,505;    1,273;   -1,591
1013,013; 3242,051;    2,091;   -1,682
1013,561; 3128,141;    0,455;   -0,773
1014,109; 3167,323;   -1,909;    1,682
1014,657; 3036,141;    0,364;    0,591
1015,205; 3162,505;    1,636;   -0,955
1015,753; 3204,232;   -0,545;   -1,409
1016,301; 3243,323;   -2,636;    3,045
1016,848; 3222,414;   -1,273;    0,409
1017,396; 3258,960;    2,545;    0,045
1017,944; 3403,051;    1,182;    1,864
1018,491; 3164,778;    0,273;    1,409
1019,039; 3322,869;    0,455;    0,591
1019,586; 3219,596;   -1,364;    1,682
1020,134; 3322,323;    0,455;    1,500
1020,681; 3352,232;    0,182;   -1,136
1021,228; 3333,414;    2,909;   -2,227
1021,776; 3152,232;    1,182;   -1,136
1022,323; 3391,323;    0,455;    0,773
1022,870; 3330,596;   -1,000;   -0,045
1023,417; 3228,778;    2,636;    1,864
1023,964; 3355,505;    2,636;    1,227
1024,511; 3198,323;    1,000;    0,773
1025,058; 3018,414;    3,182;   -0,045
1025,605; 3059,323;   -2,273;    3,136
1026,152; 3280,869;    1,727;   -0,591
1026,699; 2999,869;    1,818;    1,318
1027,245; 3167,505;   -0,091;    0,318
1027,792; 3345,869;   -1,000;    1,409
1028,339; 3268,778;    2,364;   -0,045
1028,885; 3117,596;    1,000;   -0,227
1029,432; 3066,778;   -0,091;    0,227
1029,978; 3125,596;   -1,000;   -1,591
1030,525; 3023,141;    1,000;    0,409
1031,071; 3247,141;   -1,364;    1,136
1031,618; 3359,596;    0,364;    1,682
1032,164; 3148,778;   -0,091;    3,045
1032,710; 3186,232;    1,636;   -1,500
1033,256; 3087,960;   -0,636;   -0,136
1033,803; 3067,323;   -0,545;    1,500
1034,349; 2786,687;   -1,364;    0,136
1034,895; 2952,596;    0,000;   -0,318
1035,441; 2939,505;   -0,818;    0,318
1035,987; 2941,323;   -2,364;   -0,682
1036,533; 2932,596;   -1,455;   -0,955
1037,078; 3147,778;    1,455;    1,682
1037,624; 2961,414;    2,455;   -0,955
1038,170; 2982,778;    0,455;   -0,318
1038,716; 2907,687;    1,636;   -0,409
1039,261; 2813,141;   -2,273;   -0,773
1039,807; 2747,596;   -0,091;    3,409
1040,352; 2822,141;   -1,909;   -0,318
1040,898; 2849,687;   -1,545;   -0,682
1041,443; 2764,141;   -1,455;   -2,591
1041,989; 2808,960;    1,091;    1,591
1042,534; 2672,869;   -0,364;    2,591
1043,079; 2763,869;    2,909;    0,955
1043,625; 2590,869;    1,818;    0,500
1044,170; 2624,960;   -1,364;    1,045
1044,715; 2884,505;    2,455;    0,955
1045,260; 2707,778;    2,182;   -0,955
1045,805; 2736,051;    1,182;   -0,591
1046,350; 2657,414;    1,364;   -0,409
1046,895; 2641,869;    2,909;    1,591
1047,440; 2593,960;    5,364;    0,409
1047,985; 2474,960;    2,818;   -0,955
1048,530; 2401,687;    1,545;    1,227
1049,074; 2472,141;    0,000;    0,318
1049,619; 2436,232;   -1,364;    1,955
1050,164; 2247,414;    0,455;    0,227
1050,708; 2282,323;   -0,455;    0,045
1051,253; 2666,141;    1,273;   -2,227
1051,797; 2368,960;    0,818;   -1,318
1052,342; 2371,141;   -1,182;    1,045
1052,886; 2387,323;    0,364;   -1,409
1053,430; 2251,869;   -1,364;    0,136
1053,975; 2265,323;   -0,818;   -0,318
1054,519; 2248,778;   -0,727;    3,227
1055,063; 2277,051;    0,909;    1,318
1055,607; 2150,051;   -0,182;    0,227
1056,151; 2178,505;    2,909;    1,682
1056,695; 2091,960;    2,273;   -1,136
1057,239; 2165,869;   -1,727;   -0,682
1057,783; 2185,505;    0,818;   -1,500
1058,327; 2126,141;    0,000;    1,409
1058,871; 2339,596;   -0,545;    1,318
1059,415; 2060,323;   -0,818;   -0,045
1059,958; 2331,232;    1,455;    2,591
1060,502; 2044,232;   -1,000;   -0,773
1061,046; 1940,505;    0,364;   -0,955
1061,589; 1912,232;   -3,000;   -1,136
1062,133; 1807,869;   -1,273;    1,864
1062,676; 1742,960;    1,182;    0,864
1063,220; 1751,232;    1,091;    0,500
1063,763; 1782,414;    0,909;    1,136
1064,306; 1869,232;   -0,909;    1,864
1064,849; 1764,505;   -0,909;    0,591
1065,393; 1757,960;    2,000;   -1,500
1065,936; 1862,869;    0,182;   -0,409
1066,479; 1746,232;   -1,455;    1,318
1067,022; 1769,323;   -0,273;   -0,227
1067,565; 1659,869;   -0,091;   -1,318
1068,108; 1689,960;    0,727;   -0,591
1068,651; 1666,141;   -0,636;    1,409
1069,194; 1603,505;   -0,455;   -1,682
1069,736; 1591,323;   -1,273;    0,955
1070,279; 1567,596;   -1,364;   -0,500
1070,822; 1635,414;   -2,000;   -0,318
1071,364; 1743,141;   -0,364;    1,318
1071,907; 1548,960;   -0,727;    3,227
1072,450; 1437,778;    0,000;   -0,045
1072,992; 1425,323;   -0,273;    3,136
1073,535; 1594,051;    2,091;    2,136
1074,077; 1380,232;   -0,727;    2,045
1074,619; 1354,960;   -1,364;    0,591
1075,161; 1394,505;   -1,091;    1,500
1075,704; 1568,869;    1,545;    1,227
1076,246; 1344,414;   -0,182;    0,682
1076,788; 1276,051;   -0,364;    1,773
1077,330; 1344,323;    1,273;    2,136
1077,872; 1314,505;    0,909;    0,955
1078,414; 1547,232;    2,727;    0,773
1078,956; 1285,960;    1,273;   -0,227
1079,498; 1557,232;    1,636;    0,318
1080,040; 1258,960;    1,909;   -1,318
1080,581; 1201,869;    1,636;   -0,318
1081,123; 1116,232;    0,091;   -0,773
1081,665; 1167,869;   -1,182;   -0,955
1082,206; 1482,505;    1,364;   -0,500
1082,748; 1331,596;    0,727;    2,045
1083,289; 1202,051;   -2,000;    1,318
1083,831; 1108,141;   -0,545;    0,227
1084,372; 1154,960;    0,000;    0,591
1084,913; 1156,323;    1,091;    0,864
1085,455; 1112,051;   -1,909;   -2,045
1085,996; 1084,960;   -2,273;    0,136
1086,537; 1118,232;   -0,091;    0,864
1087,078; 1143,141;   -0,909;   -2,136
1087,619; 1182,778;   -1,273;    0,227
1088,160; 1099,596;    0,000;    1,318
1088,701; 1083,051;   -1,091;    0,682
1089,242; 1022,414;    1,364;   -2,227
1089,783; 1116,778;   -0,273;    1,409
1090,324; 1076,505;    0,455;    0,682
1090,865;  957,232;    2,727;   -0,409
1091,405;  935,960;    0,727;    2,227
1091,946;  956,141;    0,182;   -0,955
1092,487;  873,960;    0,818;   -1,409
1093,027; 1062,414;   -1,364;   -1,500
1093,568;  916,778;   -0,364;    1,227
1094,108; 1011,505;    0,273;    1,773
1094,649;  953,505;   -1,182;    0,136
1095,189;  877,141;   -0,636;   -0,682
1095,729;  843,414;   -0,091;    0,955
1096,269;  831,960;    0,727;   -0,955
1096,810; 1163,687;   -1,364;    0,500
1097,350;  992,869;    1,364;   -0,773
1097,890;  888,505;    0,364;    1,227
1098,430; 1158,869;    2,364;    2,864
1098,970; 1027,141;    2,182;    1,682
1099,510;  863,960;    0,545;   -2,318
1100,050;  802,323;    1,000;   -1,591
1100,589;  766,414;   -0,727;   -0,318
1101,129;  900,232;    0,818;   -0,955
1101,669; 1072,141;    1,727;    2,136
1102,209;  873,232;   -0,091;    2,227
1102,748;  825,323;    0,000;    0,955
1103,288;  815,141;    1,273;   -1,227
1103,827;  845,505;    3,091;   -2,227
1104,367;  725,141;   -0,091;   -2,409
1104,906;  690,687;    1,364;   -1,136
1105,445;  754,778;    0,636;   -1,136
1105,985;  705,687;   -0,727;    1,500
1106,524;  755,778;   -1,727;   -0,682
1107,063;  723,232;   -2,727;    1,409
1107,602;  697,141;   -1,909;   -1,500
1108,141;  613,323;   -1,909;    1,500
1108,680;  726,687;   -3,455;   -0,591
1109,219;  654,505;   -0,909;   -0,500
1109,758;  653,051;    0,455;    0,682
1110,297;  640,141;    1,000;   -0,682
1110,836;  576,141;   -0,727;    0,955
1111,375;  747,960;   -2,545;    0,409
1111,913;  770,232;   -1,000;    0,773
1112,452;  694,960;   -0,273;    0,136
1112,991;  568,323;    1,091;    1,955
1113,529;  539,505;   -0,818;   -0,045
1114,068;  608,869;   -0,273;    2,955
1114,606;  500,323;   -0,364;   -0,955
1115,144;  663,596;   -1,273;    1,045
1115,683;  604,323;   -0,727;    0,318
1116,221;  654,414;   -0,455;   -0,864
1116,759;  567,051;    0,636;   -0,864
1117,297;  787,869;    0,000;    1,864
1117,836;  576,778;   -2,182;   -1,227
1118,374;  588,687;    0,182;   -0,682
1118,912;  517,051;    0,909;    2,682
1119,450;  509,051;    1,000;    0,864
1119,988;  561,505;    1,545;    2,136
1120,525; 1024,051;    5,091;    3,318
1121,063;  725,141;    1,182;    1,864
1121,601;  535,141;   -0,909;   -1,227
1122,139;  479,869;   -0,727;   -2,045
1122,676;  687,505;   -0,727;    2,773
1123,214;  607,051;   -1,182;    4,409
1123,751;  409,051;    1,727;    2,227
1124,289;  559,687;   -0,091;   -0,409
1124,826;  425,596;    1,727;    0,227
1125,364;  342,869;    1,727;   -0,955
1125,901;  533,323;    1,182;    1,227
1126,438;  648,778;    0,818;    0,955
1126,975;  364,323;   -0,727;   -0,773
1127,513;  439,323;    0,273;    2,136
1128,050;  343,414;    1,636;   -0,682
1128,587;  449,414;    2,000;   -0,227
1129,124;  510,414;    0,091;    1,318
1129,661;  365,232;    0,273;    0,227
1130,198;  534,414;    1,636;    0,773
1130,734;  476,960;    0,182;    1,409
1131,271;  322,505;   -0,909;    0,864
1131,808;  502,869;    2,909;    3,045
1132,345;  368,596;    1,545;    0,318
1132,881;  233,141;   -1,545;   -1,864
1133,418;  391,232;    0,727;   -1,136
1133,954;  321,323;    2,455;   -2,682
1134,491;  398,141;    1,364;   -0,773
1135,027;  290,960;    2,364;    0,864
1135,564;  392,778;    0,273;    2,955
1136,100;  368,232;    0,364;    2,136
1136,636;  257,960;   -1,273;   -1,045
1137,172;  355,960;    0,000;   -1,045
1137,708;  280,596;   -1,364;   -1,045
1138,245;  281,960;    1,273;   -1,227
1138,781;  229,869;    1,091;   -3,318
1139,317;  305,960;    1,273;   -1,409
1139,852;  290,778;    3,091;    0,136
1140,388;  413,869;   -1,182;   -0,409
1140,924;  298,323;   -1,091;   -2,227
1141,460;  223,141;   -1,636;    0,136
1141,996;  161,960;   -1,364;    2,682
1142,531;  210,505;    1,364;    3,318
1143,067;  439,505;    1,182;    1,045
1143,602;  494,596;   -0,091;   -0,318
1144,138;  336,051;   -2,636;    1,045
1144,673;  194,596;   -1,455;    1,409
1145,209;  269,778;   -1,909;   -0,318
1145,744;  182,051;   -0,727;    0,864
1146,279;  322,323;    1,818;   -0,136
1146,815;  236,960;    1,545;   -2,682
1147,350;  276,778;   -1,364;    0,045
1147,885;  192,596;   -0,818;   -1,318
1148,420;  193,505;   -2,273;    0,773
1148,955;  162,414;   -1,727;    1,864
1149,490;  192,687;   -0,909;   -1,591
1150,025;  185,505;    0,455;   -1,773
1150,560;  298,141;    1,091;   -0,955
1151,094;  258,869;    1,455;   -0,591
1151,629;  263,869;    1,636;    0,864
1152,164;  191,141;    1,364;    1,318
1152,698;  142,505;   -0,182;   -0,136
1153,233;  105,414;    0,091;   -0,682
1153,767;  154,323;   -3,000;   -2,318
1154,302;  204,687;   -1,455;    1,773
1154,836;  202,778;   -0,455;   -2,136
1155,371;  248,869;   -1,364;    3,682
1155,905;  210,869;   -0,636;    1,682
1156,439;  185,051;   -0,636;   -0,500
1156,973;  207,869;    0,364;    0,318
1157,507;  143,869;   -0,364;    0,682
1158,042;  170,141;   -0,727;    1,045
1158,576;  225,869;    0,182;    1,773
1159,110;  212,778;   -0,818;    2,409
1159,643;  196,051;    0,636;   -0,045
1160,177;  118,778;   -1,545;    1,500

