
Integration time [ms]:   0,040
Averaging Nr. [scans]: 11
Smoothing Nr. [pixels]: 0
Data measured with spectrometer [name]: 7318044SP
Wave   ;Sample   ;Dark     ;Reference
[nm]   ;[counts] ;[counts] ;[counts] 

186,757;   32,790;   31,551;    1,318
187,357;   70,881;   22,551;    0,955
187,958;   41,049;   15,460;   -1,591
188,558;   88,145;    8,915;   -1,227
189,159;   55,440;    6,733;   -4,500
189,759;   18,131;    7,278;   -3,591
190,360;   16,086;    2,824;   -2,136
190,960;   63,155;    2,915;   -4,136
191,560;   87,470;    3,189;   -6,591
192,161;  352,577;    4,372;   -3,500
192,761;  178,979;    4,010;   -3,227
193,361;  121,106;    1,556;   -3,773
193,962;  171,637;    2,010;   -2,682
194,562;   90,466;    1,189;   -3,955
195,162;  137,041;   -2,448;   -2,227
195,762;  311,977;   -3,176;   -0,045
196,362;  253,941;    1,370;   -2,500
196,963;  101,050;    2,006;   -0,864
197,563;  184,967;    1,551;   -0,955
198,163;  120,521;    0,096;   -0,682
198,763;  149,476;    1,733;   -0,500
199,363;  263,367;    3,096;   -0,500
199,963;  221,421;    0,369;    0,409
200,563;  192,148;    2,823;   -1,409
201,163;  168,434;    3,277;   -0,227
201,763;  274,866;    3,732;    0,318
202,363;  198,784;    1,459;    1,500
202,963;  314,375;    1,459;    1,045
203,563;  432,266;    0,277;    0,500
204,162;  267,284;    2,096;   -1,864
204,762;  255,297;    0,550;    0,591
205,362;  214,370;    3,004;    1,955
205,962;  329,884;    3,096;    1,955
206,562;  322,089;    1,823;    2,318
207,161;  290,497;   -0,087;    0,318
207,761;  451,939;    1,277;    2,409
208,361;  331,293;   -0,268;    1,409
208,960;  436,948;    0,459;    1,500
209,560;  510,129;    1,277;    1,591
210,160;  493,520;    0,550;    1,864
210,759;  454,779;    4,186;    1,227
211,359;  472,834;    1,459;    1,045
211,958;  747,988;    1,277;    2,045
212,558;  831,325;    1,732;    1,864
213,157;  660,929;    1,822;    1,500
213,757; 1131,043;    3,822;   -0,227
214,356;  811,275;    1,277;   -0,409
214,956; 1167,929;    3,095;    0,409
215,555;  765,156;    2,095;    2,136
216,154;  707,188;   -2,723;   -0,591
216,754;  721,361;    0,277;    0,773
217,353;  869,597;   -0,268;   -1,045
217,952;  707,038;   -0,178;    0,318
218,552;  956,497;    1,368;   -0,773
219,151;  849,856;    0,277;    0,955
219,750;  851,915;    0,004;   -0,227
220,349; 1014,306;   -0,451;    1,045
220,948; 1072,097;   -1,360;    1,136
221,548; 1090,742;    0,913;    1,227
222,147; 1220,751;   -0,087;   -0,409
222,746; 1515,810;   -0,451;   -0,955
223,345; 1397,378;    0,731;    0,500
223,944; 1406,351;   -0,451;    0,773
224,543; 1607,838;    1,004;   -1,409
225,142; 1712,346;    0,094;    0,136
225,741; 1613,351;   -0,814;    1,045
226,340; 1648,224;   -0,451;   -0,955
226,939; 2129,379;   -0,996;   -0,136
227,538; 2120,369;   -0,360;   -0,773
228,137; 2271,129;   -0,814;    0,864
228,735; 2464,852;   -0,541;    1,227
229,334; 2198,661;   -0,905;   -0,227
229,933; 2563,552;    0,459;    0,591
230,532; 2683,315;    1,186;   -0,409
231,131; 2749,765;    1,732;    0,318
231,729; 2913,529;   -2,450;   -2,318
232,328; 3078,574;   -0,723;   -1,500
232,927; 3170,888;    1,004;   -0,500
233,525; 3313,201;    3,640;    0,045
234,124; 3546,647;    2,368;   -1,591
234,723; 3550,229;    0,913;   -1,045
235,321; 3717,906;    2,277;    0,136
235,920; 3991,352;    1,186;   -1,227
236,518; 4272,847;    3,459;    0,318
237,117; 4460,079;    0,004;   -0,227
237,715; 4659,633;    0,640;   -0,500
238,314; 4689,238;   -0,087;   -2,318
238,912; 4789,088;   -0,723;   -1,409
239,510; 4833,161;    0,459;   -1,227
240,109; 5014,338;    0,004;    3,773
240,707; 5063,875;   -0,996;    1,227
241,305; 5454,666;    0,550;    0,136
241,904; 5701,847;   -0,178;   -2,045
242,502; 5668,043;   -0,632;   -0,227
243,100; 5574,079;   -0,087;   -0,955
243,698; 5831,634;    0,732;    1,682
244,297; 6066,574;   -0,632;    0,682
244,895; 5872,261;   -0,269;   -2,318
245,493; 6216,456;    2,186;   -0,591
246,091; 6245,406;    1,368;   -1,318
246,689; 6249,401;    1,004;    0,591
247,287; 6402,183;    0,822;   -1,136
247,885; 6711,365;   -1,451;    1,227
248,483; 6820,420;    1,822;   -0,500
249,081; 6942,965;    0,185;    1,591
249,679; 7097,797;   -0,178;    1,682
250,277; 7368,879;   -1,723;    0,864
250,875; 7358,447;   -1,087;   -1,045
251,473; 7369,933;   -1,178;    0,500
252,071; 7611,420;    1,459;    1,045
252,669; 7768,806;   -1,814;    0,318
253,267; 8033,687;   -0,087;    0,773
253,864; 7998,729;   -0,360;    0,682
254,462; 7847,079;    1,640;    1,591
255,060; 7795,965;   -0,269;    1,318
255,658; 8134,806;    0,822;   -0,136
256,255; 8581,815;    0,186;   -2,045
256,853; 8443,183;   -0,269;    1,409
257,451; 8436,447;    0,822;    1,864
258,048; 8726,788;    1,822;    1,864
258,646; 8463,710;    1,731;   -1,045
259,243; 8669,365;   -0,087;    2,227
259,841; 8748,142;   -0,814;    0,318
260,438; 8572,429;   -0,087;    0,864
261,036; 9332,611;   -1,905;    1,409
261,633; 9223,451;   -0,087;    2,227
262,231; 8952,824;    2,731;   -0,045
262,828; 9026,579;   -0,905;    1,136
263,425; 9086,688;    0,913;   -0,591
264,023; 9397,510;    0,186;    0,045
264,620; 8930,792;   -0,360;   -0,318
265,217; 9280,992;   -2,087;    3,136
265,815; 9388,865;   -1,905;    2,136
266,412; 9163,456;    0,731;    0,136
267,009; 9248,533;   -1,451;    0,773
267,606; 9115,165;    0,822;   -0,955
268,203; 9084,388;   -0,269;   -0,591
268,801; 9379,197;    1,731;    0,591
269,398; 9670,319;   -0,360;    2,500
269,995; 9657,579;    0,277;    1,591
270,592; 9453,511;   -0,632;   -0,500
271,189; 9613,351;    0,186;    0,409
271,786; 9745,633;   -0,632;    1,227
272,383; 9565,620;   -1,087;    0,227
272,980; 9763,056;    0,277;    0,318
273,577;10271,547;    0,004;    1,227
274,174; 9816,415;    0,822;    2,591
274,771; 9811,624;   -0,814;   -0,773
275,367; 9996,270;    2,277;    1,409
275,964; 9945,752;    0,731;   -0,500
276,561;10024,820;    1,549;   -1,045
277,158;10251,069;    0,095;   -1,773
277,755;10395,146;    2,185;    0,409
278,351; 9796,615;   -0,451;   -1,500
278,948;10119,565;   -0,815;    0,045
279,545;10123,451;   -1,360;    2,318
280,141;10749,520;   -1,723;   -2,045
280,738;10642,706;   -0,451;   -0,136
281,334;10873,410;   -1,633;    0,591
281,931;10303,801;   -0,087;   -1,318
282,528;10343,901;    0,822;   -0,500
283,124;11067,988;   -1,087;   -0,500
283,721;10991,055;   -0,451;    1,409
284,317;10797,142;    0,185;    2,500
284,913;11325,487;   -1,360;    0,591
285,510;11526,851;    0,640;   -0,318
286,106;11567,396;   -2,269;   -0,955
286,703;11145,610;   -0,360;    1,955
287,299;11341,142;   -1,451;   -0,591
287,895;11560,460;    0,822;   -1,045
288,491;12127,592;    0,186;    2,136
289,088;11868,147;   -2,360;    2,409
289,684;11949,442;   -1,723;    1,500
290,280;11947,142;    0,368;    0,682
290,876;12033,029;    1,822;    5,500
291,472;11897,374;    1,276;    2,227
292,068;12017,587;    1,367;    0,227
292,665;11708,688;    2,095;    0,773
293,261;11330,178;    0,276;    2,136
293,857;11767,588;    2,913;    2,136
294,453;11646,456;    3,550;    0,955
295,049;11503,907;   -0,268;    1,955
295,644;11568,547;    0,095;    0,136
296,240;11455,348;   -0,905;   -0,136
296,836;11521,430;   -0,995;    0,318
297,432;11764,471;    1,096;   -0,500
298,028;11838,444;    0,732;    0,773
298,624;12252,716;    1,459;    1,864
299,220;12469,371;    2,368;    0,591
299,815;12124,580;    1,005;   -0,409
300,411;11925,089;    0,914;    1,773
301,007;11996,703;    1,368;    0,227
301,602;12055,316;   -0,541;   -2,318
302,198;12226,021;    0,732;   -0,773
302,794;12568,689;    1,187;   -0,500
303,389;12679,248;   -1,177;    1,045
303,985;12711,321;    0,550;    1,409
304,580;12691,139;    1,459;    1,591
305,176;12665,330;   -3,086;    0,136
305,771;12602,039;   -1,268;   -1,227
306,367;12465,129;    4,095;    0,136
306,962;12753,316;    0,641;    1,500
307,558;12472,525;   -0,450;    0,136
308,153;12427,970;    1,095;   -1,136
308,748;12654,366;   -0,814;    1,682
309,344;12611,525;   -0,632;   -1,318
309,939;12732,425;   -1,905;   -1,318
310,534;12998,293;   -0,086;   -1,682
311,130;12938,525;    0,459;   -2,500
311,725;12646,743;    1,004;   -0,500
312,320;13004,384;    2,459;    0,045
312,915;12839,843;    1,459;   -1,045
313,510;12931,961;    1,550;   -0,500
314,105;13401,084;    1,096;    1,409
314,700;12787,484;   -3,086;   -1,045
315,295;12410,684;   -0,904;    0,045
315,890;11985,307;    1,277;    0,864
316,485;12370,207;   -0,359;   -0,318
317,080;12439,325;   -3,086;    1,591
317,675;13047,389;    2,005;   -0,682
318,270;12507,589;    5,550;    3,318
318,865;12469,039;    3,278;    3,045
319,460;12295,648;   -0,904;    0,591
320,055;12534,785;   -0,541;   -1,227
320,650;12195,639;   -1,995;   -0,591
321,244;12225,716;   -0,177;   -1,409
321,839;13193,225;   -1,541;   -0,227
322,434;13065,293;   -1,086;   -1,591
323,029;12743,462;    1,732;    1,591
323,623;12533,911;    1,550;    0,773
324,218;12306,521;    2,368;    1,409
324,812;12214,966;    1,096;    1,591
325,407;12018,102;   -0,814;    2,045
326,002;11903,352;    0,277;   -0,409
326,596;12172,380;    0,914;    1,318
327,191;12372,512;    0,823;   -1,045
327,785;11950,653;   -0,813;   -0,227
328,379;12178,816;    1,368;    0,136
328,974;11974,302;    0,914;   -3,955
329,568;12159,912;    0,186;   -2,409
330,163;11979,866;    2,096;    1,045
330,757;12352,734;    2,459;    1,591
331,351;11679,352;    0,459;    0,682
331,945;11969,048;    0,914;    1,409
332,540;11560,993;   -1,723;   -0,591
333,134;11722,984;   -1,086;    0,773
333,728;11988,143;    0,005;    0,318
334,322;12321,293;   -1,177;   -0,864
334,916;11594,002;    0,277;    0,955
335,510;11951,466;   -0,450;   -0,136
336,105;12176,784;   -1,086;    1,591
336,699;11867,552;   -1,086;    0,591
337,293;11786,507;   -1,723;    0,318
337,887;11957,143;   -2,723;    1,955
338,481;12046,930;    0,459;    0,591
339,074;12188,543;   -0,359;    2,682
339,668;12015,307;   -1,632;    1,227
340,262;12268,566;    1,732;    3,227
340,856;11781,106;    1,822;   -0,682
341,450;11109,297;    1,004;    1,864
342,044;12051,234;    1,459;    0,136
342,637;11809,884;    0,913;   -2,136
343,231;11677,238;   -2,360;    0,682
343,825;11634,911;   -1,086;   -0,591
344,419;11592,802;   -1,995;    0,500
345,012;11357,066;    2,459;    4,045
345,606;11397,098;    4,641;    1,591
346,199;11208,344;   -1,813;   -0,227
346,793;10718,471;    1,914;    2,045
347,386;10865,748;   -0,813;   -1,136
347,980;10910,448;   -0,268;   -0,045
348,573;10697,980;    2,278;    0,409
349,167;10359,049;    5,278;    4,773
349,760;10698,817;    2,914;    2,682
350,354;10698,181;   -0,813;    1,136
350,947;10456,399;    1,096;    1,682
351,540;10083,604;   -0,358;   -1,409
352,134;10034,031;    1,096;    1,136
352,727;10116,426;   -0,086;    1,136
353,320; 9899,176;    0,005;    0,591
353,913; 9761,144;   -1,995;    1,864
354,507; 9958,349;    0,823;   -1,227
355,100; 9919,776;    0,460;    0,864
355,693; 9197,154;    2,005;    2,409
356,286; 9218,390;    0,823;    2,773
356,879; 9580,190;   -0,722;    1,227
357,472; 9163,781;   -0,904;    1,500
358,065; 9385,949;   -0,722;    2,500
358,658; 9297,822;   -0,540;    2,318
359,251; 8930,376;   -1,631;   -0,591
359,844; 8410,572;   -1,904;   -1,136
360,437; 8583,935;   -2,995;    0,045
361,030; 8839,708;    1,369;   -0,682
361,623; 8423,890;    2,824;    0,318
362,215; 8495,967;   -0,086;    2,045
362,808; 8311,267;   -2,358;   -1,682
363,401; 8515,640;   -2,449;    0,136
363,994; 8249,022;   -0,631;   -1,500
364,586; 8156,468;    0,824;   -1,500
365,179; 8396,873;   -0,449;   -1,136
365,772; 7855,604;   -1,995;    2,045
366,364; 8163,586;    1,915;   -3,227
366,957; 8376,196;    2,279;   -0,045
367,549; 8392,809;    2,188;   -0,864
368,142; 8034,878;    1,825;   -1,500
368,734; 8244,319;    0,734;   -2,136
369,327; 8168,779;    1,643;   -0,500
369,919; 8086,325;   -1,538;    0,409
370,512; 7886,684;   -1,083;   -0,500
371,104; 7661,081;   -0,901;    1,591
371,696; 7816,923;    1,191;   -0,955
372,289; 7941,696;    0,373;    1,136
372,881; 8100,698;   -2,080;    1,318
373,473; 8002,821;   -2,170;    1,136
374,066; 7826,123;   -0,169;    0,500
374,658; 7646,271;    0,378;    1,136
375,250; 8028,924;    0,653;   -1,409
375,842; 7861,809;    0,473;   -0,045
376,434; 7736,625;   -0,435;   -0,409
377,026; 8304,873;    0,204;   -2,500
377,618; 8220,658;   -0,158;   -0,682
378,210; 8053,574;   -0,338;   -1,955
378,802; 7879,912;    0,754;   -0,591
379,394; 7866,441;    1,846;    0,682
379,986; 8462,056;    1,393;   -0,955
380,578; 8566,443;   -0,153;    0,773
381,170; 7906,641;   -0,972;    0,045
381,762; 7875,681;    0,755;    1,409
382,354; 8061,779;   -0,065;   -1,318
382,945; 8165,649;   -2,976;    0,318
383,537; 8320,306;   -2,705;   -1,955
384,129; 8308,495;   -2,160;   -1,136
384,721; 8515,358;   -0,252;    0,955
385,312; 8446,021;   -0,161;   -0,955
385,904; 8533,217;   -2,706;    1,591
386,496; 7908,881;   -0,979;    1,045
387,087; 8045,241;    1,022;    2,500
387,679; 8105,200;   -1,160;    0,045
388,270; 8230,460;    2,840;    2,045
388,862; 8357,473;    1,295;   -0,318
389,453; 8257,519;   -0,887;    1,045
390,045; 8531,850;   -0,705;   -2,682
390,636; 8453,333;    0,204;   -0,591
391,227; 8320,123;   -0,523;   -0,045
391,819; 8406,291;    0,204;    0,773
392,410; 8499,186;    1,022;    0,045
393,001; 8435,358;   -0,979;   -1,591
393,593; 8735,185;    1,930;   -0,045
394,184; 8573,913;    1,385;   -0,409
394,775; 8515,767;    1,839;    2,136
395,366; 8701,572;    1,385;    0,773
395,957; 8731,227;    0,113;    0,136
396,548; 9028,254;   -0,342;    2,682
397,139; 9328,436;   -2,433;    0,591
397,730; 9066,713;   -1,888;    0,955
398,321; 9098,822;   -1,252;    0,955
398,912; 9126,072;   -0,615;    0,136
399,503; 9187,549;   -3,524;   -1,409
400,094; 8629,290;    0,294;    1,682
400,685; 8465,290;   -0,433;    0,045
401,276; 8595,163;    0,930;   -0,955
401,867; 8929,522;   -0,888;    0,773
402,458; 9011,577;   -2,251;   -2,318
403,048; 8970,190;    1,112;    0,591
403,639; 8580,868;    0,840;    0,864
404,230; 8821,322;    2,476;    0,318
404,821; 8735,367;   -0,615;    0,045
405,411; 8874,844;    1,203;   -2,591
406,002; 8473,049;   -1,252;   -1,136
406,592; 8312,799;    2,294;    0,045
407,183; 8607,071;    0,566;   -1,500
407,774; 8527,799;    3,475;   -0,136
408,364; 8882,817;    0,930;    0,409
408,954; 8490,108;    0,384;    1,227
409,545; 8546,639;    1,021;    1,045
410,135; 8081,857;    1,293;    0,500
410,726; 8232,207;    1,838;    0,318
411,316; 8637,648;    0,111;    0,773
411,906; 8271,234;   -0,253;   -0,409
412,497; 7761,280;   -1,070;   -0,045
413,087; 8388,353;   -1,980;   -0,227
413,677; 8798,966;   -0,707;    3,864
414,267; 8618,007;    0,656;    1,409
414,857; 8643,761;   -2,980;    4,227
415,448; 8914,953;    0,839;    0,500
416,038; 8591,189;    0,020;   -0,591
416,628; 8592,407;   -0,889;    0,409
417,218; 8050,438;    0,565;    3,318
417,808; 8324,102;    0,202;   -0,409
418,398; 8807,866;    0,020;    2,682
418,988; 8818,766;    2,020;    0,591
419,578; 9109,688;   -0,707;    1,409
420,168; 9420,789;   -1,343;   -0,955
420,757; 9009,348;   -1,343;   -1,500
421,347; 8651,320;    0,111;   -0,227
421,937; 8846,883;    2,292;    1,409
422,527; 8790,761;    0,838;   -0,773
423,116; 8613,438;   -0,253;   -0,045
423,706; 8968,556;   -1,889;    0,318
424,296; 8927,093;    1,384;    0,682
424,885; 9386,547;   -0,071;   -3,045
425,475; 9690,706;    1,474;   -2,864
426,065; 9567,820;   -0,980;   -0,318
426,654; 9179,797;   -0,435;   -0,318
427,244; 9331,665;    0,020;    1,409
427,833; 8763,270;    1,383;   -0,500
428,423; 9270,624;   -0,526;    1,136
429,012;10067,837;   -0,344;   -1,136
429,601; 9517,478;   -1,344;    0,136
430,191; 9774,119;    1,292;    4,318
430,780; 9415,783;   -0,344;   -0,409
431,369; 9349,119;    0,746;   -0,045
431,959; 9978,264;   -1,254;    0,500
432,548; 9750,401;   -1,163;   -0,045
433,137; 9861,092;   -1,254;   -1,318
433,726;10436,233;    0,292;    0,500
434,315; 9754,696;   -0,526;    2,409
434,905; 9832,818;   -1,254;    1,409
435,494; 9737,214;    0,746;    0,955
436,083;10214,678;   -0,981;   -0,955
436,672;10083,732;    0,110;    0,500
437,261; 9632,255;    0,292;   -1,955
437,850; 9816,814;    1,383;    0,682
438,439; 9809,950;    3,291;    1,955
439,027; 9645,077;    3,655;    1,773
439,616; 9994,381;    2,927;    1,227
440,205; 9880,536;    0,200;   -2,136
440,794; 9963,950;    2,109;   -0,045
441,383;10225,758;   -1,346;   -0,591
441,971;10048,922;   -2,436;    0,591
442,560; 9934,972;    0,563;   -1,773
443,149; 9682,737;    0,379;   -1,318
443,737; 9821,075;   -0,074;   -2,318
444,326;10096,440;    0,018;    0,318
444,915;10140,176;   -1,982;    0,864
445,503;10577,945;   -2,891;   -0,318
446,092; 9794,345;    0,382;    2,136
446,680;10363,140;    0,382;    0,318
447,269;10534,967;   -0,346;   -0,318
447,857;10308,149;    0,018;   -1,773
448,445;10394,939;    0,563;    1,318
449,034;10637,308;   -1,528;   -1,136
449,622;10777,403;   -1,073;    3,500
450,210; 9974,689;    2,017;    2,227
450,799;10539,357;    0,290;   -0,591
451,387;10506,971;    1,381;   -0,591
451,975;10139,466;    2,654;    0,864
452,563;10218,989;    3,472;    2,318
453,151;10249,575;   -0,528;   -1,227
453,739;10193,820;   -1,347;    0,136
454,328;10054,911;    2,381;   -2,136
454,916; 9767,016;    2,562;   -0,136
455,504; 9932,707;    1,017;    1,227
456,092;10084,952;    0,017;   -1,591
456,679;10074,570;    1,472;    0,682
457,267;10029,116;    4,017;    1,045
457,855;10184,775;    1,017;    1,409
458,443; 9925,702;   -0,165;    1,682
459,031;10092,543;    0,108;    2,409
459,619;10578,906;   -1,801;    2,864
460,206;10716,797;    0,835;    2,045
460,794;10787,893;   -2,983;   -0,227
461,382;11040,060;   -0,529;   -0,864
461,970;10627,360;    1,198;    1,864
462,557;10641,019;   -0,711;   -0,682
463,145;10833,211;   -3,165;   -1,682
463,732;10994,628;    2,016;   -1,045
464,320;10938,133;   -0,075;   -3,045
464,907;10603,515;    2,743;   -0,773
465,495;10433,882;    0,743;   -1,227
466,082;10607,151;   -1,984;   -0,045
466,670;10542,260;   -2,529;    1,227
467,257;10922,760;   -1,711;    2,045
467,844;11083,105;   -0,075;    0,045
468,432;11131,700;    0,834;    3,500
469,019;10603,250;    0,925;   -1,773
469,606;11113,237;    0,470;    3,682
470,193;10907,732;   -1,439;    0,227
470,780;10449,023;   -2,075;    0,864
471,368;10817,409;   -1,257;   -0,773
471,955;10610,005;    1,379;   -0,682
472,542;10269,336;    0,652;   -1,136
473,129;10496,636;   -0,166;    0,136
473,716;10196,937;    1,470;    0,591
474,303;10431,491;    0,652;   -0,864
474,890;10754,191;   -1,439;   -0,500
475,477;10775,581;   -1,621;    0,409
476,064;10630,713;    1,106;   -1,591
476,650;10605,959;    0,288;    0,318
477,237;10421,322;   -0,258;    0,955
477,824;10631,199;   -1,076;    0,864
478,411;10608,454;   -1,894;   -0,318
478,997;10814,831;    0,560;   -0,773
479,584;10907,390;    1,196;   -0,409
480,171;11615,881;   -0,440;   -0,773
480,757;11264,308;    2,651;    0,773
481,344;11614,767;    0,469;    0,409
481,931;11104,375;    1,105;    1,045
482,517;12230,948;   -1,258;    0,318
483,104;12867,812;    1,106;    2,864
483,690;13115,099;   -1,804;    0,045
484,276;13448,412;   -0,895;    0,227
484,863;13233,535;    2,469;    1,136
485,449;13834,494;   -0,077;    0,318
486,035;13814,362;   -1,986;   -0,136
486,622;14241,903;   -0,895;    0,045
487,208;14190,662;    1,378;    1,500
487,794;14013,598;    0,741;    0,318
488,380;14105,362;    0,105;   -1,409
488,967;14179,357;   -1,168;   -0,409
489,553;14233,225;   -1,895;   -1,409
490,139;14443,475;    1,559;    0,773
490,725;13814,589;    0,741;   -0,227
491,311;13294,807;    3,287;    3,045
491,897;12621,457;   -0,986;    1,500
492,483;12439,434;    0,105;    1,227
493,069;12250,079;    3,923;    0,864
493,655;12254,197;    1,650;    0,682
494,241;12176,779;    1,377;   -0,955
494,826;12554,493;    0,287;   -1,045
495,412;12020,798;    2,559;   -0,682
495,998;12172,484;   -0,805;   -0,318
496,584;12292,002;    0,377;    1,045
497,169;12282,747;    1,014;   -0,682
497,755;12233,242;    0,650;    1,227
498,341;12828,743;    0,559;    0,318
498,926;12411,147;    1,832;    1,955
499,512;12574,901;    1,286;    2,955
500,097;12738,656;    0,195;   -0,318
500,683;12661,238;   -0,350;    2,136
501,268;13042,642;   -0,169;   -0,955
501,854;12709,119;   -0,169;    1,227
502,439;12614,792;   -0,624;   -1,773
503,024;12876,033;    0,195;    0,500
503,610;12944,415;   -0,078;   -0,682
504,195;12947,860;    0,558;    1,955
504,780;13045,933;    2,922;    1,227
505,366;12873,906;    3,013;    2,864
505,951;12595,237;    0,740;    1,045
506,536;12593,969;   -3,260;   -3,682
507,121;12594,946;    0,285;   -0,318
507,706;13141,596;    2,376;    1,045
508,291;13529,605;    2,649;    1,136
508,876;12971,432;   -0,988;    2,591
509,461;12433,518;   -0,169;   -0,773
510,046;12845,350;    0,194;    0,318
510,631;13102,909;   -0,351;   -0,773
511,216;12701,850;    2,467;   -0,500
511,801;13100,860;   -0,442;    2,591
512,386;13473,641;    0,740;    0,500
512,971;13404,677;   -2,988;    0,955
513,555;12935,650;   -0,897;   -1,500
514,140;13697,805;   -0,442;   -3,136
514,725;13712,100;   -0,715;   -1,136
515,309;13865,981;   -0,533;    0,318
515,894;13275,218;   -0,624;   -2,227
516,479;13731,900;   -0,624;   -0,955
517,063;13584,222;    0,376;    1,227
517,648;13698,059;    1,012;   -1,136
518,232;13369,585;   -0,261;   -1,409
518,817;13726,472;   -0,079;    1,682
519,401;13953,504;    2,194;    0,591
519,985;13458,558;    1,103;    1,136
520,570;13305,126;    0,830;   -1,955
521,154;13583,703;    2,102;    0,591
521,738;13786,558;   -2,352;    2,409
522,323;14317,403;   -0,170;    1,682
522,907;14081,512;    0,466;   -0,136
523,491;13788,980;    0,557;    0,955
524,075;13783,412;    2,284;    0,591
524,659;13854,003;    1,466;    0,591
525,243;13344,508;    1,739;    0,409
525,827;13556,567;    0,648;   -0,045
526,411;14414,549;   -1,989;   -0,136
526,995;14664,380;   -0,352;    1,409
527,579;14198,185;   -0,443;   -1,045
528,163;14562,107;    0,375;   -1,500
528,747;14470,539;    2,466;   -0,773
529,331;14791,366;   -0,080;   -1,409
529,915;14992,512;    1,738;    0,955
530,499;14945,662;   -0,807;    1,227
531,082;14661,266;   -0,534;    1,591
531,666;14136,802;    1,374;    0,773
532,250;14750,243;    1,284;    2,682
532,833;15114,930;    0,920;    2,773
533,417;14932,243;   -1,807;    0,864
534,001;14964,270;    1,647;   -0,318
534,584;15676,488;    0,374;    0,500
535,168;15506,206;    0,465;    1,409
535,751;15545,839;    0,647;    0,045
536,334;14980,334;   -0,898;   -0,409
536,918;15550,988;    0,011;    1,591
537,501;15723,779;   -0,899;    1,318
538,085;15698,447;   -0,444;    1,045
538,668;15868,697;    0,829;    2,409
539,251;16213,493;    1,829;    3,773
539,834;16200,475;    0,101;    0,773
540,418;16175,997;   -1,990;    4,318
541,001;16262,747;   -0,990;    1,773
541,584;16207,019;    2,101;    2,227
542,167;15952,320;    1,374;    2,955
542,750;16079,756;    1,919;   -0,773
543,333;15686,874;    0,555;    2,136
543,916;16510,079;    0,192;    2,500
544,499;17075,728;   -1,354;    0,227
545,082;17126,801;    1,374;    3,591
545,665;17258,433;    1,919;    1,500
546,248;17618,965;    1,010;   -0,318
546,830;17249,001;   -0,445;    1,955
547,413;17686,164;    1,010;   -0,773
547,996;18221,919;    0,555;    0,500
548,579;17971,146;    0,919;    0,955
549,161;17756,219;    1,828;    2,682
549,744;17562,355;   -0,809;    0,409
550,326;18028,909;   -0,809;   -1,136
550,909;17867,668;    2,737;    0,591
551,492;18247,791;   -0,263;    0,227
552,074;18040,645;   -0,173;   -1,318
552,657;18634,618;    2,373;    0,045
553,239;18330,459;   -0,173;   -0,773
553,821;18236,277;   -1,082;    1,045
554,404;17749,855;    1,282;    1,136
554,986;18163,000;    0,464;    1,045
555,568;18762,022;    1,191;   -0,955
556,151;17981,636;    1,191;   -0,227
556,733;18138,886;   -0,264;   -0,864
557,315;18630,668;    0,100;    0,500
557,897;18431,890;    0,554;   -0,500
558,479;18553,568;   -1,991;    1,318
559,061;18711,704;   -0,719;   -0,864
559,643;19052,608;   -0,264;    0,045
560,225;19449,004;    1,645;    2,864
560,807;19433,518;    0,918;    0,318
561,389;18906,149;    0,554;    2,318
561,971;19693,594;    0,463;    2,136
562,553;19493,104;   -1,628;    1,591
563,135;19652,122;   -0,537;    1,136
563,717;19240,540;    3,372;    1,136
564,298;19982,981;    3,645;   -0,045
564,880;19702,235;    0,645;   -1,409
565,462;19878,599;    0,645;    1,318
566,043;21081,299;   -0,446;    2,318
566,625;20600,749;    1,918;    1,227
567,207;20402,740;    1,099;    1,682
567,788;21601,126;   -1,264;    1,500
568,370;22456,208;    1,917;   -0,500
568,951;22298,035;    0,190;    0,227
569,533;23212,180;   -0,628;   -0,500
570,114;23643,281;   -0,446;    0,682
570,695;24194,367;   -0,174;   -1,318
571,277;24759,966;   -0,265;   -1,682
571,858;25477,589;    2,008;   -1,136
572,439;26402,317;    1,554;   -1,045
573,021;26599,225;    2,099;   -2,773
573,602;27071,803;   -1,265;    0,318
574,183;28080,830;   -2,083;    2,227
574,764;28199,148;   -1,629;    0,409
575,345;28795,198;    0,917;   -0,136
575,926;29335,539;   -0,356;    0,136
576,507;29303,616;    1,099;   -0,227
577,088;30489,766;    3,099;    1,682
577,669;30500,275;    0,735;    1,955
578,250;31323,102;    0,644;   -1,045
578,831;31998,952;   -1,356;   -2,227
579,412;32202,162;   -0,810;    0,955
579,993;33122,507;    1,008;    0,227
580,573;33345,998;   -0,629;   -0,955
581,154;32317,402;    0,735;   -0,591
581,735;33213,330;    0,644;    0,773
582,315;32783,148;   -0,629;    2,136
582,896;33014,693;   -0,174;    1,227
583,477;32412,257;    0,189;    1,227
584,057;32653,748;    0,553;    0,955
584,638;32987,780;    2,553;    2,318
585,218;32980,102;   -0,538;    2,682
585,799;33182,189;    0,281;   -0,227
586,379;33068,312;    0,372;    1,591
586,959;31749,257;    0,735;    0,318
587,540;30993,934;   -0,629;    2,227
588,120;30537,275;    1,007;   -0,045
588,700;29531,929;    2,553;    2,136
589,281;29906,389;    0,462;   -0,955
589,861;29850,993;    0,099;   -1,682
590,441;29698,671;    2,371;   -2,682
591,021;28641,139;   -0,265;   -2,591
591,601;28854,494;   -0,537;    0,500
592,181;28829,962;   -0,719;   -0,773
592,761;28118,143;    0,007;    1,409
593,341;28012,857;   -0,901;    0,045
593,921;28022,916;   -0,265;    1,591
594,501;27900,380;   -0,538;    1,318
595,081;27753,666;    0,917;   -0,318
595,661;28130,321;   -1,447;    0,955
596,240;28655,525;   -0,537;    0,136
596,820;28357,471;    0,372;    1,955
597,400;28511,884;    2,008;    0,773
597,980;28656,703;    2,008;    1,045
598,559;28661,234;    2,735;   -0,227
599,139;28351,443;   -0,174;   -1,227
599,718;28316,989;   -0,174;   -0,409
600,298;28601,721;    0,735;    0,682
600,877;28842,444;    2,917;    1,409
601,457;29064,844;    2,281;    1,136
602,036;29000,307;    0,190;    2,045
602,616;29210,426;    0,644;    1,682
603,195;29595,385;   -0,355;    3,500
603,774;29144,835;   -0,901;    2,045
604,354;28956,176;    0,826;   -0,500
604,933;28439,571;    0,463;    1,864
605,512;28579,794;    3,554;    0,591
606,091;28625,776;   -0,537;    3,773
606,671;29412,817;    0,281;    0,773
607,250;28542,826;    1,644;    3,136
607,829;28826,540;    2,372;    3,227
608,408;28643,644;    1,190;    2,591
608,987;27642,776;    1,281;    3,409
609,566;27917,143;   -1,265;   -2,500
610,145;28047,490;   -1,082;    0,682
610,723;28431,358;    4,372;    6,864
611,302;27695,917;   -0,446;    1,682
611,881;27211,772;    5,008;   11,227
612,460;28039,390;    1,645;    3,955
613,039;28429,604;   -0,082;    2,045
613,617;27164,680;    1,736;    4,773
614,196;27343,422;    1,099;    1,227
614,775;27687,563;    1,009;    2,409
615,353;27632,663;    0,736;    0,864
615,932;27352,372;    0,100;    2,409
616,510;27955,376;    0,554;    0,591
617,089;27487,172;    7,100;   17,591
617,667;27238,558;    2,372;    6,136
618,246;27115,899;   -1,537;    1,318
618,824;27297,158;   -3,355;   -0,955
619,402;26821,708;   -2,900;   -1,773
619,981;27315,740;   -0,173;   -1,045
620,559;27130,304;    0,009;    1,682
621,137;26619,300;   -0,718;    1,864
621,715;26658,895;   -1,173;   -0,682
622,293;26596,990;   -0,537;   -0,773
622,871;27052,031;   -0,718;    0,500
623,450;26663,563;    0,373;   -0,864
624,028;26467,059;    0,191;   -0,955
624,606;26111,495;   -1,718;    1,682
625,183;26529,854;   -1,536;   -1,136
625,761;26170,032;    1,009;    1,136
626,339;26503,031;    1,373;    2,591
626,917;26853,573;   -0,172;   -0,045
627,495;26869,164;   -0,354;    1,318
628,073;26334,309;   -0,263;    2,864
628,650;25987,568;    0,100;    2,136
629,228;26414,032;    0,373;    4,409
629,806;25790,668;    2,282;    1,136
630,383;26096,923;    1,464;   -0,318
630,961;25916,155;    2,555;   -0,955
631,539;25643,791;    2,464;    0,227
632,116;25013,609;   11,373;   15,409
632,694;25579,659;    2,555;    6,500
633,271;25863,728;    0,828;    2,682
633,848;25759,882;    1,828;    2,045
634,426;25796,832;   -1,081;    1,773
635,003;24902,910;    1,101;   -0,409
635,580;25227,347;    1,192;    3,682
636,158;25755,169;    3,737;    1,227
636,735;25684,396;    0,555;   -0,500
637,312;25857,237;   -0,809;   -0,682
637,889;25999,142;   -4,354;   -0,682
638,466;25453,047;   -3,990;   -0,409
639,043;25468,311;    2,101;   -1,136
639,620;25803,092;   -2,262;   -0,955
640,197;26125,865;    1,100;    1,682
640,774;26216,194;   -0,172;    1,136
641,351;26609,341;    0,737;    1,136
641,928;26021,489;   -0,627;    1,409
642,505;25719,000;    0,828;   -0,500
643,082;25856,511;   -1,718;    1,227
643,658;24885,113;   -0,718;    1,500
644,235;25625,170;    1,191;    2,500
644,812;25945,317;    1,918;    0,773
645,388;25709,828;   -0,991;    1,409
645,965;25748,885;   -0,809;    1,682
646,542;25827,850;   -1,445;   -0,227
647,118;25850,452;    1,009;   -0,955
647,695;26085,782;   -0,263;    1,136
648,271;26001,293;   -0,536;    0,500
648,848;26303,713;    0,736;    2,227
649,424;26189,315;    0,827;    1,318
650,000;25908,462;   -0,354;   -1,045
650,577;25777,701;   -0,627;   -0,955
651,153;26252,757;   -1,809;    0,955
651,729;27273,996;    1,191;    0,864
652,305;27901,416;    0,645;    2,773
652,881;33252,745;   -0,082;    1,136
653,458;40181,802;    1,100;    0,227
654,034;43581,131;    0,282;    1,591
654,610;44840,642;    0,554;    0,773
655,186;46072,426;    0,645;    3,045
655,762;45694,482;   -0,991;    0,409
656,338;45688,266;    0,100;    0,136
656,913;46638,504;   -0,082;    0,409
657,489;45822,652;    0,827;   -0,318
658,065;45786,254;   -0,173;   -1,591
658,641;46363,038;   -0,900;   -0,864
659,217;45675,367;   -0,991;    0,409
659,792;45070,605;    0,645;   -0,409
660,368;45212,389;   -2,173;   -0,682
660,944;44521,446;   -2,082;    1,227
661,519;39122,048;   -0,628;    0,409
662,095;33106,923;   -1,719;    0,591
662,670;28964,070;    1,281;   -0,136
663,246;28050,763;    1,009;   -0,409
663,821;27449,819;    0,281;    1,682
664,396;26977,967;    0,009;    1,864
664,972;27220,933;    0,009;   -0,500
665,547;27549,080;    1,372;    0,136
666,122;27609,318;   -1,082;    0,318
666,698;27863,739;   -0,173;    0,318
667,273;27256,795;   -0,173;    0,136
667,848;28070,124;    2,372;    1,500
668,423;27911,817;    2,190;    2,318
668,998;28459,237;    2,827;   -0,682
669,573;29000,839;   -3,264;   -1,500
670,148;28819,532;   -1,446;   -0,682
670,723;28645,862;   -1,810;    0,318
671,298;29002,645;    2,372;    1,045
671,873;29133,793;   -0,082;   -0,136
672,448;29072,668;    0,645;    0,136
673,023;29415,088;   -1,992;   -0,227
673,597;29759,599;    0,827;    2,318
674,172;29534,201;   -0,355;    0,318
674,747;28981,348;    0,372;   -1,045
675,321;28764,496;   -0,628;    3,318
675,896;28443,007;    0,645;    1,045
676,471;29449,154;    2,645;    1,591
677,045;29169,211;   -1,264;    0,682
677,620;29237,995;    0,190;    1,136
678,194;29493,870;   -2,628;    1,136
678,769;29084,381;   -1,083;   -0,318
679,343;29397,892;   -0,628;    1,773
679,917;29259,857;   -1,446;    1,955
680,492;29352,914;    0,826;    3,227
681,066;29449,698;    3,372;    0,409
681,640;29492,572;    1,463;   -0,318
682,214;30381,902;    0,735;    0,500
682,788;29892,140;   -1,356;   -0,773
683,363;29810,924;   -1,810;    1,682
683,937;29530,617;   -1,719;   -0,318
684,511;30260,582;    0,463;   -0,591
685,085;29958,094;   -1,356;    0,318
685,659;29662,332;   -2,538;    0,864
686,232;30012,207;   -0,356;   -0,318
686,806;29662,990;   -0,901;    0,409
687,380;30322,411;   -0,174;    0,591
687,954;30509,740;   -1,174;    1,136
688,528;30225,160;   -0,719;    1,955
689,101;31048,217;   -3,992;    1,045
689,675;30608,091;   -0,356;   -0,136
690,249;29973,421;   -0,719;    0,409
690,822;30267,386;    0,280;    0,318
691,396;30409,897;   -0,265;    1,227
691,969;29827,045;    1,280;    0,136
692,543;30265,374;   -0,447;   -1,955
693,116;29938,158;   -0,265;   -1,409
693,690;29796,124;    0,099;    0,500
694,263;30357,453;   -1,083;    2,955
694,836;30412,419;    1,371;    3,591
695,410;29014,930;   -0,265;    1,773
695,983;29516,077;    0,189;    0,591
696,556;29483,406;   -0,447;   -1,045
697,129;29833,099;   -0,356;    1,409
697,703;29479,610;   -1,629;    1,955
698,276;29448,940;    1,462;   -0,773
698,849;29316,905;    1,280;    1,409
699,422;29626,416;   -1,083;    0,591
699,995;29352,018;    0,007;    0,136
700,568;29873,802;   -0,629;    3,045
701,140;29851,677;   -2,811;    1,682
701,713;29597,915;   -0,174;    2,409
702,286;29328,972;   -0,538;    0,864
702,859;29188,937;   -0,902;   -0,591
703,432;28364,539;    0,825;    0,682
704,004;28928,596;    0,462;    0,318
704,577;28767,198;   -0,629;    0,136
705,150;29325,982;    0,189;    2,500
705,722;29083,493;   -0,356;   -3,227
706,295;28918,913;   -0,175;   -0,591
706,867;28819,424;   -0,175;    1,955
707,440;28941,299;   -1,720;   -0,409
708,012;29217,537;    0,462;    0,591
708,584;29152,230;    2,462;    0,227
709,157;29401,923;    1,825;   -0,591
709,729;29084,980;    2,280;    2,045
710,301;30004,036;    0,734;    0,045
710,874;29958,184;   -1,447;   -0,227
711,446;28775,240;    0,371;    0,864
712,018;28688,842;    0,098;    0,500
712,590;28475,899;   -1,993;    1,682
713,162;28957,319;    0,825;    1,318
713,734;29213,103;    1,825;   -2,045
714,306;29097,705;   -1,902;   -0,409
714,878;27804,216;    0,825;    0,864
715,450;28651,818;    0,643;    0,864
716,022;28856,329;    1,552;    1,318
716,593;28990,386;    0,189;    0,591
717,165;28928,806;   -3,175;   -1,227
717,737;28720,680;    0,280;    0,409
718,309;28299,828;    0,280;   -0,045
718,880;28289,794;   -0,539;   -1,409
719,452;28497,487;   -0,175;   -1,591
720,024;28072,361;    0,734;   -0,591
720,595;28643,691;   -2,902;    0,955
721,167;28215,020;    0,370;   -2,045
721,738;27722,804;   -0,812;   -1,045
722,309;27719,224;   -0,993;   -1,227
722,881;27495,644;   -1,357;    0,773
723,452;28128,610;   -2,630;    2,864
724,023;28278,939;   -0,721;    2,682
724,595;28038,177;    0,007;    0,682
725,166;27781,234;    0,007;   -0,409
725,737;27484,654;    1,734;    0,227
726,308;27545,074;   -0,266;    0,318
726,879;28006,040;   -1,630;    1,227
727,450;27879,187;    0,552;   -0,045
728,021;27785,062;    3,097;    0,682
728,592;27550,846;    0,734;    0,500
729,163;27891,811;    0,643;   -0,136
729,734;27961,141;    0,188;   -0,227
730,305;28283,925;    1,734;    0,136
730,876;28680,254;    0,188;    2,955
731,447;28398,038;    2,188;    2,682
732,017;28524,185;    1,097;    1,864
732,588;28008,423;    0,734;    1,227
733,159;28191,662;    0,643;   -1,045
733,729;27984,537;    0,006;    0,409
734,300;27292,866;    0,915;    0,864
734,870;27689,104;    3,461;    0,591
735,441;28221,524;    0,370;   -0,591
736,011;27992,036;    0,643;   -1,591
736,582;27909,183;   -0,812;    0,045
737,152;27358,694;   -1,721;   -2,045
737,722;27814,023;   -0,267;   -0,682
738,293;27560,262;   -1,358;    1,318
738,863;27460,864;    2,461;    2,318
739,433;27266,466;    5,279;    0,318
740,003;27881,068;   -0,994;   -0,682
740,573;27241,670;    2,097;   -1,591
741,143;27198,272;   -1,085;    0,318
741,713;28034,419;    1,188;   -0,500
742,283;27733,748;    0,915;    1,591
742,853;27472,078;    1,915;    1,591
743,423;26832,407;    1,733;    0,045
743,993;27027,736;   -0,358;    1,500
744,563;26431,520;    0,097;   -0,864
745,133;26373,486;   -0,812;   -0,864
745,702;27050,542;   -0,267;    1,773
746,272;26263,235;   -0,176;    0,591
746,842;26066,019;   -1,358;   -0,591
747,411;26458,894;   -0,267;   -0,318
747,981;26654,859;    0,097;    0,500
748,551;26696,098;    2,278;   -1,045
749,120;26522,609;    0,642;   -0,227
749,690;26918,484;   -0,631;    2,409
750,259;27313,267;    1,369;    2,955
750,828;27211,233;    1,551;   -1,955
751,398;27442,562;    1,278;   -0,045
751,967;26937,346;    2,187;    0,409
752,536;27171,039;   -0,813;   -0,227
753,105;27558,732;    0,096;    0,227
753,675;27355,607;    0,096;    1,773
754,244;27295,391;   -0,904;    3,591
754,813;27368,811;    0,551;    1,227
755,382;26949,958;    0,460;    0,955
755,951;27542,378;    1,551;    3,682
756,520;27026,889;   -0,085;    1,864
757,089;27614,310;    0,278;    0,500
757,658;27791,548;    1,733;    1,227
758,227;27756,968;    1,096;    0,318
758,795;28051,661;    1,187;    1,136
759,364;28258,627;   -0,086;   -0,591
759,933;27279,501;   -1,176;   -0,045
760,501;26812,740;    0,733;   -1,318
761,070;27291,978;   -2,813;   -1,409
761,639;27971,035;   -1,904;    1,318
762,207;27357,091;    1,551;   -0,955
762,776;27287,148;    0,369;    0,864
763,344;27243,386;   -0,995;    0,591
763,913;26355,715;   -0,722;    1,409
764,481;27108,772;    1,005;   -0,136
765,049;26840,647;   -1,358;    1,409
765,618;26713,522;   -0,086;    0,318
766,186;26770,214;    0,278;    0,136
766,754;26978,089;    0,005;    1,864
767,322;25975,509;   -1,995;    0,409
767,890;26014,202;   -0,722;   -1,773
768,459;26458,168;   -2,177;   -0,318
769,027;26628,588;    1,641;    3,409
769,595;25544,736;    3,278;    2,591
770,163;25987,974;    3,823;    2,955
770,730;25749,303;    0,732;   -0,136
771,298;25611,269;    0,187;   -1,409
771,866;25682,689;   -1,541;    4,955
772,434;25992,473;   -0,631;   -1,864
773,002;26164,166;    0,005;    0,682
773,569;25836,586;    0,914;    1,682
774,137;25601,552;   -0,268;   -0,045
774,705;26353,608;    0,278;   -0,136
775,272;25872,392;    0,641;    0,682
775,840;25614,994;   -0,177;    2,682
776,407;25179,869;    0,277;    1,955
776,975;24771,562;   -0,632;    0,318
777,542;25809,436;   -1,086;   -0,045
778,110;25631,675;   -1,268;   -0,045
778,677;25279,731;   -2,359;   -0,864
779,244;25015,788;    2,186;    1,045
779,812;25196,662;    1,823;    0,864
780,379;25067,719;    0,005;    1,136
780,946;25276,867;    1,005;   -0,773
781,513;25580,196;   -1,450;    0,318
782,080;24947,616;   -0,086;    2,864
782,647;25681,491;   -0,268;    3,045
783,214;25295,638;   -0,177;    3,864
783,781;24883,331;   -0,723;   -0,682
784,348;24806,479;   -0,632;    1,500
784,915;25231,353;   -3,177;    0,318
785,482;25044,228;    1,368;    2,591
786,049;25370,466;    0,186;   -0,591
786,615;25490,887;    0,277;   -0,955
787,182;25266,216;    0,186;   -0,682
787,749;24957,545;   -2,814;    1,409
788,315;24322,329;   -1,632;   -0,409
788,882;24599,567;    1,550;   -1,227
789,448;25285,806;    1,732;   -0,955
790,015;25264,317;    1,095;    3,227
790,581;24878,737;    1,459;    0,227
791,148;24804,703;    0,641;    1,045
791,714;24956,032;   -0,541;    3,136
792,280;24637,816;    0,186;    1,591
792,847;24201,054;    0,550;    2,500
793,413;24792,838;   -0,269;   -0,318
793,979;24300,894;    3,459;   -1,318
794,545;24450,224;    4,459;    2,682
795,111;23838,826;    2,186;    1,318
795,678;23998,791;    0,731;   -1,682
796,244;23668,939;    3,368;    0,136
796,810;24168,723;    1,731;    0,773
797,375;23865,506;    0,549;   -2,136
797,941;23920,381;   -0,541;    0,591
798,507;24057,438;   -0,451;   -0,955
799,073;23576,585;   -0,360;    0,591
799,639;23639,096;   -2,632;    3,136
800,205;23672,516;    0,095;    2,682
800,770;23230,209;    0,640;    1,773
801,336;23367,448;    1,368;   -0,955
801,901;23047,868;    4,549;    3,136
802,467;23608,015;   -0,542;    2,045
803,033;22885,981;   -0,087;    0,864
803,598;23134,583;    1,913;   -1,045
804,163;23202,912;    1,095;   -0,318
804,729;23131,605;   -0,178;    1,136
805,294;23501,116;    0,822;    2,227
805,859;23297,082;    0,731;   -0,409
806,425;22779,957;    1,186;    2,682
806,990;22410,104;    2,186;    4,318
807,555;22925,524;   -1,451;    2,591
808,120;22854,672;    0,822;   -0,409
808,685;22870,183;    0,185;   -2,500
809,250;22379,694;    0,004;   -0,500
809,815;22653,660;    1,913;    0,682
810,380;23217,625;   -0,269;    1,591
810,945;23801,864;   -1,087;    2,045
811,510;22909,102;    2,094;    1,591
812,075;22628,249;   -0,633;   -1,409
812,640;22675,488;    2,003;    1,409
813,204;22700,635;    0,822;   -0,227
813,769;23202,965;    2,094;   -0,045
814,334;22663,203;    0,458;    0,864
814,898;22692,350;    0,367;    0,591
815,463;22528,407;    1,276;   -0,773
816,027;22501,373;   -0,724;   -2,318
816,592;22567,156;    0,640;   -2,045
817,156;22148,213;    2,094;    1,136
817,721;22003,360;    4,276;    2,318
818,285;21986,871;    2,912;    1,500
818,849;22574,383;   -1,451;    1,682
819,414;22441,712;   -0,269;    2,955
819,978;22034,223;   -1,269;    1,773
820,542;22629,643;    2,003;    0,500
821,106;22330,518;   -0,815;    0,682
821,670;22460,211;   -0,815;    2,591
822,234;22151,904;   -0,270;    1,409
822,798;21511,142;    0,003;    0,500
823,362;21493,926;   -0,633;    4,227
823,926;20793,255;    0,094;    1,136
824,490;21042,493;   -0,997;   -0,682
825,054;21486,914;   -0,088;   -1,136
825,618;21122,970;   -1,542;   -1,500
826,181;21060,754;    0,458;   -1,318
826,745;20991,811;    1,367;   -1,045
827,309;21377,413;    1,185;    1,318
827,872;20715,196;    1,367;    0,955
828,436;21666,708;    1,185;   -0,773
828,999;21733,310;   -0,997;    1,227
829,563;20515,002;   -0,179;    1,136
830,126;20358,423;   -0,179;   -0,591
830,690;20373,570;   -1,997;    2,864
831,253;19911,899;   -0,543;    2,227
831,816;20039,047;   -1,906;    0,500
832,380;19973,558;    0,185;    0,864
832,943;20198,524;   -1,361;   -0,500
833,506;19667,853;    2,639;   -1,227
834,069;20425,273;    3,912;   -0,955
834,632;20467,966;    1,730;    1,318
835,195;20380,841;    1,003;    0,955
835,758;19543,988;   -0,997;    1,955
836,321;19425,954;    0,730;   -1,045
836,884;19542,465;   -0,725;   -0,955
837,447;19559,794;   -2,816;    1,773
838,010;19868,942;    0,366;    3,227
838,573;20140,180;   -1,179;    0,773
839,135;20099,327;   -1,361;   -0,955
839,698;19577,838;    1,275;    0,409
840,261;19024,713;    1,003;   -0,227
840,823;18866,497;   -0,543;    0,864
841,386;19154,372;   -0,452;   -2,409
841,948;19068,974;   -1,361;    1,773
842,511;18796,394;    0,912;    1,682
843,073;18966,360;    1,912;    0,227
843,636;18754,689;   -0,361;   -0,227
844,198;18730,473;    0,911;    0,591
844,760;18858,711;    1,093;    1,955
845,322;18462,495;    0,548;    1,136
845,885;18893,915;    0,730;    0,591
846,447;19348,335;   -1,998;    0,227
847,009;18936,574;    1,911;   -0,682
847,571;19230,176;    0,820;   -2,045
848,133;19353,050;   -1,089;   -1,864
848,695;19192,471;   -0,543;    1,409
849,257;18739,436;   -1,089;   -1,682
849,819;18904,493;   -0,998;   -0,409
850,381;18932,822;   -0,725;   -0,864
850,942;19299,788;    1,093;   -0,591
851,504;19312,390;    1,184;    0,227
852,066;19282,628;    1,275;   -1,591
852,628;18788,957;   -0,180;    1,955
853,189;18324,923;    1,638;    2,682
853,751;18464,343;   -0,907;    1,409
854,312;18286,672;   -0,453;   -1,682
854,874;18817,820;   -2,089;   -0,773
855,435;19333,513;   -0,907;   -1,682
855,997;19476,297;   -1,816;   -0,136
856,558;18747,899;    0,366;    1,773
857,119;18852,501;    0,820;    2,864
857,681;18522,648;    0,002;    0,318
858,242;18583,159;    1,911;   -2,136
858,803;19038,761;    0,456;   -0,773
859,364;19587,000;    0,184;   -4,773
859,925;18901,420;   -2,453;   -0,955
860,486;18768,567;   -0,453;   -0,955
861,047;18516,533;   -0,544;   -1,227
861,608;18335,680;   -1,089;   -0,773
862,169;18400,555;    0,638;   -0,045
862,730;18164,157;    0,456;    1,409
863,291;18452,123;   -0,635;   -0,500
863,852;18863,997;   -0,635;    1,955
864,412;18295,872;   -0,271;   -0,864
864,973;16914,929;   -0,089;    0,500
865,534;16778,349;   -1,726;    0,227
866,094;18231,769;    1,820;    0,227
866,655;17902,280;    1,274;    3,318
867,215;18179,882;    0,274;    0,136
867,776;17989,120;    0,547;   -0,136
868,336;18100,813;   -1,453;    0,136
868,897;17616,234;    2,638;    1,682
869,457;17352,745;    1,365;    0,318
870,017;17562,347;    0,547;   -1,227
870,578;18107,494;   -0,817;    0,773
871,138;17819,914;   -2,089;   -0,955
871,698;17350,698;   -0,817;   -1,318
872,258;17231,209;   -0,453;   -2,864
872,818;17596,084;    2,729;    0,045
873,378;17558,413;    0,638;    1,045
873,938;17090,106;    0,547;    0,500
874,498;17417,708;    0,274;   -1,955
875,058;17368,128;    2,183;    1,773
875,618;17196,458;    1,910;   -2,682
876,177;17111,241;    1,274;    0,136
876,737;16683,753;   -0,090;    1,955
877,297;16730,991;    0,183;    1,955
877,856;16764,684;   -0,362;    0,318
878,416;16745,468;    1,183;   -0,136
878,976;16912,979;   -1,817;    0,409
879,535;17094,308;    0,092;    3,136
880,095;16806,728;   -0,544;    0,045
880,654;16951,603;   -1,090;    1,318
881,213;17076,296;    2,456;    1,500
881,773;16712,261;    2,637;    2,682
882,332;17088,954;    3,365;    5,136
882,891;16895,829;    3,092;    2,136
883,451;17351,067;   -1,272;    1,682
884,010;16796,397;   -2,908;   -0,409
884,569;16889,181;   -0,999;   -0,045
885,128;17030,510;    2,819;   -1,864
885,687;17132,839;    4,455;    0,682
886,246;16829,532;    1,455;    2,136
886,805;16572,952;    2,455;    2,045
887,364;16865,827;   -0,999;   -0,500
887,922;17218,338;   -1,181;    0,045
888,481;16710,304;   -1,545;    0,591
889,040;17052,360;    1,183;    2,136
889,599;17715,599;    2,455;    1,409
890,157;17771,928;    1,455;    2,409
890,716;17431,712;   -0,090;    0,227
891,274;17276,132;    0,092;   -1,136
891,833;17680,552;    1,546;    0,864
892,391;17554,063;   -0,454;    0,500
892,950;17673,665;    1,819;   -0,773
893,508;17991,722;    0,455;   -0,409
894,067;17301,233;    0,637;    0,136
894,625;17235,926;   -0,636;   -1,500
895,183;17457,800;   -0,363;   -0,682
895,741;17330,221;    1,728;   -1,773
896,299;17157,368;   -0,545;   -2,409
896,858;17371,516;    0,819;   -1,591
897,416;17495,754;    2,728;   -1,318
897,974;17202,447;    1,819;    0,318
898,532;17416,594;    6,091;    2,682
899,089;17282,014;    2,091;   -0,682
899,647;17343,344;   -1,454;    1,318
900,205;17083,309;    1,182;    1,045
900,763;17257,366;   -0,454;    0,227
901,321;17267,695;    2,364;   -1,409
901,878;16670,388;   -1,000;   -0,773
902,436;16609,445;   -1,363;    1,318
902,994;16999,410;    4,728;    3,682
903,551;16376,921;    0,728;    0,409
904,109;16769,796;    0,182;   -1,409
904,666;16355,035;    2,455;    1,045
905,224;16165,818;    0,182;   -0,409
905,781;15982,966;    0,727;   -0,318
906,338;16026,477;   -1,363;    1,045
906,895;15916,897;    0,637;    2,045
907,453;15838,045;    1,727;    1,136
908,010;15914,192;   -0,909;    0,409
908,567;15558,885;    1,273;    0,591
909,124;15053,396;    0,364;   -1,500
909,681;15126,453;   -2,909;    0,682
910,238;15281,509;    0,636;   -1,318
910,795;15538,020;   -0,273;   -1,136
911,352;15158,111;   -2,909;   -2,682
911,909;14605,293;   -1,364;   -0,864
912,466;15124,020;   -3,182;    1,500
913,022;14660,475;   -1,636;    0,500
913,579;15021,293;   -0,909;    2,045
914,136;14704,838;    1,636;    0,955
914,692;15049,747;    0,091;   -1,227
915,249;14661,929;    1,455;    0,409
915,806;14891,566;    0,182;    1,955
916,362;14647,838;    1,909;    1,864
916,918;14224,293;    2,000;    1,045
917,475;14148,384;   -1,182;    0,955
918,031;14196,838;    3,364;   -0,045
918,587;13677,929;   -0,909;   -0,318
919,144;13896,293;   -2,273;    0,227
919,700;14215,566;    1,727;    0,773
920,256;13810,838;    0,727;    0,045
920,812;13401,747;   -0,727;   -1,045
921,368;13404,657;   -1,727;   -1,045
921,924;13051,020;    0,182;   -0,136
922,480;12615,838;   -0,545;    1,227
923,036;13233,566;    1,273;    1,955
923,592;13171,838;    0,455;    0,318
924,148;13100,111;    0,455;   -0,955
924,704;12385,657;   -1,364;   -0,409
925,259;12652,475;   -0,273;    0,591
925,815;12407,111;    1,455;    0,500
926,371;11934,111;    2,909;    1,409
926,926;11828,838;    2,091;    0,591
927,482;11441,929;   -1,364;    0,773
928,037;11299,566;    0,909;    2,045
928,593;11644,566;    1,636;    1,045
929,148;11445,293;   -1,818;   -1,500
929,704;10944,293;   -1,455;   -0,500
930,259;11161,202;    0,091;   -0,136
930,814;10240,293;   -0,818;    1,955
931,369; 9902,657;    1,091;   -0,773
931,925; 9755,202;   -0,091;    0,136
932,480; 9684,384;   -2,818;   -2,591
933,035; 9580,747;    0,545;   -0,318
933,590; 9330,657;    0,364;   -1,773
934,145; 8951,202;   -1,364;   -0,318
934,700; 9270,202;    0,455;   -0,591
935,255; 9088,020;   -0,091;    0,045
935,809; 8384,838;    3,182;    0,864
936,364; 7509,475;   -0,455;   -0,136
936,919; 7479,657;    0,455;   -1,773
937,474; 7333,566;    1,455;    0,136
938,028; 7125,838;   -1,636;    1,136
938,583; 6626,020;    1,818;    4,682
939,138; 6859,020;    2,091;    2,136
939,692; 6274,747;    1,636;   -1,136
940,247; 6023,929;   -0,727;   -1,045
940,801; 5554,293;   -0,636;    0,227
941,355; 5454,111;   -0,364;    2,591
941,910; 5092,657;   -0,273;   -2,136
942,464; 5217,020;   -0,818;   -0,318
943,018; 5021,929;    1,000;   -0,227
943,572; 4947,475;    2,545;   -0,682
944,126; 4388,657;    0,091;   -0,409
944,681; 4279,293;    3,091;    0,227
945,235; 4248,747;    1,000;   -0,591
945,789; 4185,657;    0,364;   -1,864
946,342; 4300,202;    0,455;   -0,591
946,896; 4089,020;   -2,273;    0,955
947,450; 3838,929;    1,545;   -0,227
948,004; 4041,384;    1,727;   -0,045
948,558; 4039,566;    0,273;   -0,864
949,111; 3981,929;   -0,273;   -0,318
949,665; 4019,020;    1,636;   -0,682
950,219; 3887,475;   -0,091;   -1,045
950,772; 3951,566;   -1,909;    1,864
951,326; 3865,202;    0,545;   -0,955
951,879; 3966,929;    0,727;   -2,318
952,433; 3995,111;    0,000;    2,227
952,986; 3828,657;    2,909;    0,682
953,539; 3788,020;   -0,273;    0,591
954,093; 3707,020;    0,545;   -1,318
954,646; 3839,657;    0,909;    1,318
955,199; 3663,202;    0,000;   -0,500
955,752; 3569,838;   -0,455;    1,773
956,305; 3510,566;   -0,091;    2,955
956,858; 3684,838;    0,818;   -0,318
957,411; 3849,657;   -0,545;    2,136
957,964; 3670,293;    1,364;    2,136
958,517; 3654,838;   -1,545;    3,136
959,070; 3487,747;   -0,455;    1,955
959,623; 3575,747;    1,091;    1,500
960,176; 3358,929;    1,727;    2,045
960,728; 3329,111;   -2,727;    0,773
961,281; 3372,657;    0,545;    0,500
961,834; 3420,657;   -0,909;    0,864
962,386; 3341,929;    1,727;    1,045
962,939; 3271,202;    0,364;   -0,318
963,491; 3403,475;    0,455;    1,136
964,043; 3292,657;    1,182;    2,409
964,596; 3416,202;   -1,000;    2,227
965,148; 3228,747;   -1,000;    1,773
965,700; 3140,657;    1,091;   -0,227
966,253; 3305,657;   -0,636;    0,318
966,805; 3146,657;   -2,273;    0,773
967,357; 3195,747;    1,091;   -1,500
967,909; 3159,384;    0,455;   -1,227
968,461; 3266,566;    0,545;    3,136
969,013; 3186,566;   -0,182;   -0,864
969,565; 3278,838;   -0,455;   -1,136
970,117; 3340,657;   -0,364;    1,045
970,669; 3179,566;    0,182;   -0,136
971,220; 3036,475;   -0,455;   -1,500
971,772; 2963,566;   -0,636;   -0,318
972,324; 3076,111;    0,091;   -0,500
972,876; 3019,657;    0,818;   -0,045
973,427; 3183,657;    1,909;   -1,045
973,979; 3136,566;   -0,727;   -2,500
974,530; 3176,111;    1,818;    1,318
975,082; 3173,838;   -0,545;    1,682
975,633; 3061,111;    1,091;    1,682
976,184; 3199,747;    0,909;    0,773
976,736; 2987,566;    0,091;    0,227
977,287; 2804,747;   -0,909;   -0,500
977,838; 2981,111;    0,909;   -0,318
978,389; 3049,838;   -1,000;   -0,500
978,940; 2910,838;    0,545;   -0,409
979,491; 2925,566;    0,091;   -0,500
980,042; 2897,838;    0,182;    3,045
980,593; 2965,475;   -2,545;    0,227
981,144; 3006,111;    2,545;   -0,500
981,695; 2961,929;    1,455;    1,500
982,246; 2919,657;   -0,273;    1,045
982,797; 3087,747;   -1,727;    0,682
983,347; 3188,475;    0,364;    0,591
983,898; 3368,384;    3,091;    0,409
984,449; 3196,020;    2,182;    0,773
984,999; 3097,657;    1,455;   -1,136
985,550; 2851,747;    0,182;   -0,318
986,100; 2864,747;   -0,455;   -0,318
986,651; 2898,566;   -0,818;    0,045
987,201; 2903,202;   -1,000;   -0,591
987,751; 2978,657;    0,818;    2,864
988,302; 2969,475;    2,636;    1,500
988,852; 3012,111;    0,455;   -1,136
989,402; 3041,929;    0,091;    0,682
989,952; 2960,384;   -2,182;    0,864
990,502; 3064,657;   -0,091;    0,682
991,052; 3032,020;   -0,727;    0,045
991,602; 2880,838;   -2,909;    1,318
992,152; 2879,475;    0,455;    0,682
992,702; 2857,475;    1,364;   -0,045
993,252; 2791,929;   -3,000;   -0,500
993,802; 2889,475;   -0,273;    1,318
994,352; 3106,020;   -1,545;    1,136
994,901; 3199,293;   -0,182;    3,227
995,451; 3116,657;   -0,182;    0,318
996,000; 3184,566;    1,636;    0,318
996,550; 2909,202;    2,273;    0,227
997,100; 2904,566;    1,273;   -0,045
997,649; 3187,020;    2,182;    0,955
998,198; 2827,202;    1,727;   -1,500
998,748; 3021,020;    1,091;   -2,318
999,297; 2929,202;   -0,818;   -0,409
999,846; 3002,384;    1,000;   -0,773
1000,395; 3054,838;   -0,818;    0,500
1000,945; 3014,747;    1,818;   -0,773
1001,494; 3087,202;    2,364;    0,682
1002,043; 3069,384;    4,636;    0,864
1002,592; 2910,747;   -1,091;    1,955
1003,141; 3063,929;   -0,455;   -0,682
1003,690; 2934,929;    1,727;    0,500
1004,238; 3015,020;    1,455;   -0,045
1004,787; 2639,293;    1,364;    1,227
1005,336; 2885,838;    0,364;    0,682
1005,885; 3040,747;    1,364;   -2,773
1006,433; 3171,293;    0,545;    0,955
1006,982; 3231,929;    0,455;    1,682
1007,531; 3114,111;   -1,818;   -0,227
1008,079; 3073,384;   -2,273;    0,500
1008,627; 3208,384;   -1,455;    0,409
1009,176; 2934,475;    0,000;   -1,955
1009,724; 2978,111;    1,091;    0,864
1010,273; 3045,020;    1,273;    0,500
1010,821; 3137,202;    0,091;    1,409
1011,369; 2877,020;   -1,364;    1,318
1011,917; 2862,020;   -1,364;   -0,591
1012,465; 3147,020;    1,273;   -1,591
1013,013; 3261,384;    2,091;   -1,682
1013,561; 3149,566;    0,455;   -0,773
1014,109; 3216,657;   -1,909;    1,682
1014,657; 3064,657;    0,364;    0,591
1015,205; 3169,566;    1,636;   -0,955
1015,753; 3225,293;   -0,545;   -1,409
1016,301; 3261,384;   -2,636;    3,045
1016,848; 3259,747;   -1,273;    0,409
1017,396; 3314,475;    2,545;    0,045
1017,944; 3420,111;    1,182;    1,864
1018,491; 3183,747;    0,273;    1,409
1019,039; 3332,202;    0,455;    0,591
1019,586; 3239,384;   -1,364;    1,682
1020,134; 3337,293;    0,455;    1,500
1020,681; 3374,747;    0,182;   -1,136
1021,228; 3351,111;    2,909;   -2,227
1021,776; 3185,747;    1,182;   -1,136
1022,323; 3417,838;    0,455;    0,773
1022,870; 3337,566;   -1,000;   -0,045
1023,417; 3248,020;    2,636;    1,864
1023,964; 3368,293;    2,636;    1,227
1024,511; 3232,929;    1,000;    0,773
1025,058; 3032,111;    3,182;   -0,045
1025,605; 3088,475;   -2,273;    3,136
1026,152; 3313,384;    1,727;   -0,591
1026,699; 3022,293;    1,818;    1,318
1027,245; 3181,384;   -0,091;    0,318
1027,792; 3388,020;   -1,000;    1,409
1028,339; 3278,111;    2,364;   -0,045
1028,885; 3125,384;    1,000;   -0,227
1029,432; 3062,111;   -0,091;    0,227
1029,978; 3128,475;   -1,000;   -1,591
1030,525; 3022,293;    1,000;    0,409
1031,071; 3259,747;   -1,364;    1,136
1031,618; 3369,202;    0,364;    1,682
1032,164; 3155,657;   -0,091;    3,045
1032,710; 3226,293;    1,636;   -1,500
1033,256; 3130,293;   -0,636;   -0,136
1033,803; 3115,929;   -0,545;    1,500
1034,349; 2814,020;   -1,364;    0,136
1034,895; 2976,475;    0,000;   -0,318
1035,441; 2952,657;   -0,818;    0,318
1035,987; 2970,747;   -2,364;   -0,682
1036,533; 2961,747;   -1,455;   -0,955
1037,078; 3174,657;    1,455;    1,682
1037,624; 2978,657;    2,455;   -0,955
1038,170; 3009,747;    0,455;   -0,318
1038,716; 2930,384;    1,636;   -0,409
1039,261; 2840,111;   -2,273;   -0,773
1039,807; 2779,929;   -0,091;    3,409
1040,352; 2847,838;   -1,909;   -0,318
1040,898; 2881,384;   -1,545;   -0,682
1041,443; 2787,020;   -1,455;   -2,591
1041,989; 2820,293;    1,091;    1,591
1042,534; 2696,384;   -0,364;    2,591
1043,079; 2782,929;    2,909;    0,955
1043,625; 2600,384;    1,818;    0,500
1044,170; 2640,202;   -1,364;    1,045
1044,715; 2889,020;    2,455;    0,955
1045,260; 2712,657;    2,182;   -0,955
1045,805; 2750,929;    1,182;   -0,591
1046,350; 2684,384;    1,364;   -0,409
1046,895; 2646,747;    2,909;    1,591
1047,440; 2615,566;    5,364;    0,409
1047,985; 2494,657;    2,818;   -0,955
1048,530; 2423,293;    1,545;    1,227
1049,074; 2489,838;    0,000;    0,318
1049,619; 2460,657;   -1,364;    1,955
1050,164; 2259,475;    0,455;    0,227
1050,708; 2290,293;   -0,455;    0,045
1051,253; 2683,475;    1,273;   -2,227
1051,797; 2362,293;    0,818;   -1,318
1052,342; 2362,293;   -1,182;    1,045
1052,886; 2387,384;    0,364;   -1,409
1053,430; 2277,384;   -1,364;    0,136
1053,975; 2291,929;   -0,818;   -0,318
1054,519; 2274,111;   -0,727;    3,227
1055,063; 2287,384;    0,909;    1,318
1055,607; 2169,929;   -0,182;    0,227
1056,151; 2195,111;    2,909;    1,682
1056,695; 2119,111;    2,273;   -1,136
1057,239; 2167,657;   -1,727;   -0,682
1057,783; 2186,293;    0,818;   -1,500
1058,327; 2136,293;    0,000;    1,409
1058,871; 2356,293;   -0,545;    1,318
1059,415; 2061,020;   -0,818;   -0,045
1059,958; 2352,747;    1,455;    2,591
1060,502; 2068,566;   -1,000;   -0,773
1061,046; 1946,929;    0,364;   -0,955
1061,589; 1915,475;   -3,000;   -1,136
1062,133; 1810,111;   -1,273;    1,864
1062,676; 1752,657;    1,182;    0,864
1063,220; 1771,020;    1,091;    0,500
1063,763; 1792,657;    0,909;    1,136
1064,306; 1880,202;   -0,909;    1,864
1064,849; 1749,020;   -0,909;    0,591
1065,393; 1754,111;    2,000;   -1,500
1065,936; 1870,020;    0,182;   -0,409
1066,479; 1752,838;   -1,455;    1,318
1067,022; 1766,657;   -0,273;   -0,227
1067,565; 1649,657;   -0,091;   -1,318
1068,108; 1691,293;    0,727;   -0,591
1068,651; 1666,202;   -0,636;    1,409
1069,194; 1600,111;   -0,455;   -1,682
1069,736; 1603,020;   -1,273;    0,955
1070,279; 1581,929;   -1,364;   -0,500
1070,822; 1648,747;   -2,000;   -0,318
1071,364; 1731,747;   -0,364;    1,318
1071,907; 1549,747;   -0,727;    3,227
1072,450; 1437,929;    0,000;   -0,045
1072,992; 1454,747;   -0,273;    3,136
1073,535; 1596,657;    2,091;    2,136
1074,077; 1369,384;   -0,727;    2,045
1074,619; 1340,293;   -1,364;    0,591
1075,161; 1391,657;   -1,091;    1,500
1075,704; 1584,838;    1,545;    1,227
1076,246; 1364,566;   -0,182;    0,682
1076,788; 1284,566;   -0,364;    1,773
1077,330; 1350,384;    1,273;    2,136
1077,872; 1312,566;    0,909;    0,955
1078,414; 1558,566;    2,727;    0,773
1078,956; 1284,838;    1,273;   -0,227
1079,498; 1554,747;    1,636;    0,318
1080,040; 1241,929;    1,909;   -1,318
1080,581; 1196,293;    1,636;   -0,318
1081,123; 1129,020;    0,091;   -0,773
1081,665; 1173,657;   -1,182;   -0,955
1082,206; 1483,111;    1,364;   -0,500
1082,748; 1339,657;    0,727;    2,045
1083,289; 1197,020;   -2,000;    1,318
1083,831; 1104,020;   -0,545;    0,227
1084,372; 1155,384;    0,000;    0,591
1084,913; 1163,566;    1,091;    0,864
1085,455; 1114,202;   -1,909;   -2,045
1085,996; 1084,566;   -2,273;    0,136
1086,537; 1109,838;   -0,091;    0,864
1087,078; 1147,929;   -0,909;   -2,136
1087,619; 1198,111;   -1,273;    0,227
1088,160; 1103,747;    0,000;    1,318
1088,701; 1072,566;   -1,091;    0,682
1089,242; 1025,202;    1,364;   -2,227
1089,783; 1139,475;   -0,273;    1,409
1090,324; 1099,657;    0,455;    0,682
1090,865;  975,838;    2,727;   -0,409
1091,405;  933,929;    0,727;    2,227
1091,946;  958,202;    0,182;   -0,955
1092,487;  881,838;    0,818;   -1,409
1093,027; 1056,111;   -1,364;   -1,500
1093,568;  913,293;   -0,364;    1,227
1094,108; 1030,475;    0,273;    1,773
1094,649;  966,838;   -1,182;    0,136
1095,189;  882,838;   -0,636;   -0,682
1095,729;  836,384;   -0,091;    0,955
1096,269;  833,475;    0,727;   -0,955
1096,810; 1165,838;   -1,364;    0,500
1097,350;  985,566;    1,364;   -0,773
1097,890;  887,566;    0,364;    1,227
1098,430; 1150,475;    2,364;    2,864
1098,970; 1027,747;    2,182;    1,682
1099,510;  864,566;    0,545;   -2,318
1100,050;  797,838;    1,000;   -1,591
1100,589;  769,111;   -0,727;   -0,318
1101,129;  907,384;    0,818;   -0,955
1101,669; 1062,475;    1,727;    2,136
1102,209;  866,747;   -0,091;    2,227
1102,748;  838,838;    0,000;    0,955
1103,288;  818,838;    1,273;   -1,227
1103,827;  849,475;    3,091;   -2,227
1104,367;  721,657;   -0,091;   -2,409
1104,906;  687,111;    1,364;   -1,136
1105,445;  757,475;    0,636;   -1,136
1105,985;  702,929;   -0,727;    1,500
1106,524;  761,202;   -1,727;   -0,682
1107,063;  724,747;   -2,727;    1,409
1107,602;  695,475;   -1,909;   -1,500
1108,141;  618,657;   -1,909;    1,500
1108,680;  743,747;   -3,455;   -0,591
1109,219;  662,566;   -0,909;   -0,500
1109,758;  662,293;    0,455;    0,682
1110,297;  644,202;    1,000;   -0,682
1110,836;  580,111;   -0,727;    0,955
1111,375;  754,293;   -2,545;    0,409
1111,913;  762,293;   -1,000;    0,773
1112,452;  689,020;   -0,273;    0,136
1112,991;  577,657;    1,091;    1,955
1113,529;  538,475;   -0,818;   -0,045
1114,068;  609,475;   -0,273;    2,955
1114,606;  511,293;   -0,364;   -0,955
1115,144;  685,566;   -1,273;    1,045
1115,683;  615,475;   -0,727;    0,318
1116,221;  661,566;   -0,455;   -0,864
1116,759;  565,293;    0,636;   -0,864
1117,297;  780,293;    0,000;    1,864
1117,836;  568,929;   -2,182;   -1,227
1118,374;  579,747;    0,182;   -0,682
1118,912;  527,475;    0,909;    2,682
1119,450;  507,020;    1,000;    0,864
1119,988;  568,111;    1,545;    2,136
1120,525; 1021,838;    5,091;    3,318
1121,063;  723,202;    1,182;    1,864
1121,601;  522,293;   -0,909;   -1,227
1122,139;  479,384;   -0,727;   -2,045
1122,676;  689,475;   -0,727;    2,773
1123,214;  619,202;   -1,182;    4,409
1123,751;  421,929;    1,727;    2,227
1124,289;  558,747;   -0,091;   -0,409
1124,826;  420,475;    1,727;    0,227
1125,364;  342,293;    1,727;   -0,955
1125,901;  544,838;    1,182;    1,227
1126,438;  674,657;    0,818;    0,955
1126,975;  378,111;   -0,727;   -0,773
1127,513;  460,929;    0,273;    2,136
1128,050;  355,384;    1,636;   -0,682
1128,587;  454,838;    2,000;   -0,227
1129,124;  502,384;    0,091;    1,318
1129,661;  351,293;    0,273;    0,227
1130,198;  526,566;    1,636;    0,773
1130,734;  481,838;    0,182;    1,409
1131,271;  333,929;   -0,909;    0,864
1131,808;  509,657;    2,909;    3,045
1132,345;  379,202;    1,545;    0,318
1132,881;  239,747;   -1,545;   -1,864
1133,418;  385,384;    0,727;   -1,136
1133,954;  326,293;    2,455;   -2,682
1134,491;  400,929;    1,364;   -0,773
1135,027;  288,202;    2,364;    0,864
1135,564;  396,475;    0,273;    2,955
1136,100;  376,657;    0,364;    2,136
1136,636;  249,747;   -1,273;   -1,045
1137,172;  357,475;    0,000;   -1,045
1137,708;  281,838;   -1,364;   -1,045
1138,245;  277,475;    1,273;   -1,227
1138,781;  227,657;    1,091;   -3,318
1139,317;  300,838;    1,273;   -1,409
1139,852;  282,929;    3,091;    0,136
1140,388;  408,929;   -1,182;   -0,409
1140,924;  292,838;   -1,091;   -2,227
1141,460;  232,838;   -1,636;    0,136
1141,996;  159,929;   -1,364;    2,682
1142,531;  214,293;    1,364;    3,318
1143,067;  439,566;    1,182;    1,045
1143,602;  495,838;   -0,091;   -0,318
1144,138;  332,020;   -2,636;    1,045
1144,673;  193,202;   -1,455;    1,409
1145,209;  261,838;   -1,909;   -0,318
1145,744;  180,202;   -0,727;    0,864
1146,279;  327,838;    1,818;   -0,136
1146,815;  235,747;    1,545;   -2,682
1147,350;  282,929;   -1,364;    0,045
1147,885;  189,657;   -0,818;   -1,318
1148,420;  189,111;   -2,273;    0,773
1148,955;  169,384;   -1,727;    1,864
1149,490;  193,111;   -0,909;   -1,591
1150,025;  175,929;    0,455;   -1,773
1150,560;  301,293;    1,091;   -0,955
1151,094;  265,747;    1,455;   -0,591
1151,629;  267,566;    1,636;    0,864
1152,164;  190,566;    1,364;    1,318
1152,698;  146,475;   -0,182;   -0,136
1153,233;  102,929;    0,091;   -0,682
1153,767;  155,475;   -3,000;   -2,318
1154,302;  205,111;   -1,455;    1,773
1154,836;  203,475;   -0,455;   -2,136
1155,371;  266,202;   -1,364;    3,682
1155,905;  217,929;   -0,636;    1,682
1156,439;  177,202;   -0,636;   -0,500
1156,973;  216,293;    0,364;    0,318
1157,507;  145,384;   -0,364;    0,682
1158,042;  180,384;   -0,727;    1,045
1158,576;  229,747;    0,182;    1,773
1159,110;  209,747;   -0,818;    2,409
1159,643;  184,838;    0,636;   -0,045
1160,177;  115,929;   -1,545;    1,500

