
Integration time [ms]:   0,040
Averaging Nr. [scans]: 11
Smoothing Nr. [pixels]: 0
Data measured with spectrometer [name]: 7318044SP
Wave   ;Sample   ;Dark     ;Reference
[nm]   ;[counts] ;[counts] ;[counts] 

186,757;   27,186;   31,551;    1,318
187,357;   68,992;   22,551;    0,955
187,958;   48,344;   15,460;   -1,591
188,558;   96,267;    8,915;   -1,227
189,159;   51,189;    6,733;   -4,500
189,759;   25,061;    7,278;   -3,591
190,360;   22,994;    2,824;   -2,136
190,960;   69,859;    2,915;   -4,136
191,560;   88,125;    3,189;   -6,591
192,161;  352,404;    4,372;   -3,500
192,761;  179,348;    4,010;   -3,227
193,361;  121,284;    1,556;   -3,773
193,962;  169,506;    2,010;   -2,682
194,562;   87,825;    1,189;   -3,955
195,162;  134,100;   -2,448;   -2,227
195,762;  317,702;   -3,176;   -0,045
196,362;  258,671;    1,370;   -2,500
196,963;   91,334;    2,006;   -0,864
197,563;  174,091;    1,551;   -0,955
198,163;  118,026;    0,096;   -0,682
198,763;  147,881;    1,733;   -0,500
199,363;  256,319;    3,096;   -0,500
199,963;  225,389;    0,369;    0,409
200,563;  192,032;    2,823;   -1,409
201,163;  173,781;    3,277;   -0,227
201,763;  264,210;    3,732;    0,318
202,363;  192,132;    1,459;    1,500
202,963;  326,186;    1,459;    1,045
203,563;  439,435;    0,277;    0,500
204,162;  268,455;    2,096;   -1,864
204,762;  258,944;    0,550;    0,591
205,362;  224,827;    3,004;    1,955
205,962;  332,867;    3,096;    1,955
206,562;  330,450;    1,823;    2,318
207,161;  290,150;   -0,087;    0,318
207,761;  458,300;    1,277;    2,409
208,361;  320,375;   -0,268;    1,409
208,960;  432,671;    0,459;    1,500
209,560;  513,959;    1,277;    1,591
210,160;  489,253;    0,550;    1,864
210,759;  451,598;    4,186;    1,227
211,359;  464,671;    1,459;    1,045
211,958;  737,813;    1,277;    2,045
212,558;  828,601;    1,732;    1,864
213,157;  659,212;    1,822;    1,500
213,757; 1140,611;    3,822;   -0,227
214,356;  816,107;    1,277;   -0,409
214,956; 1163,111;    3,095;    0,409
215,555;  771,454;    2,095;    2,136
216,154;  696,668;   -2,723;   -0,591
216,754;  705,930;    0,277;    0,773
217,353;  868,520;   -0,268;   -1,045
217,952;  705,255;   -0,178;    0,318
218,552;  964,532;    1,368;   -0,773
219,151;  843,443;    0,277;    0,955
219,750;  861,875;    0,004;   -0,227
220,349; 1000,980;   -0,451;    1,045
220,948; 1051,869;   -1,360;    1,136
221,548; 1100,411;    0,913;    1,227
222,147; 1222,509;   -0,087;   -0,409
222,746; 1516,036;   -0,451;   -0,955
223,345; 1395,879;    0,731;    0,500
223,944; 1413,751;   -0,451;    0,773
224,543; 1590,231;    1,004;   -1,409
225,142; 1706,129;    0,094;    0,136
225,741; 1616,482;   -0,814;    1,045
226,340; 1654,812;   -0,451;   -0,955
226,939; 2131,590;   -0,996;   -0,136
227,538; 2114,226;   -0,360;   -0,773
228,137; 2282,427;   -0,814;    0,864
228,735; 2452,785;   -0,541;    1,227
229,334; 2194,321;   -0,905;   -0,227
229,933; 2579,395;    0,459;    0,591
230,532; 2700,516;    1,186;   -0,409
231,131; 2729,054;    1,732;    0,318
231,729; 2943,824;   -2,450;   -2,318
232,328; 3084,232;   -0,723;   -1,500
232,927; 3175,446;    1,004;   -0,500
233,525; 3323,326;    3,640;    0,045
234,124; 3548,303;    2,368;   -1,591
234,723; 3569,616;    0,913;   -1,045
235,321; 3730,573;    2,277;    0,136
235,920; 4018,193;    1,186;   -1,227
236,518; 4262,696;    3,459;    0,318
237,117; 4466,294;    0,004;   -0,227
237,715; 4644,385;    0,640;   -0,500
238,314; 4694,531;   -0,087;   -2,318
238,912; 4800,382;   -0,723;   -1,409
239,510; 4849,907;    0,459;   -1,227
240,109; 5051,710;    0,004;    3,773
240,707; 5087,431;   -0,996;    1,227
241,305; 5483,953;    0,550;    0,136
241,904; 5697,407;   -0,178;   -2,045
242,502; 5672,240;   -0,632;   -0,227
243,100; 5599,557;   -0,087;   -0,955
243,698; 5856,557;    0,732;    1,682
244,297; 6056,235;   -0,632;    0,682
244,895; 5853,199;   -0,269;   -2,318
245,493; 6240,036;    2,186;   -0,591
246,091; 6256,802;    1,368;   -1,318
246,689; 6259,706;    1,004;    0,591
247,287; 6433,215;    0,822;   -1,136
247,885; 6727,861;   -1,451;    1,227
248,483; 6808,450;    1,822;   -0,500
249,081; 6937,288;    0,185;    1,591
249,679; 7113,027;   -0,178;    1,682
250,277; 7387,644;   -1,723;    0,864
250,875; 7408,016;   -1,087;   -1,045
251,473; 7416,240;   -1,178;    0,500
252,071; 7604,087;    1,459;    1,045
252,669; 7760,569;   -1,814;    0,318
253,267; 8050,922;   -0,087;    0,773
253,864; 8027,033;   -0,360;    0,682
254,462; 7860,936;    1,640;    1,591
255,060; 7828,366;   -0,269;    1,318
255,658; 8170,933;    0,822;   -0,136
256,255; 8607,300;    0,186;   -2,045
256,853; 8436,133;   -0,269;    1,409
257,451; 8446,480;    0,822;    1,864
258,048; 8717,455;    1,822;    1,864
258,646; 8495,295;    1,731;   -1,045
259,243; 8684,497;   -0,087;    2,227
259,841; 8713,997;   -0,814;    0,318
260,438; 8577,652;   -0,087;    0,864
261,036; 9332,363;   -1,905;    1,409
261,633; 9230,852;   -0,087;    2,227
262,231; 8981,132;    2,731;   -0,045
262,828; 9063,055;   -0,905;    1,136
263,425; 9095,536;    0,913;   -0,591
264,023; 9388,002;    0,186;    0,045
264,620; 8976,558;   -0,360;   -0,318
265,217; 9317,211;   -2,087;    3,136
265,815; 9423,823;   -1,905;    2,136
266,412; 9190,039;    0,731;    0,136
267,009; 9248,566;   -1,451;    0,773
267,606; 9114,840;    0,822;   -0,955
268,203; 9089,324;   -0,269;   -0,591
268,801; 9406,960;    1,731;    0,591
269,398; 9699,999;   -0,360;    2,500
269,995; 9693,782;    0,277;    1,591
270,592; 9445,171;   -0,632;   -0,500
271,189; 9648,485;    0,186;    0,409
271,786; 9761,209;   -0,632;    1,227
272,383; 9597,282;   -1,087;    0,227
272,980; 9801,181;    0,277;    0,318
273,577;10315,293;    0,004;    1,227
274,174; 9874,799;    0,822;    2,591
274,771; 9884,115;   -0,814;   -0,773
275,367;10016,106;    2,277;    1,409
275,964; 9938,321;    0,731;   -0,500
276,561;10022,221;    1,549;   -1,045
277,158;10275,300;    0,095;   -1,773
277,755;10417,833;    2,185;    0,409
278,351; 9809,926;   -0,451;   -1,500
278,948;10131,796;   -0,815;    0,045
279,545;10139,222;   -1,360;    2,318
280,141;10767,097;   -1,723;   -2,045
280,738;10646,196;   -0,451;   -0,136
281,334;10911,635;   -1,633;    0,591
281,931;10291,314;   -0,087;   -1,318
282,528;10360,957;    0,822;   -0,500
283,124;11111,300;   -1,087;   -0,500
283,721;11023,294;   -0,451;    1,409
284,317;10804,929;    0,185;    2,500
284,913;11383,090;   -1,360;    0,591
285,510;11577,181;    0,640;   -0,318
286,106;11570,720;   -2,269;   -0,955
286,703;11176,567;   -0,360;    1,955
287,299;11399,815;   -1,451;   -0,591
287,895;11556,771;    0,822;   -1,045
288,491;12174,544;    0,186;    2,136
289,088;11884,739;   -2,360;    2,409
289,684;11962,933;   -1,723;    1,500
290,280;11983,809;    0,368;    0,682
290,876;12107,066;    1,822;    5,500
291,472;11945,786;    1,276;    2,227
292,068;12069,821;    1,367;    0,227
292,665;11755,906;    2,095;    0,773
293,261;11354,586;    0,276;    2,136
293,857;11776,799;    2,913;    2,136
294,453;11654,844;    3,550;    0,955
295,049;11556,359;   -0,268;    1,955
295,644;11554,559;    0,095;    0,136
296,240;11469,532;   -0,905;   -0,136
296,836;11516,513;   -0,995;    0,318
297,432;11829,454;    1,096;   -0,500
298,028;11873,609;    0,732;    0,773
298,624;12286,891;    1,459;    1,864
299,220;12541,723;    2,368;    0,591
299,815;12202,575;    1,005;   -0,409
300,411;11985,723;    0,914;    1,773
301,007;11994,321;    1,368;    0,227
301,602;12027,763;   -0,541;   -2,318
302,198;12227,725;    0,732;   -0,773
302,794;12581,222;    1,187;   -0,500
303,389;12722,237;   -1,177;    1,045
303,985;12764,765;    0,550;    1,409
304,580;12724,307;    1,459;    1,591
305,176;12713,236;   -3,086;    0,136
305,771;12628,404;   -1,268;   -1,227
306,367;12495,771;    4,095;    0,136
306,962;12826,491;    0,641;    1,500
307,558;12541,972;   -0,450;    0,136
308,153;12481,605;    1,095;   -1,136
308,748;12731,452;   -0,814;    1,682
309,344;12679,076;   -0,632;   -1,318
309,939;12746,881;   -1,905;   -1,318
310,534;13013,206;   -0,086;   -1,682
311,130;13002,430;    0,459;   -2,500
311,725;12699,288;    1,004;   -0,500
312,320;13043,832;    2,459;    0,045
312,915;12894,302;    1,459;   -1,045
313,510;12993,598;    1,550;   -0,500
314,105;13476,523;    1,096;    1,409
314,700;12848,381;   -3,086;   -1,045
315,295;12456,489;   -0,904;    0,045
315,890;12027,390;    1,277;    0,864
316,485;12421,662;   -0,359;   -0,318
317,080;12562,046;   -3,086;    1,591
317,675;13124,201;    2,005;   -0,682
318,270;12530,114;    5,550;    3,318
318,865;12505,745;    3,278;    3,045
319,460;12361,731;   -0,904;    0,591
320,055;12597,577;   -0,541;   -1,227
320,650;12249,338;   -1,995;   -0,591
321,244;12254,330;   -0,177;   -1,409
321,839;13247,124;   -1,541;   -0,227
322,434;13149,741;   -1,086;   -1,591
323,029;12743,171;    1,732;    1,591
323,623;12589,634;    1,550;    0,773
324,218;12334,136;    2,368;    1,409
324,812;12184,681;    1,096;    1,591
325,407;12013,913;   -0,814;    2,045
326,002;11938,255;    0,277;   -0,409
326,596;12221,366;    0,914;    1,318
327,191;12415,321;    0,823;   -1,045
327,785;11977,094;   -0,813;   -0,227
328,379;12186,989;    1,368;    0,136
328,974;12029,203;    0,914;   -3,955
329,568;12225,900;    0,186;   -2,409
330,163;11999,031;    2,096;    1,045
330,757;12385,554;    2,459;    1,591
331,351;11684,985;    0,459;    0,682
331,945;12020,216;    0,914;    1,409
332,540;11593,263;   -1,723;   -0,591
333,134;11761,441;   -1,086;    0,773
333,728;12002,322;    0,005;    0,318
334,322;12304,102;   -1,177;   -0,864
334,916;11608,374;    0,277;    0,955
335,510;11977,916;   -0,450;   -0,136
336,105;12180,412;   -1,086;    1,591
336,699;11928,824;   -1,086;    0,591
337,293;11836,786;   -1,723;    0,318
337,887;11987,137;   -2,723;    1,955
338,481;12086,017;    0,459;    0,591
339,074;12228,460;   -0,359;    2,682
339,668;12073,039;   -1,632;    1,227
340,262;12346,115;    1,732;    3,227
340,856;11814,301;    1,822;   -0,682
341,450;11150,496;    1,004;    1,864
342,044;12062,695;    1,459;    0,136
342,637;11835,165;    0,913;   -2,136
343,231;11702,272;   -2,360;    0,682
343,825;11658,910;   -1,086;   -0,591
344,419;11610,428;   -1,995;    0,500
345,012;11423,870;    2,459;    4,045
345,606;11449,717;    4,641;    1,591
346,199;11279,592;   -1,813;   -0,227
346,793;10794,535;    1,914;    2,045
347,386;10930,462;   -0,813;   -1,136
347,980;10939,598;   -0,268;   -0,045
348,573;10701,122;    2,278;    0,409
349,167;10374,272;    5,278;    4,773
349,760;10734,314;    2,914;    2,682
350,354;10774,201;   -0,813;    1,136
350,947;10494,611;    1,096;    1,682
351,540;10130,905;   -0,358;   -1,409
352,134;10067,619;    1,096;    1,136
352,727;10180,754;   -0,086;    1,136
353,320; 9937,221;    0,005;    0,591
353,913; 9785,647;   -1,995;    1,864
354,507; 9996,399;    0,823;   -1,227
355,100; 9983,915;    0,460;    0,864
355,693; 9246,365;    2,005;    2,409
356,286; 9286,341;    0,823;    2,773
356,879; 9623,597;   -0,722;    1,227
357,472; 9189,917;   -0,904;    1,500
358,065; 9411,531;   -0,722;    2,500
358,658; 9315,864;   -0,540;    2,318
359,251; 8943,329;   -1,631;   -0,591
359,844; 8456,334;   -1,904;   -1,136
360,437; 8629,075;   -2,995;    0,045
361,030; 8887,024;    1,369;   -0,682
361,623; 8472,557;    2,824;    0,318
362,215; 8544,366;   -0,086;    2,045
362,808; 8354,033;   -2,358;   -1,682
363,401; 8560,576;   -2,449;    0,136
363,994; 8299,862;   -0,631;   -1,500
364,586; 8177,839;    0,824;   -1,500
365,179; 8430,235;   -0,449;   -1,136
365,772; 7888,545;   -1,995;    2,045
366,364; 8200,408;    1,915;   -3,227
366,957; 8400,904;    2,279;   -0,045
367,549; 8446,058;    2,188;   -0,864
368,142; 8091,114;    1,825;   -1,500
368,734; 8281,440;    0,734;   -2,136
369,327; 8236,981;    1,643;   -0,500
369,919; 8165,328;   -1,538;    0,409
370,512; 7909,391;   -1,083;   -0,500
371,104; 7709,109;   -0,901;    1,591
371,696; 7909,628;    1,191;   -0,955
372,289; 8007,097;    0,373;    1,136
372,881; 8127,770;   -2,080;    1,318
373,473; 8035,757;   -2,170;    1,136
374,066; 7859,700;   -0,169;    0,500
374,658; 7693,008;    0,378;    1,136
375,250; 8032,644;    0,653;   -1,409
375,842; 7905,134;    0,473;   -0,045
376,434; 7767,581;   -0,435;   -0,409
377,026; 8355,062;    0,204;   -2,500
377,618; 8236,266;   -0,158;   -0,682
378,210; 8078,434;   -0,338;   -1,955
378,802; 7934,785;    0,754;   -0,591
379,394; 7916,430;    1,846;    0,682
379,986; 8501,451;    1,393;   -0,955
380,578; 8600,187;   -0,153;    0,773
381,170; 7940,889;   -0,972;    0,045
381,762; 7886,356;    0,755;    1,409
382,354; 8107,271;   -0,065;   -1,318
382,945; 8224,052;   -2,976;    0,318
383,537; 8365,173;   -2,705;   -1,955
384,129; 8363,352;   -2,160;   -1,136
384,721; 8575,334;   -0,252;    0,955
385,312; 8512,016;   -0,161;   -0,955
385,904; 8577,106;   -2,706;    1,591
386,496; 7969,935;   -0,979;    1,045
387,087; 8085,083;    1,022;    2,500
387,679; 8130,210;   -1,160;    0,045
388,270; 8263,731;    2,840;    2,045
388,862; 8393,207;    1,295;   -0,318
389,453; 8291,429;   -0,887;    1,045
390,045; 8578,670;   -0,705;   -2,682
390,636; 8498,502;    0,204;   -0,591
391,227; 8329,946;   -0,523;   -0,045
391,819; 8447,577;    0,204;    0,773
392,410; 8542,120;    1,022;    0,045
393,001; 8474,145;   -0,979;   -1,591
393,593; 8773,616;    1,930;   -0,045
394,184; 8626,610;    1,385;   -0,409
394,775; 8551,738;    1,839;    2,136
395,366; 8751,979;    1,385;    0,773
395,957; 8739,071;    0,113;    0,136
396,548; 9074,929;   -0,342;    2,682
397,139; 9401,910;   -2,433;    0,591
397,730; 9126,756;   -1,888;    0,955
398,321; 9198,149;   -1,252;    0,955
398,912; 9219,130;   -0,615;    0,136
399,503; 9243,607;   -3,524;   -1,409
400,094; 8669,810;    0,294;    1,682
400,685; 8544,161;   -0,433;    0,045
401,276; 8641,848;    0,930;   -0,955
401,867; 8954,216;   -0,888;    0,773
402,458; 9033,715;   -2,251;   -2,318
403,048; 9021,069;    1,112;    0,591
403,639; 8619,459;    0,840;    0,864
404,230; 8856,930;    2,476;    0,318
404,821; 8816,970;   -0,615;    0,045
405,411; 8919,456;    1,203;   -2,591
406,002; 8511,111;   -1,252;   -1,136
406,592; 8398,237;    2,294;    0,045
407,183; 8723,526;    0,566;   -1,500
407,774; 8631,701;    3,475;   -0,136
408,364; 8958,442;    0,930;    0,409
408,954; 8552,829;    0,384;    1,227
409,545; 8561,087;    1,021;    1,045
410,135; 8110,046;    1,293;    0,500
410,726; 8281,602;    1,838;    0,318
411,316; 8675,116;    0,111;    0,773
411,906; 8334,441;   -0,253;   -0,409
412,497; 7801,287;   -1,070;   -0,045
413,087; 8452,452;   -1,980;   -0,227
413,677; 8832,725;   -0,707;    3,864
414,267; 8663,582;    0,656;    1,409
414,857; 8680,339;   -2,980;    4,227
415,448; 9006,054;    0,839;    0,500
416,038; 8642,839;    0,020;   -0,591
416,628; 8623,074;   -0,889;    0,409
417,218; 8060,385;    0,565;    3,318
417,808; 8372,597;    0,202;   -0,409
418,398; 8861,361;    0,020;    2,682
418,988; 8867,172;    2,020;    0,591
419,578; 9169,450;   -0,707;    1,409
420,168; 9465,996;   -1,343;   -0,955
420,757; 9056,904;   -1,343;   -1,500
421,347; 8713,374;    0,111;   -0,227
421,937; 8897,754;    2,292;    1,409
422,527; 8872,638;    0,838;   -0,773
423,116; 8693,206;   -0,253;   -0,045
423,706; 8994,421;   -1,889;    0,318
424,296; 8987,048;    1,384;    0,682
424,885; 9390,139;   -0,071;   -3,045
425,475; 9690,123;    1,474;   -2,864
426,065; 9609,872;   -0,980;   -0,318
426,654; 9235,779;   -0,435;   -0,318
427,244; 9403,448;    0,020;    1,409
427,833; 8852,049;    1,383;   -0,500
428,423; 9341,964;   -0,526;    1,136
429,012;10109,736;   -0,344;   -1,136
429,601; 9615,475;   -1,344;    0,136
430,191; 9837,467;    1,292;    4,318
430,780; 9438,579;   -0,344;   -0,409
431,369; 9376,753;    0,746;   -0,045
431,959;10024,810;   -1,254;    0,500
432,548; 9806,675;   -1,163;   -0,045
433,137; 9938,917;   -1,254;   -1,318
433,726;10479,963;    0,292;    0,500
434,315; 9803,431;   -0,526;    2,409
434,905; 9892,573;   -1,254;    1,409
435,494; 9762,141;    0,746;    0,955
436,083;10219,683;   -0,981;   -0,955
436,672;10166,471;    0,110;    0,500
437,261; 9691,732;    0,292;   -1,955
437,850; 9856,286;    1,383;    0,682
438,439; 9897,985;    3,291;    1,955
439,027; 9681,571;    3,655;    1,773
439,616;10031,431;    2,927;    1,227
440,205; 9910,576;    0,200;   -2,136
440,794;10032,001;    2,109;   -0,045
441,383;10265,368;   -1,346;   -0,591
441,971;10110,348;   -2,436;    0,591
442,560; 9978,318;    0,563;   -1,773
443,149; 9726,496;    0,379;   -1,318
443,737; 9897,642;   -0,074;   -2,318
444,326;10180,424;    0,018;    0,318
444,915;10235,886;   -1,982;    0,864
445,503;10661,103;   -2,891;   -0,318
446,092; 9879,689;    0,382;    2,136
446,680;10418,037;    0,382;    0,318
447,269;10585,959;   -0,346;   -0,318
447,857;10379,696;    0,018;   -1,773
448,445;10474,764;    0,563;    1,318
449,034;10710,765;   -1,528;   -1,136
449,622;10840,316;   -1,073;    3,500
450,210;10006,805;    2,017;    2,227
450,799;10593,567;    0,290;   -0,591
451,387;10575,821;    1,381;   -0,591
451,975;10230,130;    2,654;    0,864
452,563;10292,643;    3,472;    2,318
453,151;10298,698;   -0,528;   -1,227
453,739;10243,600;   -1,347;    0,136
454,328;10090,503;    2,381;   -2,136
454,916; 9815,979;    2,562;   -0,136
455,504; 9964,935;    1,017;    1,227
456,092;10148,629;    0,017;   -1,591
456,679;10167,339;    1,472;    0,682
457,267;10139,622;    4,017;    1,045
457,855;10266,468;    1,017;    1,409
458,443;10009,771;   -0,165;    1,682
459,031;10154,514;    0,108;    2,409
459,619;10598,871;   -1,801;    2,864
460,206;10752,584;    0,835;    2,045
460,794;10818,960;   -2,983;   -0,227
461,382;11088,506;   -0,529;   -0,864
461,970;10653,806;    1,198;    1,864
462,557;10676,009;   -0,711;   -0,682
463,145;10901,831;   -3,165;   -1,682
463,732;11065,447;    2,016;   -1,045
464,320;11016,963;   -0,075;   -3,045
464,907;10654,704;    2,743;   -0,773
465,495;10495,731;    0,743;   -1,227
466,082;10673,798;   -1,984;   -0,045
466,670;10595,636;   -2,529;    1,227
467,257;10994,050;   -1,711;    2,045
467,844;11166,855;   -0,075;    0,045
468,432;11216,634;    0,834;    3,500
469,019;10638,470;    0,925;   -1,773
469,606;11129,540;    0,470;    3,682
470,193;10906,870;   -1,439;    0,227
470,780;10502,238;   -2,075;    0,864
471,368;10884,906;   -1,257;   -0,773
471,955;10665,315;    1,379;   -0,682
472,542;10280,296;    0,652;   -1,136
473,129;10549,950;   -0,166;    0,136
473,716;10287,246;    1,470;    0,591
474,303;10509,711;    0,652;   -0,864
474,890;10815,434;   -1,439;   -0,500
475,477;10815,922;   -1,621;    0,409
476,064;10703,704;    1,106;   -1,591
476,650;10636,573;    0,288;    0,318
477,237;10492,028;   -0,258;    0,955
477,824;10681,544;   -1,076;    0,864
478,411;10734,706;   -1,894;   -0,318
478,997;10905,458;    0,560;   -0,773
479,584;10963,759;    1,196;   -0,409
480,171;11700,062;   -0,440;   -0,773
480,757;11346,321;    2,651;    0,773
481,344;11653,404;    0,469;    0,409
481,931;11158,143;    1,105;    1,045
482,517;12263,063;   -1,258;    0,318
483,104;12956,000;    1,106;    2,864
483,690;13229,924;   -1,804;    0,045
484,276;13589,248;   -0,895;    0,227
484,863;13308,274;    2,469;    1,136
485,449;13903,430;   -0,077;    0,318
486,035;13885,755;   -1,986;   -0,136
486,622;14347,013;   -0,895;    0,045
487,208;14252,596;    1,378;    1,500
487,794;14069,269;    0,741;    0,318
488,380;14231,764;    0,105;   -1,409
488,967;14292,233;   -1,168;   -0,409
489,553;14341,548;   -1,895;   -1,409
490,139;14502,072;    1,559;    0,773
490,725;13887,370;    0,741;   -0,227
491,311;13375,585;    3,287;    3,045
491,897;12690,328;   -0,986;    1,500
492,483;12470,582;    0,105;    1,227
493,069;12312,497;    3,923;    0,864
493,655;12292,443;    1,650;    0,682
494,241;12216,568;    1,377;   -0,955
494,826;12608,180;    0,287;   -1,045
495,412;12088,030;    2,559;   -0,682
495,998;12232,286;   -0,805;   -0,318
496,584;12382,798;    0,377;    1,045
497,169;12371,912;    1,014;   -0,682
497,755;12317,152;    0,650;    1,227
498,341;12873,453;    0,559;    0,318
498,926;12467,501;    1,832;    1,955
499,512;12651,476;    1,286;    2,955
500,097;12832,214;    0,195;   -0,318
500,683;12726,427;   -0,350;    2,136
501,268;13070,469;   -0,169;   -0,955
501,854;12786,588;   -0,169;    1,227
502,439;12715,456;   -0,624;   -1,773
503,024;12960,051;    0,195;    0,500
503,610;13014,704;   -0,078;   -0,682
504,195;13015,700;    0,558;    1,955
504,780;13132,398;    2,922;    1,227
505,366;12944,640;    3,013;    2,864
505,951;12665,459;    0,740;    1,045
506,536;12674,551;   -3,260;   -3,682
507,121;12657,614;    0,285;   -0,318
507,706;13194,265;    2,376;    1,045
508,291;13608,373;    2,649;    1,136
508,876;13048,500;   -0,988;    2,591
509,461;12506,212;   -0,169;   -0,773
510,046;12917,770;    0,194;    0,318
510,631;13173,957;   -0,351;   -0,773
511,216;12804,450;    2,467;   -0,500
511,801;13169,989;   -0,442;    2,591
512,386;13493,510;    0,740;    0,500
512,971;13408,197;   -2,988;    0,955
513,555;12960,342;   -0,897;   -1,500
514,140;13785,045;   -0,442;   -3,136
514,725;13813,356;   -0,715;   -1,136
515,309;13942,962;   -0,533;    0,318
515,894;13368,289;   -0,624;   -2,227
516,479;13805,248;   -0,624;   -0,955
517,063;13645,112;    0,376;    1,227
517,648;13765,041;    1,012;   -1,136
518,232;13396,865;   -0,261;   -1,409
518,817;13760,389;   -0,079;    1,682
519,401;13995,508;    2,194;    0,591
519,985;13507,105;    1,103;    1,136
520,570;13396,863;    0,830;   -1,955
521,154;13685,902;    2,102;    0,591
521,738;13849,315;   -2,352;    2,409
522,323;14368,508;   -0,170;    1,682
522,907;14144,268;    0,466;   -0,136
523,491;13853,647;    0,557;    0,955
524,075;13837,807;    2,284;    0,591
524,659;13926,935;    1,466;    0,591
525,243;13407,896;    1,739;    0,409
525,827;13646,507;    0,648;   -0,045
526,411;14502,572;   -1,989;   -0,136
526,995;14696,681;   -0,352;    1,409
527,579;14315,867;   -0,443;   -1,045
528,163;14641,979;    0,375;   -1,500
528,747;14556,318;    2,466;   -0,773
529,331;14856,597;   -0,080;   -1,409
529,915;15092,203;    1,738;    0,955
530,499;15034,717;   -0,807;    1,227
531,082;14764,766;   -0,534;    1,591
531,666;14174,597;    1,374;    0,773
532,250;14857,023;    1,284;    2,682
532,833;15235,812;    0,920;    2,773
533,417;15056,854;   -1,807;    0,864
534,001;15050,891;    1,647;   -0,318
534,584;15766,210;    0,374;    0,500
535,168;15567,655;    0,465;    1,409
535,751;15651,815;    0,647;    0,045
536,334;15065,406;   -0,898;   -0,409
536,918;15614,423;    0,011;    1,591
537,501;15752,039;   -0,899;    1,318
538,085;15744,438;   -0,444;    1,045
538,668;15958,325;    0,829;    2,409
539,251;16315,212;    1,829;    3,773
539,834;16275,283;    0,101;    0,773
540,418;16249,819;   -1,990;    4,318
541,001;16359,565;   -0,990;    1,773
541,584;16362,497;    2,101;    2,227
542,167;16071,871;    1,374;    2,955
542,750;16202,767;    1,919;   -0,773
543,333;15788,446;    0,555;    2,136
543,916;16597,095;    0,192;    2,500
544,499;17208,659;   -1,354;    0,227
545,082;17214,369;    1,374;    3,591
545,665;17336,997;    1,919;    1,500
546,248;17680,992;    1,010;   -0,318
546,830;17333,753;   -0,445;    1,955
547,413;17746,018;    1,010;   -0,773
547,996;18314,779;    0,555;    0,500
548,579;18092,742;    0,919;    0,955
549,161;17876,634;    1,828;    2,682
549,744;17636,415;   -0,809;    0,409
550,326;18107,788;   -0,809;   -1,136
550,909;17954,736;    2,737;    0,591
551,492;18349,849;   -0,263;    0,227
552,074;18132,808;   -0,173;   -1,318
552,657;18712,054;    2,373;    0,045
553,239;18450,352;   -0,173;   -0,773
553,821;18360,887;   -1,082;    1,045
554,404;17851,471;    1,282;    1,136
554,986;18240,259;    0,464;    1,045
555,568;18875,648;    1,191;   -0,955
556,151;18075,171;    1,191;   -0,227
556,733;18234,416;   -0,264;   -0,864
557,315;18713,576;    0,100;    0,500
557,897;18499,797;    0,554;   -0,500
558,479;18691,112;   -1,991;    1,318
559,061;18833,445;   -0,719;   -0,864
559,643;19156,160;   -0,264;    0,045
560,225;19536,994;    1,645;    2,864
560,807;19502,251;    0,918;    0,318
561,389;19028,977;    0,554;    2,318
561,971;19813,895;    0,463;    2,136
562,553;19548,391;   -1,628;    1,591
563,135;19708,953;   -0,537;    1,136
563,717;19359,007;    3,372;    1,136
564,298;20050,816;    3,645;   -0,045
564,880;19852,182;    0,645;   -1,409
565,462;20025,364;    0,645;    1,318
566,043;21196,503;   -0,446;    2,318
566,625;20715,771;    1,918;    1,227
567,207;20595,952;    1,099;    1,682
567,788;21762,886;   -1,264;    1,500
568,370;22588,253;    1,917;   -0,500
568,951;22443,526;    0,190;    0,227
569,533;23318,960;   -0,628;   -0,500
570,114;23796,035;   -0,446;    0,682
570,695;24294,504;   -0,174;   -1,318
571,277;24888,928;   -0,265;   -1,682
571,858;25667,637;    2,008;   -1,136
572,439;26571,994;    1,554;   -1,045
573,021;26794,747;    2,099;   -2,773
573,602;27325,045;   -1,265;    0,318
574,183;28275,624;   -2,083;    2,227
574,764;28382,486;   -1,629;    0,409
575,345;29006,087;    0,917;   -0,136
575,926;29565,325;   -0,356;    0,136
576,507;29493,858;    1,099;   -0,227
577,088;30657,099;    3,099;    1,682
577,669;30688,799;    0,735;    1,955
578,250;31523,169;    0,644;   -1,045
578,831;32169,399;   -1,356;   -2,227
579,412;32401,413;   -0,810;    0,955
579,993;33285,487;    1,008;    0,227
580,573;33618,070;   -0,629;   -0,955
581,154;32605,290;    0,735;   -0,591
581,735;33458,671;    0,644;    0,773
582,315;32959,307;   -0,629;    2,136
582,896;33243,031;   -0,174;    1,227
583,477;32606,698;    0,189;    1,227
584,057;32827,455;    0,553;    0,955
584,638;33132,397;    2,553;    2,318
585,218;33166,354;   -0,538;    2,682
585,799;33297,892;    0,281;   -0,227
586,379;33252,281;    0,372;    1,591
586,959;31940,233;    0,735;    0,318
587,540;31154,106;   -0,629;    2,227
588,120;30688,188;    1,007;   -0,045
588,700;29715,286;    2,553;    2,136
589,281;30116,006;    0,462;   -0,955
589,861;30098,977;    0,099;   -1,682
590,441;29842,380;    2,371;   -2,682
591,021;28811,119;   -0,265;   -2,591
591,601;29025,641;   -0,537;    0,500
592,181;29011,017;   -0,719;   -0,773
592,761;28257,413;    0,007;    1,409
593,341;28166,469;   -0,901;    0,045
593,921;28174,885;   -0,265;    1,591
594,501;28105,811;   -0,538;    1,318
595,081;27957,362;    0,917;   -0,318
595,661;28309,567;   -1,447;    0,955
596,240;28886,764;   -0,537;    0,136
596,820;28567,610;    0,372;    1,955
597,400;28692,493;    2,008;    0,773
597,980;28855,120;    2,008;    1,045
598,559;28818,296;    2,735;   -0,227
599,139;28551,781;   -0,174;   -1,227
599,718;28494,235;   -0,174;   -0,409
600,298;28712,419;    0,735;    0,682
600,877;28970,316;    2,917;    1,409
601,457;29237,707;    2,281;    1,136
602,036;29141,000;    0,190;    2,045
602,616;29377,387;    0,644;    1,682
603,195;29752,339;   -0,355;    3,500
603,774;29293,155;   -0,901;    2,045
604,354;29144,042;    0,826;   -0,500
604,933;28625,172;    0,463;    1,864
605,512;28731,662;    3,554;    0,591
606,091;28793,362;   -0,537;    3,773
606,671;29603,862;    0,281;    0,773
607,250;28716,509;    1,644;    3,136
607,829;28925,848;    2,372;    3,227
608,408;28781,320;    1,190;    2,591
608,987;27786,983;    1,281;    3,409
609,566;28098,845;   -1,265;   -2,500
610,145;28216,971;   -1,082;    0,682
610,723;28641,932;    4,372;    6,864
611,302;27924,756;   -0,446;    1,682
611,881;27393,523;    5,008;   11,227
612,460;28176,870;    1,645;    3,955
613,039;28590,801;   -0,082;    2,045
613,617;27280,263;    1,736;    4,773
614,196;27513,175;    1,099;    1,227
614,775;27910,123;    1,009;    2,409
615,353;27839,399;    0,736;    0,864
615,932;27527,564;    0,100;    2,409
616,510;28123,572;    0,554;    0,591
617,089;27657,365;    7,100;   17,591
617,667;27368,206;    2,372;    6,136
618,246;27250,268;   -1,537;    1,318
618,824;27395,165;   -3,355;   -0,955
619,402;26954,625;   -2,900;   -1,773
619,981;27474,650;   -0,173;   -1,045
620,559;27262,573;    0,009;    1,682
621,137;26771,481;   -0,718;    1,864
621,715;26789,805;   -1,173;   -0,682
622,293;26719,080;   -0,537;   -0,773
622,871;27169,940;   -0,718;    0,500
623,450;26779,461;    0,373;   -0,864
624,028;26636,509;    0,191;   -0,955
624,606;26249,668;   -1,718;    1,682
625,183;26656,656;   -1,536;   -1,136
625,761;26284,469;    1,009;    1,136
626,339;26608,388;    1,373;    2,591
626,917;26989,818;   -0,172;   -0,045
627,495;26984,775;   -0,354;    1,318
628,073;26412,004;   -0,263;    2,864
628,650;26128,274;    0,100;    2,136
629,228;26573,473;    0,373;    4,409
629,806;25925,830;    2,282;    1,136
630,383;26207,076;    1,464;   -0,318
630,961;26054,407;    2,555;   -0,955
631,539;25798,852;    2,464;    0,227
632,116;25141,498;   11,373;   15,409
632,694;25673,450;    2,555;    6,500
633,271;25980,866;    0,828;    2,682
633,848;25907,846;    1,828;    2,045
634,426;25897,329;   -1,081;    1,773
635,003;25017,116;    1,101;   -0,409
635,580;25387,005;    1,192;    3,682
636,158;25910,205;    3,737;    1,227
636,735;25852,353;    0,555;   -0,500
637,312;26023,930;   -0,809;   -0,682
637,889;26131,090;   -4,354;   -0,682
638,466;25584,793;   -3,990;   -0,409
639,043;25609,407;    2,101;   -1,136
639,620;25924,097;   -2,262;   -0,955
640,197;26190,098;    1,100;    1,682
640,774;26306,247;   -0,172;    1,136
641,351;26744,850;    0,737;    1,136
641,928;26162,090;   -0,627;    1,409
642,505;25860,420;    0,828;   -0,500
643,082;25933,751;   -1,718;    1,227
643,658;24941,900;   -0,718;    1,500
644,235;25741,139;    1,191;    2,500
644,812;26099,652;    1,918;    0,773
645,388;25789,800;   -0,991;    1,409
645,965;25866,858;   -0,809;    1,682
646,542;25934,643;   -1,445;   -0,227
647,118;25920,610;    1,009;   -0,955
647,695;26230,850;   -0,263;    1,136
648,271;26101,726;   -0,536;    0,500
648,848;26456,238;    0,736;    2,227
649,424;26319,750;    0,827;    1,318
650,000;26047,990;   -0,354;   -1,045
650,577;25873,593;   -0,627;   -0,955
651,153;26389,651;   -1,809;    0,955
651,729;27411,254;    1,191;    0,864
652,305;28057,403;    0,645;    2,773
652,881;33503,188;   -0,082;    1,136
653,458;40517,155;    1,100;    0,227
654,034;43911,031;    0,282;    1,591
654,610;45168,088;    0,554;    0,773
655,186;46392,146;    0,645;    3,045
655,762;46016,477;   -0,991;    0,409
656,338;45920,444;    0,100;    0,136
656,913;46910,956;   -0,082;    0,409
657,489;46088,377;    0,827;   -0,318
658,065;46046,617;   -0,173;   -1,591
658,641;46647,311;   -0,900;   -0,864
659,217;45894,369;   -0,991;    0,409
659,792;45288,790;    0,645;   -0,409
660,368;45455,666;   -2,173;   -0,682
660,944;44778,815;   -2,082;    1,227
661,519;39251,236;   -0,628;    0,409
662,095;33269,021;   -1,719;    0,591
662,670;29129,988;    1,281;   -0,136
663,246;28230,046;    1,009;   -0,409
663,821;27615,195;    0,281;    1,682
664,396;27090,344;    0,009;    1,864
664,972;27414,856;    0,009;   -0,500
665,547;27721,823;    1,372;    0,136
666,122;27733,881;   -1,082;    0,318
666,698;28030,938;   -0,173;    0,318
667,273;27371,087;   -0,173;    0,136
667,848;28237,781;    2,372;    1,500
668,423;28013,112;    2,190;    2,318
668,998;28604,260;    2,827;   -0,682
669,573;29151,500;   -3,264;   -1,500
670,148;28949,558;   -1,446;   -0,682
670,723;28755,252;   -1,810;    0,318
671,298;29188,310;    2,372;    1,045
671,873;29323,458;   -0,082;   -0,136
672,448;29262,880;    0,645;    0,136
673,023;29575,210;   -1,992;   -0,227
673,597;29890,723;    0,827;    2,318
674,172;29638,235;   -0,355;    0,318
674,747;29141,293;    0,372;   -1,045
675,321;28926,896;   -0,628;    3,318
675,896;28561,045;    0,645;    1,045
676,471;29583,102;    2,645;    1,591
677,045;29300,251;   -1,264;    0,682
677,620;29387,036;    0,190;    1,136
678,194;29658,094;   -2,628;    1,136
678,769;29210,788;   -1,083;   -0,318
679,343;29514,755;   -0,628;    1,773
679,917;29323,267;   -1,446;    1,955
680,492;29442,325;    0,826;    3,227
681,066;29603,747;    3,372;    0,409
681,640;29633,623;    1,463;   -0,318
682,214;30533,317;    0,735;    0,500
682,788;30018,556;   -1,356;   -0,773
683,363;29967,250;   -1,810;    1,682
683,937;29673,126;   -1,719;   -0,318
684,511;30401,184;    0,463;   -0,591
685,085;30135,333;   -1,356;    0,318
685,659;29874,482;   -2,538;    0,864
686,232;30162,085;   -0,356;   -0,318
686,806;29798,506;   -0,901;    0,409
687,380;30445,109;   -0,174;    0,591
687,954;30637,076;   -1,174;    1,136
688,528;30361,861;   -0,719;    1,955
689,101;31166,374;   -3,992;    1,045
689,675;30737,977;   -0,356;   -0,136
690,249;30099,853;   -0,719;    0,409
690,822;30436,820;    0,280;    0,318
691,396;30543,241;   -0,265;    1,227
691,969;29978,935;    1,280;    0,136
692,543;30413,902;   -0,447;   -1,955
693,116;30049,142;   -0,265;   -1,409
693,690;29948,109;    0,099;    0,500
694,263;30502,166;   -1,083;    2,955
694,836;30559,133;    1,371;    3,591
695,410;29144,646;   -0,265;    1,773
695,983;29621,976;    0,189;    0,591
696,556;29588,034;   -0,447;   -1,045
697,129;29957,637;   -0,356;    1,409
697,703;29648,786;   -1,629;    1,955
698,276;29590,116;    1,462;   -0,773
698,849;29453,083;    1,280;    1,409
699,422;29825,232;   -1,083;    0,591
699,995;29468,563;    0,007;    0,136
700,568;30031,802;   -0,629;    3,045
701,140;30043,133;   -2,811;    1,682
701,713;29750,190;   -0,174;    2,409
702,286;29523,612;   -0,538;    0,864
702,859;29362,670;   -0,902;   -0,591
703,432;28524,546;    0,825;    0,682
704,004;29004,422;    0,462;    0,318
704,577;28867,388;   -0,629;    0,136
705,150;29462,901;    0,189;    2,500
705,722;29272,595;   -0,356;   -3,227
706,295;29032,925;   -0,175;   -0,591
706,867;28909,165;   -0,175;    1,955
707,440;29197,496;   -1,720;   -0,409
708,012;29432,644;    0,462;    0,591
708,584;29334,066;    2,462;    0,227
709,157;29552,851;    1,825;   -0,591
709,729;29215,272;    2,280;    2,045
710,301;30098,421;    0,734;    0,045
710,874;30064,751;   -1,447;   -0,227
711,446;28970,536;    0,371;    0,864
712,018;28860,412;    0,098;    0,500
712,590;28600,470;   -1,993;    1,682
713,162;29126,801;    0,825;    1,318
713,734;29336,131;    1,825;   -2,045
714,306;29247,825;   -1,902;   -0,409
714,878;27956,701;    0,825;    0,864
715,450;28736,850;    0,643;    0,864
716,022;28961,271;    1,552;    1,318
716,593;29157,329;    0,189;    0,591
717,165;29113,023;   -3,175;   -1,227
717,737;28797,717;    0,280;    0,409
718,309;28442,866;    0,280;   -0,045
718,880;28433,106;   -0,539;   -1,409
719,452;28605,982;   -0,175;   -1,591
720,024;28176,949;    0,734;   -0,591
720,595;28803,370;   -2,902;    0,955
721,167;28323,064;    0,370;   -2,045
721,738;27908,122;   -0,812;   -1,045
722,309;27928,180;   -0,993;   -1,227
722,881;27670,238;   -1,357;    0,773
723,452;28275,841;   -2,630;    2,864
724,023;28462,899;   -0,721;    2,682
724,595;28223,138;    0,007;    0,682
725,166;27966,469;    0,007;   -0,409
725,737;27643,981;    1,734;    0,227
726,308;27692,130;   -0,266;    0,318
726,879;28130,460;   -1,630;    1,227
727,450;28028,791;    0,552;   -0,045
728,021;27979,485;    3,097;    0,682
728,592;27767,906;    0,734;    0,500
729,163;28092,237;    0,643;   -0,136
729,734;28107,840;    0,188;   -0,227
730,305;28459,898;    1,734;    0,136
730,876;28854,774;    0,188;    2,955
731,447;28591,922;    2,188;    2,682
732,017;28661,617;    1,097;    1,864
732,588;28109,674;    0,734;    1,227
733,159;28345,459;    0,643;   -1,045
733,729;28104,154;    0,006;    0,409
734,300;27407,666;    0,915;    0,864
734,870;27835,178;    3,461;    0,591
735,441;28374,054;    0,370;   -0,591
736,011;28170,021;    0,643;   -1,591
736,582;28108,533;   -0,812;    0,045
737,152;27562,682;   -1,721;   -2,045
737,722;27984,013;   -0,267;   -0,682
738,293;27688,707;   -1,358;    1,318
738,863;27618,946;    2,461;    2,318
739,433;27387,186;    5,279;    0,318
740,003;27995,607;   -0,994;   -0,682
740,573;27434,665;    2,097;   -1,591
741,143;27415,996;   -1,085;    0,318
741,713;28182,599;    1,188;   -0,500
742,283;27888,748;    0,915;    1,591
742,853;27605,078;    1,915;    1,591
743,423;27009,863;    1,733;    0,045
743,993;27185,012;   -0,358;    1,500
744,563;26558,342;    0,097;   -0,864
745,133;26555,218;   -0,812;   -0,864
745,702;27226,185;   -0,267;    1,773
746,272;26427,970;   -0,176;    0,591
746,842;26177,483;   -1,358;   -0,591
747,411;26572,177;   -0,267;   -0,318
747,981;26759,780;    0,097;    0,500
748,551;26847,656;    2,278;   -1,045
749,120;26650,077;    0,642;   -0,227
749,690;27026,590;   -0,631;    2,409
750,259;27384,011;    1,369;    2,955
750,828;27329,160;    1,551;   -1,955
751,398;27625,854;    1,278;   -0,045
751,967;27149,366;    2,187;    0,409
752,536;27334,333;   -0,813;   -0,227
753,105;27775,573;    0,096;    0,227
753,675;27527,994;    0,096;    1,773
754,244;27496,325;   -0,904;    3,591
754,813;27440,019;    0,551;    1,227
755,382;27037,077;    0,460;    0,955
755,951;27689,589;    1,551;    3,682
756,520;27183,738;   -0,085;    1,864
757,089;27742,432;    0,278;    0,500
757,658;27951,490;    1,733;    1,227
758,227;27970,275;    1,096;    0,318
758,795;28253,242;    1,187;    1,136
759,364;28421,027;   -0,086;   -0,591
759,933;27420,175;   -1,176;   -0,045
760,501;26931,688;    0,733;   -1,318
761,070;27400,655;   -2,813;   -1,409
761,639;28082,167;   -1,904;    1,318
762,207;27481,497;    1,551;   -0,955
762,776;27441,828;    0,369;    0,864
763,344;27397,431;   -0,995;    0,591
763,913;26427,489;   -0,722;    1,409
764,481;27187,092;    1,005;   -0,136
765,049;26934,332;   -1,358;    1,409
765,618;26857,844;   -0,086;    0,318
766,186;26924,447;    0,278;    0,136
766,754;27104,687;    0,005;    1,864
767,322;26121,199;   -1,995;    0,409
767,890;26128,803;   -0,722;   -1,773
768,459;26514,406;   -2,177;   -0,318
769,027;26707,645;    1,641;    3,409
769,595;25666,430;    3,278;    2,591
770,163;26098,034;    3,823;    2,955
770,730;25848,001;    0,732;   -0,136
771,298;25662,240;    0,187;   -1,409
771,866;25728,480;   -1,541;    4,955
772,434;26103,356;   -0,631;   -1,864
773,002;26268,686;    0,005;    0,682
773,569;25940,835;    0,914;    1,682
774,137;25746,347;   -0,268;   -0,045
774,705;26512,223;    0,278;   -0,136
775,272;26029,826;    0,641;    0,682
775,840;25745,157;   -0,177;    2,682
776,407;25276,397;    0,277;    1,955
776,975;24892,909;   -0,632;    0,318
777,542;25914,785;   -1,086;   -0,045
778,110;25702,934;   -1,268;   -0,045
778,677;25404,446;   -2,359;   -0,864
779,244;25165,140;    2,186;    1,045
779,812;25319,471;    1,823;    0,864
780,379;25185,983;    0,005;    1,136
780,946;25414,859;    1,005;   -0,773
781,513;25697,098;   -1,450;    0,318
782,080;25098,702;   -0,086;    2,864
782,647;25828,214;   -0,268;    3,045
783,214;25406,181;   -0,177;    3,864
783,781;25051,057;   -0,723;   -0,682
784,348;24919,660;   -0,632;    1,500
784,915;25420,172;   -3,177;    0,318
785,482;25175,685;    1,368;    2,591
786,049;25588,652;    0,186;   -0,591
786,615;25719,982;    0,277;   -0,955
787,182;25429,222;    0,186;   -0,682
787,749;25112,189;   -2,814;    1,409
788,315;24429,428;   -1,632;   -0,409
788,882;24692,031;    1,550;   -1,227
789,448;25420,544;    1,732;   -0,955
790,015;25457,329;    1,095;    3,227
790,581;25007,296;    1,459;    0,227
791,148;24881,626;    0,641;    1,045
791,714;25130,320;   -0,541;    3,136
792,280;24782,378;    0,186;    1,591
792,847;24322,254;    0,550;    2,500
793,413;24895,403;   -0,269;   -0,318
793,979;24443,006;    3,459;   -1,318
794,545;24513,791;    4,459;    2,682
795,111;23904,667;    2,186;    1,318
795,678;24083,452;    0,731;   -1,682
796,244;23753,964;    3,368;    0,136
796,810;24269,750;    1,731;    0,773
797,375;24021,716;    0,549;   -2,136
797,941;24024,774;   -0,541;    0,591
798,507;24160,196;   -0,451;   -0,955
799,073;23702,253;   -0,360;    0,591
799,639;23753,129;   -2,632;    3,136
800,205;23769,914;    0,095;    2,682
800,770;23359,972;    0,640;    1,773
801,336;23448,485;    1,368;   -0,955
801,901;23168,542;    4,549;    3,136
802,467;23703,418;   -0,542;    2,045
803,033;23039,476;   -0,087;    0,864
803,598;23266,534;    1,913;   -1,045
804,163;23253,228;    1,095;   -0,318
804,729;23207,740;   -0,178;    1,136
805,294;23666,434;    0,822;    2,227
805,859;23414,220;    0,731;   -0,409
806,425;22911,732;    1,186;    2,682
806,990;22542,517;    2,186;    4,318
807,555;23054,211;   -1,451;    2,591
808,120;22922,542;    0,822;   -0,409
808,685;22968,236;    0,185;   -2,500
809,250;22478,566;    0,004;   -0,500
809,815;22820,079;    1,913;    0,682
810,380;23356,318;   -0,269;    1,591
810,945;23928,194;   -1,087;    2,045
811,510;23039,706;    2,094;    1,591
812,075;22804,582;   -0,633;   -1,409
812,640;22827,095;    2,003;    1,409
813,204;22874,971;    0,822;   -0,227
813,769;23324,483;    2,094;   -0,045
814,334;22747,995;    0,458;    0,864
814,898;22803,780;    0,367;    0,591
815,463;22667,475;    1,276;   -0,773
816,027;22611,532;   -0,724;   -2,318
816,592;22673,681;    0,640;   -2,045
817,156;22253,012;    2,094;    1,136
817,721;22112,069;    4,276;    2,318
818,285;22065,491;    2,912;    1,500
818,849;22697,458;   -1,451;    1,682
819,414;22584,243;   -0,269;    2,955
819,978;22139,119;   -1,269;    1,773
820,542;22760,813;    2,003;    0,500
821,106;22453,325;   -0,815;    0,682
821,670;22564,019;   -0,815;    2,591
822,234;22286,895;   -0,270;    1,409
822,798;21651,226;    0,003;    0,500
823,362;21618,011;   -0,633;    4,227
823,926;20935,250;    0,094;    1,136
824,490;21186,854;   -0,997;   -0,682
825,054;21592,002;   -0,088;   -1,136
825,618;21232,242;   -1,542;   -1,500
826,181;21200,754;    0,458;   -1,318
826,745;21110,812;    1,367;   -1,045
827,309;21478,506;    1,185;    1,318
827,872;20770,928;    1,367;    0,955
828,436;21814,258;    1,185;   -0,773
828,999;21842,043;   -0,997;    1,227
829,563;20640,737;   -0,179;    1,136
830,126;20444,159;   -0,179;   -0,591
830,690;20459,126;   -1,997;    2,864
831,253;19991,911;   -0,543;    2,227
831,816;20170,423;   -1,906;    0,500
832,380;20018,208;    0,185;    0,864
832,943;20280,720;   -1,361;   -0,500
833,506;19743,596;    2,639;   -1,227
834,069;20525,563;    3,912;   -0,955
834,632;20599,985;    1,730;    1,318
835,195;20493,043;    1,003;    0,955
835,758;19651,918;   -0,997;    1,955
836,321;19532,704;    0,730;   -1,045
836,884;19649,489;   -0,725;   -0,955
837,447;19688,819;   -2,816;    1,773
838,010;19933,422;    0,366;    3,227
838,573;20213,844;   -1,179;    0,773
839,135;20148,356;   -1,361;   -0,955
839,698;19636,414;    1,275;    0,409
840,261;19130,290;    1,003;   -0,227
840,823;18997,620;   -0,543;    0,864
841,386;19274,951;   -0,452;   -2,409
841,948;19202,463;   -1,361;    1,773
842,511;18894,794;    0,912;    1,682
843,073;19025,761;    1,912;    0,227
843,636;18820,909;   -0,361;   -0,227
844,198;18785,149;    0,911;    0,591
844,760;18874,025;    1,093;    1,955
845,322;18540,446;    0,548;    1,136
845,885;19043,140;    0,730;    0,591
846,447;19408,016;   -1,998;    0,227
847,009;19020,983;    1,911;   -0,682
847,571;19320,041;    0,820;   -2,045
848,133;19437,190;   -1,089;   -1,864
848,695;19271,975;   -0,543;    1,409
849,257;18823,942;   -1,089;   -1,682
849,819;19022,545;   -0,998;   -0,409
850,381;19022,875;   -0,725;   -0,864
850,942;19424,751;    1,093;   -0,591
851,504;19398,446;    1,184;    0,227
852,066;19380,140;    1,275;   -1,591
852,628;18894,379;   -0,180;    1,955
853,189;18475,892;    1,638;    2,682
853,751;18578,222;   -0,907;    1,409
854,312;18402,825;   -0,453;   -1,682
854,874;18925,610;   -2,089;   -0,773
855,435;19449,759;   -0,907;   -1,682
855,997;19602,908;   -1,816;   -0,136
856,558;18876,147;    0,366;    1,773
857,119;18947,023;    0,820;    2,864
857,681;18631,354;    0,002;    0,318
858,242;18668,957;    1,911;   -2,136
858,803;19075,651;    0,456;   -0,773
859,364;19677,345;    0,184;   -4,773
859,925;18973,040;   -2,453;   -0,955
860,486;18854,370;   -0,453;   -0,955
861,047;18592,519;   -0,544;   -1,227
861,608;18459,395;   -1,089;   -0,773
862,169;18555,634;    0,638;   -0,045
862,730;18338,874;    0,456;    1,409
863,291;18584,659;   -0,635;   -0,500
863,852;18953,717;   -0,635;    1,955
864,412;18418,229;   -0,271;   -0,864
864,973;16983,923;   -0,089;    0,500
865,534;16861,708;   -1,726;    0,227
866,094;18376,493;    1,820;    0,227
866,655;18075,278;    1,274;    3,318
867,215;18325,336;    0,274;    0,136
867,776;18147,758;    0,547;   -0,136
868,336;18259,452;   -1,453;    0,136
868,897;17709,510;    2,638;    1,682
869,457;17442,022;    1,365;    0,318
870,017;17688,080;    0,547;   -1,227
870,578;18192,956;   -0,817;    0,773
871,138;17895,195;   -2,089;   -0,955
871,698;17446,253;   -0,817;   -1,318
872,258;17305,038;   -0,453;   -2,864
872,818;17686,460;    2,729;    0,045
873,378;17638,336;    0,638;    1,045
873,938;17143,393;    0,547;    0,500
874,498;17498,269;    0,274;   -1,955
875,058;17426,963;    2,183;    1,773
875,618;17279,021;    1,910;   -2,682
876,177;17206,534;    1,274;    0,136
876,737;16799,137;   -0,090;    1,955
877,297;16867,922;    0,183;    1,955
877,856;16873,525;   -0,362;    0,318
878,416;16766,856;    1,183;   -0,136
878,976;17013,732;   -1,817;    0,409
879,535;17178,607;    0,092;    3,136
880,095;16867,302;   -0,544;    0,045
880,654;17020,087;   -1,090;    1,318
881,213;17172,508;    2,456;    1,500
881,773;16796,111;    2,637;    2,682
882,332;17191,169;    3,365;    5,136
882,891;17037,227;    3,092;    2,136
883,451;17473,467;   -1,272;    1,682
884,010;16886,979;   -2,908;   -0,409
884,569;16972,946;   -0,999;   -0,045
885,128;17111,367;    2,819;   -1,864
885,687;17246,789;    4,455;    0,682
886,246;16929,665;    1,455;    2,136
886,805;16693,541;    2,455;    2,045
887,364;16955,326;   -0,999;   -0,500
887,922;17307,474;   -1,181;    0,045
888,481;16763,078;   -1,545;    0,591
889,040;17100,772;    1,183;    2,136
889,599;17801,557;    2,455;    1,409
890,157;17864,251;    1,455;    2,409
890,716;17532,854;   -0,090;    0,227
891,274;17322,366;    0,092;   -1,136
891,833;17762,970;    1,546;    0,864
892,391;17623,391;   -0,454;    0,500
892,950;17707,267;    1,819;   -0,773
893,508;18078,325;    0,455;   -0,409
894,067;17383,655;    0,637;    0,136
894,625;17278,077;   -0,636;   -1,500
895,183;17478,771;   -0,363;   -0,682
895,741;17426,738;    1,728;   -1,773
896,299;17282,977;   -0,545;   -2,409
896,858;17444,581;    0,819;   -1,591
897,416;17601,366;    2,728;   -1,318
897,974;17315,060;    1,819;    0,318
898,532;17484,299;    6,091;    2,682
899,089;17398,085;    2,091;   -0,682
899,647;17427,051;   -1,454;    1,318
900,205;17144,018;    1,182;    1,045
900,763;17330,440;   -0,454;    0,227
901,321;17336,043;    2,364;   -1,409
901,878;16709,192;   -1,000;   -0,773
902,436;16632,340;   -1,363;    1,318
902,994;17036,671;    4,728;    3,682
903,551;16418,820;    0,728;    0,409
904,109;16833,605;    0,182;   -1,409
904,666;16410,390;    2,455;    1,045
905,224;16233,993;    0,182;   -0,409
905,781;16003,869;    0,727;   -0,318
906,338;16079,018;   -1,363;    1,045
906,895;15988,439;    0,637;    2,045
907,453;15963,860;    1,727;    1,136
908,010;15963,009;   -0,909;    0,409
908,567;15598,885;    1,273;    0,591
909,124;15073,216;    0,364;   -1,500
909,681;15168,273;   -2,909;    0,682
910,238;15338,422;    0,636;   -1,318
910,795;15634,662;   -0,273;   -1,136
911,352;15255,116;   -2,909;   -2,682
911,909;14660,934;   -1,364;   -0,864
912,466;15179,025;   -3,182;    1,500
913,022;14729,843;   -1,636;    0,500
913,579;15053,753;   -0,909;    2,045
914,136;14754,753;    1,636;    0,955
914,692;15128,571;    0,091;   -1,227
915,249;14727,753;    1,455;    0,409
915,806;14990,116;    0,182;    1,955
916,362;14728,753;    1,909;    1,864
916,918;14261,116;    2,000;    1,045
917,475;14239,662;   -1,182;    0,955
918,031;14312,298;    3,364;   -0,045
918,587;13769,207;   -0,909;   -0,318
919,144;13980,571;   -2,273;    0,227
919,700;14267,934;    1,727;    0,773
920,256;13816,662;    0,727;    0,045
920,812;13464,389;   -0,727;   -1,045
921,368;13477,753;   -1,727;   -1,045
921,924;13102,843;    0,182;   -0,136
922,480;12678,571;   -0,545;    1,227
923,036;13342,025;    1,273;    1,955
923,592;13252,843;    0,455;    0,318
924,148;13183,753;    0,455;   -0,955
924,704;12459,480;   -1,364;   -0,409
925,259;12699,298;   -0,273;    0,591
925,815;12478,298;    1,455;    0,500
926,371;12009,753;    2,909;    1,409
926,926;11940,298;    2,091;    0,591
927,482;11571,025;   -1,364;    0,773
928,037;11442,389;    0,909;    2,045
928,593;11741,298;    1,636;    1,045
929,148;11539,753;   -1,818;   -1,500
929,704;10968,753;   -1,455;   -0,500
930,259;11193,116;    0,091;   -0,136
930,814;10283,025;   -0,818;    1,955
931,369; 9956,571;    1,091;   -0,773
931,925; 9824,025;   -0,091;    0,136
932,480; 9752,298;   -2,818;   -2,591
933,035; 9607,934;    0,545;   -0,318
933,590; 9376,207;    0,364;   -1,773
934,145; 9008,207;   -1,364;   -0,318
934,700; 9342,843;    0,455;   -0,591
935,255; 9154,934;   -0,091;    0,045
935,809; 8459,116;    3,182;    0,864
936,364; 7557,389;   -0,455;   -0,136
936,919; 7531,662;    0,455;   -1,773
937,474; 7412,298;    1,455;    0,136
938,028; 7170,843;   -1,636;    1,136
938,583; 6667,389;    1,818;    4,682
939,138; 6926,753;    2,091;    2,136
939,692; 6330,389;    1,636;   -1,136
940,247; 6034,298;   -0,727;   -1,045
940,801; 5610,025;   -0,636;    0,227
941,355; 5494,571;   -0,364;    2,591
941,910; 5129,753;   -0,273;   -2,136
942,464; 5233,753;   -0,818;   -0,318
943,018; 5048,480;    1,000;   -0,227
943,572; 4970,389;    2,545;   -0,682
944,126; 4394,662;    0,091;   -0,409
944,681; 4297,480;    3,091;    0,227
945,235; 4276,843;    1,000;   -0,591
945,789; 4198,753;    0,364;   -1,864
946,342; 4322,116;    0,455;   -0,591
946,896; 4136,843;   -2,273;    0,955
947,450; 3880,662;    1,545;   -0,227
948,004; 4081,116;    1,727;   -0,045
948,558; 4062,116;    0,273;   -0,864
949,111; 3988,753;   -0,273;   -0,318
949,665; 4048,662;    1,636;   -0,682
950,219; 3903,843;   -0,091;   -1,045
950,772; 4001,571;   -1,909;    1,864
951,326; 3891,298;    0,545;   -0,955
951,879; 4008,480;    0,727;   -2,318
952,433; 4019,389;    0,000;    2,227
952,986; 3845,753;    2,909;    0,682
953,539; 3799,389;   -0,273;    0,591
954,093; 3722,753;    0,545;   -1,318
954,646; 3881,934;    0,909;    1,318
955,199; 3687,934;    0,000;   -0,500
955,752; 3566,207;   -0,455;    1,773
956,305; 3527,843;   -0,091;    2,955
956,858; 3698,843;    0,818;   -0,318
957,411; 3874,662;   -0,545;    2,136
957,964; 3698,662;    1,364;    2,136
958,517; 3669,389;   -1,545;    3,136
959,070; 3493,298;   -0,455;    1,955
959,623; 3591,753;    1,091;    1,500
960,176; 3361,571;    1,727;    2,045
960,728; 3355,480;   -2,727;    0,773
961,281; 3383,571;    0,545;    0,500
961,834; 3446,025;   -0,909;    0,864
962,386; 3362,571;    1,727;    1,045
962,939; 3290,116;    0,364;   -0,318
963,491; 3439,025;    0,455;    1,136
964,043; 3315,207;    1,182;    2,409
964,596; 3434,389;   -1,000;    2,227
965,148; 3261,298;   -1,000;    1,773
965,700; 3169,389;    1,091;   -0,227
966,253; 3342,116;   -0,636;    0,318
966,805; 3165,662;   -2,273;    0,773
967,357; 3225,025;    1,091;   -1,500
967,909; 3183,025;    0,455;   -1,227
968,461; 3287,662;    0,545;    3,136
969,013; 3206,389;   -0,182;   -0,864
969,565; 3294,843;   -0,455;   -1,136
970,117; 3351,025;   -0,364;    1,045
970,669; 3200,389;    0,182;   -0,136
971,220; 3057,753;   -0,455;   -1,500
971,772; 2989,298;   -0,636;   -0,318
972,324; 3120,298;    0,091;   -0,500
972,876; 3053,662;    0,818;   -0,045
973,427; 3189,662;    1,909;   -1,045
973,979; 3159,025;   -0,727;   -2,500
974,530; 3170,753;    1,818;    1,318
975,082; 3187,753;   -0,545;    1,682
975,633; 3102,207;    1,091;    1,682
976,184; 3245,571;    0,909;    0,773
976,736; 3018,389;    0,091;    0,227
977,287; 2825,843;   -0,909;   -0,500
977,838; 3000,843;    0,909;   -0,318
978,389; 3047,207;   -1,000;   -0,500
978,940; 2926,843;    0,545;   -0,409
979,491; 2947,662;    0,091;   -0,500
980,042; 2929,662;    0,182;    3,045
980,593; 2960,753;   -2,545;    0,227
981,144; 3006,480;    2,545;   -0,500
981,695; 2980,025;    1,455;    1,500
982,246; 2966,662;   -0,273;    1,045
982,797; 3118,662;   -1,727;    0,682
983,347; 3214,480;    0,364;    0,591
983,898; 3387,116;    3,091;    0,409
984,449; 3210,662;    2,182;    0,773
984,999; 3115,025;    1,455;   -1,136
985,550; 2888,389;    0,182;   -0,318
986,100; 2927,753;   -0,455;   -0,318
986,651; 2936,480;   -0,818;    0,045
987,201; 2921,025;   -1,000;   -0,591
987,751; 3003,753;    0,818;    2,864
988,302; 2998,298;    2,636;    1,500
988,852; 3012,298;    0,455;   -1,136
989,402; 3057,389;    0,091;    0,682
989,952; 2991,025;   -2,182;    0,864
990,502; 3078,934;   -0,091;    0,682
991,052; 3032,025;   -0,727;    0,045
991,602; 2912,207;   -2,909;    1,318
992,152; 2899,480;    0,455;    0,682
992,702; 2883,116;    1,364;   -0,045
993,252; 2809,480;   -3,000;   -0,500
993,802; 2904,207;   -0,273;    1,318
994,352; 3147,025;   -1,545;    1,136
994,901; 3220,025;   -0,182;    3,227
995,451; 3118,116;   -0,182;    0,318
996,000; 3203,298;    1,636;    0,318
996,550; 2923,480;    2,273;    0,227
997,100; 2916,753;    1,273;   -0,045
997,649; 3218,934;    2,182;    0,955
998,198; 2831,389;    1,727;   -1,500
998,748; 3050,116;    1,091;   -2,318
999,297; 2943,480;   -0,818;   -0,409
999,846; 2992,116;    1,000;   -0,773
1000,395; 3059,571;   -0,818;    0,500
1000,945; 3007,662;    1,818;   -0,773
1001,494; 3111,025;    2,364;    0,682
1002,043; 3092,934;    4,636;    0,864
1002,592; 2929,934;   -1,091;    1,955
1003,141; 3077,116;   -0,455;   -0,682
1003,690; 2937,571;    1,727;    0,500
1004,238; 3014,025;    1,455;   -0,045
1004,787; 2642,843;    1,364;    1,227
1005,336; 2907,025;    0,364;    0,682
1005,885; 3046,389;    1,364;   -2,773
1006,433; 3146,480;    0,545;    0,955
1006,982; 3230,298;    0,455;    1,682
1007,531; 3122,389;   -1,818;   -0,227
1008,079; 3065,843;   -2,273;    0,500
1008,627; 3212,934;   -1,455;    0,409
1009,176; 2951,934;    0,000;   -1,955
1009,724; 3004,025;    1,091;    0,864
1010,273; 3056,298;    1,273;    0,500
1010,821; 3168,389;    0,091;    1,409
1011,369; 2899,025;   -1,364;    1,318
1011,917; 2886,389;   -1,364;   -0,591
1012,465; 3165,298;    1,273;   -1,591
1013,013; 3288,298;    2,091;   -1,682
1013,561; 3165,389;    0,455;   -0,773
1014,109; 3217,207;   -1,909;    1,682
1014,657; 3075,480;    0,364;    0,591
1015,205; 3195,934;    1,636;   -0,955
1015,753; 3223,934;   -0,545;   -1,409
1016,301; 3277,116;   -2,636;    3,045
1016,848; 3265,389;   -1,273;    0,409
1017,396; 3336,571;    2,545;    0,045
1017,944; 3449,207;    1,182;    1,864
1018,491; 3203,753;    0,273;    1,409
1019,039; 3367,389;    0,455;    0,591
1019,586; 3265,025;   -1,364;    1,682
1020,134; 3357,207;    0,455;    1,500
1020,681; 3386,571;    0,182;   -1,136
1021,228; 3401,116;    2,909;   -2,227
1021,776; 3239,298;    1,182;   -1,136
1022,323; 3434,298;    0,455;    0,773
1022,870; 3360,025;   -1,000;   -0,045
1023,417; 3258,934;    2,636;    1,864
1023,964; 3390,025;    2,636;    1,227
1024,511; 3227,571;    1,000;    0,773
1025,058; 3042,843;    3,182;   -0,045
1025,605; 3101,025;   -2,273;    3,136
1026,152; 3337,662;    1,727;   -0,591
1026,699; 3044,116;    1,818;    1,318
1027,245; 3217,298;   -0,091;    0,318
1027,792; 3400,207;   -1,000;    1,409
1028,339; 3290,753;    2,364;   -0,045
1028,885; 3141,207;    1,000;   -0,227
1029,432; 3086,298;   -0,091;    0,227
1029,978; 3145,116;   -1,000;   -1,591
1030,525; 3048,934;    1,000;    0,409
1031,071; 3291,934;   -1,364;    1,136
1031,618; 3420,662;    0,364;    1,682
1032,164; 3189,207;   -0,091;    3,045
1032,710; 3232,934;    1,636;   -1,500
1033,256; 3136,934;   -0,636;   -0,136
1033,803; 3122,207;   -0,545;    1,500
1034,349; 2830,571;   -1,364;    0,136
1034,895; 2976,571;    0,000;   -0,318
1035,441; 2977,116;   -0,818;    0,318
1035,987; 2975,298;   -2,364;   -0,682
1036,533; 2985,934;   -1,455;   -0,955
1037,078; 3189,571;    1,455;    1,682
1037,624; 3003,571;    2,455;   -0,955
1038,170; 3039,025;    0,455;   -0,318
1038,716; 2935,480;    1,636;   -0,409
1039,261; 2838,207;   -2,273;   -0,773
1039,807; 2787,207;   -0,091;    3,409
1040,352; 2858,298;   -1,909;   -0,318
1040,898; 2895,389;   -1,545;   -0,682
1041,443; 2798,934;   -1,455;   -2,591
1041,989; 2843,389;    1,091;    1,591
1042,534; 2707,843;   -0,364;    2,591
1043,079; 2795,389;    2,909;    0,955
1043,625; 2606,934;    1,818;    0,500
1044,170; 2687,025;   -1,364;    1,045
1044,715; 2919,934;    2,455;    0,955
1045,260; 2732,116;    2,182;   -0,955
1045,805; 2761,571;    1,182;   -0,591
1046,350; 2685,662;    1,364;   -0,409
1046,895; 2658,116;    2,909;    1,591
1047,440; 2620,116;    5,364;    0,409
1047,985; 2507,662;    2,818;   -0,955
1048,530; 2416,571;    1,545;    1,227
1049,074; 2504,753;    0,000;    0,318
1049,619; 2466,207;   -1,364;    1,955
1050,164; 2264,753;    0,455;    0,227
1050,708; 2313,753;   -0,455;    0,045
1051,253; 2699,571;    1,273;   -2,227
1051,797; 2396,662;    0,818;   -1,318
1052,342; 2405,116;   -1,182;    1,045
1052,886; 2400,025;    0,364;   -1,409
1053,430; 2266,480;   -1,364;    0,136
1053,975; 2290,298;   -0,818;   -0,318
1054,519; 2271,480;   -0,727;    3,227
1055,063; 2298,298;    0,909;    1,318
1055,607; 2181,662;   -0,182;    0,227
1056,151; 2200,207;    2,909;    1,682
1056,695; 2113,753;    2,273;   -1,136
1057,239; 2183,207;   -1,727;   -0,682
1057,783; 2200,116;    0,818;   -1,500
1058,327; 2141,480;    0,000;    1,409
1058,871; 2369,843;   -0,545;    1,318
1059,415; 2073,116;   -0,818;   -0,045
1059,958; 2353,207;    1,455;    2,591
1060,502; 2065,480;   -1,000;   -0,773
1061,046; 1954,480;    0,364;   -0,955
1061,589; 1946,571;   -3,000;   -1,136
1062,133; 1816,116;   -1,273;    1,864
1062,676; 1778,934;    1,182;    0,864
1063,220; 1770,753;    1,091;    0,500
1063,763; 1784,571;    0,909;    1,136
1064,306; 1864,753;   -0,909;    1,864
1064,849; 1758,571;   -0,909;    0,591
1065,393; 1774,298;    2,000;   -1,500
1065,936; 1872,389;    0,182;   -0,409
1066,479; 1755,389;   -1,455;    1,318
1067,022; 1777,207;   -0,273;   -0,227
1067,565; 1680,843;   -0,091;   -1,318
1068,108; 1705,662;    0,727;   -0,591
1068,651; 1680,025;   -0,636;    1,409
1069,194; 1617,298;   -0,455;   -1,682
1069,736; 1620,571;   -1,273;    0,955
1070,279; 1577,298;   -1,364;   -0,500
1070,822; 1645,662;   -2,000;   -0,318
1071,364; 1747,389;   -0,364;    1,318
1071,907; 1564,298;   -0,727;    3,227
1072,450; 1451,116;    0,000;   -0,045
1072,992; 1453,934;   -0,273;    3,136
1073,535; 1590,753;    2,091;    2,136
1074,077; 1375,116;   -0,727;    2,045
1074,619; 1356,934;   -1,364;    0,591
1075,161; 1383,389;   -1,091;    1,500
1075,704; 1579,025;    1,545;    1,227
1076,246; 1359,389;   -0,182;    0,682
1076,788; 1293,389;   -0,364;    1,773
1077,330; 1358,843;    1,273;    2,136
1077,872; 1328,843;    0,909;    0,955
1078,414; 1569,934;    2,727;    0,773
1078,956; 1279,843;    1,273;   -0,227
1079,498; 1558,025;    1,636;    0,318
1080,040; 1263,025;    1,909;   -1,318
1080,581; 1201,207;    1,636;   -0,318
1081,123; 1119,207;    0,091;   -0,773
1081,665; 1182,116;   -1,182;   -0,955
1082,206; 1488,843;    1,364;   -0,500
1082,748; 1345,571;    0,727;    2,045
1083,289; 1212,298;   -2,000;    1,318
1083,831; 1113,753;   -0,545;    0,227
1084,372; 1154,571;    0,000;    0,591
1084,913; 1158,480;    1,091;    0,864
1085,455; 1120,571;   -1,909;   -2,045
1085,996; 1098,389;   -2,273;    0,136
1086,537; 1115,116;   -0,091;    0,864
1087,078; 1136,116;   -0,909;   -2,136
1087,619; 1185,934;   -1,273;    0,227
1088,160; 1103,934;    0,000;    1,318
1088,701; 1092,298;   -1,091;    0,682
1089,242; 1029,389;    1,364;   -2,227
1089,783; 1136,116;   -0,273;    1,409
1090,324; 1105,025;    0,455;    0,682
1090,865;  979,571;    2,727;   -0,409
1091,405;  927,207;    0,727;    2,227
1091,946;  969,207;    0,182;   -0,955
1092,487;  892,753;    0,818;   -1,409
1093,027; 1068,389;   -1,364;   -1,500
1093,568;  922,207;   -0,364;    1,227
1094,108; 1029,753;    0,273;    1,773
1094,649;  954,480;   -1,182;    0,136
1095,189;  894,662;   -0,636;   -0,682
1095,729;  847,298;   -0,091;    0,955
1096,269;  831,571;    0,727;   -0,955
1096,810; 1183,298;   -1,364;    0,500
1097,350;  998,480;    1,364;   -0,773
1097,890;  896,753;    0,364;    1,227
1098,430; 1157,298;    2,364;    2,864
1098,970; 1026,480;    2,182;    1,682
1099,510;  871,662;    0,545;   -2,318
1100,050;  807,662;    1,000;   -1,591
1100,589;  770,116;   -0,727;   -0,318
1101,129;  897,298;    0,818;   -0,955
1101,669; 1068,389;    1,727;    2,136
1102,209;  875,207;   -0,091;    2,227
1102,748;  825,480;    0,000;    0,955
1103,288;  822,571;    1,273;   -1,227
1103,827;  845,480;    3,091;   -2,227
1104,367;  728,116;   -0,091;   -2,409
1104,906;  684,662;    1,364;   -1,136
1105,445;  762,480;    0,636;   -1,136
1105,985;  710,934;   -0,727;    1,500
1106,524;  766,116;   -1,727;   -0,682
1107,063;  738,934;   -2,727;    1,409
1107,602;  712,571;   -1,909;   -1,500
1108,141;  625,934;   -1,909;    1,500
1108,680;  739,480;   -3,455;   -0,591
1109,219;  673,934;   -0,909;   -0,500
1109,758;  666,116;    0,455;    0,682
1110,297;  639,480;    1,000;   -0,682
1110,836;  581,753;   -0,727;    0,955
1111,375;  753,753;   -2,545;    0,409
1111,913;  773,116;   -1,000;    0,773
1112,452;  706,662;   -0,273;    0,136
1112,991;  577,389;    1,091;    1,955
1113,529;  528,207;   -0,818;   -0,045
1114,068;  603,753;   -0,273;    2,955
1114,606;  510,934;   -0,364;   -0,955
1115,144;  672,934;   -1,273;    1,045
1115,683;  609,753;   -0,727;    0,318
1116,221;  660,207;   -0,455;   -0,864
1116,759;  565,389;    0,636;   -0,864
1117,297;  779,389;    0,000;    1,864
1117,836;  576,116;   -2,182;   -1,227
1118,374;  588,389;    0,182;   -0,682
1118,912;  523,662;    0,909;    2,682
1119,450;  520,571;    1,000;    0,864
1119,988;  574,389;    1,545;    2,136
1120,525; 1030,571;    5,091;    3,318
1121,063;  726,116;    1,182;    1,864
1121,601;  526,571;   -0,909;   -1,227
1122,139;  484,025;   -0,727;   -2,045
1122,676;  698,753;   -0,727;    2,773
1123,214;  617,389;   -1,182;    4,409
1123,751;  427,480;    1,727;    2,227
1124,289;  566,116;   -0,091;   -0,409
1124,826;  427,934;    1,727;    0,227
1125,364;  339,753;    1,727;   -0,955
1125,901;  536,480;    1,182;    1,227
1126,438;  670,207;    0,818;    0,955
1126,975;  379,753;   -0,727;   -0,773
1127,513;  450,207;    0,273;    2,136
1128,050;  352,843;    1,636;   -0,682
1128,587;  457,389;    2,000;   -0,227
1129,124;  505,843;    0,091;    1,318
1129,661;  364,571;    0,273;    0,227
1130,198;  528,207;    1,636;    0,773
1130,734;  478,025;    0,182;    1,409
1131,271;  329,662;   -0,909;    0,864
1131,808;  513,298;    2,909;    3,045
1132,345;  378,753;    1,545;    0,318
1132,881;  243,843;   -1,545;   -1,864
1133,418;  395,116;    0,727;   -1,136
1133,954;  331,207;    2,455;   -2,682
1134,491;  414,934;    1,364;   -0,773
1135,027;  297,025;    2,364;    0,864
1135,564;  393,116;    0,273;    2,955
1136,100;  381,116;    0,364;    2,136
1136,636;  259,662;   -1,273;   -1,045
1137,172;  361,116;    0,000;   -1,045
1137,708;  280,116;   -1,364;   -1,045
1138,245;  281,753;    1,273;   -1,227
1138,781;  228,389;    1,091;   -3,318
1139,317;  308,025;    1,273;   -1,409
1139,852;  288,389;    3,091;    0,136
1140,388;  413,389;   -1,182;   -0,409
1140,924;  291,662;   -1,091;   -2,227
1141,460;  225,025;   -1,636;    0,136
1141,996;  160,116;   -1,364;    2,682
1142,531;  213,934;    1,364;    3,318
1143,067;  435,843;    1,182;    1,045
1143,602;  502,116;   -0,091;   -0,318
1144,138;  332,571;   -2,636;    1,045
1144,673;  188,025;   -1,455;    1,409
1145,209;  271,753;   -1,909;   -0,318
1145,744;  185,934;   -0,727;    0,864
1146,279;  331,298;    1,818;   -0,136
1146,815;  235,843;    1,545;   -2,682
1147,350;  281,480;   -1,364;    0,045
1147,885;  189,843;   -0,818;   -1,318
1148,420;  185,753;   -2,273;    0,773
1148,955;  172,753;   -1,727;    1,864
1149,490;  198,389;   -0,909;   -1,591
1150,025;  178,116;    0,455;   -1,773
1150,560;  293,753;    1,091;   -0,955
1151,094;  266,753;    1,455;   -0,591
1151,629;  267,843;    1,636;    0,864
1152,164;  190,116;    1,364;    1,318
1152,698;  147,389;   -0,182;   -0,136
1153,233;  100,389;    0,091;   -0,682
1153,767;  150,571;   -3,000;   -2,318
1154,302;  207,843;   -1,455;    1,773
1154,836;  213,753;   -0,455;   -2,136
1155,371;  263,934;   -1,364;    3,682
1155,905;  218,207;   -0,636;    1,682
1156,439;  184,571;   -0,636;   -0,500
1156,973;  216,389;    0,364;    0,318
1157,507;  142,298;   -0,364;    0,682
1158,042;  167,753;   -0,727;    1,045
1158,576;  226,298;    0,182;    1,773
1159,110;  212,025;   -0,818;    2,409
1159,643;  175,025;    0,636;   -0,045
1160,177;  110,571;   -1,545;    1,500

