
Integration time [ms]:   0,040
Averaging Nr. [scans]: 11
Smoothing Nr. [pixels]: 0
Data measured with spectrometer [name]: 7318044SP
Wave   ;Sample   ;Dark     ;Reference
[nm]   ;[counts] ;[counts] ;[counts] 

186,757;   23,409;   31,551;    1,318
187,357;   65,164;   22,551;    0,955
187,958;   32,874;   15,460;   -1,591
188,558;   81,220;    8,915;   -1,227
189,159;   49,629;    6,733;   -4,500
189,759;   14,321;    7,278;   -3,591
190,360;   17,140;    2,824;   -2,136
190,960;   68,347;    2,915;   -4,136
191,560;   82,218;    3,189;   -6,591
192,161;  344,174;    4,372;   -3,500
192,761;  176,595;    4,010;   -3,227
193,361;  110,833;    1,556;   -3,773
193,962;  175,612;    2,010;   -2,682
194,562;   93,718;    1,189;   -3,955
195,162;  132,798;   -2,448;   -2,227
195,762;  304,490;   -3,176;   -0,045
196,362;  241,350;    1,370;   -2,500
196,963;   93,622;    2,006;   -0,864
197,563;  181,860;    1,551;   -0,955
198,163;  120,922;    0,096;   -0,682
198,763;  138,803;    1,733;   -0,500
199,363;  262,510;    3,096;   -0,500
199,963;  206,894;    0,369;    0,409
200,563;  177,244;    2,823;   -1,409
201,163;  164,967;    3,277;   -0,227
201,763;  271,223;    3,732;    0,318
202,363;  192,768;    1,459;    1,500
202,963;  314,159;    1,459;    1,045
203,563;  431,971;    0,277;    0,500
204,162;  263,530;    2,096;   -1,864
204,762;  249,407;    0,550;    0,591
205,362;  213,680;    3,004;    1,955
205,962;  323,964;    3,096;    1,955
206,562;  319,499;    1,823;    2,318
207,161;  285,596;   -0,087;    0,318
207,761;  451,803;    1,277;    2,409
208,361;  331,173;   -0,268;    1,409
208,960;  439,271;    0,459;    1,500
209,560;  515,872;    1,277;    1,591
210,160;  489,914;    0,550;    1,864
210,759;  439,911;    4,186;    1,227
211,359;  452,470;    1,459;    1,045
211,958;  731,470;    1,277;    2,045
212,558;  834,631;    1,732;    1,864
213,157;  658,858;    1,822;    1,500
213,757; 1126,946;    3,822;   -0,227
214,356;  808,285;    1,277;   -0,409
214,956; 1164,425;    3,095;    0,409
215,555;  758,781;    2,095;    2,136
216,154;  684,540;   -2,723;   -0,591
216,754;  700,169;    0,277;    0,773
217,353;  851,519;   -0,268;   -1,045
217,952;  695,823;   -0,178;    0,318
218,552;  971,917;    1,368;   -0,773
219,151;  838,718;    0,277;    0,955
219,750;  832,302;    0,004;   -0,227
220,349;  979,631;   -0,451;    1,045
220,948; 1053,043;   -1,360;    1,136
221,548; 1083,442;    0,913;    1,227
222,147; 1194,911;   -0,087;   -0,409
222,746; 1492,851;   -0,451;   -0,955
223,345; 1370,959;    0,731;    0,500
223,944; 1371,952;   -0,451;    0,773
224,543; 1581,180;    1,004;   -1,409
225,142; 1688,179;    0,094;    0,136
225,741; 1592,400;   -0,814;    1,045
226,340; 1630,085;   -0,451;   -0,955
226,939; 2096,722;   -0,996;   -0,136
227,538; 2075,239;   -0,360;   -0,773
228,137; 2233,208;   -0,814;    0,864
228,735; 2418,750;   -0,541;    1,227
229,334; 2146,379;   -0,905;   -0,227
229,933; 2522,631;    0,459;    0,591
230,532; 2666,135;    1,186;   -0,409
231,131; 2708,865;    1,732;    0,318
231,729; 2883,523;   -2,450;   -2,318
232,328; 3061,935;   -0,723;   -1,500
232,927; 3131,995;    1,004;   -0,500
233,525; 3285,082;    3,640;    0,045
234,124; 3490,285;    2,368;   -1,591
234,723; 3520,767;    0,913;   -1,045
235,321; 3685,883;    2,277;    0,136
235,920; 3958,526;    1,186;   -1,227
236,518; 4213,187;    3,459;    0,318
237,117; 4397,959;    0,004;   -0,227
237,715; 4591,897;    0,640;   -0,500
238,314; 4637,781;   -0,087;   -2,318
238,912; 4729,176;   -0,723;   -1,409
239,510; 4783,253;    0,459;   -1,227
240,109; 4972,998;    0,004;    3,773
240,707; 5012,712;   -0,996;    1,227
241,305; 5400,131;    0,550;    0,136
241,904; 5640,404;   -0,178;   -2,045
242,502; 5588,414;   -0,632;   -0,227
243,100; 5532,526;   -0,087;   -0,955
243,698; 5785,372;    0,732;    1,682
244,297; 5977,837;   -0,632;    0,682
244,895; 5786,876;   -0,269;   -2,318
245,493; 6129,788;    2,186;   -0,591
246,091; 6178,925;    1,368;   -1,318
246,689; 6170,285;    1,004;    0,591
247,287; 6346,704;    0,822;   -1,136
247,885; 6642,047;   -1,451;    1,227
248,483; 6740,033;    1,822;   -0,500
249,081; 6872,445;    0,185;    1,591
249,679; 7039,826;   -0,178;    1,682
250,277; 7295,568;   -1,723;    0,864
250,875; 7279,711;   -1,087;   -1,045
251,473; 7326,722;   -1,178;    0,500
252,071; 7520,578;    1,459;    1,045
252,669; 7701,043;   -1,814;    0,318
253,267; 7961,162;   -0,087;    0,773
253,864; 7937,159;   -0,360;    0,682
254,462; 7758,218;    1,640;    1,591
255,060; 7743,473;   -0,269;    1,318
255,658; 8082,680;    0,822;   -0,136
256,255; 8529,428;    0,186;   -2,045
256,853; 8376,592;   -0,269;    1,409
257,451; 8385,599;    0,822;    1,864
258,048; 8627,036;    1,822;    1,864
258,646; 8400,669;    1,731;   -1,045
259,243; 8602,229;   -0,087;    2,227
259,841; 8634,743;   -0,814;    0,318
260,438; 8532,746;   -0,087;    0,864
261,036; 9281,054;   -1,905;    1,409
261,633; 9137,687;   -0,087;    2,227
262,231; 8872,883;    2,731;   -0,045
262,828; 8963,848;   -0,905;    1,136
263,425; 9046,757;    0,913;   -0,591
264,023; 9305,019;    0,186;    0,045
264,620; 8853,844;   -0,360;   -0,318
265,217; 9191,229;   -2,087;    3,136
265,815; 9303,893;   -1,905;    2,136
266,412; 9065,236;    0,731;    0,136
267,009; 9156,050;   -1,451;    0,773
267,606; 9034,033;    0,822;   -0,955
268,203; 9000,645;   -0,269;   -0,591
268,801; 9297,162;    1,731;    0,591
269,398; 9612,271;   -0,360;    2,500
269,995; 9573,575;    0,277;    1,591
270,592; 9357,502;   -0,632;   -0,500
271,189; 9534,302;    0,186;    0,409
271,786; 9660,428;   -0,632;    1,227
272,383; 9509,788;   -1,087;    0,227
272,980; 9704,390;    0,277;    0,318
273,577;10189,369;    0,004;    1,227
274,174; 9748,505;    0,822;    2,591
274,771; 9740,407;   -0,814;   -0,773
275,367; 9893,184;    2,277;    1,409
275,964; 9849,197;    0,731;   -0,500
276,561; 9943,690;    1,549;   -1,045
277,158;10146,099;    0,095;   -1,773
277,755;10271,082;    2,185;    0,409
278,351; 9666,393;   -0,451;   -1,500
278,948;10008,319;   -0,815;    0,045
279,545;10014,309;   -1,360;    2,318
280,141;10651,585;   -1,723;   -2,045
280,738;10530,764;   -0,451;   -0,136
281,334;10786,907;   -1,633;    0,591
281,931;10138,445;   -0,087;   -1,318
282,528;10203,459;    0,822;   -0,500
283,124;10916,854;   -1,087;   -0,500
283,721;10820,431;   -0,451;    1,409
284,317;10638,966;    0,185;    2,500
284,913;11218,134;   -1,360;    0,591
285,510;11446,407;    0,640;   -0,318
286,106;11472,693;   -2,269;   -0,955
286,703;11071,187;   -0,360;    1,955
287,299;11238,106;   -1,451;   -0,591
287,895;11439,148;    0,822;   -1,045
288,491;12015,271;    0,186;    2,136
289,088;11751,816;   -2,360;    2,409
289,684;11844,498;   -1,723;    1,500
290,280;11841,666;    0,368;    0,682
290,876;11944,991;    1,822;    5,500
291,472;11803,858;    1,276;    2,227
292,068;11883,973;    1,367;    0,227
292,665;11573,197;    2,095;    0,773
293,261;11228,218;    0,276;    2,136
293,857;11620,568;    2,913;    2,136
294,453;11523,264;    3,550;    0,955
295,049;11418,317;   -0,268;    1,955
295,644;11433,019;    0,095;    0,136
296,240;11338,383;   -0,905;   -0,136
296,836;11397,306;   -0,995;    0,318
297,432;11663,366;    1,096;   -0,500
298,028;11694,611;    0,732;    0,773
298,624;12103,499;    1,459;    1,864
299,220;12377,799;    2,368;    0,591
299,815;12041,268;    1,005;   -0,409
300,411;11855,499;    0,914;    1,773
301,007;11807,600;    1,368;    0,227
301,602;11866,645;   -0,541;   -2,318
302,198;12040,111;    0,732;   -0,773
302,794;12376,667;    1,187;   -0,500
303,389;12518,222;   -1,177;    1,045
303,985;12614,838;    0,550;    1,409
304,580;12556,845;    1,459;    1,591
305,176;12521,649;   -3,086;    0,136
305,771;12450,530;   -1,268;   -1,227
306,367;12270,068;    4,095;    0,136
306,962;12608,464;    0,641;    1,500
307,558;12335,219;   -0,450;    0,136
308,153;12261,471;    1,095;   -1,136
308,748;12515,055;   -0,814;    1,682
309,344;12512,827;   -0,632;   -1,318
309,939;12626,100;   -1,905;   -1,318
310,534;12861,418;   -0,086;   -1,682
311,130;12791,030;    0,459;   -2,500
311,725;12516,149;    1,004;   -0,500
312,320;12817,803;    2,459;    0,045
312,915;12668,785;    1,459;   -1,045
313,510;12765,547;    1,550;   -0,500
314,105;13277,251;    1,096;    1,409
314,700;12668,187;   -3,086;   -1,045
315,295;12296,754;   -0,904;    0,045
315,890;11861,729;    1,277;    0,864
316,485;12229,338;   -0,359;   -0,318
317,080;12322,016;   -3,086;    1,591
317,675;12910,079;    2,005;   -0,682
318,270;12344,855;    5,550;    3,318
318,865;12300,125;    3,278;    3,045
319,460;12118,705;   -0,904;    0,591
320,055;12383,971;   -0,541;   -1,227
320,650;12008,195;   -1,995;   -0,591
321,244;12060,807;   -0,177;   -1,409
321,839;13015,107;   -1,541;   -0,227
322,434;12922,257;   -1,086;   -1,591
323,029;12567,541;    1,732;    1,591
323,623;12368,418;    1,550;    0,773
324,218;12127,880;    2,368;    1,409
324,812;12010,943;    1,096;    1,591
325,407;11807,069;   -0,814;    2,045
326,002;11727,044;    0,277;   -0,409
326,596;12016,268;    0,914;    1,318
327,191;12226,118;    0,823;   -1,045
327,785;11788,359;   -0,813;   -0,227
328,379;12003,149;    1,368;    0,136
328,974;11830,180;    0,914;   -3,955
329,568;12003,796;    0,186;   -2,409
330,163;11824,216;    2,096;    1,045
330,757;12189,953;    2,459;    1,591
331,351;11494,492;    0,459;    0,682
331,945;11806,663;    0,914;    1,409
332,540;11411,586;   -1,723;   -0,591
333,134;11570,292;   -1,086;    0,773
333,728;11817,645;    0,005;    0,318
334,322;12124,901;   -1,177;   -0,864
334,916;11401,845;    0,277;    0,955
335,510;11733,971;   -0,450;   -0,136
336,105;11969,754;   -1,086;    1,591
336,699;11698,960;   -1,086;    0,591
337,293;11639,261;   -1,723;    0,318
337,887;11781,107;   -2,723;    1,955
338,481;11869,159;    0,459;    0,591
339,074;12058,750;   -0,359;    2,682
339,668;11871,247;   -1,632;    1,227
340,262;12120,236;    1,732;    3,227
340,856;11604,302;    1,822;   -0,682
341,450;10931,393;    1,004;    1,864
342,044;11869,988;    1,459;    0,136
342,637;11635,089;    0,913;   -2,136
343,231;11477,935;   -2,360;    0,682
343,825;11421,775;   -1,086;   -0,591
344,419;11401,229;   -1,995;    0,500
345,012;11156,139;    2,459;    4,045
345,606;11215,086;    4,641;    1,591
346,199;11064,890;   -1,813;   -0,227
346,793;10565,478;    1,914;    2,045
347,386;10718,544;   -0,813;   -1,136
347,980;10746,831;   -0,268;   -0,045
348,573;10515,562;    2,278;    0,409
349,167;10218,650;    5,278;    4,773
349,760;10558,143;    2,914;    2,682
350,354;10550,556;   -0,813;    1,136
350,947;10297,388;    1,096;    1,682
351,540; 9948,048;   -0,358;   -1,409
352,134; 9885,174;    1,096;    1,136
352,727; 9956,177;   -0,086;    1,136
353,320; 9722,041;    0,005;    0,591
353,913; 9577,275;   -1,995;    1,864
354,507; 9818,293;    0,823;   -1,227
355,100; 9758,545;    0,460;    0,864
355,693; 9015,506;    2,005;    2,409
356,286; 9074,807;    0,823;    2,773
356,879; 9423,150;   -0,722;    1,227
357,472; 8991,192;   -0,904;    1,500
358,065; 9195,286;   -0,722;    2,500
358,658; 9114,964;   -0,540;    2,318
359,251; 8783,699;   -1,631;   -0,591
359,844; 8262,730;   -1,904;   -1,136
360,437; 8459,793;   -2,995;    0,045
361,030; 8683,667;    1,369;   -0,682
361,623; 8291,604;    2,824;    0,318
362,215; 8377,580;   -0,086;    2,045
362,808; 8208,783;   -2,358;   -1,682
363,401; 8378,363;   -2,449;    0,136
363,994; 8122,118;   -0,631;   -1,500
364,586; 8010,685;    0,824;   -1,500
365,179; 8239,199;   -0,449;   -1,136
365,772; 7727,587;   -1,995;    2,045
366,364; 8050,811;    1,915;   -3,227
366,957; 8212,196;    2,279;   -0,045
367,549; 8236,913;    2,188;   -0,864
368,142; 7876,098;    1,825;   -1,500
368,734; 8108,501;    0,734;   -2,136
369,327; 8048,617;    1,643;   -0,500
369,919; 7967,561;   -1,538;    0,409
370,512; 7767,334;   -1,083;   -0,500
371,104; 7531,457;   -0,901;    1,591
371,696; 7718,133;    1,191;   -0,955
372,289; 7819,518;    0,373;    1,136
372,881; 7943,092;   -2,080;    1,318
373,473; 7865,586;   -2,170;    1,136
374,066; 7655,888;   -0,169;    0,500
374,658; 7497,184;    0,378;    1,136
375,250; 7848,608;    0,653;   -1,409
375,842; 7699,750;    0,473;   -0,045
376,434; 7605,769;   -0,435;   -0,409
377,026; 8196,114;    0,204;   -2,500
377,618; 8076,801;   -0,158;   -0,682
378,210; 7902,681;   -0,338;   -1,955
378,802; 7737,186;    0,754;   -0,591
379,394; 7729,396;    1,846;    0,682
379,986; 8311,932;    1,393;   -0,955
380,578; 8407,712;   -0,153;    0,773
381,170; 7767,900;   -0,972;    0,045
381,762; 7724,441;    0,755;    1,409
382,354; 7914,712;   -0,065;   -1,318
382,945; 8034,935;   -2,976;    0,318
383,537; 8162,559;   -2,705;   -1,955
384,129; 8141,124;   -2,160;   -1,136
384,721; 8367,564;   -0,252;    0,955
385,312; 8321,004;   -0,161;   -0,955
385,904; 8413,232;   -2,706;    1,591
386,496; 7784,659;   -0,979;    1,045
387,087; 7900,810;    1,022;    2,500
387,679; 7975,799;   -1,160;    0,045
388,270; 8107,083;    2,840;    2,045
388,862; 8206,988;    1,295;   -0,318
389,453; 8105,590;   -0,887;    1,045
390,045; 8373,649;   -0,705;   -2,682
390,636; 8290,342;    0,204;   -0,591
391,227; 8164,733;   -0,523;   -0,045
391,819; 8271,247;    0,204;    0,773
392,410; 8330,754;    1,022;    0,045
393,001; 8246,033;   -0,979;   -1,591
393,593; 8559,389;    1,930;   -0,045
394,184; 8419,949;    1,385;   -0,409
394,775; 8354,529;    1,839;    2,136
395,366; 8546,463;    1,385;    0,773
395,957; 8554,337;    0,113;    0,136
396,548; 8860,428;   -0,342;    2,682
397,139; 9183,380;   -2,433;    0,591
397,730; 8890,152;   -1,888;    0,955
398,321; 8929,054;   -1,252;    0,955
398,912; 8980,750;   -0,615;    0,136
399,503; 9033,410;   -3,524;   -1,409
400,094; 8485,316;    0,294;    1,682
400,685; 8320,799;   -0,433;    0,045
401,276; 8412,771;    0,930;   -0,955
401,867; 8727,746;   -0,888;    0,773
402,458; 8810,005;   -2,251;   -2,318
403,048; 8784,407;    1,112;    0,591
403,639; 8387,844;    0,840;    0,864
404,230; 8650,082;    2,476;    0,318
404,821; 8570,592;   -0,615;    0,045
405,411; 8712,686;    1,203;   -2,591
406,002; 8306,354;   -1,252;   -1,136
406,592; 8179,351;    2,294;    0,045
407,183; 8477,225;    0,566;   -1,500
407,774; 8384,057;    3,475;   -0,136
408,364; 8726,358;    0,930;    0,409
408,954; 8299,728;    0,384;    1,227
409,545; 8359,354;    1,021;    1,045
410,135; 7920,270;    1,293;    0,500
410,726; 8088,567;    1,838;    0,318
411,316; 8483,591;    0,111;    0,773
411,906; 8139,791;   -0,253;   -0,409
412,497; 7638,511;   -1,070;   -0,045
413,087; 8240,217;   -1,980;   -0,227
413,677; 8639,962;   -0,707;    3,864
414,267; 8487,189;    0,656;    1,409
414,857; 8469,846;   -2,980;    4,227
415,448; 8760,266;    0,839;    0,500
416,038; 8411,770;    0,020;   -0,591
416,628; 8424,406;   -0,889;    0,409
417,218; 7863,787;    0,565;    3,318
417,808; 8144,353;    0,202;   -0,409
418,398; 8624,115;    0,020;    2,682
418,988; 8672,647;    2,020;    0,591
419,578; 8938,315;   -0,707;    1,409
420,168; 9242,343;   -1,343;   -0,955
420,757; 8844,025;   -1,343;   -1,500
421,347; 8524,815;    0,111;   -0,227
421,937; 8682,017;    2,292;    1,409
422,527; 8642,790;    0,838;   -0,773
423,116; 8450,053;   -0,253;   -0,045
423,706; 8775,430;   -1,889;    0,318
424,296; 8768,423;    1,384;    0,682
424,885; 9192,969;   -0,071;   -3,045
425,475; 9494,748;    1,474;   -2,864
426,065; 9395,682;   -0,980;   -0,318
426,654; 9013,797;   -0,435;   -0,318
427,244; 9142,703;    0,020;    1,409
427,833; 8574,315;    1,383;   -0,500
428,423; 9069,272;   -0,526;    1,136
429,012; 9856,548;   -0,344;   -1,136
429,601; 9354,720;   -1,344;    0,136
430,191; 9571,842;    1,292;    4,318
430,780; 9193,884;   -0,344;   -0,409
431,369; 9120,541;    0,746;   -0,045
431,959; 9754,681;   -1,254;    0,500
432,548; 9579,541;   -1,163;   -0,045
433,137; 9675,856;   -1,254;   -1,318
433,726;10234,643;    0,292;    0,500
434,315; 9549,006;   -0,526;    2,409
434,905; 9650,086;   -1,254;    1,409
435,494; 9540,321;    0,746;    0,955
436,083;10020,447;   -0,981;   -0,955
436,672; 9879,307;    0,110;    0,500
437,261; 9431,807;    0,292;   -1,955
437,850; 9590,468;    1,383;    0,682
438,439; 9625,383;    3,291;    1,955
439,027; 9483,684;    3,655;    1,773
439,616; 9787,694;    2,927;    1,227
440,205; 9641,051;    0,200;   -2,136
440,794; 9727,803;    2,109;   -0,045
441,383;10022,040;   -1,346;   -0,591
441,971; 9840,663;   -2,436;    0,591
442,560; 9686,232;    0,563;   -1,773
443,149; 9419,975;    0,379;   -1,318
443,737; 9593,529;   -0,074;   -2,318
444,326; 9877,334;    0,018;    0,318
444,915; 9931,711;   -1,982;    0,864
445,503;10360,128;   -2,891;   -0,318
446,092; 9597,883;    0,382;    2,136
446,680;10125,935;    0,382;    0,318
447,269;10296,480;   -0,346;   -0,318
447,857;10098,005;    0,018;   -1,773
448,445;10201,697;    0,563;    1,318
449,034;10428,708;   -1,528;   -1,136
449,622;10581,802;   -1,073;    3,500
450,210; 9786,497;    2,017;    2,227
450,799;10313,522;    0,290;   -0,591
451,387;10261,490;    1,381;   -0,591
451,975; 9930,088;    2,654;    0,864
452,563; 9994,994;    3,472;    2,318
453,151;10051,277;   -0,528;   -1,227
453,739;10001,934;   -1,347;    0,136
454,328; 9797,221;    2,381;   -2,136
454,916; 9515,944;    2,562;   -0,136
455,504; 9709,469;    1,017;    1,227
456,092; 9888,728;    0,017;   -1,591
456,679; 9900,252;    1,472;    0,682
457,267; 9830,413;    4,017;    1,045
457,855; 9987,605;    1,017;    1,409
458,443; 9687,053;   -0,165;    1,682
459,031; 9841,364;    0,108;    2,409
459,619;10334,105;   -1,801;    2,864
460,206;10500,895;    0,835;    2,045
460,794;10559,430;   -2,983;   -0,227
461,382;10807,475;   -0,529;   -0,864
461,970;10382,776;    1,198;    1,864
462,557;10402,528;   -0,711;   -0,682
463,145;10592,731;   -3,165;   -1,682
463,732;10737,479;    2,016;   -1,045
464,320;10689,049;   -0,075;   -3,045
464,907;10357,349;    2,743;   -0,773
465,495;10210,213;    0,743;   -1,227
466,082;10387,433;   -1,984;   -0,045
466,670;10323,993;   -2,529;    1,227
467,257;10732,391;   -1,711;    2,045
467,844;10850,999;   -0,075;    0,045
468,432;10881,045;    0,834;    3,500
469,019;10371,020;    0,925;   -1,773
469,606;10856,115;    0,470;    3,682
470,193;10662,936;   -1,439;    0,227
470,780;10245,894;   -2,075;    0,864
471,368;10600,443;   -1,257;   -0,773
471,955;10370,230;    1,379;   -0,682
472,542;10013,534;    0,652;   -1,136
473,129;10261,129;   -0,166;    0,136
473,716; 9983,982;    1,470;    0,591
474,303;10177,625;    0,652;   -0,864
474,890;10487,366;   -1,439;   -0,500
475,477;10533,471;   -1,621;    0,409
476,064;10396,481;    1,106;   -1,591
476,650;10333,208;    0,288;    0,318
477,237;10211,208;   -0,258;    0,955
477,824;10366,534;   -1,076;    0,864
478,411;10361,247;   -1,894;   -0,318
478,997;10582,782;    0,560;   -0,773
479,584;10656,673;    1,196;   -0,409
480,171;11375,086;   -0,440;   -0,773
480,757;11030,030;    2,651;    0,773
481,344;11311,879;    0,469;    0,409
481,931;10827,312;    1,105;    1,045
482,517;11932,830;   -1,258;    0,318
483,104;12526,278;    1,106;    2,864
483,690;12835,834;   -1,804;    0,045
484,276;13171,306;   -0,895;    0,227
484,863;12871,806;    2,469;    1,136
485,449;13483,005;   -0,077;    0,318
486,035;13471,050;   -1,986;   -0,136
486,622;13898,432;   -0,895;    0,045
487,208;13842,267;    1,378;    1,500
487,794;13688,547;    0,741;    0,318
488,380;13783,393;    0,105;   -1,409
488,967;13872,438;   -1,168;   -0,409
489,553;13939,141;   -1,895;   -1,409
490,139;14114,662;    1,559;    0,773
490,725;13484,497;    0,741;   -0,227
491,311;12999,903;    3,287;    3,045
491,897;12299,095;   -0,986;    1,500
492,483;12128,609;    0,105;    1,227
493,069;11963,805;    3,923;    0,864
493,655;11926,903;    1,650;    0,682
494,241;11849,309;    1,377;   -0,955
494,826;12296,137;    0,287;   -1,045
495,412;11747,442;    2,559;   -0,682
495,998;11892,620;   -0,805;   -0,318
496,584;12073,878;    0,377;    1,045
497,169;12028,340;    1,014;   -0,682
497,755;11967,798;    0,650;    1,227
498,341;12558,882;    0,559;    0,318
498,926;12166,542;    1,832;    1,955
499,512;12334,577;    1,286;    2,955
500,097;12467,822;    0,195;   -0,318
500,683;12436,234;   -0,350;    2,136
501,268;12787,091;   -0,169;   -0,955
501,854;12451,374;   -0,169;    1,227
502,439;12386,290;   -0,624;   -1,773
503,024;12629,553;    0,195;    0,500
503,610;12684,664;   -0,078;   -0,682
504,195;12711,916;    0,558;    1,955
504,780;12837,378;    2,922;    1,227
505,366;12627,266;    3,013;    2,864
505,951;12356,255;    0,740;    1,045
506,536;12358,720;   -3,260;   -3,682
507,121;12331,164;    0,285;   -0,318
507,706;12911,811;    2,376;    1,045
508,291;13320,440;    2,649;    1,136
508,876;12726,755;   -0,988;    2,591
509,461;12206,045;   -0,169;   -0,773
510,046;12639,335;    0,194;    0,318
510,631;12902,276;   -0,351;   -0,773
511,216;12546,748;    2,467;   -0,500
511,801;12898,790;   -0,442;    2,591
512,386;13237,636;    0,740;    0,500
512,971;13163,461;   -2,988;    0,955
513,555;12717,090;   -0,897;   -1,500
514,140;13499,055;   -0,442;   -3,136
514,725;13520,499;   -0,715;   -1,136
515,309;13633,024;   -0,533;    0,318
515,894;13077,443;   -0,624;   -2,227
516,479;13530,933;   -0,624;   -0,955
517,063;13360,901;    0,376;    1,227
517,648;13481,279;    1,012;   -1,136
518,232;13135,118;   -0,261;   -1,409
518,817;13494,184;   -0,079;    1,682
519,401;13716,950;    2,194;    0,591
519,985;13221,467;    1,103;    1,136
520,570;13112,198;    0,830;   -1,955
521,154;13376,670;    2,102;    0,591
521,738;13567,313;   -2,352;    2,409
522,323;14125,194;   -0,170;    1,682
522,907;13881,271;    0,466;   -0,136
523,491;13602,827;    0,557;    0,955
524,075;13574,348;    2,284;    0,591
524,659;13662,866;    1,466;    0,591
525,243;13149,093;    1,739;    0,409
525,827;13363,229;    0,648;   -0,045
526,411;14248,138;   -1,989;   -0,136
526,995;14467,960;   -0,352;    1,409
527,579;14061,271;   -0,443;   -1,045
528,163;14386,176;    0,375;   -1,500
528,747;14270,341;    2,466;   -0,773
529,331;14570,900;   -0,080;   -1,409
529,915;14801,942;    1,738;    0,955
530,499;14756,365;   -0,807;    1,227
531,082;14456,264;   -0,534;    1,591
531,666;13904,571;    1,374;    0,773
532,250;14581,771;    1,284;    2,682
532,833;14919,795;    0,920;    2,773
533,417;14779,015;   -1,807;    0,864
534,001;14757,477;    1,647;   -0,318
534,584;15457,036;    0,374;    0,500
535,168;15294,029;    0,465;    1,409
535,751;15379,606;    0,647;    0,045
536,334;14813,638;   -0,898;   -0,409
536,918;15379,022;    0,011;    1,591
537,501;15495,344;   -0,899;    1,318
538,085;15522,550;   -0,444;    1,045
538,668;15671,253;    0,829;    2,409
539,251;16018,501;    1,829;    3,773
539,834;16010,669;    0,101;    0,773
540,418;15929,798;   -1,990;    4,318
541,001;16044,011;   -0,990;    1,773
541,584;16077,053;    2,101;    2,227
542,167;15763,662;    1,374;    2,955
542,750;15898,997;    1,919;   -0,773
543,333;15498,535;    0,555;    2,136
543,916;16301,036;    0,192;    2,500
544,499;16894,221;   -1,354;    0,227
545,082;16910,654;    1,374;    3,591
545,665;17010,022;    1,919;    1,500
546,248;17349,445;    1,010;   -0,318
546,830;17004,759;   -0,445;    1,955
547,413;17417,808;    1,010;   -0,773
547,996;17968,640;    0,555;    0,500
548,579;17708,850;    0,919;    0,955
549,161;17537,101;    1,828;    2,682
549,744;17314,402;   -0,809;    0,409
550,326;17818,227;   -0,809;   -1,136
550,909;17636,699;    2,737;    0,591
551,492;18005,479;   -0,263;    0,227
552,074;17808,940;   -0,173;   -1,318
552,657;18358,276;    2,373;    0,045
553,239;18077,657;   -0,173;   -0,773
553,821;18010,315;   -1,082;    1,045
554,404;17528,332;    1,282;    1,136
554,986;17925,374;    0,464;    1,045
555,568;18515,391;    1,191;   -0,955
556,151;17724,912;    1,191;   -0,227
556,733;17883,084;   -0,264;   -0,864
557,315;18397,468;    0,100;    0,500
557,897;18196,241;    0,554;   -0,500
558,479;18298,825;   -1,991;    1,318
559,061;18426,020;   -0,719;   -0,864
559,643;18824,758;   -0,264;    0,045
560,225;19168,370;    1,645;    2,864
560,807;19183,213;    0,918;    0,318
561,389;18632,566;    0,554;    2,318
561,971;19424,244;    0,463;    2,136
562,553;19229,692;   -1,628;    1,591
563,135;19382,349;   -0,537;    1,136
563,717;18984,314;    3,372;    1,136
564,298;19705,017;    3,645;   -0,045
564,880;19423,862;    0,645;   -1,409
565,462;19566,862;    0,645;    1,318
566,043;20779,506;   -0,446;    2,318
566,625;20333,866;    1,918;    1,227
567,207;20201,565;    1,099;    1,682
567,788;21324,219;   -1,264;    1,500
568,370;22104,639;    1,917;   -0,500
568,951;21973,758;    0,190;    0,227
569,533;22847,324;   -0,628;   -0,500
570,114;23316,023;   -0,446;    0,682
570,695;23836,523;   -0,174;   -1,318
571,277;24402,383;   -0,265;   -1,682
571,858;25144,925;    2,008;   -1,136
572,439;26003,667;    1,554;   -1,045
573,021;26163,792;    2,099;   -2,773
573,602;26647,383;   -1,265;    0,318
574,183;27601,397;   -2,083;    2,227
574,764;27710,991;   -1,629;    0,409
575,345;28271,302;    0,917;   -0,136
575,926;28898,397;   -0,356;    0,136
576,507;28803,561;    1,099;   -0,227
577,088;29932,984;    3,099;    1,682
577,669;30006,474;    0,735;    1,955
578,250;30788,488;    0,644;   -1,045
578,831;31482,393;   -1,356;   -2,227
579,412;31700,995;   -0,810;    0,955
579,993;32495,247;    1,008;    0,227
580,573;32855,827;   -0,629;   -0,955
581,154;31859,145;    0,735;   -0,591
581,735;32708,075;    0,644;    0,773
582,315;32189,257;   -0,629;    2,136
582,896;32511,264;   -0,174;    1,227
583,477;31897,257;    0,189;    1,227
584,057;32110,670;    0,553;    0,955
584,638;32421,156;    2,553;    2,318
585,218;32374,117;   -0,538;    2,682
585,799;32582,030;    0,281;   -0,227
586,379;32529,530;    0,372;    1,591
586,959;31260,642;    0,735;    0,318
587,540;30533,106;   -0,629;    2,227
588,120;30131,145;    1,007;   -0,045
588,700;29139,460;    2,553;    2,136
589,281;29469,764;    0,462;   -0,955
589,861;29466,271;    0,099;   -1,682
590,441;29185,044;    2,371;   -2,682
591,021;28131,607;   -0,265;   -2,591
591,601;28437,719;   -0,537;    0,500
592,181;28424,918;   -0,719;   -0,773
592,761;27688,211;    0,007;    1,409
593,341;27588,607;   -0,901;    0,045
593,921;27607,226;   -0,265;    1,591
594,501;27496,673;   -0,538;    1,318
595,081;27360,250;    0,917;   -0,318
595,661;27712,893;   -1,447;    0,955
596,240;28231,750;   -0,537;    0,136
596,820;27913,170;    0,372;    1,955
597,400;28082,005;    2,008;    0,773
597,980;28233,845;    2,008;    1,045
598,559;28269,177;    2,735;   -0,227
599,139;27999,561;   -0,174;   -1,227
599,718;27865,834;   -0,174;   -0,409
600,298;28127,572;    0,735;    0,682
600,877;28434,037;    2,917;    1,409
601,457;28669,548;    2,281;    1,136
602,036;28606,715;    0,190;    2,045
602,616;28822,114;    0,644;    1,682
603,195;29146,817;   -0,355;    3,500
603,774;28723,625;   -0,901;    2,045
604,354;28553,236;    0,826;   -0,500
604,933;27998,345;    0,463;    1,864
605,512;28145,215;    3,554;    0,591
606,091;28173,943;   -0,537;    3,773
606,671;29040,429;    0,281;    0,773
607,250;28191,527;    1,644;    3,136
607,829;28357,265;    2,372;    3,227
608,408;28171,541;    1,190;    2,591
608,987;27192,160;    1,281;    3,409
609,566;27537,806;   -1,265;   -2,500
610,145;27650,324;   -1,082;    0,682
610,723;28053,824;    4,372;    6,864
611,302;27303,856;   -0,446;    1,682
611,881;26839,884;    5,008;   11,227
612,460;27675,135;    1,645;    3,955
613,039;28025,279;   -0,082;    2,045
613,617;26768,765;    1,736;    4,773
614,196;26993,803;    1,099;    1,227
614,775;27358,331;    1,009;    2,409
615,353;27241,171;    0,736;    0,864
615,932;26966,241;    0,100;    2,409
616,510;27584,328;    0,554;    0,591
617,089;27091,674;    7,100;   17,591
617,667;26823,971;    2,372;    6,136
618,246;26704,143;   -1,537;    1,318
618,824;26849,671;   -3,355;   -0,955
619,402;26434,947;   -2,900;   -1,773
619,981;26948,356;   -0,173;   -1,045
620,559;26730,384;    0,009;    1,682
621,137;26252,283;   -0,718;    1,864
621,715;26351,601;   -1,173;   -0,682
622,293;26251,611;   -0,537;   -0,773
622,871;26709,741;   -0,718;    0,500
623,450;26271,933;    0,373;   -0,864
624,028;26170,503;    0,191;   -0,955
624,606;25829,314;   -1,718;    1,682
625,183;26209,143;   -1,536;   -1,136
625,761;25850,776;    1,009;    1,136
626,339;26140,391;    1,373;    2,591
626,917;26512,066;   -0,172;   -0,045
627,495;26558,563;   -0,354;    1,318
628,073;25966,996;   -0,263;    2,864
628,650;25675,412;    0,100;    2,136
629,228;26082,223;    0,373;    4,409
629,806;25480,056;    2,282;    1,136
630,383;25756,783;    1,464;   -0,318
630,961;25533,633;    2,555;   -0,955
631,539;25293,836;    2,464;    0,227
632,116;24697,996;   11,373;   15,409
632,694;25225,154;    2,555;    6,500
633,271;25549,164;    0,828;    2,682
633,848;25496,122;    1,828;    2,045
634,426;25523,462;   -1,081;    1,773
635,003;24642,123;    1,101;   -0,409
635,580;24927,745;    1,192;    3,682
636,158;25495,993;    3,737;    1,227
636,735;25477,469;    0,555;   -0,500
637,312;25658,836;   -0,809;   -0,682
637,889;25784,049;   -4,354;   -0,682
638,466;25238,361;   -3,990;   -0,409
639,043;25202,927;    2,101;   -1,136
639,620;25516,620;   -2,262;   -0,955
640,197;25854,655;    1,100;    1,682
640,774;25953,709;   -0,172;    1,136
641,351;26342,854;    0,737;    1,136
641,928;25800,363;   -0,627;    1,409
642,505;25436,689;    0,828;   -0,500
643,082;25576,289;   -1,718;    1,227
643,658;24564,343;   -0,718;    1,500
644,235;25256,760;    1,191;    2,500
644,812;25676,451;    1,918;    0,773
645,388;25378,595;   -0,991;    1,409
645,965;25476,013;   -0,809;    1,682
646,542;25559,249;   -1,445;   -0,227
647,118;25526,030;    1,009;   -0,955
647,695;25825,448;   -0,263;    1,136
648,271;25714,411;   -0,536;    0,500
648,848;26037,010;    0,736;    2,227
649,424;25892,246;    0,827;    1,318
650,000;25648,391;   -0,354;   -1,045
650,577;25430,626;   -0,627;   -0,955
651,153;25897,317;   -1,809;    0,955
651,729;26920,098;    1,191;    0,864
652,305;27479,061;    0,645;    2,773
652,881;32532,115;   -0,082;    1,136
653,458;39415,260;    1,100;    0,227
654,034;42789,950;    0,282;    1,591
654,610;43998,368;    0,554;    0,773
655,186;45253,331;    0,645;    3,045
655,762;44927,748;   -0,991;    0,409
656,338;44863,075;    0,100;    0,136
656,913;45754,583;   -0,082;    0,409
657,489;44995,092;    0,827;   -0,318
658,065;44948,418;   -0,173;   -1,591
658,641;45580,927;   -0,900;   -0,864
659,217;44853,254;   -0,991;    0,409
659,792;44227,217;    0,645;   -0,409
660,368;44419,998;   -2,173;   -0,682
660,944;43802,688;   -2,082;    1,227
661,519;38678,651;   -0,628;    0,409
662,095;32811,523;   -1,719;    0,591
662,670;28615,941;    1,281;   -0,136
663,246;27695,086;    1,009;   -0,409
663,821;27131,412;    0,281;    1,682
664,396;26687,739;    0,009;    1,864
664,972;26921,429;    0,009;   -0,500
665,547;27213,392;    1,372;    0,136
666,122;27304,355;   -1,082;    0,318
666,698;27589,318;   -0,173;    0,318
667,273;26910,827;   -0,173;    0,136
667,848;27751,517;    2,372;    1,500
668,423;27572,480;    2,190;    2,318
668,998;28078,534;    2,827;   -0,682
669,573;28619,861;   -3,264;   -1,500
670,148;28453,642;   -1,446;   -0,682
670,723;28249,787;   -1,810;    0,318
671,298;28686,750;    2,372;    1,045
671,873;28820,895;   -0,082;   -0,136
672,448;28752,040;    0,645;    0,136
673,023;29081,003;   -1,992;   -0,227
673,597;29451,966;    0,827;    2,318
674,172;29193,020;   -0,355;    0,318
674,747;28668,346;    0,372;   -1,045
675,321;28430,037;   -0,628;    3,318
675,896;28047,000;    0,645;    1,045
676,471;29069,144;    2,645;    1,591
677,045;28838,562;   -1,264;    0,682
677,620;28895,252;    0,190;    1,136
678,194;29166,761;   -2,628;    1,136
678,769;28715,633;   -1,083;   -0,318
679,343;29020,687;   -0,628;    1,773
679,917;28895,650;   -1,446;    1,955
680,492;29017,431;    0,826;    3,227
681,066;29126,394;    3,372;    0,409
681,640;29144,903;    1,463;   -0,318
682,214;29946,866;    0,735;    0,500
682,788;29503,829;   -1,356;   -0,773
683,363;29449,155;   -1,810;    1,682
683,937;29133,209;   -1,719;   -0,318
684,511;29862,718;    0,463;   -0,591
685,085;29617,408;   -1,356;    0,318
685,659;29361,917;   -2,538;    0,864
686,232;29675,425;   -0,356;   -0,318
686,806;29411,024;   -0,901;    0,409
687,380;29986,624;   -0,174;    0,591
687,954;30193,950;   -1,174;    1,136
688,528;29875,732;   -0,719;    1,955
689,101;30627,058;   -3,992;    1,045
689,675;30263,476;   -0,356;   -0,136
690,249;29599,075;   -0,719;    0,409
690,822;29917,220;    0,280;    0,318
691,396;30042,456;   -0,265;    1,227
691,969;29517,055;    1,280;    0,136
692,543;29932,382;   -0,447;   -1,955
693,116;29614,345;   -0,265;   -1,409
693,690;29494,399;    0,099;    0,500
694,263;30037,362;   -1,083;    2,955
694,836;30039,507;    1,371;    3,591
695,410;28696,561;   -0,265;    1,773
695,983;29190,160;    0,189;    0,591
696,556;29148,941;   -0,447;   -1,045
697,129;29515,723;   -0,356;    1,409
697,703;29167,595;   -1,629;    1,955
698,276;29165,921;    1,462;   -0,773
698,849;28958,066;    1,280;    1,409
699,422;29333,847;   -1,083;    0,591
699,995;29065,538;    0,007;    0,136
700,568;29568,228;   -0,629;    3,045
701,140;29574,555;   -2,811;    1,682
701,713;29300,972;   -0,174;    2,409
702,286;29049,117;   -0,538;    0,864
702,859;28856,626;   -0,902;   -0,591
703,432;28037,680;    0,825;    0,682
704,004;28539,552;    0,462;    0,318
704,577;28429,606;   -0,629;    0,136
705,150;29003,660;    0,189;    2,500
705,722;28774,532;   -0,356;   -3,227
706,295;28539,131;   -0,175;   -0,591
706,867;28438,639;   -0,175;    1,955
707,440;28645,784;   -1,720;   -0,409
708,012;28946,656;    0,462;    0,591
708,584;28811,892;    2,462;    0,227
709,157;29093,673;    1,825;   -0,591
709,729;28769,182;    2,280;    2,045
710,301;29569,327;    0,734;    0,045
710,874;29570,926;   -1,447;   -0,227
711,446;28455,980;    0,371;    0,864
712,018;28357,398;    0,098;    0,500
712,590;28075,906;   -1,993;    1,682
713,162;28615,415;    0,825;    1,318
713,734;28876,559;    1,825;   -2,045
714,306;28763,068;   -1,902;   -0,409
714,878;27442,486;    0,825;    0,864
715,450;28276,812;    0,643;    0,864
716,022;28491,775;    1,552;    1,318
716,593;28688,375;    0,189;    0,591
717,165;28640,247;   -3,175;   -1,227
717,737;28330,664;    0,280;    0,409
718,309;27964,809;    0,280;   -0,045
718,880;27953,681;   -0,539;   -1,409
719,452;28162,462;   -0,175;   -1,591
720,024;27788,516;    0,734;   -0,591
720,595;28324,843;   -2,902;    0,955
721,167;27872,806;    0,370;   -2,045
721,738;27389,042;   -0,812;   -1,045
722,309;27414,459;   -0,993;   -1,227
722,881;27169,604;   -1,357;    0,773
723,452;27781,567;   -2,630;    2,864
724,023;27969,712;   -0,721;    2,682
724,595;27693,675;    0,007;    0,682
725,166;27444,729;    0,007;   -0,409
725,737;27202,510;    1,734;    0,227
726,308;27253,201;   -0,266;    0,318
726,879;27665,618;   -1,630;    1,227
727,450;27564,127;    0,552;   -0,045
728,021;27495,635;    3,097;    0,682
728,592;27305,326;    0,734;    0,500
729,163;27635,743;    0,643;   -0,136
729,734;27656,070;    0,188;   -0,227
730,305;28052,578;    1,734;    0,136
730,876;28398,269;    0,188;    2,955
731,447;28111,232;    2,188;    2,682
732,017;28253,376;    1,097;    1,864
732,588;27649,885;    0,734;    1,227
733,159;27826,848;    0,643;   -1,045
733,729;27659,993;    0,006;    0,409
734,300;26960,319;    0,915;    0,864
734,870;27352,828;    3,461;    0,591
735,441;27899,700;    0,370;   -0,591
736,011;27707,663;    0,643;   -1,591
736,582;27612,990;   -0,812;    0,045
737,152;27063,953;   -1,721;   -2,045
737,722;27478,734;   -0,267;   -0,682
738,293;27209,515;   -1,358;    1,318
738,863;27104,842;    2,461;    2,318
739,433;26907,259;    5,279;    0,318
740,003;27514,950;   -0,994;   -0,682
740,573;26953,095;    2,097;   -1,591
741,143;26926,239;   -1,085;    0,318
741,713;27646,475;    1,188;   -0,500
742,283;27429,075;    0,915;    1,591
742,853;27138,765;    1,915;    1,591
743,423;26609,273;    1,733;    0,045
743,993;26759,418;   -0,358;    1,500
744,563;26141,654;    0,097;   -0,864
745,133;26108,708;   -0,812;   -0,864
745,702;26786,307;   -0,267;    1,773
746,272;25987,361;   -0,176;    0,591
746,842;25713,961;   -1,358;   -0,591
747,411;26157,015;   -0,267;   -0,318
747,981;26357,705;    0,097;    0,500
748,551;26409,032;    2,278;   -1,045
749,120;26201,631;    0,642;   -0,227
749,690;26617,230;   -0,631;    2,409
750,259;26968,921;    1,369;    2,955
750,828;26897,793;    1,551;   -1,955
751,398;27131,665;    1,278;   -0,045
751,967;26686,901;    2,187;    0,409
752,536;26839,409;   -0,813;   -0,227
753,105;27279,008;    0,096;    0,227
753,675;27075,881;    0,096;    1,773
754,244;27033,298;   -0,904;    3,591
754,813;27044,352;    0,551;    1,227
755,382;26610,951;    0,460;    0,955
755,951;27238,187;    1,551;    3,682
756,520;26723,150;   -0,085;    1,864
757,089;27302,931;    0,278;    0,500
757,658;27445,804;    1,733;    1,227
758,227;27417,039;    1,096;    0,318
758,795;27698,911;    1,187;    1,136
759,364;27942,693;   -0,086;   -0,591
759,933;26980,292;   -1,176;   -0,045
760,501;26458,528;    0,733;   -1,318
761,070;26901,491;   -2,813;   -1,409
761,639;27649,090;   -1,904;    1,318
762,207;27069,144;    1,551;   -0,955
762,776;26925,925;    0,369;    0,864
763,344;26913,161;   -0,995;    0,591
763,913;25972,033;   -0,722;    1,409
764,481;26747,815;    1,005;   -0,136
765,049;26489,232;   -1,358;    1,409
765,618;26337,650;   -0,086;    0,318
766,186;26434,613;    0,278;    0,136
766,754;26672,939;    0,005;    1,864
767,322;25671,811;   -1,995;    0,409
767,890;25674,411;   -0,722;   -1,773
768,459;26053,192;   -2,177;   -0,318
769,027;26304,701;    1,641;    3,409
769,595;25234,664;    3,278;    2,591
770,163;25654,081;    3,823;    2,955
770,730;25430,862;    0,732;   -0,136
771,298;25235,553;    0,187;   -1,409
771,866;25338,516;   -1,541;    4,955
772,434;25692,388;   -0,631;   -1,864
773,002;25845,714;    0,005;    0,682
773,569;25447,678;    0,914;    1,682
774,137;25304,641;   -0,268;   -0,045
774,705;26065,513;    0,278;   -0,136
775,272;25571,385;    0,641;    0,682
775,840;25314,166;   -0,177;    2,682
776,407;24895,402;    0,277;    1,955
776,975;24483,001;   -0,632;    0,318
777,542;25468,691;   -1,086;   -0,045
778,110;25257,473;   -1,268;   -0,045
778,677;24938,163;   -2,359;   -0,864
779,244;24738,762;    2,186;    1,045
779,812;24902,544;    1,823;    0,864
780,379;24748,416;    0,005;    1,136
780,946;24967,470;    1,005;   -0,773
781,513;25285,705;   -1,450;    0,318
782,080;24705,214;   -0,086;    2,864
782,647;25471,268;   -0,268;    3,045
783,214;25023,958;   -0,177;    3,864
783,781;24639,012;   -0,723;   -0,682
784,348;24500,339;   -0,632;    1,500
784,915;24957,574;   -3,177;    0,318
785,482;24721,083;    1,368;    2,591
786,049;25163,591;    0,186;   -0,591
786,615;25242,009;    0,277;   -0,955
787,182;24983,336;    0,186;   -0,682
787,749;24718,481;   -2,814;    1,409
788,315;24086,534;   -1,632;   -0,409
788,882;24325,770;    1,550;   -1,227
789,448;25042,370;    1,732;   -0,955
790,015;25041,151;    1,095;    3,227
790,581;24540,932;    1,459;    0,227
791,148;24521,441;    0,641;    1,045
791,714;24669,949;   -0,541;    3,136
792,280;24370,730;    0,186;    1,591
792,847;23904,330;    0,550;    2,500
793,413;24484,747;   -0,269;   -0,318
793,979;24041,710;    3,459;   -1,318
794,545;24104,310;    4,459;    2,682
795,111;23520,818;    2,186;    1,318
795,678;23715,599;    0,731;   -1,682
796,244;23331,562;    3,368;    0,136
796,810;23893,071;    1,731;    0,773
797,375;23627,943;    0,549;   -2,136
797,941;23625,360;   -0,541;    0,591
798,507;23819,051;   -0,451;   -0,955
799,073;23315,741;   -0,360;    0,591
799,639;23359,340;   -2,632;    3,136
800,205;23417,940;    0,095;    2,682
800,770;22991,903;    0,640;    1,773
801,336;23065,048;    1,368;   -0,955
801,901;22794,284;    4,549;    3,136
802,467;23325,156;   -0,542;    2,045
803,033;22602,846;   -0,087;    0,864
803,598;22841,082;    1,913;   -1,045
804,163;22885,590;    1,095;   -0,318
804,729;22845,190;   -0,178;    1,136
805,294;23275,789;    0,822;    2,227
805,859;23062,388;    0,731;   -0,409
806,425;22529,079;    1,186;    2,682
806,990;22179,769;    2,186;    4,318
807,555;22690,187;   -1,451;    2,591
808,120;22566,877;    0,822;   -0,409
808,685;22631,476;    0,185;   -2,500
809,250;22140,348;    0,004;   -0,500
809,815;22434,493;    1,913;    0,682
810,380;22951,820;   -0,269;    1,591
810,945;23553,147;   -1,087;    2,045
811,510;22690,655;    2,094;    1,591
812,075;22370,618;   -0,633;   -1,409
812,640;22382,308;    2,003;    1,409
813,204;22491,908;    0,822;   -0,227
813,769;22909,416;    2,094;   -0,045
814,334;22383,379;    0,458;    0,864
814,898;22446,797;    0,367;    0,591
815,463;22265,851;    1,276;   -0,773
816,027;22224,268;   -0,724;   -2,318
816,592;22279,595;    0,640;   -2,045
817,156;21879,740;    2,094;    1,136
817,721;21782,430;    4,276;    2,318
818,285;21691,575;    2,912;    1,500
818,849;22291,265;   -1,451;    1,682
819,414;22206,410;   -0,269;    2,955
819,978;21790,100;   -1,269;    1,773
820,542;22407,154;    2,003;    0,500
821,106;22041,936;   -0,815;    0,682
821,670;22218,171;   -0,815;    2,591
822,234;21959,043;   -0,270;    1,409
822,798;21307,461;    0,003;    0,500
823,362;21266,970;   -0,633;    4,227
823,926;20584,296;    0,094;    1,136
824,490;20806,441;   -0,997;   -0,682
825,054;21208,313;   -0,088;   -1,136
825,618;20849,003;   -1,542;   -1,500
826,181;20821,603;    0,458;   -1,318
826,745;20743,020;    1,367;   -1,045
827,309;21101,983;    1,185;    1,318
827,872;20422,401;    1,367;    0,955
828,436;21437,364;    1,185;   -0,773
828,999;21477,054;   -0,997;    1,227
829,563;20276,926;   -0,179;    1,136
830,126;20113,526;   -0,179;   -0,591
830,690;20176,034;   -1,997;    2,864
831,253;19654,725;   -0,543;    2,227
831,816;19830,051;   -1,906;    0,500
832,380;19728,287;    0,185;    0,864
832,943;19938,341;   -1,361;   -0,500
833,506;19425,395;    2,639;   -1,227
834,069;20229,903;    3,912;   -0,955
834,632;20266,230;    1,730;    1,318
835,195;20170,193;    1,003;    0,955
835,758;19342,065;   -0,997;    1,955
836,321;19253,392;    0,730;   -1,045
836,884;19359,628;   -0,725;   -0,955
837,447;19312,409;   -2,816;    1,773
838,010;19607,008;    0,366;    3,227
838,573;19910,062;   -1,179;    0,773
839,135;19834,662;   -1,361;   -0,955
839,698;19336,988;    1,275;    0,409
840,261;18853,133;    1,003;   -0,227
840,823;18692,005;   -0,543;    0,864
841,386;18976,150;   -0,452;   -2,409
841,948;18870,022;   -1,361;    1,773
842,511;18621,985;    0,912;    1,682
843,073;18755,130;    1,912;    0,227
843,636;18493,639;   -0,361;   -0,227
844,198;18502,602;    0,911;    0,591
844,760;18592,383;    1,093;    1,955
845,322;18229,255;    0,548;    1,136
845,885;18683,491;    0,730;    0,591
846,447;19151,181;   -1,998;    0,227
847,009;18725,599;    1,911;   -0,682
847,571;19017,198;    0,820;   -2,045
848,133;19148,797;   -1,089;   -1,864
848,695;18954,215;   -0,543;    1,409
849,257;18473,360;   -1,089;   -1,682
849,819;18645,232;   -0,998;   -0,409
850,381;18727,195;   -0,725;   -0,864
850,942;19118,976;    1,093;   -0,591
851,504;19134,394;    1,184;    0,227
852,066;19122,084;    1,275;   -1,591
852,628;18610,411;   -0,180;    1,955
853,189;18147,555;    1,638;    2,682
853,751;18256,337;   -0,907;    1,409
854,312;18055,845;   -0,453;   -1,682
854,874;18569,808;   -2,089;   -0,773
855,435;19112,499;   -0,907;   -1,682
855,997;19267,280;   -1,816;   -0,136
856,558;18553,425;    0,366;    1,773
857,119;18654,933;    0,820;    2,864
857,681;18338,078;    0,002;    0,318
858,242;18383,950;    1,911;   -2,136
858,803;18836,095;    0,456;   -0,773
859,364;19397,331;    0,184;   -4,773
859,925;18687,021;   -2,453;   -0,955
860,486;18569,893;   -0,453;   -0,955
861,047;18284,220;   -0,544;   -1,227
861,608;18125,637;   -1,089;   -0,773
862,169;18283,600;    0,638;   -0,045
862,730;18062,382;    0,456;    1,409
863,291;18300,526;   -0,635;   -0,500
863,852;18650,308;   -0,635;    1,955
864,412;18083,089;   -0,271;   -0,864
864,973;16674,779;   -0,089;    0,500
865,534;16537,197;   -1,726;    0,227
866,094;18060,160;    1,820;    0,227
866,655;17727,668;    1,274;    3,318
867,215;17986,631;    0,274;    0,136
867,776;17831,685;    0,547;   -0,136
868,336;17961,830;   -1,453;    0,136
868,897;17459,338;    2,638;    1,682
869,457;17176,392;    1,365;    0,318
870,017;17391,083;    0,547;   -1,227
870,578;17942,591;   -0,817;    0,773
871,138;17621,736;   -2,089;   -0,955
871,698;17125,426;   -0,817;   -1,318
872,258;17041,571;   -0,453;   -2,864
872,818;17439,534;    2,729;    0,045
873,378;17376,861;    0,638;    1,045
873,938;16881,278;    0,547;    0,500
874,498;17235,242;    0,274;   -1,955
875,058;17179,023;    2,183;    1,773
875,618;16989,622;    1,910;   -2,682
876,177;16910,949;    1,274;    0,136
876,737;16543,821;   -0,090;    1,955
877,297;16588,148;    0,183;    1,955
877,856;16576,929;   -0,362;    0,318
878,416;16500,165;    1,183;   -0,136
878,976;16716,673;   -1,817;    0,409
879,535;16907,181;    0,092;    3,136
880,095;16605,781;   -0,544;    0,045
880,654;16769,744;   -1,090;    1,318
881,213;16876,525;    2,456;    1,500
881,773;16511,306;    2,637;    2,682
882,332;16890,542;    3,365;    5,136
882,891;16729,960;    3,092;    2,136
883,451;17176,650;   -1,272;    1,682
884,010;16575,068;   -2,908;   -0,409
884,569;16703,667;   -0,999;   -0,045
885,128;16835,721;    2,819;   -1,864
885,687;16903,320;    4,455;    0,682
886,246;16637,192;    1,455;    2,136
886,805;16429,701;    2,455;    2,045
887,364;16663,846;   -0,999;   -0,500
887,922;17013,081;   -1,181;    0,045
888,481;16534,408;   -1,545;    0,591
889,040;16834,371;    1,183;    2,136
889,599;17502,425;    2,455;    1,409
890,157;17556,570;    1,455;    2,409
890,716;17215,078;   -0,090;    0,227
891,274;17050,951;    0,092;   -1,136
891,833;17508,459;    1,546;    0,864
892,391;17387,695;   -0,454;    0,500
892,950;17454,658;    1,819;   -0,773
893,508;17801,621;    0,455;   -0,409
894,067;17105,493;    0,637;    0,136
894,625;16994,001;   -0,636;   -1,500
895,183;17252,146;   -0,363;   -0,682
895,741;17174,473;    1,728;   -1,773
896,299;16975,345;   -0,545;   -2,409
896,858;17171,490;    0,819;   -1,591
897,416;17310,817;    2,728;   -1,318
897,974;17081,871;    1,819;    0,318
898,532;17212,106;    6,091;    2,682
899,089;17132,251;    2,091;   -0,682
899,647;17177,032;   -1,454;    1,318
900,205;16909,268;    1,182;    1,045
900,763;17077,958;   -0,454;    0,227
901,321;17066,558;    2,364;   -1,409
901,878;16497,066;   -1,000;   -0,773
902,436;16333,211;   -1,363;    1,318
902,994;16790,265;    4,728;    3,682
903,551;16209,955;    0,728;    0,409
904,109;16559,373;    0,182;   -1,409
904,666;16180,881;    2,455;    1,045
905,224;15973,117;    0,182;   -0,409
905,781;15754,080;    0,727;   -0,318
906,338;15828,043;   -1,363;    1,045
906,895;15777,643;    0,637;    2,045
907,453;15695,242;    1,727;    1,136
908,010;15709,023;   -0,909;    0,409
908,567;15343,441;    1,273;    0,591
909,124;14850,677;    0,364;   -1,500
909,681;14948,003;   -2,909;    0,682
910,238;15083,875;    0,636;   -1,318
910,795;15375,929;   -0,273;   -1,136
911,352;15019,293;   -2,909;   -2,682
911,909;14418,293;   -1,364;   -0,864
912,466;14974,747;   -3,182;    1,500
913,022;14522,111;   -1,636;    0,500
913,579;14850,657;   -0,909;    2,045
914,136;14553,020;    1,636;    0,955
914,692;14892,293;    0,091;   -1,227
915,249;14472,020;    1,455;    0,409
915,806;14726,747;    0,182;    1,955
916,362;14505,929;    1,909;    1,864
916,918;14064,657;    2,000;    1,045
917,475;14029,475;   -1,182;    0,955
918,031;14091,929;    3,364;   -0,045
918,587;13561,293;   -0,909;   -0,318
919,144;13738,929;   -2,273;    0,227
919,700;14067,657;    1,727;    0,773
920,256;13640,657;    0,727;    0,045
920,812;13253,566;   -0,727;   -1,045
921,368;13264,929;   -1,727;   -1,045
921,924;12901,293;    0,182;   -0,136
922,480;12481,747;   -0,545;    1,227
923,036;13081,111;    1,273;    1,955
923,592;13025,111;    0,455;    0,318
924,148;12957,747;    0,455;   -0,955
924,704;12263,111;   -1,364;   -0,409
925,259;12504,020;   -0,273;    0,591
925,815;12310,838;    1,455;    0,500
926,371;11772,293;    2,909;    1,409
926,926;11677,566;    2,091;    0,591
927,482;11324,929;   -1,364;    0,773
928,037;11195,475;    0,909;    2,045
928,593;11498,020;    1,636;    1,045
929,148;11334,020;   -1,818;   -1,500
929,704;10852,566;   -1,455;   -0,500
930,259;11067,566;    0,091;   -0,136
930,814;10123,020;   -0,818;    1,955
931,369; 9799,838;    1,091;   -0,773
931,925; 9672,202;   -0,091;    0,136
932,480; 9594,384;   -2,818;   -2,591
933,035; 9480,111;    0,545;   -0,318
933,590; 9283,202;    0,364;   -1,773
934,145; 8876,747;   -1,364;   -0,318
934,700; 9175,929;    0,455;   -0,591
935,255; 9013,111;   -0,091;    0,045
935,809; 8326,475;    3,182;    0,864
936,364; 7439,838;   -0,455;   -0,136
936,919; 7402,475;    0,455;   -1,773
937,474; 7292,566;    1,455;    0,136
938,028; 7055,384;   -1,636;    1,136
938,583; 6541,929;    1,818;    4,682
939,138; 6795,111;    2,091;    2,136
939,692; 6228,929;    1,636;   -1,136
940,247; 5949,929;   -0,727;   -1,045
940,801; 5530,566;   -0,636;    0,227
941,355; 5401,202;   -0,364;    2,591
941,910; 5049,929;   -0,273;   -2,136
942,464; 5163,111;   -0,818;   -0,318
943,018; 4974,838;    1,000;   -0,227
943,572; 4900,566;    2,545;   -0,682
944,126; 4339,111;    0,091;   -0,409
944,681; 4221,202;    3,091;    0,227
945,235; 4204,838;    1,000;   -0,591
945,789; 4155,111;    0,364;   -1,864
946,342; 4268,747;    0,455;   -0,591
946,896; 4052,202;   -2,273;    0,955
947,450; 3820,747;    1,545;   -0,227
948,004; 4024,566;    1,727;   -0,045
948,558; 4019,657;    0,273;   -0,864
949,111; 3967,566;   -0,273;   -0,318
949,665; 3989,838;    1,636;   -0,682
950,219; 3860,111;   -0,091;   -1,045
950,772; 3934,384;   -1,909;    1,864
951,326; 3841,475;    0,545;   -0,955
951,879; 3931,384;    0,727;   -2,318
952,433; 3959,202;    0,000;    2,227
952,986; 3777,384;    2,909;    0,682
953,539; 3754,202;   -0,273;    0,591
954,093; 3665,929;    0,545;   -1,318
954,646; 3820,566;    0,909;    1,318
955,199; 3632,020;    0,000;   -0,500
955,752; 3513,566;   -0,455;    1,773
956,305; 3474,475;   -0,091;    2,955
956,858; 3658,020;    0,818;   -0,318
957,411; 3799,929;   -0,545;    2,136
957,964; 3633,111;    1,364;    2,136
958,517; 3635,020;   -1,545;    3,136
959,070; 3455,384;   -0,455;    1,955
959,623; 3548,111;    1,091;    1,500
960,176; 3315,747;    1,727;    2,045
960,728; 3302,020;   -2,727;    0,773
961,281; 3356,657;    0,545;    0,500
961,834; 3404,747;   -0,909;    0,864
962,386; 3293,475;    1,727;    1,045
962,939; 3231,111;    0,364;   -0,318
963,491; 3378,202;    0,455;    1,136
964,043; 3233,929;    1,182;    2,409
964,596; 3365,747;   -1,000;    2,227
965,148; 3223,747;   -1,000;    1,773
965,700; 3129,111;    1,091;   -0,227
966,253; 3279,020;   -0,636;    0,318
966,805; 3125,020;   -2,273;    0,773
967,357; 3170,566;    1,091;   -1,500
967,909; 3103,657;    0,455;   -1,227
968,461; 3223,293;    0,545;    3,136
969,013; 3150,929;   -0,182;   -0,864
969,565; 3245,293;   -0,455;   -1,136
970,117; 3322,293;   -0,364;    1,045
970,669; 3144,747;    0,182;   -0,136
971,220; 3010,111;   -0,455;   -1,500
971,772; 2953,384;   -0,636;   -0,318
972,324; 3054,475;    0,091;   -0,500
972,876; 3000,929;    0,818;   -0,045
973,427; 3138,111;    1,909;   -1,045
973,979; 3109,384;   -0,727;   -2,500
974,530; 3141,293;    1,818;    1,318
975,082; 3151,202;   -0,545;    1,682
975,633; 3037,566;    1,091;    1,682
976,184; 3165,475;    0,909;    0,773
976,736; 2962,929;    0,091;    0,227
977,287; 2771,475;   -0,909;   -0,500
977,838; 2950,293;    0,909;   -0,318
978,389; 3020,020;   -1,000;   -0,500
978,940; 2886,202;    0,545;   -0,409
979,491; 2908,202;    0,091;   -0,500
980,042; 2887,293;    0,182;    3,045
980,593; 2931,111;   -2,545;    0,227
981,144; 2984,929;    2,545;   -0,500
981,695; 2949,657;    1,455;    1,500
982,246; 2912,566;   -0,273;    1,045
982,797; 3054,202;   -1,727;    0,682
983,347; 3164,202;    0,364;    0,591
983,898; 3352,657;    3,091;    0,409
984,449; 3140,657;    2,182;    0,773
984,999; 3046,020;    1,455;   -1,136
985,550; 2838,020;    0,182;   -0,318
986,100; 2850,838;   -0,455;   -0,318
986,651; 2880,202;   -0,818;    0,045
987,201; 2858,293;   -1,000;   -0,591
987,751; 2928,929;    0,818;    2,864
988,302; 2941,020;    2,636;    1,500
988,852; 2972,384;    0,455;   -1,136
989,402; 3004,020;    0,091;    0,682
989,952; 2926,747;   -2,182;    0,864
990,502; 3030,293;   -0,091;    0,682
991,052; 2984,111;   -0,727;    0,045
991,602; 2849,747;   -2,909;    1,318
992,152; 2850,929;    0,455;    0,682
992,702; 2845,111;    1,364;   -0,045
993,252; 2767,293;   -3,000;   -0,500
993,802; 2872,293;   -0,273;    1,318
994,352; 3094,020;   -1,545;    1,136
994,901; 3182,838;   -0,182;    3,227
995,451; 3095,929;   -0,182;    0,318
996,000; 3174,657;    1,636;    0,318
996,550; 2899,384;    2,273;    0,227
997,100; 2894,293;    1,273;   -0,045
997,649; 3170,293;    2,182;    0,955
998,198; 2802,384;    1,727;   -1,500
998,748; 3008,111;    1,091;   -2,318
999,297; 2906,566;   -0,818;   -0,409
999,846; 2969,657;    1,000;   -0,773
1000,395; 3007,657;   -0,818;    0,500
1000,945; 2978,566;    1,818;   -0,773
1001,494; 3074,747;    2,364;    0,682
1002,043; 3056,293;    4,636;    0,864
1002,592; 2877,475;   -1,091;    1,955
1003,141; 3027,929;   -0,455;   -0,682
1003,690; 2895,838;    1,727;    0,500
1004,238; 2996,111;    1,455;   -0,045
1004,787; 2611,111;    1,364;    1,227
1005,336; 2853,566;    0,364;    0,682
1005,885; 3005,202;    1,364;   -2,773
1006,433; 3136,566;    0,545;    0,955
1006,982; 3185,475;    0,455;    1,682
1007,531; 3088,202;   -1,818;   -0,227
1008,079; 3038,929;   -2,273;    0,500
1008,627; 3177,929;   -1,455;    0,409
1009,176; 2918,202;    0,000;   -1,955
1009,724; 2963,747;    1,091;    0,864
1010,273; 3010,020;    1,273;    0,500
1010,821; 3128,657;    0,091;    1,409
1011,369; 2862,020;   -1,364;    1,318
1011,917; 2844,202;   -1,364;   -0,591
1012,465; 3131,657;    1,273;   -1,591
1013,013; 3228,202;    2,091;   -1,682
1013,561; 3125,384;    0,455;   -0,773
1014,109; 3160,566;   -1,909;    1,682
1014,657; 3037,020;    0,364;    0,591
1015,205; 3163,020;    1,636;   -0,955
1015,753; 3194,657;   -0,545;   -1,409
1016,301; 3231,747;   -2,636;    3,045
1016,848; 3227,384;   -1,273;    0,409
1017,396; 3289,293;    2,545;    0,045
1017,944; 3407,838;    1,182;    1,864
1018,491; 3176,475;    0,273;    1,409
1019,039; 3332,566;    0,455;    0,591
1019,586; 3220,838;   -1,364;    1,682
1020,134; 3311,929;    0,455;    1,500
1020,681; 3356,475;    0,182;   -1,136
1021,228; 3328,838;    2,909;   -2,227
1021,776; 3171,475;    1,182;   -1,136
1022,323; 3398,111;    0,455;    0,773
1022,870; 3345,929;   -1,000;   -0,045
1023,417; 3228,293;    2,636;    1,864
1023,964; 3349,293;    2,636;    1,227
1024,511; 3195,929;    1,000;    0,773
1025,058; 2997,384;    3,182;   -0,045
1025,605; 3050,020;   -2,273;    3,136
1026,152; 3294,838;    1,727;   -0,591
1026,699; 3023,929;    1,818;    1,318
1027,245; 3177,384;   -0,091;    0,318
1027,792; 3372,202;   -1,000;    1,409
1028,339; 3262,838;    2,364;   -0,045
1028,885; 3107,020;    1,000;   -0,227
1029,432; 3044,020;   -0,091;    0,227
1029,978; 3118,657;   -1,000;   -1,591
1030,525; 3025,657;    1,000;    0,409
1031,071; 3249,202;   -1,364;    1,136
1031,618; 3362,747;    0,364;    1,682
1032,164; 3151,475;   -0,091;    3,045
1032,710; 3198,929;    1,636;   -1,500
1033,256; 3090,020;   -0,636;   -0,136
1033,803; 3080,020;   -0,545;    1,500
1034,349; 2778,747;   -1,364;    0,136
1034,895; 2951,838;    0,000;   -0,318
1035,441; 2945,566;   -0,818;    0,318
1035,987; 2932,111;   -2,364;   -0,682
1036,533; 2932,293;   -1,455;   -0,955
1037,078; 3149,202;    1,455;    1,682
1037,624; 2956,838;    2,455;   -0,955
1038,170; 2985,384;    0,455;   -0,318
1038,716; 2902,838;    1,636;   -0,409
1039,261; 2809,747;   -2,273;   -0,773
1039,807; 2754,929;   -0,091;    3,409
1040,352; 2832,747;   -1,909;   -0,318
1040,898; 2873,838;   -1,545;   -0,682
1041,443; 2761,838;   -1,455;   -2,591
1041,989; 2810,020;    1,091;    1,591
1042,534; 2666,202;   -0,364;    2,591
1043,079; 2774,202;    2,909;    0,955
1043,625; 2588,657;    1,818;    0,500
1044,170; 2633,657;   -1,364;    1,045
1044,715; 2875,566;    2,455;    0,955
1045,260; 2693,202;    2,182;   -0,955
1045,805; 2743,111;    1,182;   -0,591
1046,350; 2671,657;    1,364;   -0,409
1046,895; 2635,384;    2,909;    1,591
1047,440; 2589,657;    5,364;    0,409
1047,985; 2465,475;    2,818;   -0,955
1048,530; 2407,384;    1,545;    1,227
1049,074; 2485,657;    0,000;    0,318
1049,619; 2455,475;   -1,364;    1,955
1050,164; 2245,384;    0,455;    0,227
1050,708; 2290,747;   -0,455;    0,045
1051,253; 2660,566;    1,273;   -2,227
1051,797; 2372,020;    0,818;   -1,318
1052,342; 2379,202;   -1,182;    1,045
1052,886; 2383,293;    0,364;   -1,409
1053,430; 2244,202;   -1,364;    0,136
1053,975; 2271,475;   -0,818;   -0,318
1054,519; 2242,838;   -0,727;    3,227
1055,063; 2280,020;    0,909;    1,318
1055,607; 2165,566;   -0,182;    0,227
1056,151; 2174,475;    2,909;    1,682
1056,695; 2092,384;    2,273;   -1,136
1057,239; 2168,838;   -1,727;   -0,682
1057,783; 2180,202;    0,818;   -1,500
1058,327; 2119,838;    0,000;    1,409
1058,871; 2347,384;   -0,545;    1,318
1059,415; 2052,111;   -0,818;   -0,045
1059,958; 2343,293;    1,455;    2,591
1060,502; 2048,111;   -1,000;   -0,773
1061,046; 1928,657;    0,364;   -0,955
1061,589; 1915,202;   -3,000;   -1,136
1062,133; 1797,747;   -1,273;    1,864
1062,676; 1749,202;    1,182;    0,864
1063,220; 1757,838;    1,091;    0,500
1063,763; 1785,747;    0,909;    1,136
1064,306; 1867,566;   -0,909;    1,864
1064,849; 1746,020;   -0,909;    0,591
1065,393; 1757,475;    2,000;   -1,500
1065,936; 1869,566;    0,182;   -0,409
1066,479; 1744,838;   -1,455;    1,318
1067,022; 1771,929;   -0,273;   -0,227
1067,565; 1665,475;   -0,091;   -1,318
1068,108; 1686,384;    0,727;   -0,591
1068,651; 1655,293;   -0,636;    1,409
1069,194; 1588,747;   -0,455;   -1,682
1069,736; 1603,020;   -1,273;    0,955
1070,279; 1572,293;   -1,364;   -0,500
1070,822; 1631,747;   -2,000;   -0,318
1071,364; 1730,202;   -0,364;    1,318
1071,907; 1547,747;   -0,727;    3,227
1072,450; 1424,202;    0,000;   -0,045
1072,992; 1434,475;   -0,273;    3,136
1073,535; 1588,747;    2,091;    2,136
1074,077; 1381,657;   -0,727;    2,045
1074,619; 1340,566;   -1,364;    0,591
1075,161; 1378,838;   -1,091;    1,500
1075,704; 1558,566;    1,545;    1,227
1076,246; 1342,475;   -0,182;    0,682
1076,788; 1277,566;   -0,364;    1,773
1077,330; 1339,293;    1,273;    2,136
1077,872; 1330,475;    0,909;    0,955
1078,414; 1571,657;    2,727;    0,773
1078,956; 1289,929;    1,273;   -0,227
1079,498; 1551,384;    1,636;    0,318
1080,040; 1250,566;    1,909;   -1,318
1080,581; 1190,657;    1,636;   -0,318
1081,123; 1123,566;    0,091;   -0,773
1081,665; 1160,747;   -1,182;   -0,955
1082,206; 1469,566;    1,364;   -0,500
1082,748; 1320,747;    0,727;    2,045
1083,289; 1192,111;   -2,000;    1,318
1083,831; 1120,657;   -0,545;    0,227
1084,372; 1150,657;    0,000;    0,591
1084,913; 1144,202;    1,091;    0,864
1085,455; 1096,747;   -1,909;   -2,045
1085,996; 1089,657;   -2,273;    0,136
1086,537; 1104,384;   -0,091;    0,864
1087,078; 1138,202;   -0,909;   -2,136
1087,619; 1195,293;   -1,273;    0,227
1088,160; 1094,747;    0,000;    1,318
1088,701; 1080,111;   -1,091;    0,682
1089,242; 1020,384;    1,364;   -2,227
1089,783; 1126,111;   -0,273;    1,409
1090,324; 1094,747;    0,455;    0,682
1090,865;  957,202;    2,727;   -0,409
1091,405;  919,475;    0,727;    2,227
1091,946;  958,475;    0,182;   -0,955
1092,487;  887,475;    0,818;   -1,409
1093,027; 1069,657;   -1,364;   -1,500
1093,568;  912,293;   -0,364;    1,227
1094,108; 1016,020;    0,273;    1,773
1094,649;  939,747;   -1,182;    0,136
1095,189;  871,929;   -0,636;   -0,682
1095,729;  821,384;   -0,091;    0,955
1096,269;  825,747;    0,727;   -0,955
1096,810; 1170,838;   -1,364;    0,500
1097,350;  993,929;    1,364;   -0,773
1097,890;  895,111;    0,364;    1,227
1098,430; 1149,202;    2,364;    2,864
1098,970; 1027,202;    2,182;    1,682
1099,510;  874,111;    0,545;   -2,318
1100,050;  809,475;    1,000;   -1,591
1100,589;  770,020;   -0,727;   -0,318
1101,129;  903,838;    0,818;   -0,955
1101,669; 1058,202;    1,727;    2,136
1102,209;  871,929;   -0,091;    2,227
1102,748;  822,838;    0,000;    0,955
1103,288;  809,838;    1,273;   -1,227
1103,827;  842,838;    3,091;   -2,227
1104,367;  717,838;   -0,091;   -2,409
1104,906;  686,020;    1,364;   -1,136
1105,445;  757,838;    0,636;   -1,136
1105,985;  711,202;   -0,727;    1,500
1106,524;  756,566;   -1,727;   -0,682
1107,063;  733,111;   -2,727;    1,409
1107,602;  694,020;   -1,909;   -1,500
1108,141;  608,020;   -1,909;    1,500
1108,680;  725,293;   -3,455;   -0,591
1109,219;  658,747;   -0,909;   -0,500
1109,758;  652,566;    0,455;    0,682
1110,297;  632,111;    1,000;   -0,682
1110,836;  579,384;   -0,727;    0,955
1111,375;  747,202;   -2,545;    0,409
1111,913;  763,566;   -1,000;    0,773
1112,452;  699,384;   -0,273;    0,136
1112,991;  576,202;    1,091;    1,955
1113,529;  531,566;   -0,818;   -0,045
1114,068;  605,475;   -0,273;    2,955
1114,606;  499,475;   -0,364;   -0,955
1115,144;  676,929;   -1,273;    1,045
1115,683;  610,566;   -0,727;    0,318
1116,221;  653,020;   -0,455;   -0,864
1116,759;  561,747;    0,636;   -0,864
1117,297;  774,111;    0,000;    1,864
1117,836;  563,202;   -2,182;   -1,227
1118,374;  581,657;    0,182;   -0,682
1118,912;  523,475;    0,909;    2,682
1119,450;  517,929;    1,000;    0,864
1119,988;  565,202;    1,545;    2,136
1120,525; 1027,111;    5,091;    3,318
1121,063;  726,657;    1,182;    1,864
1121,601;  530,566;   -0,909;   -1,227
1122,139;  482,566;   -0,727;   -2,045
1122,676;  690,020;   -0,727;    2,773
1123,214;  613,747;   -1,182;    4,409
1123,751;  418,657;    1,727;    2,227
1124,289;  557,566;   -0,091;   -0,409
1124,826;  419,657;    1,727;    0,227
1125,364;  342,202;    1,727;   -0,955
1125,901;  539,020;    1,182;    1,227
1126,438;  653,838;    0,818;    0,955
1126,975;  365,475;   -0,727;   -0,773
1127,513;  444,657;    0,273;    2,136
1128,050;  349,111;    1,636;   -0,682
1128,587;  463,020;    2,000;   -0,227
1129,124;  503,111;    0,091;    1,318
1129,661;  356,020;    0,273;    0,227
1130,198;  527,111;    1,636;    0,773
1130,734;  471,202;    0,182;    1,409
1131,271;  334,384;   -0,909;    0,864
1131,808;  509,293;    2,909;    3,045
1132,345;  378,747;    1,545;    0,318
1132,881;  235,838;   -1,545;   -1,864
1133,418;  385,475;    0,727;   -1,136
1133,954;  318,929;    2,455;   -2,682
1134,491;  408,838;    1,364;   -0,773
1135,027;  293,657;    2,364;    0,864
1135,564;  393,929;    0,273;    2,955
1136,100;  376,384;    0,364;    2,136
1136,636;  254,657;   -1,273;   -1,045
1137,172;  351,384;    0,000;   -1,045
1137,708;  283,929;   -1,364;   -1,045
1138,245;  286,293;    1,273;   -1,227
1138,781;  223,111;    1,091;   -3,318
1139,317;  300,020;    1,273;   -1,409
1139,852;  290,111;    3,091;    0,136
1140,388;  408,202;   -1,182;   -0,409
1140,924;  287,111;   -1,091;   -2,227
1141,460;  223,475;   -1,636;    0,136
1141,996;  154,111;   -1,364;    2,682
1142,531;  208,020;    1,364;    3,318
1143,067;  432,566;    1,182;    1,045
1143,602;  498,838;   -0,091;   -0,318
1144,138;  336,384;   -2,636;    1,045
1144,673;  190,384;   -1,455;    1,409
1145,209;  256,747;   -1,909;   -0,318
1145,744;  185,747;   -0,727;    0,864
1146,279;  327,020;    1,818;   -0,136
1146,815;  235,020;    1,545;   -2,682
1147,350;  286,020;   -1,364;    0,045
1147,885;  195,657;   -0,818;   -1,318
1148,420;  189,566;   -2,273;    0,773
1148,955;  169,747;   -1,727;    1,864
1149,490;  204,475;   -0,909;   -1,591
1150,025;  192,202;    0,455;   -1,773
1150,560;  300,929;    1,091;   -0,955
1151,094;  263,111;    1,455;   -0,591
1151,629;  264,384;    1,636;    0,864
1152,164;  181,475;    1,364;    1,318
1152,698;  144,111;   -0,182;   -0,136
1153,233;  105,929;    0,091;   -0,682
1153,767;  153,293;   -3,000;   -2,318
1154,302;  200,747;   -1,455;    1,773
1154,836;  204,475;   -0,455;   -2,136
1155,371;  268,929;   -1,364;    3,682
1155,905;  218,293;   -0,636;    1,682
1156,439;  183,293;   -0,636;   -0,500
1156,973;  213,475;    0,364;    0,318
1157,507;  140,657;   -0,364;    0,682
1158,042;  169,838;   -0,727;    1,045
1158,576;  219,475;    0,182;    1,773
1159,110;  208,838;   -0,818;    2,409
1159,643;  182,747;    0,636;   -0,045
1160,177;  112,657;   -1,545;    1,500

