
Integration time [ms]:   0,040
Averaging Nr. [scans]: 11
Smoothing Nr. [pixels]: 0
Data measured with spectrometer [name]: 7318044SP
Wave   ;Sample   ;Dark     ;Reference
[nm]   ;[counts] ;[counts] ;[counts] 

186,757;   13,909;   31,551;    1,318
187,357;   61,300;   22,551;    0,955
187,958;   44,283;   15,460;   -1,591
188,558;   81,992;    8,915;   -1,227
189,159;   50,856;    6,733;   -4,500
189,759;   17,367;    7,278;   -3,591
190,360;   14,276;    2,824;   -2,136
190,960;   65,665;    2,915;   -4,136
191,560;   89,172;    3,189;   -6,591
192,161;  349,674;    4,372;   -3,500
192,761;  172,732;    4,010;   -3,227
193,361;  113,060;    1,556;   -3,773
193,962;  166,748;    2,010;   -2,682
194,562;   78,855;    1,189;   -3,955
195,162;  123,025;   -2,448;   -2,227
195,762;  303,808;   -3,176;   -0,045
196,362;  244,031;    1,370;   -2,500
196,963;   97,759;    2,006;   -0,864
197,563;  177,541;    1,551;   -0,955
198,163;  128,513;    0,096;   -0,682
198,763;  151,485;    1,733;   -0,500
199,363;  247,010;    3,096;   -0,500
199,963;  212,940;    0,369;    0,409
200,563;  186,016;    2,823;   -1,409
201,163;  155,558;    3,277;   -0,227
201,763;  261,450;    3,732;    0,318
202,363;  186,632;    1,459;    1,500
202,963;  304,659;    1,459;    1,045
203,563;  428,471;    0,277;    0,500
204,162;  256,848;    2,096;   -1,864
204,762;  242,817;    0,550;    0,591
205,362;  219,271;    3,004;    1,955
205,962;  326,555;    3,096;    1,955
206,562;  324,635;    1,823;    2,318
207,161;  284,278;   -0,087;    0,318
207,761;  452,939;    1,277;    2,409
208,361;  322,219;   -0,268;    1,409
208,960;  433,226;    0,459;    1,500
209,560;  503,100;    1,277;    1,591
210,160;  472,233;    0,550;    1,864
210,759;  438,320;    4,186;    1,227
211,359;  458,788;    1,459;    1,045
211,958;  741,243;    1,277;    2,045
212,558;  820,859;    1,732;    1,864
213,157;  654,449;    1,822;    1,500
213,757; 1111,900;    3,822;   -0,227
214,356;  796,785;    1,277;   -0,409
214,956; 1145,289;    3,095;    0,409
215,555;  756,372;    2,095;    2,136
216,154;  690,404;   -2,723;   -0,591
216,754;  697,033;    0,277;    0,773
217,353;  849,565;   -0,268;   -1,045
217,952;  694,414;   -0,178;    0,318
218,552;  943,417;    1,368;   -0,773
219,151;  840,764;    0,277;    0,955
219,750;  836,529;    0,004;   -0,227
220,349;  972,313;   -0,451;    1,045
220,948; 1045,270;   -1,360;    1,136
221,548; 1076,215;    0,913;    1,227
222,147; 1186,683;   -0,087;   -0,409
222,746; 1474,533;   -0,451;   -0,955
223,345; 1368,368;    0,731;    0,500
223,944; 1367,634;   -0,451;    0,773
224,543; 1563,225;    1,004;   -1,409
225,142; 1678,952;    0,094;    0,136
225,741; 1589,900;   -0,814;    1,045
226,340; 1624,767;   -0,451;   -0,955
226,939; 2104,404;   -0,996;   -0,136
227,538; 2063,375;   -0,360;   -0,773
228,137; 2233,162;   -0,814;    0,864
228,735; 2409,977;   -0,541;    1,227
229,334; 2137,334;   -0,905;   -0,227
229,933; 2524,949;    0,459;    0,591
230,532; 2634,544;    1,186;   -0,409
231,131; 2695,820;    1,732;    0,318
231,729; 2893,204;   -2,450;   -2,318
232,328; 3030,526;   -0,723;   -1,500
232,927; 3122,131;    1,004;   -0,500
233,525; 3277,036;    3,640;    0,045
234,124; 3497,421;    2,368;   -1,591
234,723; 3516,813;    0,913;   -1,045
235,321; 3661,292;    2,277;    0,136
235,920; 3936,572;    1,186;   -1,227
236,518; 4199,323;    3,459;    0,318
237,117; 4406,278;    0,004;   -0,227
237,715; 4584,579;    0,640;   -0,500
238,314; 4608,281;   -0,087;   -2,318
238,912; 4715,767;   -0,723;   -1,409
239,510; 4765,390;    0,459;   -1,227
240,109; 4965,498;    0,004;    3,773
240,707; 4997,030;   -0,996;    1,227
241,305; 5377,540;    0,550;    0,136
241,904; 5630,358;   -0,178;   -2,045
242,502; 5582,005;   -0,632;   -0,227
243,100; 5521,117;   -0,087;   -0,955
243,698; 5760,145;    0,732;    1,682
244,297; 5971,155;   -0,632;    0,682
244,895; 5794,830;   -0,269;   -2,318
245,493; 6143,743;    2,186;   -0,591
246,091; 6168,425;    1,368;   -1,318
246,689; 6166,330;    1,004;    0,591
247,287; 6346,932;    0,822;   -1,136
247,885; 6624,729;   -1,451;    1,227
248,483; 6754,078;    1,822;   -0,500
249,081; 6874,672;    0,185;    1,591
249,679; 7045,508;   -0,178;    1,682
250,277; 7306,159;   -1,723;    0,864
250,875; 7283,575;   -1,087;   -1,045
251,473; 7323,676;   -1,178;    0,500
252,071; 7534,442;    1,459;    1,045
252,669; 7696,271;   -1,814;    0,318
253,267; 7936,753;   -0,087;    0,773
253,864; 7901,568;   -0,360;    0,682
254,462; 7779,718;    1,640;    1,591
255,060; 7739,973;   -0,269;    1,318
255,658; 8075,816;    0,822;   -0,136
256,255; 8514,019;    0,186;   -2,045
256,853; 8361,638;   -0,269;    1,409
257,451; 8346,190;    0,822;    1,864
258,048; 8655,536;    1,822;    1,864
258,646; 8411,624;    1,731;   -1,045
259,243; 8598,274;   -0,087;    2,227
259,841; 8671,334;   -0,814;    0,318
260,438; 8509,792;   -0,087;    0,864
261,036; 9276,009;   -1,905;    1,409
261,633; 9153,914;   -0,087;    2,227
262,231; 8852,837;    2,731;   -0,045
262,828; 8947,893;   -0,905;    1,136
263,425; 9017,984;    0,913;   -0,591
264,023; 9318,155;    0,186;    0,045
264,620; 8854,617;   -0,360;   -0,318
265,217; 9214,820;   -2,087;    3,136
265,815; 9305,756;   -1,905;    2,136
266,412; 9071,736;    0,731;    0,136
267,009; 9148,187;   -1,451;    0,773
267,606; 9022,806;    0,822;   -0,955
268,203; 9005,327;   -0,269;   -0,591
268,801; 9324,571;    1,731;    0,591
269,398; 9597,407;   -0,360;    2,500
269,995; 9591,530;    0,277;    1,591
270,592; 9340,274;   -0,632;   -0,500
271,189; 9535,802;    0,186;    0,409
271,786; 9661,383;   -0,632;    1,227
272,383; 9488,379;   -1,087;    0,227
272,980; 9690,344;    0,277;    0,318
273,577;10188,687;    0,004;    1,227
274,174; 9725,278;    0,822;    2,591
274,771; 9709,816;   -0,814;   -0,773
275,367; 9879,956;    2,277;    1,409
275,964; 9869,697;    0,731;   -0,500
276,561; 9956,099;    1,549;   -1,045
277,158;10139,054;    0,095;   -1,773
277,755;10272,945;    2,185;    0,409
278,351; 9709,166;   -0,451;   -1,500
278,948;10017,183;   -0,815;    0,045
279,545;10027,809;   -1,360;    2,318
280,141;10651,085;   -1,723;   -2,045
280,738;10523,536;   -0,451;   -0,136
281,334;10765,771;   -1,633;    0,591
281,931;10155,763;   -0,087;   -1,318
282,528;10230,141;    0,822;   -0,500
283,124;10955,354;   -1,087;   -0,500
283,721;10878,204;   -0,451;    1,409
284,317;10678,739;    0,185;    2,500
284,913;11240,543;   -1,360;    0,591
285,510;11410,179;    0,640;   -0,318
286,106;11436,739;   -2,269;   -0,955
286,703;11040,777;   -0,360;    1,955
287,299;11258,606;   -1,451;   -0,591
287,895;11461,466;    0,822;   -1,045
288,491;12044,407;    0,186;    2,136
289,088;11754,952;   -2,360;    2,409
289,684;11841,271;   -1,723;    1,500
290,280;11845,166;    0,368;    0,682
290,876;11923,218;    1,822;    5,500
291,472;11780,903;    1,276;    2,227
292,068;11905,564;    1,367;    0,227
292,665;11631,334;    2,095;    0,773
293,261;11193,264;    0,276;    2,136
293,857;11602,977;    2,913;    2,136
294,453;11517,855;    3,550;    0,955
295,049;11422,362;   -0,268;    1,955
295,644;11440,247;    0,095;    0,136
296,240;11350,610;   -0,905;   -0,136
296,836;11386,261;   -0,995;    0,318
297,432;11647,775;    1,096;   -0,500
298,028;11718,020;    0,732;    0,773
298,624;12123,362;    1,459;    1,864
299,220;12357,299;    2,368;    0,591
299,815;12029,131;    1,005;   -0,409
300,411;11849,362;    0,914;    1,773
301,007;11838,555;    1,368;    0,227
301,602;11877,509;   -0,541;   -2,318
302,198;12050,520;    0,732;   -0,773
302,794;12406,439;    1,187;   -0,500
303,389;12498,359;   -1,177;    1,045
303,985;12581,520;    0,550;    1,409
304,580;12547,618;    1,459;    1,591
305,176;12511,513;   -3,086;    0,136
305,771;12446,212;   -1,268;   -1,227
306,367;12305,841;    4,095;    0,136
306,962;12649,145;    0,641;    1,500
307,558;12363,992;   -0,450;    0,136
308,153;12302,971;    1,095;   -1,136
308,748;12496,100;   -0,814;    1,682
309,344;12489,509;   -0,632;   -1,318
309,939;12588,964;   -1,905;   -1,318
310,534;12839,100;   -0,086;   -1,682
311,130;12758,621;    0,459;   -2,500
311,725;12514,103;    1,004;   -0,500
312,320;12839,212;    2,459;    0,045
312,915;12651,649;    1,459;   -1,045
313,510;12766,229;    1,550;   -0,500
314,105;13273,387;    1,096;    1,409
314,700;12646,869;   -3,086;   -1,045
315,295;12262,163;   -0,904;    0,045
315,890;11836,957;    1,277;    0,864
316,485;12239,292;   -0,359;   -0,318
317,080;12314,516;   -3,086;    1,591
317,675;12909,488;    2,005;   -0,682
318,270;12357,265;    5,550;    3,318
318,865;12320,625;    3,278;    3,045
319,460;12115,296;   -0,904;    0,591
320,055;12357,198;   -0,541;   -1,227
320,650;12014,422;   -1,995;   -0,591
321,244;12067,307;   -0,177;   -1,409
321,839;13020,153;   -1,541;   -0,227
322,434;12933,576;   -1,086;   -1,591
323,029;12527,132;    1,732;    1,591
323,623;12382,009;    1,550;    0,773
324,218;12144,198;    2,368;    1,409
324,812;11973,988;    1,096;    1,591
325,407;11837,296;   -0,814;    2,045
326,002;11741,453;    0,277;   -0,409
326,596;12034,404;    0,914;    1,318
327,191;12223,799;    0,823;   -1,045
327,785;11800,859;   -0,813;   -0,227
328,379;12004,104;    1,368;    0,136
328,974;11819,771;    0,914;   -3,955
329,568;12037,569;    0,186;   -2,409
330,163;11810,443;    2,096;    1,045
330,757;12181,180;    2,459;    1,591
331,351;11497,810;    0,459;    0,682
331,945;11834,072;    0,914;    1,409
332,540;11396,086;   -1,723;   -0,591
333,134;11536,974;   -1,086;    0,773
333,728;11799,600;    0,005;    0,318
334,322;12140,492;   -1,177;   -0,864
334,916;11404,254;    0,277;    0,955
335,510;11754,834;   -0,450;   -0,136
336,105;11975,436;   -1,086;    1,591
336,699;11714,187;   -1,086;    0,591
337,293;11634,215;   -1,723;    0,318
337,887;11743,607;   -2,723;    1,955
338,481;11883,932;    0,459;    0,591
339,074;12014,614;   -0,359;    2,682
339,668;11866,928;   -1,632;    1,227
340,262;12158,282;    1,732;    3,227
340,856;11603,712;    1,822;   -0,682
341,450;10949,257;    1,004;    1,864
342,044;11877,215;    1,459;    0,136
342,637;11606,044;    0,913;   -2,136
343,231;11497,071;   -2,360;    0,682
343,825;11478,093;   -1,086;   -0,591
344,419;11408,093;   -1,995;    0,500
345,012;11211,366;    2,459;    4,045
345,606;11243,495;    4,641;    1,591
346,199;11059,209;   -1,813;   -0,227
346,793;10558,432;    1,914;    2,045
347,386;10755,590;   -0,813;   -1,136
347,980;10755,422;   -0,268;   -0,045
348,573;10561,789;    2,278;    0,409
349,167;10228,241;    5,278;    4,773
349,760;10536,188;    2,914;    2,682
350,354;10514,237;   -0,813;    1,136
350,947;10296,069;    1,096;    1,682
351,540; 9938,639;   -0,358;   -1,409
352,134; 9881,674;    1,096;    1,136
352,727; 9945,496;   -0,086;    1,136
353,320; 9734,178;    0,005;    0,591
353,913; 9597,321;   -1,995;    1,864
354,507; 9816,702;    0,823;   -1,227
355,100; 9793,408;    0,460;    0,864
355,693; 9018,097;    2,005;    2,409
356,286; 9070,671;    0,823;    2,773
356,879; 9398,468;   -0,722;    1,227
357,472; 9008,964;   -0,904;    1,500
358,065; 9217,513;   -0,722;    2,500
358,658; 9134,101;   -0,540;    2,318
359,251; 8793,017;   -1,631;   -0,591
359,844; 8246,230;   -1,904;   -1,136
360,437; 8426,838;   -2,995;    0,045
361,030; 8700,258;    1,369;   -0,682
361,623; 8278,195;    2,824;    0,318
362,215; 8341,262;   -0,086;    2,045
362,808; 8195,010;   -2,358;   -1,682
363,401; 8405,409;   -2,449;    0,136
363,994; 8128,709;   -0,631;   -1,500
364,586; 8031,094;    0,824;   -1,500
365,179; 8223,517;   -0,449;   -1,136
365,772; 7743,996;   -1,995;    2,045
366,364; 8071,584;    1,915;   -3,227
366,957; 8247,969;    2,279;   -0,045
367,549; 8262,504;    2,188;   -0,864
368,142; 7880,326;    1,825;   -1,500
368,734; 8091,183;    0,734;   -2,136
369,327; 8036,389;    1,643;   -0,500
369,919; 7960,697;   -1,538;    0,409
370,512; 7740,561;   -1,083;   -0,500
371,104; 7518,593;   -0,901;    1,591
371,696; 7702,814;    1,191;   -0,955
372,289; 7799,836;    0,373;    1,136
372,881; 7936,501;   -2,080;    1,318
373,473; 7869,268;   -2,170;    1,136
374,066; 7675,843;   -0,169;    0,500
374,658; 7503,593;    0,378;    1,136
375,250; 7857,381;    0,653;   -1,409
375,842; 7711,887;    0,473;   -0,045
376,434; 7588,996;   -0,435;   -0,409
377,026; 8159,069;    0,204;   -2,500
377,618; 8073,392;   -0,158;   -0,682
378,210; 7898,272;   -0,338;   -1,955
378,802; 7735,231;    0,754;   -0,591
379,394; 7726,078;    1,846;    0,682
379,986; 8324,796;    1,393;   -0,955
380,578; 8409,303;   -0,153;    0,773
381,170; 7744,764;   -0,972;    0,045
381,762; 7720,123;    0,755;    1,409
382,354; 7923,758;   -0,065;   -1,318
382,945; 8037,253;   -2,976;    0,318
383,537; 8178,150;   -2,705;   -1,955
384,129; 8140,715;   -2,160;   -1,136
384,721; 8375,428;   -0,252;    0,955
385,312; 8314,141;   -0,161;   -0,955
385,904; 8392,277;   -2,706;    1,591
386,496; 7767,159;   -0,979;    1,045
387,087; 7947,673;    1,022;    2,500
387,679; 7947,663;   -1,160;    0,045
388,270; 8060,946;    2,840;    2,045
388,862; 8180,397;    1,295;   -0,318
389,453; 8095,817;   -0,887;    1,045
390,045; 8385,785;   -0,705;   -2,682
390,636; 8299,660;    0,204;   -0,591
391,227; 8160,960;   -0,523;   -0,045
391,819; 8240,747;    0,204;    0,773
392,410; 8334,163;    1,022;    0,045
393,001; 8265,442;   -0,979;   -1,591
393,593; 8566,526;    1,930;   -0,045
394,184; 8421,631;    1,385;   -0,409
394,775; 8337,302;    1,839;    2,136
395,366; 8524,781;    1,385;    0,773
395,957; 8516,201;    0,113;    0,136
396,548; 8853,565;   -0,342;    2,682
397,139; 9143,334;   -2,433;    0,591
397,730; 8888,106;   -1,888;    0,955
398,321; 8942,190;   -1,252;    0,955
398,912; 8998,977;   -0,615;    0,136
399,503; 9050,092;   -3,524;   -1,409
400,094; 8494,179;    0,294;    1,682
400,685; 8344,935;   -0,433;    0,045
401,276; 8414,816;    0,930;   -0,955
401,867; 8718,882;   -0,888;    0,773
402,458; 8800,960;   -2,251;   -2,318
403,048; 8789,634;    1,112;    0,591
403,639; 8394,981;    0,840;    0,864
404,230; 8661,309;    2,476;    0,318
404,821; 8578,638;   -0,615;    0,045
405,411; 8717,096;    1,203;   -2,591
406,002; 8322,763;   -1,252;   -1,136
406,592; 8204,578;    2,294;    0,045
407,183; 8487,088;    0,566;   -1,500
407,774; 8384,375;    3,475;   -0,136
408,364; 8729,312;    0,930;    0,409
408,954; 8335,046;    0,384;    1,227
409,545; 8397,399;    1,021;    1,045
410,135; 7918,861;    1,293;    0,500
410,726; 8073,703;    1,838;    0,318
411,316; 8495,728;    0,111;    0,773
411,906; 8137,654;   -0,253;   -0,409
412,497; 7628,466;   -1,070;   -0,045
413,087; 8229,172;   -1,980;   -0,227
413,677; 8641,098;   -0,707;    3,864
414,267; 8456,416;    0,656;    1,409
414,857; 8473,892;   -2,980;    4,227
415,448; 8748,766;    0,839;    0,500
416,038; 8437,088;    0,020;   -0,591
416,628; 8437,815;   -0,889;    0,409
417,218; 7868,105;    0,565;    3,318
417,808; 8150,490;    0,202;   -0,409
418,398; 8642,343;    0,020;    2,682
418,988; 8637,692;    2,020;    0,591
419,578; 8892,815;   -0,707;    1,409
420,168; 9255,298;   -1,343;   -0,955
420,757; 8876,161;   -1,343;   -1,500
421,347; 8516,678;    0,111;   -0,227
421,937; 8694,154;    2,292;    1,409
422,527; 8655,017;    0,838;   -0,773
423,116; 8456,098;   -0,253;   -0,045
423,706; 8755,476;   -1,889;    0,318
424,296; 8745,559;    1,384;    0,682
424,885; 9180,832;   -0,071;   -3,045
425,475; 9471,430;    1,474;   -2,864
426,065; 9378,545;   -0,980;   -0,318
426,654; 9005,751;   -0,435;   -0,318
427,244; 9139,112;    0,020;    1,409
427,833; 8613,178;    1,383;   -0,500
428,423; 9086,227;   -0,526;    1,136
429,012; 9868,139;   -0,344;   -1,136
429,601; 9366,401;   -1,344;    0,136
430,191; 9585,433;    1,292;    4,318
430,780; 9231,475;   -0,344;   -0,409
431,369; 9157,950;    0,746;   -0,045
431,959; 9800,454;   -1,254;    0,500
432,548; 9600,041;   -1,163;   -0,045
433,137; 9748,538;   -1,254;   -1,318
433,726;10275,688;    0,292;    0,500
434,315; 9592,870;   -0,526;    2,409
434,905; 9676,404;   -1,254;    1,409
435,494; 9569,093;    0,746;    0,955
436,083;10023,674;   -0,981;   -0,955
436,672; 9939,443;    0,110;    0,500
437,261; 9497,125;    0,292;   -1,955
437,850; 9619,604;    1,383;    0,682
438,439; 9622,611;    3,291;    1,955
439,027; 9478,093;    3,655;    1,773
439,616; 9811,740;    2,927;    1,227
440,205; 9663,733;    0,200;   -2,136
440,794; 9763,121;    2,109;   -0,045
441,383; 9993,722;   -1,346;   -0,591
441,971; 9845,254;   -2,436;    0,591
442,560; 9730,096;    0,563;   -1,773
443,149; 9484,384;    0,379;   -1,318
443,737; 9625,938;   -0,074;   -2,318
444,326; 9864,743;    0,018;    0,318
444,915; 9920,393;   -1,982;    0,864
445,503;10374,991;   -2,891;   -0,318
446,092; 9609,383;    0,382;    2,136
446,680;10169,890;    0,382;    0,318
447,269;10341,799;   -0,346;   -0,318
447,857;10128,141;    0,018;   -1,773
448,445;10217,924;    0,563;    1,318
449,034;10405,844;   -1,528;   -1,136
449,622;10570,484;   -1,073;    3,500
450,210; 9812,906;    2,017;    2,227
450,799;10363,113;    0,290;   -0,591
451,387;10319,445;    1,381;   -0,591
451,975; 9936,225;    2,654;    0,864
452,563;10036,221;    3,472;    2,318
453,151;10075,141;   -0,528;   -1,227
453,739;10016,434;   -1,347;    0,136
454,328; 9833,266;    2,381;   -2,136
454,916; 9547,444;    2,562;   -0,136
455,504; 9757,424;    1,017;    1,227
456,092; 9912,137;    0,017;   -1,591
456,679; 9934,298;    1,472;    0,682
457,267; 9861,549;    4,017;    1,045
457,855;10027,287;    1,017;    1,409
458,443; 9766,371;   -0,165;    1,682
459,031; 9890,228;    0,108;    2,409
459,619;10351,060;   -1,801;    2,864
460,206;10517,395;    0,835;    2,045
460,794;10588,476;   -2,983;   -0,227
461,382;10824,612;   -0,529;   -0,864
461,970;10418,913;    1,198;    1,864
462,557;10429,301;   -0,711;   -0,682
463,145;10604,322;   -3,165;   -1,682
463,732;10776,706;    2,016;   -1,045
464,320;10717,549;   -0,075;   -3,045
464,907;10398,849;    2,743;   -0,773
465,495;10249,167;    0,743;   -1,227
466,082;10422,660;   -1,984;   -0,045
466,670;10359,674;   -2,529;    1,227
467,257;10755,982;   -1,711;    2,045
467,844;10896,590;   -0,075;    0,045
468,432;10937,363;    0,834;    3,500
469,019;10407,429;    0,925;   -1,773
469,606;10900,978;    0,470;    3,682
470,193;10728,800;   -1,439;    0,227
470,780;10288,758;   -2,075;    0,864
471,368;10620,852;   -1,257;   -0,773
471,955;10419,366;    1,379;   -0,682
472,542;10051,761;    0,652;   -1,136
473,129;10305,356;   -0,166;    0,136
473,716;10008,118;    1,470;    0,591
474,303;10248,216;    0,652;   -0,864
474,890;10546,775;   -1,439;   -0,500
475,477;10557,880;   -1,621;    0,409
476,064;10445,526;    1,106;   -1,591
476,650;10402,618;    0,288;    0,318
477,237;10253,890;   -0,258;    0,955
477,824;10415,579;   -1,076;    0,864
478,411;10422,838;   -1,894;   -0,318
478,997;10591,464;    0,560;   -0,773
479,584;10692,173;    1,196;   -0,409
480,171;11426,768;   -0,440;   -0,773
480,757;11076,711;    2,651;    0,773
481,344;11406,198;    0,469;    0,409
481,931;10913,903;    1,105;    1,045
482,517;11980,694;   -1,258;    0,318
483,104;12611,869;    1,106;    2,864
483,690;12904,970;   -1,804;    0,045
484,276;13215,988;   -0,895;    0,227
484,863;12959,942;    2,469;    1,136
485,449;13517,959;   -0,077;    0,318
486,035;13509,096;   -1,986;   -0,136
486,622;13956,204;   -0,895;    0,045
487,208;13925,313;    1,378;    1,500
487,794;13768,956;    0,741;    0,318
488,380;13860,802;    0,105;   -1,409
488,967;13899,120;   -1,168;   -0,409
489,553;14006,186;   -1,895;   -1,409
490,139;14161,162;    1,559;    0,773
490,725;13533,634;    0,741;   -0,227
491,311;13060,403;    3,287;    3,045
491,897;12405,050;   -0,986;    1,500
492,483;12213,655;    0,105;    1,227
493,069;12029,032;    3,923;    0,864
493,655;12036,130;    1,650;    0,682
494,241;11955,445;    1,377;   -0,955
494,826;12324,637;    0,287;   -1,045
495,412;11776,760;    2,559;   -0,682
495,998;11938,301;   -0,805;   -0,318
496,584;12102,833;    0,377;    1,045
497,169;12106,658;    1,014;   -0,682
497,755;12035,752;    0,650;    1,227
498,341;12582,473;    0,559;    0,318
498,926;12188,588;    1,832;    1,955
499,512;12367,895;    1,286;    2,955
500,097;12487,595;    0,195;   -0,318
500,683;12450,916;   -0,350;    2,136
501,268;12834,228;   -0,169;   -0,955
501,854;12508,692;   -0,169;    1,227
502,439;12429,881;   -0,624;   -1,773
503,024;12652,234;    0,195;    0,500
503,610;12701,255;   -0,078;   -0,682
504,195;12758,325;    0,558;    1,955
504,780;12846,423;    2,922;    1,227
505,366;12668,675;    3,013;    2,864
505,951;12408,755;    0,740;    1,045
506,536;12396,947;   -3,260;   -3,682
507,121;12392,301;    0,285;   -0,318
507,706;12902,766;    2,376;    1,045
508,291;13308,304;    2,649;    1,136
508,876;12785,800;   -0,988;    2,591
509,461;12249,999;   -0,169;   -0,773
510,046;12650,562;    0,194;    0,318
510,631;12914,503;   -0,351;   -0,773
511,216;12548,339;    2,467;   -0,500
511,801;12937,108;   -0,442;    2,591
512,386;13260,227;    0,740;    0,500
512,971;13198,688;   -2,988;    0,955
513,555;12738,045;   -0,897;   -1,500
514,140;13515,737;   -0,442;   -3,136
514,725;13508,817;   -0,715;   -1,136
515,309;13638,160;   -0,533;    0,318
515,894;13089,034;   -0,624;   -2,227
516,479;13565,251;   -0,624;   -0,955
517,063;13384,401;    0,376;    1,227
517,648;13489,233;    1,012;   -1,136
518,232;13158,981;   -0,261;   -1,409
518,817;13508,502;   -0,079;    1,682
519,401;13730,359;    2,194;    0,591
519,985;13233,786;    1,103;    1,136
520,570;13111,425;    0,830;   -1,955
521,154;13432,079;    2,102;    0,591
521,738;13605,086;   -2,352;    2,409
522,323;14142,331;   -0,170;    1,682
522,907;13875,771;    0,466;   -0,136
523,491;13579,782;    0,557;    0,955
524,075;13597,666;    2,284;    0,591
524,659;13704,457;    1,466;    0,591
525,243;13139,047;    1,739;    0,409
525,827;13398,002;    0,648;   -0,045
526,411;14243,184;   -1,989;   -0,136
526,995;14452,551;   -0,352;    1,409
527,579;14063,862;   -0,443;   -1,045
528,163;14380,222;    0,375;   -1,500
528,747;14289,113;    2,466;   -0,773
529,331;14598,127;   -0,080;   -1,409
529,915;14810,442;    1,738;    0,955
530,499;14750,501;   -0,807;    1,227
531,082;14453,946;   -0,534;    1,591
531,666;13900,344;    1,374;    0,773
532,250;14582,907;    1,284;    2,682
532,833;14925,204;    0,920;    2,773
533,417;14755,697;   -1,807;    0,864
534,001;14752,977;    1,647;   -0,318
534,584;15465,991;    0,374;    0,500
535,168;15243,802;    0,465;    1,409
535,751;15345,106;    0,647;    0,045
536,334;14791,047;   -0,898;   -0,409
536,918;15369,159;    0,011;    1,591
537,501;15474,389;   -0,899;    1,318
538,085;15474,505;   -0,444;    1,045
538,668;15672,662;    0,829;    2,409
539,251;15959,637;    1,829;    3,773
539,834;15982,805;    0,101;    0,773
540,418;15926,571;   -1,990;    4,318
541,001;16053,330;   -0,990;    1,773
541,584;16059,644;    2,101;    2,227
542,167;15719,616;    1,374;    2,955
542,750;15831,861;    1,919;   -0,773
543,333;15489,399;    0,555;    2,136
543,916;16268,717;    0,192;    2,500
544,499;16889,903;   -1,354;    0,227
545,082;16882,154;    1,374;    3,591
545,665;17015,794;    1,919;    1,500
546,248;17360,945;    1,010;   -0,318
546,830;17037,441;   -0,445;    1,955
547,413;17442,217;    1,010;   -0,773
547,996;17962,322;    0,555;    0,500
548,579;17752,259;    0,919;    0,955
549,161;17530,420;    1,828;    2,682
549,744;17337,538;   -0,809;    0,409
550,326;17790,364;   -0,809;   -1,136
550,909;17619,290;    2,737;    0,591
551,492;18031,615;   -0,263;    0,227
552,074;17826,895;   -0,173;   -1,318
552,657;18376,231;    2,373;    0,045
553,239;18105,702;   -0,173;   -0,773
553,821;18016,996;   -1,082;    1,045
554,404;17529,286;    1,282;    1,136
554,986;17957,965;    0,464;    1,045
555,568;18520,164;    1,191;   -0,955
556,151;17728,776;    1,191;   -0,227
556,733;17903,493;   -0,264;   -0,864
557,315;18429,059;    0,100;    0,500
557,897;18224,286;    0,554;   -0,500
558,479;18356,052;   -1,991;    1,318
559,061;18450,429;   -0,719;   -0,864
559,643;18836,076;   -0,264;    0,045
560,225;19194,870;    1,645;    2,864
560,807;19184,349;    0,918;    0,318
561,389;18666,793;    0,554;    2,318
561,971;19460,107;    0,463;    2,136
562,553;19201,373;   -1,628;    1,591
563,135;19346,031;   -0,537;    1,136
563,717;19002,905;    3,372;    1,136
564,298;19725,153;    3,645;   -0,045
564,880;19450,181;    0,645;   -1,409
565,462;19638,090;    0,645;    1,318
566,043;20744,461;   -0,446;    2,318
566,625;20308,548;    1,918;    1,227
567,207;20156,247;    1,099;    1,682
567,788;21304,537;   -1,264;    1,500
568,370;22169,866;    1,917;   -0,500
568,951;21992,076;    0,190;    0,227
569,533;22865,278;   -0,628;   -0,500
570,114;23356,523;   -0,446;    0,682
570,695;23838,569;   -0,174;   -1,318
571,277;24356,883;   -0,265;   -1,682
571,858;25063,607;    2,008;   -1,136
572,439;25989,712;    1,554;   -1,045
573,021;26175,201;    2,099;   -2,773
573,602;26653,792;   -1,265;    0,318
574,183;27610,533;   -2,083;    2,227
574,764;27731,582;   -1,629;    0,409
575,345;28311,166;    0,917;   -0,136
575,926;28863,170;   -0,356;    0,136
576,507;28759,607;    1,099;   -0,227
577,088;29970,575;    3,099;    1,682
577,669;29968,883;    0,735;    1,955
578,250;30755,442;    0,644;   -1,045
578,831;31423,257;   -1,356;   -2,227
579,412;31643,495;   -0,810;    0,955
579,993;32496,837;    1,008;    0,227
580,573;32845,963;   -0,629;   -0,955
581,154;31840,827;    0,735;   -0,591
581,735;32734,121;    0,644;    0,773
582,315;32186,757;   -0,629;    2,136
582,896;32424,128;   -0,174;    1,227
583,477;31842,211;    0,189;    1,227
584,057;32123,897;    0,553;    0,955
584,638;32427,019;    2,553;    2,318
585,218;32429,799;   -0,538;    2,682
585,799;32568,075;    0,281;   -0,227
586,379;32500,575;    0,372;    1,591
586,959;31199,778;    0,735;    0,318
587,540;30516,243;   -0,629;    2,227
588,120;30097,463;    1,007;   -0,045
588,700;29139,414;    2,553;    2,136
589,281;29469,355;    0,462;   -0,955
589,861;29397,407;    0,099;   -1,682
590,441;29212,635;    2,371;   -2,682
591,021;28190,198;   -0,265;   -2,591
591,601;28378,401;   -0,537;    0,500
592,181;28410,327;   -0,719;   -0,773
592,761;27690,075;    0,007;    1,409
593,341;27596,107;   -0,901;    0,045
593,921;27612,362;   -0,265;    1,591
594,501;27522,537;   -0,538;    1,318
595,081;27350,659;    0,917;   -0,318
595,661;27699,575;   -1,447;    0,955
596,240;28262,523;   -0,537;    0,136
596,820;27881,852;    0,372;    1,955
597,400;28046,414;    2,008;    0,773
597,980;28225,708;    2,008;    1,045
598,559;28280,131;    2,735;   -0,227
599,139;27974,789;   -0,174;   -1,227
599,718;27854,698;   -0,174;   -0,409
600,298;28140,072;    0,735;    0,682
600,877;28385,992;    2,917;    1,409
601,457;28666,684;    2,281;    1,136
602,036;28585,306;    0,190;    2,045
602,616;28794,250;    0,644;    1,682
603,195;29137,226;   -0,355;    3,500
603,774;28707,761;   -0,901;    2,045
604,354;28576,736;    0,826;   -0,500
604,933;28070,117;    0,463;    1,864
605,512;28121,806;    3,554;    0,591
606,091;28198,806;   -0,537;    3,773
606,671;29050,656;    0,281;    0,773
607,250;28140,572;    1,644;    3,136
607,829;28366,765;    2,372;    3,227
608,408;28235,586;    1,190;    2,591
608,987;27181,296;    1,281;    3,409
609,566;27535,942;   -1,265;   -2,500
610,145;27679,370;   -1,082;    0,682
610,723;28041,415;    4,372;    6,864
611,302;27319,083;   -0,446;    1,682
611,881;26821,020;    5,008;   11,227
612,460;27677,635;    1,645;    3,955
613,039;28082,324;   -0,082;    2,045
613,617;26783,810;    1,736;    4,773
614,196;26974,849;    1,099;    1,227
614,775;27328,922;    1,009;    2,409
615,353;27244,762;    0,736;    0,864
615,932;27031,831;    0,100;    2,409
616,510;27580,646;    0,554;    0,591
617,089;27120,720;    7,100;   17,591
617,667;26826,199;    2,372;    6,136
618,246;26686,279;   -1,537;    1,318
618,824;26872,080;   -3,355;   -0,955
619,402;26442,447;   -2,900;   -1,773
619,981;26920,583;   -0,173;   -1,045
620,559;26777,884;    0,009;    1,682
621,137;26266,601;   -0,718;    1,864
621,715;26359,646;   -1,173;   -0,682
622,293;26263,202;   -0,537;   -0,773
622,871;26682,059;   -0,718;    0,500
623,450;26270,888;    0,373;   -0,864
624,028;26178,821;    0,191;   -0,955
624,606;25853,542;   -1,718;    1,682
625,183;26200,643;   -1,536;   -1,136
625,761;25814,003;    1,009;    1,136
626,339;26147,891;    1,373;    2,591
626,917;26543,294;   -0,172;   -0,045
627,495;26528,699;   -0,354;    1,318
628,073;25964,769;   -0,263;    2,864
628,650;25639,367;    0,100;    2,136
629,228;26117,087;    0,373;    4,409
629,806;25507,828;    2,282;    1,136
630,383;25763,556;    1,464;   -0,318
630,961;25538,860;    2,555;   -0,955
631,539;25285,881;    2,464;    0,227
632,116;24681,224;   11,373;   15,409
632,694;25223,108;    2,555;    6,500
633,271;25521,664;    0,828;    2,682
633,848;25499,986;    1,828;    2,045
634,426;25504,416;   -1,081;    1,773
635,003;24609,168;    1,101;   -0,409
635,580;24966,245;    1,192;    3,682
636,158;25496,948;    3,737;    1,227
636,735;25483,878;    0,555;   -0,500
637,312;25618,881;   -0,809;   -0,682
637,889;25717,913;   -4,354;   -0,682
638,466;25200,406;   -3,990;   -0,409
639,043;25209,609;    2,101;   -1,136
639,620;25536,211;   -2,262;   -0,955
640,197;25826,974;    1,100;    1,682
640,774;25934,846;   -0,172;    1,136
641,351;26343,354;    0,737;    1,136
641,928;25815,954;   -0,627;    1,409
642,505;25439,644;    0,828;   -0,500
643,082;25537,789;   -1,718;    1,227
643,658;24605,388;   -0,718;    1,500
644,235;25348,442;    1,191;    2,500
644,812;25646,314;    1,918;    0,773
645,388;25393,823;   -0,991;    1,409
645,965;25471,240;   -0,809;    1,682
646,542;25562,203;   -1,445;   -0,227
647,118;25498,075;    1,009;   -0,955
647,695;25833,220;   -0,263;    1,136
648,271;25725,911;   -0,536;    0,500
648,848;26034,874;    0,736;    2,227
649,424;25926,109;    0,827;    1,318
650,000;25675,891;   -0,354;   -1,045
650,577;25439,854;   -0,627;   -0,955
651,153;25870,998;   -1,809;    0,955
651,729;26884,689;    1,191;    0,864
652,305;27447,015;    0,645;    2,773
652,881;32552,978;   -0,082;    1,136
653,458;39398,396;    1,100;    0,227
654,034;42744,359;    0,282;    1,591
654,610;44011,958;    0,554;    0,773
655,186;45282,740;    0,645;    3,045
655,762;44908,248;   -0,991;    0,409
656,338;44869,666;    0,100;    0,136
656,913;45776,992;   -0,082;    0,409
657,489;44953,410;    0,827;   -0,318
658,065;44970,191;   -0,173;   -1,591
658,641;45621,427;   -0,900;   -0,864
659,217;44822,026;   -0,991;    0,409
659,792;44220,080;    0,645;   -0,409
660,368;44497,498;   -2,173;   -0,682
660,944;43793,188;   -2,082;    1,227
661,519;38685,242;   -0,628;    0,409
662,095;32849,751;   -1,719;    0,591
662,670;28685,259;    1,281;   -0,136
663,246;27732,949;    1,009;   -0,409
663,821;27148,003;    0,281;    1,682
664,396;26629,512;    0,009;    1,864
664,972;26930,293;    0,009;   -0,500
665,547;27257,529;    1,372;    0,136
666,122;27313,674;   -1,082;    0,318
666,698;27598,546;   -0,173;    0,318
667,273;26925,872;   -0,173;    0,136
667,848;27733,563;    2,372;    1,500
668,423;27602,889;    2,190;    2,318
668,998;28124,670;    2,827;   -0,682
669,573;28637,179;   -3,264;   -1,500
670,148;28478,687;   -1,446;   -0,682
670,723;28263,287;   -1,810;    0,318
671,298;28683,250;    2,372;    1,045
671,873;28809,667;   -0,082;   -0,136
672,448;28771,994;    0,645;    0,136
673,023;29103,594;   -1,992;   -0,227
673,597;29402,102;    0,827;    2,318
674,172;29164,974;   -0,355;    0,318
674,747;28614,301;    0,372;   -1,045
675,321;28386,264;   -0,628;    3,318
675,896;28060,136;    0,645;    1,045
676,471;29101,099;    2,645;    1,591
677,045;28849,880;   -1,264;    0,682
677,620;28895,570;    0,190;    1,136
678,194;29223,897;   -2,628;    1,136
678,769;28781,133;   -1,083;   -0,318
679,343;29054,187;   -0,628;    1,773
679,917;28932,423;   -1,446;    1,955
680,492;28989,658;    0,826;    3,227
681,066;29100,440;    3,372;    0,409
681,640;29163,312;    1,463;   -0,318
682,214;29993,184;    0,735;    0,500
682,788;29522,601;   -1,356;   -0,773
683,363;29443,292;   -1,810;    1,682
683,937;29181,346;   -1,719;   -0,318
684,511;29932,218;    0,463;   -0,591
685,085;29601,999;   -1,356;    0,318
685,659;29346,326;   -2,538;    0,864
686,232;29665,380;   -0,356;   -0,318
686,806;29365,524;   -0,901;    0,409
687,380;29988,578;   -0,174;    0,591
687,954;30196,996;   -1,174;    1,136
688,528;29923,868;   -0,719;    1,955
689,101;30675,104;   -3,992;    1,045
689,675;30268,794;   -0,356;   -0,136
690,249;29695,575;   -0,719;    0,409
690,822;29911,266;    0,280;    0,318
691,396;30039,229;   -0,265;    1,227
691,969;29524,919;    1,280;    0,136
692,543;29964,336;   -0,447;   -1,955
693,116;29605,663;   -0,265;   -1,409
693,690;29468,808;    0,099;    0,500
694,263;30059,044;   -1,083;    2,955
694,836;30053,734;    1,371;    3,591
695,410;28695,788;   -0,265;    1,773
695,983;29213,569;    0,189;    0,591
696,556;29162,623;   -0,447;   -1,045
697,129;29513,950;   -0,356;    1,409
697,703;29159,004;   -1,629;    1,955
698,276;29150,967;    1,462;   -0,773
698,849;28943,839;    1,280;    1,409
699,422;29310,075;   -1,083;    0,591
699,995;29019,856;    0,007;    0,136
700,568;29545,455;   -0,629;    3,045
701,140;29546,691;   -2,811;    1,682
701,713;29320,290;   -0,174;    2,409
702,286;29038,890;   -0,538;    0,864
702,859;28885,944;   -0,902;   -0,591
703,432;28054,089;    0,825;    0,682
704,004;28573,688;    0,462;    0,318
704,577;28430,015;   -0,629;    0,136
705,150;28986,614;    0,189;    2,500
705,722;28772,668;   -0,356;   -3,227
706,295;28521,813;   -0,175;   -0,591
706,867;28419,139;   -0,175;    1,955
707,440;28689,375;   -1,720;   -0,409
708,012;28963,338;    0,462;    0,591
708,584;28860,029;    2,462;    0,227
709,157;29127,264;    1,825;   -0,591
709,729;28813,682;    2,280;    2,045
710,301;29624,645;    0,734;    0,045
710,874;29628,790;   -1,447;   -0,227
711,446;28464,935;    0,371;    0,864
712,018;28339,716;    0,098;    0,500
712,590;28082,224;   -1,993;    1,682
713,162;28628,915;    0,825;    1,318
713,734;28881,605;    1,825;   -2,045
714,306;28738,477;   -1,902;   -0,409
714,878;27468,895;    0,825;    0,864
715,450;28302,312;    0,643;    0,864
716,022;28509,821;    1,552;    1,318
716,593;28681,511;    0,189;    0,591
717,165;28606,110;   -3,175;   -1,227
717,737;28341,528;    0,280;    0,409
718,309;27968,855;    0,280;   -0,045
718,880;27988,636;   -0,539;   -1,409
719,452;28172,690;   -0,175;   -1,591
720,024;27713,289;    0,734;   -0,591
720,595;28313,889;   -2,902;    0,955
721,167;27900,942;    0,370;   -2,045
721,738;27422,451;   -0,812;   -1,045
722,309;27442,232;   -0,993;   -1,227
722,881;27149,832;   -1,357;    0,773
723,452;27751,067;   -2,630;    2,864
724,023;27990,485;   -0,721;    2,682
724,595;27710,175;    0,007;    0,682
725,166;27404,956;    0,007;   -0,409
725,737;27137,192;    1,734;    0,227
726,308;27267,155;   -0,266;    0,318
726,879;27700,755;   -1,630;    1,227
727,450;27550,445;    0,552;   -0,045
728,021;27518,772;    3,097;    0,682
728,592;27289,189;    0,734;    0,500
729,163;27636,152;    0,643;   -0,136
729,734;27666,933;    0,188;   -0,227
730,305;28014,078;    1,734;    0,136
730,876;28326,769;    0,188;    2,955
731,447;28039,095;    2,188;    2,682
732,017;28145,604;    1,097;    1,864
732,588;27625,203;    0,734;    1,227
733,159;27845,530;    0,643;   -1,045
733,729;27639,947;    0,006;    0,409
734,300;26906,183;    0,915;    0,864
734,870;27322,055;    3,461;    0,591
735,441;27900,927;    0,370;   -0,591
736,011;27688,981;    0,643;   -1,591
736,582;27613,308;   -0,812;    0,045
737,152;27081,998;   -1,721;   -2,045
737,722;27538,870;   -0,267;   -0,682
738,293;27199,470;   -1,358;    1,318
738,863;27120,160;    2,461;    2,318
739,433;26940,305;    5,279;    0,318
740,003;27552,813;   -0,994;   -0,682
740,573;26968,595;    2,097;   -1,591
741,143;26875,285;   -1,085;    0,318
741,713;27675,066;    1,188;   -0,500
742,283;27419,029;    0,915;    1,591
742,853;27153,810;    1,915;    1,591
743,423;26597,046;    1,733;    0,045
743,993;26784,009;   -0,358;    1,500
744,563;26137,518;    0,097;   -0,864
745,133;26101,753;   -0,812;   -0,864
745,702;26730,353;   -0,267;    1,773
746,272;25959,588;   -0,176;    0,591
746,842;25744,552;   -1,358;   -0,591
747,411;26145,060;   -0,267;   -0,318
747,981;26345,387;    0,097;    0,500
748,551;26330,713;    2,278;   -1,045
749,120;26231,222;    0,642;   -0,227
749,690;26651,276;   -0,631;    2,409
750,259;26935,512;    1,369;    2,955
750,828;26851,929;    1,551;   -1,955
751,398;27137,892;    1,278;   -0,045
751,967;26743,128;    2,187;    0,409
752,536;26874,364;   -0,813;   -0,227
753,105;27244,690;    0,096;    0,227
753,675;27076,835;    0,096;    1,773
754,244;27009,707;   -0,904;    3,591
754,813;27058,579;    0,551;    1,227
755,382;26649,542;    0,460;    0,955
755,951;27229,960;    1,551;    3,682
756,520;26752,287;   -0,085;    1,864
757,089;27361,431;    0,278;    0,500
757,658;27505,304;    1,733;    1,227
758,227;27476,267;    1,096;    0,318
758,795;27763,684;    1,187;    1,136
759,364;27921,193;   -0,086;   -0,591
759,933;26981,701;   -1,176;   -0,045
760,501;26515,482;    0,733;   -1,318
761,070;26944,627;   -2,813;   -1,409
761,639;27677,136;   -1,904;    1,318
762,207;27041,462;    1,551;   -0,955
762,776;26973,971;    0,369;    0,864
763,344;26921,207;   -0,995;    0,591
763,913;26008,442;   -0,722;    1,409
764,481;26748,678;    1,005;   -0,136
765,049;26528,641;   -1,358;    1,409
765,618;26393,331;   -0,086;    0,318
766,186;26479,022;    0,278;    0,136
766,754;26648,167;    0,005;    1,864
767,322;25641,039;   -1,995;    0,409
767,890;25675,820;   -0,722;   -1,773
768,459;26093,419;   -2,177;   -0,318
769,027;26301,928;    1,641;    3,409
769,595;25228,436;    3,278;    2,591
770,163;25648,945;    3,823;    2,955
770,730;25428,544;    0,732;   -0,136
771,298;25244,507;    0,187;   -1,409
771,866;25350,379;   -1,541;    4,955
772,434;25663,251;   -0,631;   -1,864
773,002;25825,305;    0,005;    0,682
773,569;25441,450;    0,914;    1,682
774,137;25295,959;   -0,268;   -0,045
774,705;26121,376;    0,278;   -0,136
775,272;25569,248;    0,641;    0,682
775,840;25311,393;   -0,177;    2,682
776,407;24900,902;    0,277;    1,955
776,975;24445,956;   -0,632;    0,318
777,542;25486,191;   -1,086;   -0,045
778,110;25329,427;   -1,268;   -0,045
778,677;24975,118;   -2,359;   -0,864
779,244;24789,899;    2,186;    1,045
779,812;24887,316;    1,823;    0,864
780,379;24747,279;    0,005;    1,136
780,946;24985,970;    1,005;   -0,773
781,513;25328,024;   -1,450;    0,318
782,080;24693,168;   -0,086;    2,864
782,647;25437,222;   -0,268;    3,045
783,214;24996,731;   -0,177;    3,864
783,781;24660,785;   -0,723;   -0,682
784,348;24480,111;   -0,632;    1,500
784,915;24944,984;   -3,177;    0,318
785,482;24756,583;    1,368;    2,591
786,049;25151,728;    0,186;   -0,591
786,615;25303,782;    0,277;   -0,955
787,182;24990,745;    0,186;   -0,682
787,749;24649,435;   -2,814;    1,409
788,315;24003,034;   -1,632;   -0,409
788,882;24328,543;    1,550;   -1,227
789,448;25059,688;    1,732;   -0,955
790,015;25024,196;    1,095;    3,227
790,581;24587,796;    1,459;    0,227
791,148;24496,395;    0,641;    1,045
791,714;24651,540;   -0,541;    3,136
792,280;24297,412;    0,186;    1,591
792,847;23911,648;    0,550;    2,500
793,413;24456,702;   -0,269;   -0,318
793,979;24008,937;    3,459;   -1,318
794,545;24117,900;    4,459;    2,682
795,111;23557,954;    2,186;    1,318
795,678;23752,463;    0,731;   -1,682
796,244;23392,971;    3,368;    0,136
796,810;23932,116;    1,731;    0,773
797,375;23618,079;    0,549;   -2,136
797,941;23660,042;   -0,541;    0,591
798,507;23804,551;   -0,451;   -0,955
799,073;23356,877;   -0,360;    0,591
799,639;23382,022;   -2,632;    3,136
800,205;23399,804;    0,095;    2,682
800,770;22938,403;    0,640;    1,773
801,336;23090,730;    1,368;   -0,955
801,901;22762,238;    4,549;    3,136
802,467;23296,019;   -0,542;    2,045
803,033;22656,073;   -0,087;    0,864
803,598;22866,400;    1,913;   -1,045
804,163;22913,363;    1,095;   -0,318
804,729;22870,053;   -0,178;    1,136
805,294;23238,380;    0,822;    2,227
805,859;23023,979;    0,731;   -0,409
806,425;22502,397;    1,186;    2,682
806,990;22185,451;    2,186;    4,318
807,555;22654,323;   -1,451;    2,591
808,120;22550,377;    0,822;   -0,409
808,685;22600,976;    0,185;   -2,500
809,250;22075,030;    0,004;   -0,500
809,815;22421,993;    1,913;    0,682
810,380;22977,047;   -0,269;    1,591
810,945;23536,192;   -1,087;    2,045
811,510;22680,700;    2,094;    1,591
812,075;22438,209;   -0,633;   -1,409
812,640;22417,536;    2,003;    1,409
813,204;22446,044;    0,822;   -0,227
813,769;22921,462;    2,094;   -0,045
814,334;22340,152;    0,458;    0,864
814,898;22411,206;    0,367;    0,591
815,463;22236,805;    1,276;   -0,773
816,027;22204,768;   -0,724;   -2,318
816,592;22296,640;    0,640;   -2,045
817,156;21886,967;    2,094;    1,136
817,721;21754,657;    4,276;    2,318
818,285;21692,530;    2,912;    1,500
818,849;22295,038;   -1,451;    1,682
819,414;22211,274;   -0,269;    2,955
819,978;21771,600;   -1,269;    1,773
820,542;22385,563;    2,003;    0,500
821,106;22065,345;   -0,815;    0,682
821,670;22202,035;   -0,815;    2,591
822,234;21910,816;   -0,270;    1,409
822,798;21294,961;    0,003;    0,500
823,362;21277,742;   -0,633;    4,227
823,926;20598,614;    0,094;    1,136
824,490;20815,305;   -0,997;   -0,682
825,054;21257,268;   -0,088;   -1,136
825,618;20876,594;   -1,542;   -1,500
826,181;20793,830;    0,458;   -1,318
826,745;20743,793;    1,367;   -1,045
827,309;21085,302;    1,185;    1,318
827,872;20485,265;    1,367;    0,955
828,436;21422,409;    1,185;   -0,773
828,999;21475,191;   -0,997;    1,227
829,563;20316,881;   -0,179;    1,136
830,126;20174,571;   -0,179;   -0,591
830,690;20165,989;   -1,997;    2,864
831,253;19688,679;   -0,543;    2,227
831,816;19799,915;   -1,906;    0,500
832,380;19721,423;    0,185;    0,864
832,943;19923,568;   -1,361;   -0,500
833,506;19384,622;    2,639;   -1,227
834,069;20209,676;    3,912;   -0,955
834,632;20301,912;    1,730;    1,318
835,195;20181,602;    1,003;    0,955
835,758;19359,111;   -0,997;    1,955
836,321;19231,892;    0,730;   -1,045
836,884;19294,219;   -0,725;   -0,955
837,447;19341,273;   -2,816;    1,773
838,010;19630,236;    0,366;    3,227
838,573;19902,744;   -1,179;    0,773
839,135;19875,071;   -1,361;   -0,955
839,698;19345,488;    1,275;    0,409
840,261;18838,269;    1,003;   -0,227
840,823;18678,596;   -0,543;    0,864
841,386;18954,377;   -0,452;   -2,409
841,948;18859,886;   -1,361;    1,773
842,511;18635,576;    0,912;    1,682
843,073;18768,630;    1,912;    0,227
843,636;18543,320;   -0,361;   -0,227
844,198;18493,283;    0,911;    0,591
844,760;18613,337;    1,093;    1,955
845,322;18255,028;    0,548;    1,136
845,885;18694,263;    0,730;    0,591
846,447;19153,317;   -1,998;    0,227
847,009;18753,462;    1,911;   -0,682
847,571;19037,880;    0,820;   -2,045
848,133;19124,752;   -1,089;   -1,864
848,695;18946,806;   -0,543;    1,409
849,257;18492,042;   -1,089;   -1,682
849,819;18679,914;   -0,998;   -0,409
850,381;18712,149;   -0,725;   -0,864
850,942;19084,840;    1,093;   -0,591
851,504;19072,076;    1,184;    0,227
852,066;19070,311;    1,275;   -1,591
852,628;18581,002;   -0,180;    1,955
853,189;18150,965;    1,638;    2,682
853,751;18296,655;   -0,907;    1,409
854,312;18074,072;   -0,453;   -1,682
854,874;18553,945;   -2,089;   -0,773
855,435;19065,180;   -0,907;   -1,682
855,997;19249,598;   -1,816;   -0,136
856,558;18578,106;    0,366;    1,773
857,119;18668,160;    0,820;    2,864
857,681;18311,669;    0,002;    0,318
858,242;18418,359;    1,911;   -2,136
858,803;18795,231;    0,456;   -0,773
859,364;19369,376;    0,184;   -4,773
859,925;18691,157;   -2,453;   -0,955
860,486;18541,848;   -0,453;   -0,955
861,047;18255,902;   -0,544;   -1,227
861,608;18138,865;   -1,089;   -0,773
862,169;18257,191;    0,638;   -0,045
862,730;17995,882;    0,456;    1,409
863,291;18260,663;   -0,635;   -0,500
863,852;18668,717;   -0,635;    1,955
864,412;18084,952;   -0,271;   -0,864
864,973;16682,370;   -0,089;    0,500
865,534;16574,060;   -1,726;    0,227
866,094;18051,296;    1,820;    0,227
866,655;17727,259;    1,274;    3,318
867,215;17994,949;    0,274;    0,136
867,776;17813,458;    0,547;   -0,136
868,336;17927,148;   -1,453;    0,136
868,897;17461,111;    2,638;    1,682
869,457;17180,892;    1,365;    0,318
870,017;17413,855;    0,547;   -1,227
870,578;17903,455;   -0,817;    0,773
871,138;17577,600;   -2,089;   -0,955
871,698;17142,745;   -0,817;   -1,318
872,258;17051,344;   -0,453;   -2,864
872,818;17400,125;    2,729;    0,045
873,378;17391,725;    0,638;    1,045
873,938;16895,233;    0,547;    0,500
874,498;17213,560;    0,274;   -1,955
875,058;17161,614;    2,183;    1,773
875,618;16979,395;    1,910;   -2,682
876,177;16935,449;    1,274;    0,136
876,737;16557,594;   -0,090;    1,955
877,297;16590,102;    0,183;    1,955
877,856;16554,520;   -0,362;    0,318
878,416;16506,665;    1,183;   -0,136
878,976;16715,991;   -1,817;    0,409
879,535;16899,318;    0,092;    3,136
880,095;16604,826;   -0,544;    0,045
880,654;16720,971;   -1,090;    1,318
881,213;16821,207;    2,456;    1,500
881,773;16494,988;    2,637;    2,682
882,332;16849,951;    3,365;    5,136
882,891;16717,369;    3,092;    2,136
883,451;17203,059;   -1,272;    1,682
884,010;16610,931;   -2,908;   -0,409
884,569;16683,440;   -0,999;   -0,045
885,128;16839,857;    2,819;   -1,864
885,687;16924,638;    4,455;    0,682
886,246;16601,965;    1,455;    2,136
886,805;16397,110;    2,455;    2,045
887,364;16682,709;   -0,999;   -0,500
887,922;17046,127;   -1,181;    0,045
888,481;16522,817;   -1,545;    0,591
889,040;16828,962;    1,183;    2,136
889,599;17502,016;    2,455;    1,409
890,157;17588,797;    1,455;    2,409
890,716;17255,488;   -0,090;    0,227
891,274;17086,087;    0,092;   -1,136
891,833;17499,868;    1,546;    0,864
892,391;17386,104;   -0,454;    0,500
892,950;17447,431;    1,819;   -0,773
893,508;17795,666;    0,455;   -0,409
894,067;17151,448;    0,637;    0,136
894,625;17053,956;   -0,636;   -1,500
895,183;17237,555;   -0,363;   -0,682
895,741;17163,246;    1,728;   -1,773
896,299;17021,481;   -0,545;   -2,409
896,858;17186,172;    0,819;   -1,591
897,416;17335,135;    2,728;   -1,318
897,974;17094,734;    1,819;    0,318
898,532;17201,697;    6,091;    2,682
899,089;17100,115;    2,091;   -0,682
899,647;17164,169;   -1,454;    1,318
900,205;16876,586;    1,182;    1,045
900,763;17064,277;   -0,454;    0,227
901,321;17045,694;    2,364;   -1,409
901,878;16461,475;   -1,000;   -0,773
902,436;16344,347;   -1,363;    1,318
902,994;16776,220;    4,728;    3,682
903,551;16223,092;    0,728;    0,409
904,109;16568,146;    0,182;   -1,409
904,666;16138,836;    2,455;    1,045
905,224;15988,617;    0,182;   -0,409
905,781;15771,398;    0,727;   -0,318
906,338;15866,452;   -1,363;    1,045
906,895;15742,597;    0,637;    2,045
907,453;15690,742;    1,727;    1,136
908,010;15696,251;   -0,909;    0,409
908,567;15374,850;    1,273;    0,591
909,124;14846,177;    0,364;   -1,500
909,681;14941,594;   -2,909;    0,682
910,238;15092,194;    0,636;   -1,318
910,795;15399,157;   -0,273;   -1,136
911,352;15025,611;   -2,909;   -2,682
911,909;14468,520;   -1,364;   -0,864
912,466;15012,429;   -3,182;    1,500
913,022;14522,793;   -1,636;    0,500
913,579;14869,247;   -0,909;    2,045
914,136;14546,429;    1,636;    0,955
914,692;14893,066;    0,091;   -1,227
915,249;14484,884;    1,455;    0,409
915,806;14723,066;    0,182;    1,955
916,362;14507,702;    1,909;    1,864
916,918;14060,884;    2,000;    1,045
917,475;14024,429;   -1,182;    0,955
918,031;14109,884;    3,364;   -0,045
918,587;13521,884;   -0,909;   -0,318
919,144;13739,520;   -2,273;    0,227
919,700;14063,884;    1,727;    0,773
920,256;13619,247;    0,727;    0,045
920,812;13266,338;   -0,727;   -1,045
921,368;13256,066;   -1,727;   -1,045
921,924;12867,975;    0,182;   -0,136
922,480;12462,975;   -0,545;    1,227
923,036;13157,702;    1,273;    1,955
923,592;13028,793;    0,455;    0,318
924,148;12919,520;    0,455;   -0,955
924,704;12266,066;   -1,364;   -0,409
925,259;12493,520;   -0,273;    0,591
925,815;12270,520;    1,455;    0,500
926,371;11807,975;    2,909;    1,409
926,926;11700,157;    2,091;    0,591
927,482;11318,884;   -1,364;    0,773
928,037;11215,793;    0,909;    2,045
928,593;11534,702;    1,636;    1,045
929,148;11342,157;   -1,818;   -1,500
929,704;10835,429;   -1,455;   -0,500
930,259;11015,884;    0,091;   -0,136
930,814;10103,338;   -0,818;    1,955
931,369; 9781,429;    1,091;   -0,773
931,925; 9636,338;   -0,091;    0,136
932,480; 9566,975;   -2,818;   -2,591
933,035; 9492,066;    0,545;   -0,318
933,590; 9243,702;    0,364;   -1,773
934,145; 8884,247;   -1,364;   -0,318
934,700; 9234,975;    0,455;   -0,591
935,255; 9015,520;   -0,091;    0,045
935,809; 8310,611;    3,182;    0,864
936,364; 7441,702;   -0,455;   -0,136
936,919; 7401,702;    0,455;   -1,773
937,474; 7277,520;    1,455;    0,136
938,028; 7035,338;   -1,636;    1,136
938,583; 6540,520;    1,818;    4,682
939,138; 6811,884;    2,091;    2,136
939,692; 6216,157;    1,636;   -1,136
940,247; 5934,247;   -0,727;   -1,045
940,801; 5496,975;   -0,636;    0,227
941,355; 5414,884;   -0,364;    2,591
941,910; 5052,702;   -0,273;   -2,136
942,464; 5178,157;   -0,818;   -0,318
943,018; 4980,884;    1,000;   -0,227
943,572; 4917,429;    2,545;   -0,682
944,126; 4336,066;    0,091;   -0,409
944,681; 4236,066;    3,091;    0,227
945,235; 4200,975;    1,000;   -0,591
945,789; 4150,429;    0,364;   -1,864
946,342; 4249,884;    0,455;   -0,591
946,896; 4047,066;   -2,273;    0,955
947,450; 3823,066;    1,545;   -0,227
948,004; 4024,066;    1,727;   -0,045
948,558; 4020,247;    0,273;   -0,864
949,111; 3954,066;   -0,273;   -0,318
949,665; 3988,793;    1,636;   -0,682
950,219; 3857,611;   -0,091;   -1,045
950,772; 3929,338;   -1,909;    1,864
951,326; 3825,338;    0,545;   -0,955
951,879; 3930,338;    0,727;   -2,318
952,433; 3953,975;    0,000;    2,227
952,986; 3787,157;    2,909;    0,682
953,539; 3751,611;   -0,273;    0,591
954,093; 3671,975;    0,545;   -1,318
954,646; 3822,338;    0,909;    1,318
955,199; 3621,702;    0,000;   -0,500
955,752; 3510,793;   -0,455;    1,773
956,305; 3465,793;   -0,091;    2,955
956,858; 3628,520;    0,818;   -0,318
957,411; 3815,702;   -0,545;    2,136
957,964; 3646,520;    1,364;    2,136
958,517; 3634,611;   -1,545;    3,136
959,070; 3460,066;   -0,455;    1,955
959,623; 3547,247;    1,091;    1,500
960,176; 3319,520;    1,727;    2,045
960,728; 3287,884;   -2,727;    0,773
961,281; 3328,884;    0,545;    0,500
961,834; 3395,702;   -0,909;    0,864
962,386; 3305,247;    1,727;    1,045
962,939; 3224,520;    0,364;   -0,318
963,491; 3379,066;    0,455;    1,136
964,043; 3242,066;    1,182;    2,409
964,596; 3366,520;   -1,000;    2,227
965,148; 3208,611;   -1,000;    1,773
965,700; 3126,520;    1,091;   -0,227
966,253; 3284,429;   -0,636;    0,318
966,805; 3118,066;   -2,273;    0,773
967,357; 3164,247;    1,091;   -1,500
967,909; 3143,611;    0,455;   -1,227
968,461; 3218,702;    0,545;    3,136
969,013; 3160,338;   -0,182;   -0,864
969,565; 3233,975;   -0,455;   -1,136
970,117; 3299,066;   -0,364;    1,045
970,669; 3152,520;    0,182;   -0,136
971,220; 3001,884;   -0,455;   -1,500
971,772; 2934,702;   -0,636;   -0,318
972,324; 3050,066;    0,091;   -0,500
972,876; 2982,975;    0,818;   -0,045
973,427; 3147,157;    1,909;   -1,045
973,979; 3115,520;   -0,727;   -2,500
974,530; 3138,066;    1,818;    1,318
975,082; 3151,247;   -0,545;    1,682
975,633; 3032,884;    1,091;    1,682
976,184; 3173,975;    0,909;    0,773
976,736; 2964,793;    0,091;    0,227
977,287; 2780,066;   -0,909;   -0,500
977,838; 2966,611;    0,909;   -0,318
978,389; 3018,793;   -1,000;   -0,500
978,940; 2876,338;    0,545;   -0,409
979,491; 2900,066;    0,091;   -0,500
980,042; 2895,429;    0,182;    3,045
980,593; 2939,702;   -2,545;    0,227
981,144; 2980,429;    2,545;   -0,500
981,695; 2946,702;    1,455;    1,500
982,246; 2910,429;   -0,273;    1,045
982,797; 3060,066;   -1,727;    0,682
983,347; 3160,520;    0,364;    0,591
983,898; 3336,793;    3,091;    0,409
984,449; 3172,793;    2,182;    0,773
984,999; 3051,702;    1,455;   -1,136
985,550; 2844,247;    0,182;   -0,318
986,100; 2868,611;   -0,455;   -0,318
986,651; 2899,702;   -0,818;    0,045
987,201; 2881,066;   -1,000;   -0,591
987,751; 2946,066;    0,818;    2,864
988,302; 2957,429;    2,636;    1,500
988,852; 2963,702;    0,455;   -1,136
989,402; 3014,338;    0,091;    0,682
989,952; 2939,247;   -2,182;    0,864
990,502; 3035,157;   -0,091;    0,682
991,052; 2975,975;   -0,727;    0,045
991,602; 2839,611;   -2,909;    1,318
992,152; 2836,520;    0,455;    0,682
992,702; 2847,338;    1,364;   -0,045
993,252; 2754,702;   -3,000;   -0,500
993,802; 2857,157;   -0,273;    1,318
994,352; 3095,520;   -1,545;    1,136
994,901; 3159,611;   -0,182;    3,227
995,451; 3084,611;   -0,182;    0,318
996,000; 3186,702;    1,636;    0,318
996,550; 2900,157;    2,273;    0,227
997,100; 2886,975;    1,273;   -0,045
997,649; 3170,793;    2,182;    0,955
998,198; 2803,247;    1,727;   -1,500
998,748; 3001,975;    1,091;   -2,318
999,297; 2912,520;   -0,818;   -0,409
999,846; 2966,066;    1,000;   -0,773
1000,395; 3008,338;   -0,818;    0,500
1000,945; 2968,338;    1,818;   -0,773
1001,494; 3062,702;    2,364;    0,682
1002,043; 3043,611;    4,636;    0,864
1002,592; 2875,338;   -1,091;    1,955
1003,141; 3035,247;   -0,455;   -0,682
1003,690; 2911,429;    1,727;    0,500
1004,238; 2963,157;    1,455;   -0,045
1004,787; 2597,157;    1,364;    1,227
1005,336; 2858,793;    0,364;    0,682
1005,885; 2991,884;    1,364;   -2,773
1006,433; 3137,611;    0,545;    0,955
1006,982; 3189,975;    0,455;    1,682
1007,531; 3097,066;   -1,818;   -0,227
1008,079; 3037,611;   -2,273;    0,500
1008,627; 3185,793;   -1,455;    0,409
1009,176; 2907,611;    0,000;   -1,955
1009,724; 2959,884;    1,091;    0,864
1010,273; 3018,520;    1,273;    0,500
1010,821; 3127,157;    0,091;    1,409
1011,369; 2872,793;   -1,364;    1,318
1011,917; 2854,793;   -1,364;   -0,591
1012,465; 3128,066;    1,273;   -1,591
1013,013; 3236,247;    2,091;   -1,682
1013,561; 3116,066;    0,455;   -0,773
1014,109; 3172,975;   -1,909;    1,682
1014,657; 3015,884;    0,364;    0,591
1015,205; 3153,429;    1,636;   -0,955
1015,753; 3200,702;   -0,545;   -1,409
1016,301; 3234,338;   -2,636;    3,045
1016,848; 3225,247;   -1,273;    0,409
1017,396; 3274,884;    2,545;    0,045
1017,944; 3395,975;    1,182;    1,864
1018,491; 3153,247;    0,273;    1,409
1019,039; 3317,611;    0,455;    0,591
1019,586; 3218,611;   -1,364;    1,682
1020,134; 3317,338;    0,455;    1,500
1020,681; 3349,702;    0,182;   -1,136
1021,228; 3338,884;    2,909;   -2,227
1021,776; 3160,884;    1,182;   -1,136
1022,323; 3403,702;    0,455;    0,773
1022,870; 3331,429;   -1,000;   -0,045
1023,417; 3233,066;    2,636;    1,864
1023,964; 3365,247;    2,636;    1,227
1024,511; 3224,157;    1,000;    0,773
1025,058; 3009,793;    3,182;   -0,045
1025,605; 3054,975;   -2,273;    3,136
1026,152; 3308,338;    1,727;   -0,591
1026,699; 3024,066;    1,818;    1,318
1027,245; 3183,066;   -0,091;    0,318
1027,792; 3380,157;   -1,000;    1,409
1028,339; 3272,884;    2,364;   -0,045
1028,885; 3118,520;    1,000;   -0,227
1029,432; 3040,066;   -0,091;    0,227
1029,978; 3119,975;   -1,000;   -1,591
1030,525; 3017,429;    1,000;    0,409
1031,071; 3225,702;   -1,364;    1,136
1031,618; 3372,338;    0,364;    1,682
1032,164; 3163,611;   -0,091;    3,045
1032,710; 3198,338;    1,636;   -1,500
1033,256; 3098,884;   -0,636;   -0,136
1033,803; 3070,793;   -0,545;    1,500
1034,349; 2803,157;   -1,364;    0,136
1034,895; 2961,884;    0,000;   -0,318
1035,441; 2951,975;   -0,818;    0,318
1035,987; 2938,520;   -2,364;   -0,682
1036,533; 2940,157;   -1,455;   -0,955
1037,078; 3156,066;    1,455;    1,682
1037,624; 2970,884;    2,455;   -0,955
1038,170; 2987,975;    0,455;   -0,318
1038,716; 2897,611;    1,636;   -0,409
1039,261; 2800,702;   -2,273;   -0,773
1039,807; 2743,247;   -0,091;    3,409
1040,352; 2816,157;   -1,909;   -0,318
1040,898; 2861,338;   -1,545;   -0,682
1041,443; 2767,429;   -1,455;   -2,591
1041,989; 2800,520;    1,091;    1,591
1042,534; 2677,247;   -0,364;    2,591
1043,079; 2783,157;    2,909;    0,955
1043,625; 2591,702;    1,818;    0,500
1044,170; 2638,611;   -1,364;    1,045
1044,715; 2892,702;    2,455;    0,955
1045,260; 2704,066;    2,182;   -0,955
1045,805; 2753,611;    1,182;   -0,591
1046,350; 2675,338;    1,364;   -0,409
1046,895; 2624,793;    2,909;    1,591
1047,440; 2590,247;    5,364;    0,409
1047,985; 2476,793;    2,818;   -0,955
1048,530; 2406,793;    1,545;    1,227
1049,074; 2472,247;    0,000;    0,318
1049,619; 2443,429;   -1,364;    1,955
1050,164; 2245,247;    0,455;    0,227
1050,708; 2283,884;   -0,455;    0,045
1051,253; 2675,066;    1,273;   -2,227
1051,797; 2375,975;    0,818;   -1,318
1052,342; 2372,702;   -1,182;    1,045
1052,886; 2393,884;    0,364;   -1,409
1053,430; 2246,429;   -1,364;    0,136
1053,975; 2269,520;   -0,818;   -0,318
1054,519; 2244,793;   -0,727;    3,227
1055,063; 2275,066;    0,909;    1,318
1055,607; 2159,066;   -0,182;    0,227
1056,151; 2181,157;    2,909;    1,682
1056,695; 2074,793;    2,273;   -1,136
1057,239; 2154,429;   -1,727;   -0,682
1057,783; 2175,975;    0,818;   -1,500
1058,327; 2132,429;    0,000;    1,409
1058,871; 2351,157;   -0,545;    1,318
1059,415; 2054,429;   -0,818;   -0,045
1059,958; 2337,429;    1,455;    2,591
1060,502; 2050,793;   -1,000;   -0,773
1061,046; 1946,338;    0,364;   -0,955
1061,589; 1918,884;   -3,000;   -1,136
1062,133; 1780,611;   -1,273;    1,864
1062,676; 1742,702;    1,182;    0,864
1063,220; 1750,793;    1,091;    0,500
1063,763; 1778,520;    0,909;    1,136
1064,306; 1862,702;   -0,909;    1,864
1064,849; 1747,338;   -0,909;    0,591
1065,393; 1751,247;    2,000;   -1,500
1065,936; 1867,247;    0,182;   -0,409
1066,479; 1743,066;   -1,455;    1,318
1067,022; 1772,429;   -0,273;   -0,227
1067,565; 1665,975;   -0,091;   -1,318
1068,108; 1698,520;    0,727;   -0,591
1068,651; 1647,884;   -0,636;    1,409
1069,194; 1598,429;   -0,455;   -1,682
1069,736; 1611,611;   -1,273;    0,955
1070,279; 1566,793;   -1,364;   -0,500
1070,822; 1629,793;   -2,000;   -0,318
1071,364; 1737,793;   -0,364;    1,318
1071,907; 1546,157;   -0,727;    3,227
1072,450; 1431,702;    0,000;   -0,045
1072,992; 1437,793;   -0,273;    3,136
1073,535; 1589,975;    2,091;    2,136
1074,077; 1379,247;   -0,727;    2,045
1074,619; 1334,247;   -1,364;    0,591
1075,161; 1377,611;   -1,091;    1,500
1075,704; 1569,157;    1,545;    1,227
1076,246; 1364,975;   -0,182;    0,682
1076,788; 1282,338;   -0,364;    1,773
1077,330; 1344,429;    1,273;    2,136
1077,872; 1320,884;    0,909;    0,955
1078,414; 1557,520;    2,727;    0,773
1078,956; 1279,611;    1,273;   -0,227
1079,498; 1550,338;    1,636;    0,318
1080,040; 1255,884;    1,909;   -1,318
1080,581; 1186,338;    1,636;   -0,318
1081,123; 1107,975;    0,091;   -0,773
1081,665; 1151,520;   -1,182;   -0,955
1082,206; 1466,793;    1,364;   -0,500
1082,748; 1328,702;    0,727;    2,045
1083,289; 1189,247;   -2,000;    1,318
1083,831; 1102,793;   -0,545;    0,227
1084,372; 1157,338;    0,000;    0,591
1084,913; 1153,066;    1,091;    0,864
1085,455; 1106,611;   -1,909;   -2,045
1085,996; 1093,338;   -2,273;    0,136
1086,537; 1114,429;   -0,091;    0,864
1087,078; 1138,066;   -0,909;   -2,136
1087,619; 1193,520;   -1,273;    0,227
1088,160; 1101,157;    0,000;    1,318
1088,701; 1082,338;   -1,091;    0,682
1089,242; 1027,702;    1,364;   -2,227
1089,783; 1130,611;   -0,273;    1,409
1090,324; 1090,884;    0,455;    0,682
1090,865;  975,520;    2,727;   -0,409
1091,405;  934,975;    0,727;    2,227
1091,946;  970,611;    0,182;   -0,955
1092,487;  883,338;    0,818;   -1,409
1093,027; 1054,520;   -1,364;   -1,500
1093,568;  907,338;   -0,364;    1,227
1094,108; 1020,611;    0,273;    1,773
1094,649;  945,157;   -1,182;    0,136
1095,189;  888,247;   -0,636;   -0,682
1095,729;  839,611;   -0,091;    0,955
1096,269;  832,611;    0,727;   -0,955
1096,810; 1161,247;   -1,364;    0,500
1097,350;  986,884;    1,364;   -0,773
1097,890;  887,702;    0,364;    1,227
1098,430; 1149,338;    2,364;    2,864
1098,970; 1021,975;    2,182;    1,682
1099,510;  860,975;    0,545;   -2,318
1100,050;  804,520;    1,000;   -1,591
1100,589;  763,520;   -0,727;   -0,318
1101,129;  900,338;    0,818;   -0,955
1101,669; 1062,338;    1,727;    2,136
1102,209;  867,793;   -0,091;    2,227
1102,748;  822,429;    0,000;    0,955
1103,288;  825,066;    1,273;   -1,227
1103,827;  846,429;    3,091;   -2,227
1104,367;  718,611;   -0,091;   -2,409
1104,906;  681,793;    1,364;   -1,136
1105,445;  769,975;    0,636;   -1,136
1105,985;  710,975;   -0,727;    1,500
1106,524;  753,247;   -1,727;   -0,682
1107,063;  735,338;   -2,727;    1,409
1107,602;  708,247;   -1,909;   -1,500
1108,141;  618,884;   -1,909;    1,500
1108,680;  729,066;   -3,455;   -0,591
1109,219;  660,611;   -0,909;   -0,500
1109,758;  661,247;    0,455;    0,682
1110,297;  631,793;    1,000;   -0,682
1110,836;  579,702;   -0,727;    0,955
1111,375;  752,975;   -2,545;    0,409
1111,913;  762,066;   -1,000;    0,773
1112,452;  694,702;   -0,273;    0,136
1112,991;  570,611;    1,091;    1,955
1113,529;  528,429;   -0,818;   -0,045
1114,068;  615,157;   -0,273;    2,955
1114,606;  514,793;   -0,364;   -0,955
1115,144;  684,975;   -1,273;    1,045
1115,683;  610,338;   -0,727;    0,318
1116,221;  655,884;   -0,455;   -0,864
1116,759;  567,338;    0,636;   -0,864
1117,297;  772,611;    0,000;    1,864
1117,836;  576,611;   -2,182;   -1,227
1118,374;  579,520;    0,182;   -0,682
1118,912;  522,157;    0,909;    2,682
1119,450;  515,247;    1,000;    0,864
1119,988;  569,066;    1,545;    2,136
1120,525; 1033,702;    5,091;    3,318
1121,063;  723,338;    1,182;    1,864
1121,601;  531,066;   -0,909;   -1,227
1122,139;  471,066;   -0,727;   -2,045
1122,676;  673,520;   -0,727;    2,773
1123,214;  619,611;   -1,182;    4,409
1123,751;  413,066;    1,727;    2,227
1124,289;  556,338;   -0,091;   -0,409
1124,826;  420,884;    1,727;    0,227
1125,364;  349,338;    1,727;   -0,955
1125,901;  533,247;    1,182;    1,227
1126,438;  654,520;    0,818;    0,955
1126,975;  362,702;   -0,727;   -0,773
1127,513;  440,975;    0,273;    2,136
1128,050;  348,884;    1,636;   -0,682
1128,587;  445,520;    2,000;   -0,227
1129,124;  498,611;    0,091;    1,318
1129,661;  356,884;    0,273;    0,227
1130,198;  524,702;    1,636;    0,773
1130,734;  474,702;    0,182;    1,409
1131,271;  327,520;   -0,909;    0,864
1131,808;  500,702;    2,909;    3,045
1132,345;  369,247;    1,545;    0,318
1132,881;  237,066;   -1,545;   -1,864
1133,418;  389,702;    0,727;   -1,136
1133,954;  322,520;    2,455;   -2,682
1134,491;  396,429;    1,364;   -0,773
1135,027;  296,338;    2,364;    0,864
1135,564;  394,247;    0,273;    2,955
1136,100;  376,066;    0,364;    2,136
1136,636;  259,975;   -1,273;   -1,045
1137,172;  353,247;    0,000;   -1,045
1137,708;  274,429;   -1,364;   -1,045
1138,245;  281,429;    1,273;   -1,227
1138,781;  226,429;    1,091;   -3,318
1139,317;  293,975;    1,273;   -1,409
1139,852;  287,338;    3,091;    0,136
1140,388;  416,975;   -1,182;   -0,409
1140,924;  297,611;   -1,091;   -2,227
1141,460;  230,884;   -1,636;    0,136
1141,996;  155,975;   -1,364;    2,682
1142,531;  217,247;    1,364;    3,318
1143,067;  438,611;    1,182;    1,045
1143,602;  485,793;   -0,091;   -0,318
1144,138;  328,066;   -2,636;    1,045
1144,673;  198,066;   -1,455;    1,409
1145,209;  270,247;   -1,909;   -0,318
1145,744;  184,247;   -0,727;    0,864
1146,279;  326,520;    1,818;   -0,136
1146,815;  237,884;    1,545;   -2,682
1147,350;  276,066;   -1,364;    0,045
1147,885;  182,884;   -0,818;   -1,318
1148,420;  186,429;   -2,273;    0,773
1148,955;  171,884;   -1,727;    1,864
1149,490;  198,520;   -0,909;   -1,591
1150,025;  177,429;    0,455;   -1,773
1150,560;  289,247;    1,091;   -0,955
1151,094;  253,429;    1,455;   -0,591
1151,629;  273,066;    1,636;    0,864
1152,164;  193,429;    1,364;    1,318
1152,698;  143,247;   -0,182;   -0,136
1153,233;  104,975;    0,091;   -0,682
1153,767;  153,338;   -3,000;   -2,318
1154,302;  207,157;   -1,455;    1,773
1154,836;  207,338;   -0,455;   -2,136
1155,371;  265,247;   -1,364;    3,682
1155,905;  219,520;   -0,636;    1,682
1156,439;  185,884;   -0,636;   -0,500
1156,973;  211,702;    0,364;    0,318
1157,507;  138,884;   -0,364;    0,682
1158,042;  174,793;   -0,727;    1,045
1158,576;  220,157;    0,182;    1,773
1159,110;  217,247;   -0,818;    2,409
1159,643;  187,066;    0,636;   -0,045
1160,177;  118,884;   -1,545;    1,500

