
Integration time [ms]:   0,040
Averaging Nr. [scans]: 11
Smoothing Nr. [pixels]: 0
Data measured with spectrometer [name]: 7318044SP
Wave   ;Sample   ;Dark     ;Reference
[nm]   ;[counts] ;[counts] ;[counts] 

186,757;   29,401;   31,551;    1,318
187,357;   71,065;   22,551;    0,955
187,958;   47,138;   15,460;   -1,591
188,558;   82,576;    8,915;   -1,227
189,159;   43,439;    6,733;   -4,500
189,759;   20,040;    7,278;   -3,591
190,360;   26,038;    2,824;   -2,136
190,960;   74,970;    2,915;   -4,136
191,560;   85,655;    3,189;   -6,591
192,161;  346,056;    4,372;   -3,500
192,761;  175,377;    4,010;   -3,227
193,361;  115,614;    1,556;   -3,773
193,962;  167,489;    2,010;   -2,682
194,562;   88,062;    1,189;   -3,955
195,162;  130,057;   -2,448;   -2,227
195,762;  303,752;   -3,176;   -0,045
196,362;  249,158;    1,370;   -2,500
196,963;   98,976;    2,006;   -0,864
197,563;  186,398;    1,551;   -0,955
198,163;  121,280;    0,096;   -0,682
198,763;  141,343;    1,733;   -0,500
199,363;  256,867;    3,096;   -0,500
199,963;  212,980;    0,369;    0,409
200,563;  183,876;    2,823;   -1,409
201,163;  165,328;    3,277;   -0,227
201,763;  258,310;    3,732;    0,318
202,363;  180,947;    1,459;    1,500
202,963;  308,703;    1,459;    1,045
203,563;  429,877;    0,277;    0,500
204,162;  267,618;    2,096;   -1,864
204,762;  248,861;    0,550;    0,591
205,362;  213,042;    3,004;    1,955
205,962;  325,142;    3,096;    1,955
206,562;  320,497;    1,823;    2,318
207,161;  275,414;   -0,087;    0,318
207,761;  449,983;    1,277;    2,409
208,361;  315,898;   -0,268;    1,409
208,960;  435,087;    0,459;    1,500
209,560;  496,872;    1,277;    1,591
210,160;  480,641;    0,550;    1,864
210,759;  441,364;    4,186;    1,227
211,359;  447,107;    1,459;    1,045
211,958;  738,015;    1,277;    2,045
212,558;  828,903;    1,732;    1,864
213,157;  654,040;    1,822;    1,500
213,757; 1114,855;    3,822;   -0,227
214,356;  790,012;    1,277;   -0,409
214,956; 1142,151;    3,095;    0,409
215,555;  754,964;    2,095;    2,136
216,154;  691,086;   -2,723;   -0,591
216,754;  709,352;    0,277;    0,773
217,353;  840,246;   -0,268;   -1,045
217,952;  699,916;   -0,178;    0,318
218,552;  955,737;    1,368;   -0,773
219,151;  835,630;    0,277;    0,955
219,750;  835,214;    0,004;   -0,227
220,349;  978,996;   -0,451;    1,045
220,948; 1040,864;   -1,360;    1,136
221,548; 1075,353;    0,913;    1,227
222,147; 1194,912;   -0,087;   -0,409
222,746; 1482,126;   -0,451;   -0,955
223,345; 1361,326;    0,731;    0,500
223,944; 1373,045;   -0,451;    0,773
224,543; 1563,363;    1,004;   -1,409
225,142; 1676,274;    0,094;    0,136
225,741; 1589,948;   -0,814;    1,045
226,340; 1607,633;   -0,451;   -0,955
226,939; 2092,632;   -0,996;   -0,136
227,538; 2056,514;   -0,360;   -0,773
228,137; 2210,845;   -0,814;    0,864
228,735; 2400,205;   -0,541;    1,227
229,334; 2129,107;   -0,905;   -0,227
229,933; 2526,450;    0,459;    0,591
230,532; 2634,135;    1,186;   -0,409
231,131; 2679,411;    1,732;    0,318
231,729; 2854,705;   -2,450;   -2,318
232,328; 3004,572;   -0,723;   -1,500
232,927; 3086,903;    1,004;   -0,500
233,525; 3238,720;    3,640;    0,045
234,124; 3470,649;    2,368;   -1,591
234,723; 3502,768;    0,913;   -1,045
235,321; 3647,975;    2,277;    0,136
235,920; 3893,254;    1,186;   -1,227
236,518; 4170,188;    3,459;    0,318
237,117; 4369,507;    0,004;   -0,227
237,715; 4565,897;    0,640;   -0,500
238,314; 4588,145;   -0,087;   -2,318
238,912; 4697,995;   -0,723;   -1,409
239,510; 4759,163;    0,459;   -1,227
240,109; 4941,361;    0,004;    3,773
240,707; 4985,347;   -0,996;    1,227
241,305; 5366,858;    0,550;    0,136
241,904; 5616,767;   -0,178;   -2,045
242,502; 5540,869;   -0,632;   -0,227
243,100; 5479,072;   -0,087;   -0,955
243,698; 5764,372;    0,732;    1,682
244,297; 5953,202;   -0,632;    0,682
244,895; 5788,695;   -0,269;   -2,318
245,493; 6140,608;    2,186;   -0,591
246,091; 6162,290;    1,368;   -1,318
246,689; 6166,013;    1,004;    0,591
247,287; 6342,342;    0,822;   -1,136
247,885; 6623,049;   -1,451;    1,227
248,483; 6734,307;    1,822;   -0,500
249,081; 6875,903;    0,185;    1,591
249,679; 7027,920;   -0,178;    1,682
250,277; 7285,206;   -1,723;    0,864
250,875; 7254,894;   -1,087;   -1,045
251,473; 7287,905;   -1,178;    0,500
252,071; 7512,216;    1,459;    1,045
252,669; 7646,954;   -1,814;    0,318
253,267; 7934,256;   -0,087;    0,773
253,864; 7907,160;   -0,360;    0,682
254,462; 7756,948;    1,640;    1,591
255,060; 7750,021;   -0,269;    1,318
255,658; 8090,136;    0,822;   -0,136
256,255; 8492,884;    0,186;   -2,045
256,853; 8381,595;   -0,269;    1,409
257,451; 8362,419;    0,822;    1,864
258,048; 8630,947;    1,822;    1,864
258,646; 8384,490;    1,731;   -1,045
259,243; 8553,413;   -0,087;    2,227
259,841; 8620,563;   -0,814;    0,318
260,438; 8477,385;   -0,087;    0,864
261,036; 9226,600;   -1,905;    1,409
261,633; 9129,234;   -0,087;    2,227
262,231; 8861,430;    2,731;   -0,045
262,828; 8967,485;   -0,905;    1,136
263,425; 9026,667;    0,913;   -0,591
264,023; 9324,021;    0,186;    0,045
264,620; 8851,664;   -0,360;   -0,318
265,217; 9197,049;   -2,087;    3,136
265,815; 9299,896;   -1,905;    2,136
266,412; 9063,783;    0,731;    0,136
267,009; 9115,052;   -1,451;    0,773
267,606; 9009,490;    0,822;   -0,955
268,203; 8999,828;   -0,269;   -0,591
268,801; 9303,164;    1,731;    0,591
269,398; 9583,546;   -0,360;    2,500
269,995; 9596,576;    0,277;    1,591
270,592; 9359,411;   -0,632;   -0,500
271,189; 9522,668;    0,186;    0,409
271,786; 9625,975;   -0,632;    1,227
272,383; 9453,516;   -1,087;    0,227
272,980; 9697,482;    0,277;    0,318
273,577;10208,096;    0,004;    1,227
274,174; 9737,324;    0,822;    2,591
274,771; 9733,591;   -0,814;   -0,773
275,367; 9882,547;    2,277;    1,409
275,964; 9837,471;    0,731;   -0,500
276,561; 9923,329;    1,549;   -1,045
277,158;10133,193;    0,095;   -1,773
277,755;10279,812;    2,185;    0,409
278,351; 9644,941;   -0,451;   -1,500
278,948; 9955,232;   -0,815;    0,045
279,545; 9966,584;   -1,360;    2,318
280,141;10627,678;   -1,723;   -2,045
280,738;10542,220;   -0,451;   -0,136
281,334;10741,091;   -1,633;    0,591
281,931;10155,449;   -0,087;   -1,318
282,528;10231,645;    0,822;   -0,500
283,124;10930,402;   -1,087;   -0,500
283,721;10858,162;   -0,451;    1,409
284,317;10616,334;    0,185;    2,500
284,913;11203,229;   -1,360;    0,591
285,510;11411,138;    0,640;   -0,318
286,106;11464,515;   -2,269;   -0,955
286,703;11030,644;   -0,360;    1,955
287,299;11238,472;   -1,451;   -0,591
287,895;11425,968;    0,822;   -1,045
288,491;11995,455;    0,186;    2,136
289,088;11741,910;   -2,360;    2,409
289,684;11810,591;   -1,723;    1,500
290,280;11797,303;    0,368;    0,682
290,876;11902,902;    1,822;    5,500
291,472;11783,225;    1,276;    2,227
292,068;11911,795;    1,367;    0,227
292,665;11579,017;    2,095;    0,773
293,261;11165,312;    0,276;    2,136
293,857;11597,296;    2,913;    2,136
294,453;11530,355;    3,550;    0,955
295,049;11388,406;   -0,268;    1,955
295,644;11402,655;    0,095;    0,136
296,240;11312,836;   -0,905;   -0,136
296,836;11367,031;   -0,995;    0,318
297,432;11661,181;    1,096;   -0,500
298,028;11688,880;    0,732;    0,773
298,624;12108,951;    1,459;    1,864
299,220;12362,978;    2,368;    0,591
299,815;12028,084;    1,005;   -0,409
300,411;11824,497;    0,914;    1,773
301,007;11844,415;    1,368;    0,227
301,602;11871,280;   -0,541;   -2,318
302,198;12026,561;    0,732;   -0,773
302,794;12383,209;    1,187;   -0,500
303,389;12502,765;   -1,177;    1,045
303,985;12608,199;    0,550;    1,409
304,580;12540,933;    1,459;    1,591
305,176;12514,102;   -3,086;    0,136
305,771;12404,438;   -1,268;   -1,227
306,367;12283,067;    4,095;    0,136
306,962;12627,552;    0,641;    1,500
307,558;12336,762;   -0,450;    0,136
308,153;12224,378;    1,095;   -1,136
308,748;12496,871;   -0,814;    1,682
309,344;12459,008;   -0,632;   -1,318
309,939;12574,644;   -1,905;   -1,318
310,534;12828,417;   -0,086;   -1,682
311,130;12766,210;    0,459;   -2,500
311,725;12518,147;    1,004;   -0,500
312,320;12849,801;    2,459;    0,045
312,915;12686,420;    1,459;   -1,045
313,510;12746,000;    1,550;   -0,500
314,105;13238,156;    1,096;    1,409
314,700;12619,639;   -3,086;   -1,045
315,295;12238,024;   -0,904;    0,045
315,890;11839,636;    1,277;    0,864
316,485;12246,245;   -0,359;   -0,318
317,080;12352,105;   -3,086;    1,591
317,675;12906,895;    2,005;   -0,682
318,270;12324,125;    5,550;    3,318
318,865;12304,757;    3,278;    3,045
319,460;12171,884;   -0,904;    0,591
320,055;12366,694;   -0,541;   -1,227
320,650;12053,827;   -1,995;   -0,591
321,244;12093,530;   -0,177;   -1,409
321,839;13059,832;   -1,541;   -0,227
322,434;12899,801;   -1,086;   -1,591
323,029;12519,719;    1,732;    1,591
323,623;12353,234;    1,550;    0,773
324,218;12103,422;    2,368;    1,409
324,812;11993,394;    1,096;    1,591
325,407;11822,157;   -0,814;    2,045
326,002;11710,951;    0,277;   -0,409
326,596;12003,083;    0,914;    1,318
327,191;12234,388;    0,823;   -1,045
327,785;11802,901;   -0,813;   -0,227
328,379;12026,056;    1,368;    0,136
328,974;11865,178;    0,914;   -3,955
329,568;12049,611;    0,186;   -2,409
330,163;11867,303;    2,096;    1,045
330,757;12209,679;    2,459;    1,591
331,351;11519,399;    0,459;    0,682
331,945;11808,933;    0,914;    1,409
332,540;11406,220;   -1,723;   -0,591
333,134;11572,382;   -1,086;    0,773
333,728;11821,007;    0,005;    0,318
334,322;12134,898;   -1,177;   -0,864
334,916;11397,844;    0,277;    0,955
335,510;11732,241;   -0,450;   -0,136
336,105;11960,024;   -1,086;    1,591
336,699;11691,231;   -1,086;    0,591
337,293;11661,896;   -1,723;    0,318
337,887;11802,923;   -2,723;    1,955
338,481;11873,612;    0,459;    0,591
339,074;12011,840;   -0,359;    2,682
339,668;11829,791;   -1,632;    1,227
340,262;12122,144;    1,732;    3,227
340,856;11619,302;    1,822;   -0,682
341,450;10967,666;    1,004;    1,864
342,044;11870,805;    1,459;    0,136
342,637;11639,816;    0,913;   -2,136
343,231;11507,300;   -2,360;    0,682
343,825;11485,682;   -1,086;   -0,591
344,419;11423,681;   -1,995;    0,500
345,012;11245,954;    2,459;    4,045
345,606;11231,083;    4,641;    1,591
346,199;11062,432;   -1,813;   -0,227
346,793;10545,928;    1,914;    2,045
347,386;10746,996;   -0,813;   -1,136
347,980;10749,008;   -0,268;   -0,045
348,573;10545,011;    2,278;    0,409
349,167;10174,461;    5,278;    4,773
349,760;10555,591;    2,914;    2,682
350,354;10567,729;   -0,813;    1,136
350,947;10322,016;    1,096;    1,682
351,540; 9954,223;   -0,358;   -1,409
352,134; 9892,350;    1,096;    1,136
352,727; 9942,718;   -0,086;    1,136
353,320; 9759,944;    0,005;    0,591
353,913; 9600,270;   -1,995;    1,864
354,507; 9781,378;    0,823;   -1,227
355,100; 9766,721;    0,460;    0,864
355,693; 9031,317;    2,005;    2,409
356,286; 9081,528;    0,823;    2,773
356,879; 9424,143;   -0,722;    1,227
357,472; 9015,004;   -0,904;    1,500
358,065; 9225,643;   -0,722;    2,500
358,658; 9150,231;   -0,540;    2,318
359,251; 8799,056;   -1,631;   -0,591
359,844; 8281,905;   -1,904;   -1,136
360,437; 8451,696;   -2,995;    0,045
361,030; 8722,297;    1,369;   -0,682
361,623; 8296,142;    2,824;    0,318
362,215; 8350,300;   -0,086;    2,045
362,808; 8186,958;   -2,358;   -1,682
363,401; 8369,355;   -2,449;    0,136
363,994; 8119,383;   -0,631;   -1,500
364,586; 8042,857;    0,824;   -1,500
365,179; 8216,371;   -0,449;   -1,136
365,772; 7707,943;   -1,995;    2,045
366,364; 8038,983;    1,915;   -3,227
366,957; 8239,911;    2,279;   -0,045
367,549; 8244,900;    2,188;   -0,864
368,142; 7894,357;    1,825;   -1,500
368,734; 8113,303;    0,734;   -2,136
369,327; 8053,145;    1,643;   -0,500
369,919; 7981,724;   -1,538;    0,409
370,512; 7785,495;   -1,083;   -0,500
371,104; 7528,250;   -0,901;    1,591
371,696; 7708,921;    1,191;   -0,955
372,289; 7773,485;    0,373;    1,136
372,881; 7946,417;   -2,080;    1,318
373,473; 7891,270;   -2,170;    1,136
374,066; 7683,927;   -0,169;    0,500
374,658; 7522,758;    0,378;    1,136
375,250; 7889,354;    0,653;   -1,409
375,842; 7744,029;    0,473;   -0,045
376,434; 7588,675;   -0,435;   -0,409
377,026; 8181,462;    0,204;   -2,500
377,618; 8060,592;   -0,158;   -0,682
378,210; 7884,188;   -0,338;   -1,955
378,802; 7751,230;    0,754;   -0,591
379,394; 7759,344;    1,846;    0,682
379,986; 8325,420;    1,393;   -0,955
380,578; 8428,199;   -0,153;    0,773
381,170; 7771,392;   -0,972;    0,045
381,762; 7714,393;    0,755;    1,409
382,354; 7876,492;   -0,065;   -1,318
382,945; 8028,268;   -2,976;    0,318
383,537; 8146,902;   -2,705;   -1,955
384,129; 8173,930;   -2,160;   -1,136
384,721; 8384,281;   -0,252;    0,955
385,312; 8299,360;   -0,161;   -0,955
385,904; 8401,859;   -2,706;    1,591
386,496; 7761,284;   -0,979;    1,045
387,087; 7886,250;    1,022;    2,500
387,679; 7935,511;   -1,160;    0,045
388,270; 8067,248;    2,840;    2,045
388,862; 8198,972;    1,295;   -0,318
389,453; 8089,392;   -0,887;    1,045
390,045; 8379,633;   -0,705;   -2,682
390,636; 8320,415;    0,204;   -0,591
391,227; 8160,444;   -0,523;   -0,045
391,819; 8243,141;    0,204;    0,773
392,410; 8311,376;    1,022;    0,045
393,001; 8272,840;   -0,979;   -1,591
393,593; 8554,925;    1,930;   -0,045
394,184; 8387,302;    1,385;   -0,409
394,775; 8347,064;    1,839;    2,136
395,366; 8560,087;    1,385;    0,773
395,957; 8548,415;    0,113;    0,136
396,548; 8854,961;   -0,342;    2,682
397,139; 9160,274;   -2,433;    0,591
397,730; 8916,140;   -1,888;    0,955
398,321; 8950,861;   -1,252;    0,955
398,912; 8960,830;   -0,615;    0,136
399,503; 9030,218;   -3,524;   -1,409
400,094; 8476,760;    0,294;    1,682
400,685; 8323,696;   -0,433;    0,045
401,276; 8421,395;    0,930;   -0,955
401,867; 8765,099;   -0,888;    0,773
402,458; 8836,175;   -2,251;   -2,318
403,048; 8828,306;    1,112;    0,591
403,639; 8433,469;    0,840;    0,864
404,230; 8643,980;    2,476;    0,318
404,821; 8572,945;   -0,615;    0,045
405,411; 8708,222;    1,203;   -2,591
406,002; 8298,526;   -1,252;   -1,136
406,592; 8153,887;    2,294;    0,045
407,183; 8466,581;    0,566;   -1,500
407,774; 8389,049;    3,475;   -0,136
408,364; 8723,076;    0,930;    0,409
408,954; 8343,447;    0,384;    1,227
409,545; 8388,164;    1,021;    1,045
410,135; 7922,809;    1,293;    0,500
410,726; 8099,380;    1,838;    0,318
411,316; 8492,313;    0,111;    0,773
411,906; 8153,240;   -0,253;   -0,409
412,497; 7642,959;   -1,070;   -0,045
413,087; 8257,847;   -1,980;   -0,227
413,677; 8649,230;   -0,707;    3,864
414,267; 8478,912;    0,656;    1,409
414,857; 8470,660;   -2,980;    4,227
415,448; 8766,896;    0,839;    0,500
416,038; 8442,945;    0,020;   -0,591
416,628; 8421,038;   -0,889;    0,409
417,218; 7893,874;    0,565;    3,318
417,808; 8169,713;    0,202;   -0,409
418,398; 8636,839;    0,020;    2,682
418,988; 8685,553;    2,020;    0,591
419,578; 8906,311;   -0,707;    1,409
420,168; 9241,611;   -1,343;   -0,955
420,757; 8858,655;   -1,343;   -1,500
421,347; 8514,176;    0,111;   -0,227
421,937; 8660,015;    2,292;    1,409
422,527; 8627,788;    0,838;   -0,773
423,116; 8454,413;   -0,253;   -0,045
423,706; 8791,245;   -1,889;    0,318
424,296; 8776,511;    1,384;    0,682
424,885; 9191,965;   -0,071;   -3,045
425,475; 9487,200;    1,474;   -2,864
426,065; 9406,407;   -0,980;   -0,318
426,654; 9027,978;   -0,435;   -0,318
427,244; 9142,701;    0,020;    1,409
427,833; 8610,039;    1,383;   -0,500
428,423; 9079,090;   -0,526;    1,136
429,012; 9862,185;   -0,344;   -1,136
429,601; 9334,721;   -1,344;    0,136
430,191; 9569,569;    1,292;    4,318
430,780; 9220,883;   -0,344;   -0,409
431,369; 9174,633;    0,746;   -0,045
431,959; 9792,955;   -1,254;    0,500
432,548; 9583,906;   -1,163;   -0,045
433,137; 9724,858;   -1,254;   -1,318
433,726;10229,917;    0,292;    0,500
434,315; 9568,281;   -0,526;    2,409
434,905; 9657,545;   -1,254;    1,409
435,494; 9533,051;    0,746;    0,955
436,083;10029,721;   -0,981;   -0,955
436,672; 9892,400;    0,110;    0,500
437,261; 9460,356;    0,292;   -1,955
437,850; 9610,743;    1,383;    0,682
438,439; 9624,297;    3,291;    1,955
439,027; 9492,144;    3,655;    1,773
439,616; 9792,155;    2,927;    1,227
440,205; 9629,693;    0,200;   -2,136
440,794; 9750,809;    2,109;   -0,045
441,383;10029,048;   -1,346;   -0,591
441,971; 9854,306;   -2,436;    0,591
442,560; 9718,332;    0,563;   -1,773
443,149; 9498,088;    0,379;   -1,318
443,737; 9629,905;   -0,074;   -2,318
444,326; 9880,161;    0,018;    0,318
444,915; 9966,811;   -1,982;    0,864
445,503;10385,135;   -2,891;   -0,318
446,092; 9615,073;    0,382;    2,136
446,680;10186,762;    0,382;    0,318
447,269;10370,763;   -0,346;   -0,318
447,857;10100,742;    0,018;   -1,773
448,445;10236,253;    0,563;    1,318
449,034;10452,354;   -1,528;   -1,136
449,622;10583,540;   -1,073;    3,500
450,210; 9801,692;    2,017;    2,227
450,799;10351,898;    0,290;   -0,591
451,387;10298,504;    1,381;   -0,591
451,975; 9924,101;    2,654;    0,864
452,563;10044,097;    3,472;    2,318
453,151;10083,290;   -0,528;   -1,227
453,739;10068,495;   -1,347;    0,136
454,328; 9843,235;    2,381;   -2,136
454,916; 9569,142;    2,562;   -0,136
455,504; 9751,847;    1,017;    1,227
456,092; 9898,106;    0,017;   -1,591
456,679; 9937,085;    1,472;    0,682
457,267; 9888,701;    4,017;    1,045
457,855;10031,712;    1,017;    1,409
458,443; 9763,797;   -0,165;    1,682
459,031; 9901,562;    0,108;    2,409
459,619;10380,484;   -1,801;    2,864
460,206;10527,093;    0,835;    2,045
460,794;10617,356;   -2,983;   -0,227
461,382;10866,766;   -0,529;   -0,864
461,970;10444,249;    1,198;    1,864
462,557;10420,364;   -0,711;   -0,682
463,145;10658,566;   -3,165;   -1,682
463,732;10807,225;    2,016;   -1,045
464,320;10752,887;   -0,075;   -3,045
464,907;10416,824;    2,743;   -0,773
465,495;10271,507;    0,743;   -1,227
466,082;10446,726;   -1,984;   -0,045
466,670;10325,740;   -2,529;    1,227
467,257;10774,684;   -1,711;    2,045
467,844;10912,657;   -0,075;    0,045
468,432;10965,066;    0,834;    3,500
469,019;10400,225;    0,925;   -1,773
469,606;10896,864;    0,470;    3,682
470,193;10715,869;   -1,439;    0,227
470,780;10266,735;   -2,075;    0,864
471,368;10610,466;   -1,257;   -0,773
471,955;10408,434;    1,379;   -0,682
472,542;10085,376;    0,652;   -1,136
473,129;10314,424;   -0,166;    0,136
473,716;10031,550;    1,470;    0,591
474,303;10252,557;    0,652;   -0,864
474,890;10558,391;   -1,439;   -0,500
475,477;10565,405;   -1,621;    0,409
476,064;10478,417;    1,106;   -1,591
476,650;10425,416;    0,288;    0,318
477,237;10264,143;   -0,258;    0,955
477,824;10453,287;   -1,076;    0,864
478,411;10452,273;   -1,894;   -0,318
478,997;10653,899;    0,560;   -0,773
479,584;10711,519;    1,196;   -0,409
480,171;11432,295;   -0,440;   -0,773
480,757;11084,149;    2,651;    0,773
481,344;11400,634;    0,469;    0,409
481,931;10910,162;    1,105;    1,045
482,517;12018,133;   -1,258;    0,318
483,104;12624,761;    1,106;    2,864
483,690;12928,590;   -1,804;    0,045
484,276;13228,153;   -0,895;    0,227
484,863;12974,562;    2,469;    1,136
485,449;13586,308;   -0,077;    0,318
486,035;13578,444;   -1,986;   -0,136
486,622;14025,825;   -0,895;    0,045
487,208;13960,297;    1,378;    1,500
487,794;13749,214;    0,741;    0,318
488,380;13868,970;    0,105;   -1,409
488,967;13934,108;   -1,168;   -0,409
489,553;13978,719;   -1,895;   -1,409
490,139;14234,240;    1,559;    0,773
490,725;13621,985;    0,741;   -0,227
491,311;13119,663;    3,287;    3,045
491,897;12414,583;   -0,986;    1,500
492,483;12223,006;    0,105;    1,227
493,069;12051,111;    3,923;    0,864
493,655;12024,300;    1,650;    0,682
494,241;11927,069;    1,377;   -0,955
494,826;12327,352;    0,287;   -1,045
495,412;11825,838;    2,559;   -0,682
495,998;11950,291;   -0,805;   -0,318
496,584;12088,549;    0,377;    1,045
497,169;12127,829;    1,014;   -0,682
497,755;12084,561;    0,650;    1,227
498,341;12644,735;    0,559;    0,318
498,926;12204,942;    1,832;    1,955
499,512;12401,616;    1,286;    2,955
500,097;12539,769;    0,195;   -0,318
500,683;12487,454;   -0,350;    2,136
501,268;12871,038;   -0,169;   -0,955
501,854;12564,139;   -0,169;    1,227
502,439;12485,875;   -0,624;   -1,773
503,024;12706,773;    0,195;    0,500
503,610;12748,157;   -0,078;   -0,682
504,195;12759,591;    0,558;    1,955
504,780;12869,415;    2,922;    1,227
505,366;12713,303;    3,013;    2,864
505,951;12413,295;    0,740;    1,045
506,536;12430,306;   -3,260;   -3,682
507,121;12367,749;    0,285;   -0,318
507,706;12916,578;    2,376;    1,045
508,291;13318,935;    2,649;    1,136
508,876;12784,707;   -0,988;    2,591
509,461;12263,178;   -0,169;   -0,773
510,046;12662,559;    0,194;    0,318
510,631;12894,771;   -0,351;   -0,773
511,216;12556,062;    2,467;   -0,500
511,801;12922,739;   -0,442;    2,591
512,386;13221,041;    0,740;    0,500
512,971;13175,776;   -2,988;    0,955
513,555;12745,041;   -0,897;   -1,500
514,140;13523,916;   -0,442;   -3,136
514,725;13532,361;   -0,715;   -1,136
515,309;13671,158;   -0,533;    0,318
515,894;13071,214;   -0,624;   -2,227
516,479;13541,158;   -0,624;   -0,955
517,063;13381,672;    0,376;    1,227
517,648;13559,323;    1,012;   -1,136
518,232;13177,164;   -0,261;   -1,409
518,817;13524,321;   -0,079;    1,682
519,401;13737,541;    2,194;    0,591
519,985;13256,786;    1,103;    1,136
520,570;13152,062;    0,830;   -1,955
521,154;13416,171;    2,102;    0,591
521,738;13603,725;   -2,352;    2,409
522,323;14157,968;   -0,170;    1,682
522,907;13901,319;    0,466;   -0,136
523,491;13592,784;    0,557;    0,955
524,075;13610,124;    2,284;    0,591
524,659;13665,095;    1,466;    0,591
525,243;13150,686;    1,739;    0,409
525,827;13399,368;    0,648;   -0,045
526,411;14283,822;   -1,989;   -0,136
526,995;14469,644;   -0,352;    1,409
527,579;14078,775;   -0,443;   -1,045
528,163;14397,590;    0,375;   -1,500
528,747;14294,755;    2,466;   -0,773
529,331;14591,496;   -0,080;   -1,409
529,915;14775,993;    1,738;    0,955
530,499;14744,870;   -0,807;    1,227
531,082;14485,041;   -0,534;    1,591
531,666;13902,623;    1,374;    0,773
532,250;14579,548;    1,284;    2,682
532,833;14949,119;    0,920;    2,773
533,417;14780,340;   -1,807;    0,864
534,001;14791,620;    1,647;   -0,318
534,584;15456,271;    0,374;    0,500
535,168;15279,082;    0,465;    1,409
535,751;15382,476;    0,647;    0,045
536,334;14830,417;   -0,898;   -0,409
536,918;15386,983;    0,011;    1,591
537,501;15513,124;   -0,899;    1,318
538,085;15512,240;   -0,444;    1,045
538,668;15632,670;    0,829;    2,409
539,251;16023,009;    1,829;    3,773
539,834;15985,449;    0,101;    0,773
540,418;15938,943;   -1,990;    4,318
541,001;16054,156;   -0,990;    1,773
541,584;16034,291;    2,101;    2,227
542,167;15757,807;    1,374;    2,955
542,750;15883,507;    1,919;   -0,773
543,333;15518,047;    0,555;    2,136
543,916;16249,091;    0,192;    2,500
544,499;16897,641;   -1,354;    0,227
545,082;16903,438;    1,374;    3,591
545,665;17023,259;    1,919;    1,500
546,248;17389,501;    1,010;   -0,318
546,830;17033,634;   -0,445;    1,955
547,413;17463,956;    1,010;   -0,773
547,996;17959,426;    0,555;    0,500
548,579;17745,727;    0,919;    0,955
549,161;17530,524;    1,828;    2,682
549,744;17284,007;   -0,809;    0,409
550,326;17822,105;   -0,809;   -1,136
550,909;17648,305;    2,737;    0,591
551,492;17996,357;   -0,263;    0,227
552,074;17795,092;   -0,173;   -1,318
552,657;18357,882;    2,373;    0,045
553,239;18105,809;   -0,173;   -0,773
553,821;18014,920;   -1,082;    1,045
554,404;17554,484;    1,282;    1,136
554,986;17939,254;    0,464;    1,045
555,568;18537,908;    1,191;   -0,955
556,151;17758,520;    1,191;   -0,227
556,733;17929,963;   -0,264;   -0,864
557,315;18456,349;    0,100;    0,500
557,897;18238,667;    0,554;   -0,500
558,479;18354,160;   -1,991;    1,318
559,061;18479,448;   -0,719;   -0,864
559,643;18823,822;   -0,264;    0,045
560,225;19230,887;    1,645;    2,864
560,807;19191,185;    0,918;    0,318
561,389;18687,084;    0,554;    2,318
561,971;19486,855;    0,463;    2,136
562,553;19267,938;   -1,628;    1,591
563,135;19384,504;   -0,537;    1,136
563,717;19029,923;    3,372;    1,136
564,298;19745,990;    3,645;   -0,045
564,880;19470,656;    0,645;   -1,409
565,462;19622,929;    0,645;    1,318
566,043;20786,207;   -0,446;    2,318
566,625;20321,113;    1,918;    1,227
567,207;20172,086;    1,099;    1,682
567,788;21312,285;   -1,264;    1,500
568,370;22191,160;    1,917;   -0,500
568,951;22016,188;    0,190;    0,227
569,533;22819,937;   -0,628;   -0,500
570,114;23306,271;   -0,446;    0,682
570,695;23846,681;   -0,174;   -1,318
571,277;24341,633;   -0,265;   -1,682
571,858;25117,356;    2,008;   -1,136
572,439;25990,643;    1,554;   -1,045
573,021;26170,316;    2,099;   -2,773
573,602;26651,997;   -1,265;    0,318
574,183;27605,194;   -2,083;    2,227
574,764;27750,424;   -1,629;    0,409
575,345;28299,281;    0,917;   -0,136
575,926;28857,193;   -0,356;    0,136
576,507;28823,176;    1,099;   -0,227
577,088;29975,326;    3,099;    1,682
577,669;29958,543;    0,735;    1,955
578,250;30788,557;    0,644;   -1,045
578,831;31439,464;   -1,356;   -2,227
579,412;31700,610;   -0,810;    0,955
579,993;32545,680;    1,008;    0,227
580,573;32888,351;   -0,629;   -0,955
581,154;31825,760;    0,735;   -0,591
581,735;32769,417;    0,644;    0,773
582,315;32250,872;   -0,629;    2,136
582,896;32503,061;   -0,174;    1,227
583,477;31859,509;    0,189;    1,227
584,057;32080,467;    0,553;    0,955
584,638;32424,771;    2,553;    2,318
585,218;32420,460;   -0,538;    2,682
585,799;32593,190;    0,281;   -0,227
586,379;32505,599;    0,372;    1,591
586,959;31268,166;    0,735;    0,318
587,540;30565,995;   -0,629;    2,227
588,120;30145,490;    1,007;   -0,045
588,700;29128,894;    2,553;    2,136
589,281;29485,652;    0,462;   -0,955
589,861;29427,068;    0,099;   -1,682
590,441;29220,932;    2,371;   -2,682
591,021;28147,676;   -0,265;   -2,591
591,601;28368,424;   -0,537;    0,500
592,181;28399,259;   -0,719;   -0,773
592,761;27700,555;    0,007;    1,409
593,341;27623,494;   -0,901;    0,045
593,921;27596,749;   -0,265;    1,591
594,501;27525,106;   -0,538;    1,318
595,081;27352,864;    0,917;   -0,318
595,661;27755,781;   -1,447;    0,955
596,240;28270,455;   -0,537;    0,136
596,820;27933,147;    0,372;    1,955
597,400;28084,620;    2,008;    0,773
597,980;28275,367;    2,008;    1,045
598,559;28300,064;    2,735;   -0,227
599,139;27964,449;   -0,174;   -1,227
599,718;27908,812;   -0,174;   -0,409
600,298;28161,732;    0,735;    0,682
600,877;28451,105;    2,917;    1,409
601,457;28713,433;    2,281;    1,136
602,036;28600,965;    0,190;    2,045
602,616;28851,000;    0,644;    1,682
603,195;29149,793;   -0,355;    3,500
603,774;28687,510;   -0,901;    2,045
604,354;28553,486;    0,826;   -0,500
604,933;28000,140;    0,463;    1,864
605,512;28136,829;    3,554;    0,591
606,091;28187,282;   -0,537;    3,773
606,671;29003,405;    0,281;    0,773
607,250;28177,140;    1,644;    3,136
607,829;28374,331;    2,372;    3,227
608,408;28242,880;    1,190;    2,591
608,987;27217,498;    1,281;    3,409
609,566;27586,602;   -1,265;   -2,500
610,145;27689,117;   -1,082;    0,682
610,723;28089,435;    4,372;    6,864
611,302;27371,739;   -0,446;    1,682
611,881;26840,222;    5,008;   11,227
612,460;27706,201;    1,645;    3,955
613,039;28106,889;   -0,082;    2,045
613,617;26770,195;    1,736;    4,773
614,196;26987,232;    1,099;    1,227
614,775;27370,305;    1,009;    2,409
615,353;27293,689;    0,736;    0,864
615,932;27010,213;    0,100;    2,409
616,510;27603,574;    0,554;    0,591
617,089;27105,102;    7,100;   17,591
617,667;26868,762;    2,372;    6,136
618,246;26784,570;   -1,537;    1,318
618,824;26917,916;   -3,355;   -0,955
619,402;26487,738;   -2,900;   -1,773
619,981;26936,874;   -0,173;   -1,045
620,559;26737,719;    0,009;    1,682
621,137;26294,164;   -0,718;    1,864
621,715;26344,118;   -1,173;   -0,682
622,293;26245,583;   -0,537;   -0,773
622,871;26689,440;   -0,718;    0,500
623,450;26330,540;    0,373;   -0,864
624,028;26230,020;    0,191;   -0,955
624,606;25846,831;   -1,718;    1,682
625,183;26212,023;   -1,536;   -1,136
625,761;25816,655;    1,009;    1,136
626,339;26169,272;    1,373;    2,591
626,917;26532,399;   -0,172;   -0,045
627,495;26555,078;   -0,354;    1,318
628,073;25982,693;   -0,263;    2,864
628,650;25647,291;    0,100;    2,136
629,228;26104,830;    0,373;    4,409
629,806;25513,298;    2,282;    1,136
630,383;25802,389;    1,464;   -0,318
630,961;25598,875;    2,555;   -0,955
631,539;25365,623;    2,464;    0,227
632,116;24666,603;   11,373;   15,409
632,694;25289,850;    2,555;    6,500
633,271;25591,405;    0,828;    2,682
633,848;25497,909;    1,828;    2,045
634,426;25480,338;   -1,081;    1,773
635,003;24605,907;    1,101;   -0,409
635,580;24937,983;    1,192;    3,682
636,158;25512,233;    3,737;    1,227
636,735;25458,073;    0,555;   -0,500
637,312;25665,350;   -0,809;   -0,682
637,889;25761,016;   -4,354;   -0,682
638,466;25193,417;   -3,990;   -0,409
639,043;25173,618;    2,101;   -1,136
639,620;25522,038;   -2,262;   -0,955
640,197;25837,624;    1,100;    1,682
640,774;25951,678;   -0,172;    1,136
641,351;26329,368;    0,737;    1,136
641,928;25761,149;   -0,627;    1,409
642,505;25447,658;    0,828;   -0,500
643,082;25523,439;   -1,718;    1,227
643,658;24566,130;   -0,718;    1,500
644,235;25340,729;    1,191;    2,500
644,812;25678,783;    1,918;    0,773
645,388;25425,019;   -0,991;    1,409
645,965;25477,619;   -0,809;    1,682
646,542;25595,309;   -1,445;   -0,227
647,118;25541,909;    1,009;   -0,955
647,695;25834,781;   -0,263;    1,136
648,271;25724,017;   -0,536;    0,500
648,848;26037,162;    0,736;    2,227
649,424;25892,761;    0,827;    1,318
650,000;25615,815;   -0,354;   -1,045
650,577;25434,688;   -0,627;   -0,955
651,153;25907,287;   -1,809;    0,955
651,729;26928,250;    1,191;    0,864
652,305;27393,759;    0,645;    2,773
652,881;32460,995;   -0,082;    1,136
653,458;39346,867;    1,100;    0,227
654,034;42734,557;    0,282;    1,591
654,610;44002,339;    0,554;    0,773
655,186;45261,484;    0,645;    3,045
655,762;44918,174;   -0,991;    0,409
656,338;44924,501;    0,100;    0,136
656,913;45794,646;   -0,082;    0,409
657,489;44986,427;    0,827;   -0,318
658,065;44936,390;   -0,173;   -1,591
658,641;45602,717;   -0,900;   -0,864
659,217;44860,317;   -0,991;    0,409
659,792;44252,916;    0,645;   -0,409
660,368;44439,061;   -2,173;   -0,682
660,944;43874,024;   -2,082;    1,227
661,519;38700,533;   -0,628;    0,409
662,095;32832,951;   -1,719;    0,591
662,670;28686,641;    1,281;   -0,136
663,246;27764,695;    1,009;   -0,409
663,821;27176,022;    0,281;    1,682
664,396;26676,894;    0,009;    1,864
664,972;26959,584;    0,009;   -0,500
665,547;27258,366;    1,372;    0,136
666,122;27299,693;   -1,082;    0,318
666,698;27610,110;   -0,173;    0,318
667,273;26930,255;   -0,173;    0,136
667,848;27755,764;    2,372;    1,500
668,423;27583,909;    2,190;    2,318
668,998;28131,690;    2,827;   -0,682
669,573;28686,926;   -3,264;   -1,500
670,148;28458,253;   -1,446;   -0,682
670,723;28244,307;   -1,810;    0,318
671,298;28689,997;    2,372;    1,045
671,873;28814,233;   -0,082;   -0,136
672,448;28779,742;    0,645;    0,136
673,023;29059,159;   -1,992;   -0,227
673,597;29436,668;    0,827;    2,318
674,172;29189,722;   -0,355;    0,318
674,747;28666,776;    0,372;   -1,045
675,321;28478,558;   -0,628;    3,318
675,896;28069,066;    0,645;    1,045
676,471;29123,484;    2,645;    1,591
677,045;28848,901;   -1,264;    0,682
677,620;28899,592;    0,190;    1,136
678,194;29203,646;   -2,628;    1,136
678,769;28807,155;   -1,083;   -0,318
679,343;29069,390;   -0,628;    1,773
679,917;28932,535;   -1,446;    1,955
680,492;29015,499;    0,826;    3,227
681,066;29172,734;    3,372;    0,409
681,640;29218,243;    1,463;   -0,318
682,214;30038,479;    0,735;    0,500
682,788;29570,442;   -1,356;   -0,773
683,363;29506,769;   -1,810;    1,682
683,937;29180,277;   -1,719;   -0,318
684,511;29902,604;    0,463;   -0,591
685,085;29613,113;   -1,356;    0,318
685,659;29406,894;   -2,538;    0,864
686,232;29656,221;   -0,356;   -0,318
686,806;29318,275;   -0,901;    0,409
687,380;29976,420;   -0,174;    0,591
687,954;30185,838;   -1,174;    1,136
688,528;29879,164;   -0,719;    1,955
689,101;30707,400;   -3,992;    1,045
689,675;30263,818;   -0,356;   -0,136
690,249;29633,781;   -0,719;    0,409
690,822;29928,563;    0,280;    0,318
691,396;30026,344;   -0,265;    1,227
691,969;29427,489;    1,280;    0,136
692,543;29945,997;   -0,447;   -1,955
693,116;29609,233;   -0,265;   -1,409
693,690;29459,560;    0,099;    0,500
694,263;30014,069;   -1,083;    2,955
694,836;30072,668;    1,371;    3,591
695,410;28748,904;   -0,265;    1,773
695,983;29222,594;    0,189;    0,591
696,556;29135,012;   -0,447;   -1,045
697,129;29485,612;   -0,356;    1,409
697,703;29229,757;   -1,629;    1,955
698,276;29169,629;    1,462;   -0,773
698,849;28979,138;    1,280;    1,409
699,422;29355,010;   -1,083;    0,591
699,995;29003,791;    0,007;    0,136
700,568;29497,118;   -0,629;    3,045
701,140;29507,717;   -2,811;    1,682
701,713;29256,590;   -0,174;    2,409
702,286;28953,916;   -0,538;    0,864
702,859;28871,698;   -0,902;   -0,591
703,432;28084,661;    0,825;    0,682
704,004;28529,079;    0,462;    0,318
704,577;28431,314;   -0,629;    0,136
705,150;29029,550;    0,189;    2,500
705,722;28779,786;   -0,356;   -3,227
706,295;28576,658;   -0,175;   -0,591
706,867;28464,076;   -0,175;    1,955
707,440;28654,767;   -1,720;   -0,409
708,012;28930,366;    0,462;    0,591
708,584;28871,329;    2,462;    0,227
709,157;29133,111;    1,825;   -0,591
709,729;28754,710;    2,280;    2,045
710,301;29623,491;    0,734;    0,045
710,874;29616,727;   -1,447;   -0,227
711,446;28508,054;    0,371;    0,864
712,018;28431,744;    0,098;    0,500
712,590;28116,071;   -1,993;    1,682
713,162;28643,125;    0,825;    1,318
713,734;28889,634;    1,825;   -2,045
714,306;28751,143;   -1,902;   -0,409
714,878;27424,742;    0,825;    0,864
715,450;28278,342;    0,643;    0,864
716,022;28496,577;    1,552;    1,318
716,593;28647,722;    0,189;    0,591
717,165;28666,958;   -3,175;   -1,227
717,737;28369,740;    0,280;    0,409
718,309;27988,066;    0,280;   -0,045
718,880;27935,211;   -0,539;   -1,409
719,452;28135,811;   -0,175;   -1,591
720,024;27737,956;    0,734;   -0,591
720,595;28315,737;   -2,902;    0,955
721,167;27913,337;    0,370;   -2,045
721,738;27462,754;   -0,812;   -1,045
722,309;27453,536;   -0,993;   -1,227
722,881;27198,317;   -1,357;    0,773
723,452;27795,280;   -2,630;    2,864
724,023;28017,971;   -0,721;    2,682
724,595;27753,661;    0,007;    0,682
725,166;27457,442;    0,007;   -0,409
725,737;27166,042;    1,734;    0,227
726,308;27282,278;   -0,266;    0,318
726,879;27708,695;   -1,630;    1,227
727,450;27534,477;    0,552;   -0,045
728,021;27523,531;    3,097;    0,682
728,592;27339,494;    0,734;    0,500
729,163;27644,275;    0,643;   -0,136
729,734;27696,966;    0,188;   -0,227
730,305;28038,747;    1,734;    0,136
730,876;28347,074;    0,188;    2,955
731,447;28056,946;    2,188;    2,682
732,017;28165,818;    1,097;    1,864
732,588;27652,963;    0,734;    1,227
733,159;27886,017;    0,643;   -1,045
733,729;27638,617;    0,006;    0,409
734,300;26937,671;    0,915;    0,864
734,870;27370,270;    3,461;    0,591
735,441;27899,688;    0,370;   -0,591
736,011;27749,924;    0,643;   -1,591
736,582;27666,160;   -0,812;    0,045
737,152;27130,396;   -1,721;   -2,045
737,722;27558,177;   -0,267;   -0,682
738,293;27224,049;   -1,358;    1,318
738,863;27129,467;    2,461;    2,318
739,433;26939,885;    5,279;    0,318
740,003;27604,302;   -0,994;   -0,682
740,573;26980,811;    2,097;   -1,591
741,143;26937,320;   -1,085;    0,318
741,713;27713,919;    1,188;   -0,500
742,283;27430,610;    0,915;    1,591
742,853;27189,027;    1,915;    1,591
743,423;26632,899;    1,733;    0,045
743,993;26746,226;   -0,358;    1,500
744,563;26140,008;    0,097;   -0,864
745,133;26099,062;   -0,812;   -0,864
745,702;26779,297;   -0,267;    1,773
746,272;26008,170;   -0,176;    0,591
746,842;25798,587;   -1,358;   -0,591
747,411;26167,005;   -0,267;   -0,318
747,981;26376,423;    0,097;    0,500
748,551;26364,659;    2,278;   -1,045
749,120;26268,349;    0,642;   -0,227
749,690;26633,767;   -0,631;    2,409
750,259;26953,184;    1,369;    2,955
750,828;26866,239;    1,551;   -1,955
751,398;27177,384;    1,278;   -0,045
751,967;26710,165;    2,187;    0,409
752,536;26889,310;   -0,813;   -0,227
753,105;27309,728;    0,096;    0,227
753,675;27078,236;    0,096;    1,773
754,244;27016,108;   -0,904;    3,591
754,813;27056,526;    0,551;    1,227
755,382;26641,671;    0,460;    0,955
755,951;27222,998;    1,551;    3,682
756,520;26736,052;   -0,085;    1,864
757,089;27344,833;    0,278;    0,500
757,658;27449,069;    1,733;    1,227
758,227;27398,032;    1,096;    0,318
758,795;27705,268;    1,187;    1,136
759,364;27938,595;   -0,086;   -0,591
759,933;26990,013;   -1,176;   -0,045
760,501;26463,339;    0,733;   -1,318
761,070;26942,212;   -2,813;   -1,409
761,639;27681,629;   -1,904;    1,318
762,207;27006,411;    1,551;   -0,955
762,776;26934,737;    0,369;    0,864
763,344;26898,791;   -0,995;    0,591
763,913;26000,209;   -0,722;    1,409
764,481;26797,627;    1,005;   -0,136
765,049;26549,863;   -1,358;    1,409
765,618;26432,099;   -0,086;    0,318
766,186;26449,334;    0,278;    0,136
766,754;26666,298;    0,005;    1,864
767,322;25689,988;   -1,995;    0,409
767,890;25753,133;   -0,722;   -1,773
768,459;26125,551;   -2,177;   -0,318
769,027;26276,150;    1,641;    3,409
769,595;25257,841;    3,278;    2,591
770,163;25637,804;    3,823;    2,955
770,730;25421,131;    0,732;   -0,136
771,298;25288,548;    0,187;   -1,409
771,866;25319,148;   -1,541;    4,955
772,434;25727,747;   -0,631;   -1,864
773,002;25856,983;    0,005;    0,682
773,569;25509,219;    0,914;    1,682
774,137;25338,455;   -0,268;   -0,045
774,705;26113,691;    0,278;   -0,136
775,272;25643,654;    0,641;    0,682
775,840;25339,799;   -0,177;    2,682
776,407;24935,580;    0,277;    1,955
776,975;24521,362;   -0,632;    0,318
777,542;25482,325;   -1,086;   -0,045
778,110;25337,924;   -1,268;   -0,045
778,677;25001,069;   -2,359;   -0,864
779,244;24781,123;    2,186;    1,045
779,812;24928,541;    1,823;    0,864
780,379;24763,050;    0,005;    1,136
780,946;25013,649;    1,005;   -0,773
781,513;25343,703;   -1,450;    0,318
782,080;24722,121;   -0,086;    2,864
782,647;25444,448;   -0,268;    3,045
783,214;25002,865;   -0,177;    3,864
783,781;24694,828;   -0,723;   -0,682
784,348;24546,064;   -0,632;    1,500
784,915;24958,664;   -3,177;    0,318
785,482;24712,445;    1,368;    2,591
786,049;25184,226;    0,186;   -0,591
786,615;25290,008;    0,277;   -0,955
787,182;24975,426;    0,186;   -0,682
787,749;24682,661;   -2,814;    1,409
788,315;24015,715;   -1,632;   -0,409
788,882;24316,770;    1,550;   -1,227
789,448;25048,914;    1,732;   -0,955
790,015;25049,696;    1,095;    3,227
790,581;24610,750;    1,459;    0,227
791,148;24511,622;    0,641;    1,045
791,714;24726,131;   -0,541;    3,136
792,280;24362,367;    0,186;    1,591
792,847;23875,784;    0,550;    2,500
793,413;24481,747;   -0,269;   -0,318
793,979;24035,892;    3,459;   -1,318
794,545;24130,856;    4,459;    2,682
795,111;23566,637;    2,186;    1,318
795,678;23741,600;    0,731;   -1,682
796,244;23387,472;    3,368;    0,136
796,810;23916,526;    1,731;    0,773
797,375;23665,944;    0,549;   -2,136
797,941;23712,362;   -0,541;    0,591
798,507;23850,598;   -0,451;   -0,955
799,073;23293,379;   -0,360;    0,591
799,639;23354,706;   -2,632;    3,136
800,205;23392,851;    0,095;    2,682
800,770;22985,905;    0,640;    1,773
801,336;23048,868;    1,368;   -0,955
801,901;22773,467;    4,549;    3,136
802,467;23381,249;   -0,542;    2,045
803,033;22642,121;   -0,087;    0,864
803,598;22843,175;    1,913;   -1,045
804,163;22925,593;    1,095;   -0,318
804,729;22894,101;   -0,178;    1,136
805,294;23253,610;    0,822;    2,227
805,859;23074,300;    0,731;   -0,409
806,425;22553,900;    1,186;    2,682
806,990;22177,954;    2,186;    4,318
807,555;22644,008;   -1,451;    2,591
808,120;22589,698;    0,822;   -0,409
808,685;22652,662;    0,185;   -2,500
809,250;22099,897;    0,004;   -0,500
809,815;22424,133;    1,913;    0,682
810,380;22951,915;   -0,269;    1,591
810,945;23560,241;   -1,087;    2,045
811,510;22674,386;    2,094;    1,591
812,075;22394,440;   -0,633;   -1,409
812,640;22446,767;    2,003;    1,409
813,204;22488,367;    0,822;   -0,227
813,769;22965,330;    2,094;   -0,045
814,334;22363,293;    0,458;    0,864
814,898;22462,529;    0,367;    0,591
815,463;22347,765;    1,276;   -0,773
816,027;22262,182;   -0,724;   -2,318
816,592;22311,146;    0,640;   -2,045
817,156;21892,200;    2,094;    1,136
817,721;21809,163;    4,276;    2,318
818,285;21678,399;    2,912;    1,500
818,849;22340,271;   -1,451;    1,682
819,414;22220,870;   -0,269;    2,955
819,978;21791,652;   -1,269;    1,773
820,542;22396,524;    2,003;    0,500
821,106;22053,760;   -0,815;    0,682
821,670;22201,450;   -0,815;    2,591
822,234;21931,323;   -0,270;    1,409
822,798;21277,104;    0,003;    0,500
823,362;21266,976;   -0,633;    4,227
823,926;20573,212;    0,094;    1,136
824,490;20823,539;   -0,997;   -0,682
825,054;21248,684;   -0,088;   -1,136
825,618;20843,011;   -1,542;   -1,500
826,181;20850,428;    0,458;   -1,318
826,745;20796,846;    1,367;   -1,045
827,309;21089,355;    1,185;    1,318
827,872;20476,863;    1,367;    0,955
828,436;21470,099;    1,185;   -0,773
828,999;21523,335;   -0,997;    1,227
829,563;20282,025;   -0,179;    1,136
830,126;20105,261;   -0,179;   -0,591
830,690;20102,497;   -1,997;    2,864
831,253;19658,369;   -0,543;    2,227
831,816;19822,605;   -1,906;    0,500
832,380;19743,932;    0,185;    0,864
832,943;20000,259;   -1,361;   -0,500
833,506;19414,495;    2,639;   -1,227
834,069;20198,730;    3,912;   -0,955
834,632;20249,785;    1,730;    1,318
835,195;20151,930;    1,003;    0,955
835,758;19339,984;   -0,997;    1,955
836,321;19228,219;    0,730;   -1,045
836,884;19287,001;   -0,725;   -0,955
837,447;19312,328;   -2,816;    1,773
838,010;19609,745;    0,366;    3,227
838,573;19896,708;   -1,179;    0,773
839,135;19867,490;   -1,361;   -0,955
839,698;19359,998;    1,275;    0,409
840,261;18912,689;    1,003;   -0,227
840,823;18702,561;   -0,543;    0,864
841,386;19030,797;   -0,452;   -2,409
841,948;18895,487;   -1,361;    1,773
842,511;18601,541;    0,912;    1,682
843,073;18762,777;    1,912;    0,227
843,636;18548,104;   -0,361;   -0,227
844,198;18508,522;    0,911;    0,591
844,760;18634,939;    1,093;    1,955
845,322;18248,993;    0,548;    1,136
845,885;18675,502;    0,730;    0,591
846,447;19133,192;   -1,998;    0,227
847,009;18751,883;    1,911;   -0,682
847,571;19044,846;    0,820;   -2,045
848,133;19169,991;   -1,089;   -1,864
848,695;18956,772;   -0,543;    1,409
849,257;18513,008;   -1,089;   -1,682
849,819;18717,699;   -0,998;   -0,409
850,381;18734,207;   -0,725;   -0,864
850,942;19088,261;    1,093;   -0,591
851,504;19114,861;    1,184;    0,227
852,066;19080,915;    1,275;   -1,591
852,628;18589,151;   -0,180;    1,955
853,189;18125,296;    1,638;    2,682
853,751;18268,622;   -0,907;    1,409
854,312;18030,858;   -0,453;   -1,682
854,874;18579,276;   -2,089;   -0,773
855,435;19111,785;   -0,907;   -1,682
855,997;19280,930;   -1,816;   -0,136
856,558;18618,529;    0,366;    1,773
857,119;18695,947;    0,820;    2,864
857,681;18353,183;    0,002;    0,318
858,242;18396,782;    1,911;   -2,136
858,803;18793,564;    0,456;   -0,773
859,364;19364,618;    0,184;   -4,773
859,925;18696,217;   -2,453;   -0,955
860,486;18604,726;   -0,453;   -0,955
861,047;18314,143;   -0,544;   -1,227
861,608;18133,107;   -1,089;   -0,773
862,169;18257,615;    0,638;   -0,045
862,730;18044,578;    0,456;    1,409
863,291;18289,996;   -0,635;   -0,500
863,852;18646,323;   -0,635;    1,955
864,412;18099,468;   -0,271;   -0,864
864,973;16706,158;   -0,089;    0,500
865,534;16565,940;   -1,726;    0,227
866,094;18083,903;    1,820;    0,227
866,655;17743,775;    1,274;    3,318
867,215;17993,102;    0,274;    0,136
867,776;17836,610;    0,547;   -0,136
868,336;17962,483;   -1,453;    0,136
868,897;17475,173;    2,638;    1,682
869,457;17179,772;    1,365;    0,318
870,017;17374,190;    0,547;   -1,227
870,578;17929,699;   -0,817;    0,773
871,138;17635,116;   -2,089;   -0,955
871,698;17141,716;   -0,817;   -1,318
872,258;17032,315;   -0,453;   -2,864
872,818;17376,006;    2,729;    0,045
873,378;17379,242;    0,638;    1,045
873,938;16924,659;    0,547;    0,500
874,498;17245,350;    0,274;   -1,955
875,058;17181,768;    2,183;    1,773
875,618;16968,549;    1,910;   -2,682
876,177;16921,148;    1,274;    0,136
876,737;16504,566;   -0,090;    1,955
877,297;16539,347;    0,183;    1,955
877,856;16591,583;   -0,362;    0,318
878,416;16545,183;    1,183;   -0,136
878,976;16774,328;   -1,817;    0,409
879,535;16932,473;    0,092;    3,136
880,095;16641,800;   -0,544;    0,045
880,654;16747,126;   -1,090;    1,318
881,213;16894,817;    2,456;    1,500
881,773;16497,689;    2,637;    2,682
882,332;16869,016;    3,365;    5,136
882,891;16763,797;    3,092;    2,136
883,451;17222,215;   -1,272;    1,682
884,010;16647,996;   -2,908;   -0,409
884,569;16730,777;   -0,999;   -0,045
885,128;16846,377;    2,819;   -1,864
885,687;16963,249;    4,455;    0,682
886,246;16635,485;    1,455;    2,136
886,805;16426,176;    2,455;    2,045
887,364;16669,320;   -0,999;   -0,500
887,922;17039,738;   -1,181;    0,045
888,481;16541,974;   -1,545;    0,591
889,040;16830,210;    1,183;    2,136
889,599;17550,264;    2,455;    1,409
890,157;17598,136;    1,455;    2,409
890,716;17211,918;   -0,090;    0,227
891,274;17039,153;    0,092;   -1,136
891,833;17482,298;    1,546;    0,864
892,391;17366,898;   -0,454;    0,500
892,950;17409,497;    1,819;   -0,773
893,508;17790,824;    0,455;   -0,409
894,067;17133,787;    0,637;    0,136
894,625;17009,660;   -0,636;   -1,500
895,183;17250,350;   -0,363;   -0,682
895,741;17163,859;    1,728;   -1,773
896,299;17005,458;   -0,545;   -2,409
896,858;17212,694;    0,819;   -1,591
897,416;17314,748;    2,728;   -1,318
897,974;17086,075;    1,819;    0,318
898,532;17283,493;    6,091;    2,682
899,089;17141,547;    2,091;   -0,682
899,647;17196,601;   -1,454;    1,318
900,205;16932,746;    1,182;    1,045
900,763;17093,709;   -0,454;    0,227
901,321;17071,308;    2,364;   -1,409
901,878;16529,999;   -1,000;   -0,773
902,436;16421,053;   -1,363;    1,318
902,994;16820,561;    4,728;    3,682
903,551;16213,070;    0,728;    0,409
904,109;16619,851;    0,182;   -1,409
904,666;16177,996;    2,455;    1,045
905,224;16017,869;    0,182;   -0,409
905,781;15748,650;    0,727;   -0,318
906,338;15836,522;   -1,363;    1,045
906,895;15771,213;    0,637;    2,045
907,453;15687,448;    1,727;    1,136
908,010;15705,230;   -0,909;    0,409
908,567;15384,193;    1,273;    0,591
909,124;14844,338;    0,364;   -1,500
909,681;14967,210;   -2,909;    0,682
910,238;15108,173;    0,636;   -1,318
910,795;15415,318;   -0,273;   -1,136
911,352;15032,500;   -2,909;   -2,682
911,909;14473,773;   -1,364;   -0,864
912,466;14982,682;   -3,182;    1,500
913,022;14514,773;   -1,636;    0,500
913,579;14865,045;   -0,909;    2,045
914,136;14576,136;    1,636;    0,955
914,692;14896,318;    0,091;   -1,227
915,249;14500,136;    1,455;    0,409
915,806;14741,955;    0,182;    1,955
916,362;14488,500;    1,909;    1,864
916,918;14017,682;    2,000;    1,045
917,475;14031,682;   -1,182;    0,955
918,031;14084,955;    3,364;   -0,045
918,587;13560,409;   -0,909;   -0,318
919,144;13788,500;   -2,273;    0,227
919,700;14084,682;    1,727;    0,773
920,256;13657,773;    0,727;    0,045
920,812;13295,864;   -0,727;   -1,045
921,368;13286,136;   -1,727;   -1,045
921,924;12932,500;    0,182;   -0,136
922,480;12480,500;   -0,545;    1,227
923,036;13117,136;    1,273;    1,955
923,592;13036,682;    0,455;    0,318
924,148;12979,864;    0,455;   -0,955
924,704;12256,682;   -1,364;   -0,409
925,259;12533,864;   -0,273;    0,591
925,815;12310,955;    1,455;    0,500
926,371;11812,773;    2,909;    1,409
926,926;11684,136;    2,091;    0,591
927,482;11337,227;   -1,364;    0,773
928,037;11221,227;    0,909;    2,045
928,593;11519,682;    1,636;    1,045
929,148;11330,227;   -1,818;   -1,500
929,704;10849,591;   -1,455;   -0,500
930,259;11057,955;    0,091;   -0,136
930,814;10124,136;   -0,818;    1,955
931,369; 9791,318;    1,091;   -0,773
931,925; 9684,045;   -0,091;    0,136
932,480; 9587,409;   -2,818;   -2,591
933,035; 9482,591;    0,545;   -0,318
933,590; 9260,045;    0,364;   -1,773
934,145; 8877,318;   -1,364;   -0,318
934,700; 9215,682;    0,455;   -0,591
935,255; 9006,591;   -0,091;    0,045
935,809; 8330,227;    3,182;    0,864
936,364; 7458,864;   -0,455;   -0,136
936,919; 7426,227;    0,455;   -1,773
937,474; 7306,227;    1,455;    0,136
938,028; 7037,136;   -1,636;    1,136
938,583; 6543,682;    1,818;    4,682
939,138; 6801,955;    2,091;    2,136
939,692; 6242,227;    1,636;   -1,136
940,247; 5941,955;   -0,727;   -1,045
940,801; 5503,318;   -0,636;    0,227
941,355; 5396,682;   -0,364;    2,591
941,910; 5050,682;   -0,273;   -2,136
942,464; 5172,227;   -0,818;   -0,318
943,018; 4971,682;    1,000;   -0,227
943,572; 4915,136;    2,545;   -0,682
944,126; 4341,864;    0,091;   -0,409
944,681; 4230,773;    3,091;    0,227
945,235; 4210,136;    1,000;   -0,591
945,789; 4151,773;    0,364;   -1,864
946,342; 4250,773;    0,455;   -0,591
946,896; 4062,227;   -2,273;    0,955
947,450; 3819,136;    1,545;   -0,227
948,004; 4021,136;    1,727;   -0,045
948,558; 4011,227;    0,273;   -0,864
949,111; 3944,227;   -0,273;   -0,318
949,665; 3982,591;    1,636;   -0,682
950,219; 3854,500;   -0,091;   -1,045
950,772; 3927,318;   -1,909;    1,864
951,326; 3820,409;    0,545;   -0,955
951,879; 3938,864;    0,727;   -2,318
952,433; 3953,864;    0,000;    2,227
952,986; 3783,318;    2,909;    0,682
953,539; 3758,591;   -0,273;    0,591
954,093; 3676,045;    0,545;   -1,318
954,646; 3819,045;    0,909;    1,318
955,199; 3629,409;    0,000;   -0,500
955,752; 3529,682;   -0,455;    1,773
956,305; 3454,955;   -0,091;    2,955
956,858; 3640,682;    0,818;   -0,318
957,411; 3813,318;   -0,545;    2,136
957,964; 3637,773;    1,364;    2,136
958,517; 3608,227;   -1,545;    3,136
959,070; 3468,955;   -0,455;    1,955
959,623; 3566,227;    1,091;    1,500
960,176; 3315,955;    1,727;    2,045
960,728; 3308,045;   -2,727;    0,773
961,281; 3333,136;    0,545;    0,500
961,834; 3385,773;   -0,909;    0,864
962,386; 3298,045;    1,727;    1,045
962,939; 3235,773;    0,364;   -0,318
963,491; 3382,045;    0,455;    1,136
964,043; 3243,500;    1,182;    2,409
964,596; 3376,864;   -1,000;    2,227
965,148; 3210,045;   -1,000;    1,773
965,700; 3130,682;    1,091;   -0,227
966,253; 3284,682;   -0,636;    0,318
966,805; 3118,682;   -2,273;    0,773
967,357; 3169,045;    1,091;   -1,500
967,909; 3131,955;    0,455;   -1,227
968,461; 3244,500;    0,545;    3,136
969,013; 3170,955;   -0,182;   -0,864
969,565; 3226,500;   -0,455;   -1,136
970,117; 3314,500;   -0,364;    1,045
970,669; 3149,045;    0,182;   -0,136
971,220; 3007,682;   -0,455;   -1,500
971,772; 2935,955;   -0,636;   -0,318
972,324; 3062,136;    0,091;   -0,500
972,876; 3023,773;    0,818;   -0,045
973,427; 3154,864;    1,909;   -1,045
973,979; 3120,955;   -0,727;   -2,500
974,530; 3146,500;    1,818;    1,318
975,082; 3134,500;   -0,545;    1,682
975,633; 3030,682;    1,091;    1,682
976,184; 3193,682;    0,909;    0,773
976,736; 2978,136;    0,091;    0,227
977,287; 2777,591;   -0,909;   -0,500
977,838; 2935,409;    0,909;   -0,318
978,389; 3008,045;   -1,000;   -0,500
978,940; 2892,409;    0,545;   -0,409
979,491; 2912,318;    0,091;   -0,500
980,042; 2892,773;    0,182;    3,045
980,593; 2924,318;   -2,545;    0,227
981,144; 2967,682;    2,545;   -0,500
981,695; 2932,227;    1,455;    1,500
982,246; 2888,682;   -0,273;    1,045
982,797; 3047,409;   -1,727;    0,682
983,347; 3165,864;    0,364;    0,591
983,898; 3345,773;    3,091;    0,409
984,449; 3165,864;    2,182;    0,773
984,999; 3068,955;    1,455;   -1,136
985,550; 2849,682;    0,182;   -0,318
986,100; 2863,500;   -0,455;   -0,318
986,651; 2892,955;   -0,818;    0,045
987,201; 2876,864;   -1,000;   -0,591
987,751; 2947,682;    0,818;    2,864
988,302; 2941,409;    2,636;    1,500
988,852; 2967,773;    0,455;   -1,136
989,402; 3014,591;    0,091;    0,682
989,952; 2947,045;   -2,182;    0,864
990,502; 3028,955;   -0,091;    0,682
991,052; 2980,409;   -0,727;    0,045
991,602; 2873,318;   -2,909;    1,318
992,152; 2856,955;    0,455;    0,682
992,702; 2835,500;    1,364;   -0,045
993,252; 2771,409;   -3,000;   -0,500
993,802; 2875,955;   -0,273;    1,318
994,352; 3103,136;   -1,545;    1,136
994,901; 3167,682;   -0,182;    3,227
995,451; 3075,591;   -0,182;    0,318
996,000; 3180,773;    1,636;    0,318
996,550; 2886,227;    2,273;    0,227
997,100; 2880,318;    1,273;   -0,045
997,649; 3166,227;    2,182;    0,955
998,198; 2802,864;    1,727;   -1,500
998,748; 3023,409;    1,091;   -2,318
999,297; 2896,864;   -0,818;   -0,409
999,846; 2969,773;    1,000;   -0,773
1000,395; 3016,409;   -0,818;    0,500
1000,945; 2983,045;    1,818;   -0,773
1001,494; 3063,227;    2,364;    0,682
1002,043; 3058,955;    4,636;    0,864
1002,592; 2888,864;   -1,091;    1,955
1003,141; 3065,136;   -0,455;   -0,682
1003,690; 2910,864;    1,727;    0,500
1004,238; 2968,500;    1,455;   -0,045
1004,787; 2597,045;    1,364;    1,227
1005,336; 2836,045;    0,364;    0,682
1005,885; 2995,500;    1,364;   -2,773
1006,433; 3136,409;    0,545;    0,955
1006,982; 3197,227;    0,455;    1,682
1007,531; 3090,591;   -1,818;   -0,227
1008,079; 3034,864;   -2,273;    0,500
1008,627; 3175,500;   -1,455;    0,409
1009,176; 2903,591;    0,000;   -1,955
1009,724; 2959,773;    1,091;    0,864
1010,273; 3038,500;    1,273;    0,500
1010,821; 3133,136;    0,091;    1,409
1011,369; 2872,682;   -1,364;    1,318
1011,917; 2851,500;   -1,364;   -0,591
1012,465; 3123,955;    1,273;   -1,591
1013,013; 3242,773;    2,091;   -1,682
1013,561; 3133,773;    0,455;   -0,773
1014,109; 3174,136;   -1,909;    1,682
1014,657; 3038,955;    0,364;    0,591
1015,205; 3159,318;    1,636;   -0,955
1015,753; 3215,136;   -0,545;   -1,409
1016,301; 3256,045;   -2,636;    3,045
1016,848; 3248,318;   -1,273;    0,409
1017,396; 3290,864;    2,545;    0,045
1017,944; 3414,045;    1,182;    1,864
1018,491; 3148,773;    0,273;    1,409
1019,039; 3317,773;    0,455;    0,591
1019,586; 3216,591;   -1,364;    1,682
1020,134; 3321,955;    0,455;    1,500
1020,681; 3359,955;    0,182;   -1,136
1021,228; 3328,682;    2,909;   -2,227
1021,776; 3170,591;    1,182;   -1,136
1022,323; 3385,318;    0,455;    0,773
1022,870; 3322,864;   -1,000;   -0,045
1023,417; 3225,045;    2,636;    1,864
1023,964; 3365,045;    2,636;    1,227
1024,511; 3194,591;    1,000;    0,773
1025,058; 2982,500;    3,182;   -0,045
1025,605; 3047,864;   -2,273;    3,136
1026,152; 3277,864;    1,727;   -0,591
1026,699; 3013,955;    1,818;    1,318
1027,245; 3168,682;   -0,091;    0,318
1027,792; 3367,773;   -1,000;    1,409
1028,339; 3246,864;    2,364;   -0,045
1028,885; 3106,955;    1,000;   -0,227
1029,432; 3050,591;   -0,091;    0,227
1029,978; 3133,591;   -1,000;   -1,591
1030,525; 3029,955;    1,000;    0,409
1031,071; 3267,227;   -1,364;    1,136
1031,618; 3383,773;    0,364;    1,682
1032,164; 3149,136;   -0,091;    3,045
1032,710; 3188,773;    1,636;   -1,500
1033,256; 3096,136;   -0,636;   -0,136
1033,803; 3091,227;   -0,545;    1,500
1034,349; 2807,500;   -1,364;    0,136
1034,895; 2960,227;    0,000;   -0,318
1035,441; 2942,045;   -0,818;    0,318
1035,987; 2939,045;   -2,364;   -0,682
1036,533; 2933,773;   -1,455;   -0,955
1037,078; 3150,045;    1,455;    1,682
1037,624; 2948,682;    2,455;   -0,955
1038,170; 2997,955;    0,455;   -0,318
1038,716; 2914,409;    1,636;   -0,409
1039,261; 2813,955;   -2,273;   -0,773
1039,807; 2742,591;   -0,091;    3,409
1040,352; 2829,318;   -1,909;   -0,318
1040,898; 2860,773;   -1,545;   -0,682
1041,443; 2759,955;   -1,455;   -2,591
1041,989; 2804,864;    1,091;    1,591
1042,534; 2680,409;   -0,364;    2,591
1043,079; 2787,682;    2,909;    0,955
1043,625; 2596,591;    1,818;    0,500
1044,170; 2618,955;   -1,364;    1,045
1044,715; 2881,318;    2,455;    0,955
1045,260; 2700,773;    2,182;   -0,955
1045,805; 2733,591;    1,182;   -0,591
1046,350; 2674,136;    1,364;   -0,409
1046,895; 2645,227;    2,909;    1,591
1047,440; 2599,045;    5,364;    0,409
1047,985; 2488,500;    2,818;   -0,955
1048,530; 2406,136;    1,545;    1,227
1049,074; 2480,500;    0,000;    0,318
1049,619; 2445,318;   -1,364;    1,955
1050,164; 2241,864;    0,455;    0,227
1050,708; 2304,227;   -0,455;    0,045
1051,253; 2668,773;    1,273;   -2,227
1051,797; 2374,955;    0,818;   -1,318
1052,342; 2370,045;   -1,182;    1,045
1052,886; 2384,773;    0,364;   -1,409
1053,430; 2247,682;   -1,364;    0,136
1053,975; 2257,955;   -0,818;   -0,318
1054,519; 2244,682;   -0,727;    3,227
1055,063; 2273,682;    0,909;    1,318
1055,607; 2174,591;   -0,182;    0,227
1056,151; 2197,409;    2,909;    1,682
1056,695; 2103,773;    2,273;   -1,136
1057,239; 2166,591;   -1,727;   -0,682
1057,783; 2166,955;    0,818;   -1,500
1058,327; 2126,318;    0,000;    1,409
1058,871; 2362,500;   -0,545;    1,318
1059,415; 2068,500;   -0,818;   -0,045
1059,958; 2346,500;    1,455;    2,591
1060,502; 2061,955;   -1,000;   -0,773
1061,046; 1944,955;    0,364;   -0,955
1061,589; 1932,955;   -3,000;   -1,136
1062,133; 1800,318;   -1,273;    1,864
1062,676; 1756,227;    1,182;    0,864
1063,220; 1755,409;    1,091;    0,500
1063,763; 1787,136;    0,909;    1,136
1064,306; 1861,045;   -0,909;    1,864
1064,849; 1750,409;   -0,909;    0,591
1065,393; 1762,864;    2,000;   -1,500
1065,936; 1862,955;    0,182;   -0,409
1066,479; 1743,955;   -1,455;    1,318
1067,022; 1764,227;   -0,273;   -0,227
1067,565; 1665,500;   -0,091;   -1,318
1068,108; 1700,227;    0,727;   -0,591
1068,651; 1666,318;   -0,636;    1,409
1069,194; 1594,045;   -0,455;   -1,682
1069,736; 1611,591;   -1,273;    0,955
1070,279; 1565,591;   -1,364;   -0,500
1070,822; 1636,409;   -2,000;   -0,318
1071,364; 1726,227;   -0,364;    1,318
1071,907; 1535,318;   -0,727;    3,227
1072,450; 1434,864;    0,000;   -0,045
1072,992; 1428,500;   -0,273;    3,136
1073,535; 1568,045;    2,091;    2,136
1074,077; 1374,045;   -0,727;    2,045
1074,619; 1348,682;   -1,364;    0,591
1075,161; 1382,955;   -1,091;    1,500
1075,704; 1559,773;    1,545;    1,227
1076,246; 1349,773;   -0,182;    0,682
1076,788; 1275,318;   -0,364;    1,773
1077,330; 1343,591;    1,273;    2,136
1077,872; 1311,955;    0,909;    0,955
1078,414; 1561,409;    2,727;    0,773
1078,956; 1281,682;    1,273;   -0,227
1079,498; 1545,955;    1,636;    0,318
1080,040; 1260,682;    1,909;   -1,318
1080,581; 1194,591;    1,636;   -0,318
1081,123; 1109,136;    0,091;   -0,773
1081,665; 1160,500;   -1,182;   -0,955
1082,206; 1479,227;    1,364;   -0,500
1082,748; 1323,773;    0,727;    2,045
1083,289; 1191,227;   -2,000;    1,318
1083,831; 1104,500;   -0,545;    0,227
1084,372; 1142,045;    0,000;    0,591
1084,913; 1151,591;    1,091;    0,864
1085,455; 1115,500;   -1,909;   -2,045
1085,996; 1091,864;   -2,273;    0,136
1086,537; 1103,682;   -0,091;    0,864
1087,078; 1145,136;   -0,909;   -2,136
1087,619; 1185,773;   -1,273;    0,227
1088,160; 1105,318;    0,000;    1,318
1088,701; 1082,500;   -1,091;    0,682
1089,242; 1008,773;    1,364;   -2,227
1089,783; 1120,045;   -0,273;    1,409
1090,324; 1087,136;    0,455;    0,682
1090,865;  968,409;    2,727;   -0,409
1091,405;  923,227;    0,727;    2,227
1091,946;  963,045;    0,182;   -0,955
1092,487;  890,045;    0,818;   -1,409
1093,027; 1066,591;   -1,364;   -1,500
1093,568;  914,500;   -0,364;    1,227
1094,108; 1018,773;    0,273;    1,773
1094,649;  950,955;   -1,182;    0,136
1095,189;  883,136;   -0,636;   -0,682
1095,729;  841,864;   -0,091;    0,955
1096,269;  836,409;    0,727;   -0,955
1096,810; 1167,045;   -1,364;    0,500
1097,350;  989,227;    1,364;   -0,773
1097,890;  888,591;    0,364;    1,227
1098,430; 1146,318;    2,364;    2,864
1098,970; 1012,773;    2,182;    1,682
1099,510;  873,864;    0,545;   -2,318
1100,050;  806,773;    1,000;   -1,591
1100,589;  774,227;   -0,727;   -0,318
1101,129;  894,864;    0,818;   -0,955
1101,669; 1059,864;    1,727;    2,136
1102,209;  873,500;   -0,091;    2,227
1102,748;  828,682;    0,000;    0,955
1103,288;  809,773;    1,273;   -1,227
1103,827;  843,955;    3,091;   -2,227
1104,367;  713,136;   -0,091;   -2,409
1104,906;  676,136;    1,364;   -1,136
1105,445;  749,409;    0,636;   -1,136
1105,985;  696,136;   -0,727;    1,500
1106,524;  748,500;   -1,727;   -0,682
1107,063;  731,955;   -2,727;    1,409
1107,602;  700,864;   -1,909;   -1,500
1108,141;  625,682;   -1,909;    1,500
1108,680;  726,136;   -3,455;   -0,591
1109,219;  657,591;   -0,909;   -0,500
1109,758;  660,773;    0,455;    0,682
1110,297;  637,045;    1,000;   -0,682
1110,836;  582,136;   -0,727;    0,955
1111,375;  757,045;   -2,545;    0,409
1111,913;  761,136;   -1,000;    0,773
1112,452;  696,227;   -0,273;    0,136
1112,991;  578,500;    1,091;    1,955
1113,529;  538,500;   -0,818;   -0,045
1114,068;  615,409;   -0,273;    2,955
1114,606;  511,045;   -0,364;   -0,955
1115,144;  679,045;   -1,273;    1,045
1115,683;  611,409;   -0,727;    0,318
1116,221;  650,136;   -0,455;   -0,864
1116,759;  556,864;    0,636;   -0,864
1117,297;  769,591;    0,000;    1,864
1117,836;  569,227;   -2,182;   -1,227
1118,374;  584,045;    0,182;   -0,682
1118,912;  529,318;    0,909;    2,682
1119,450;  512,773;    1,000;    0,864
1119,988;  564,227;    1,545;    2,136
1120,525; 1022,227;    5,091;    3,318
1121,063;  729,318;    1,182;    1,864
1121,601;  535,773;   -0,909;   -1,227
1122,139;  480,773;   -0,727;   -2,045
1122,676;  680,136;   -0,727;    2,773
1123,214;  614,227;   -1,182;    4,409
1123,751;  417,773;    1,727;    2,227
1124,289;  553,045;   -0,091;   -0,409
1124,826;  416,409;    1,727;    0,227
1125,364;  335,864;    1,727;   -0,955
1125,901;  533,500;    1,182;    1,227
1126,438;  653,955;    0,818;    0,955
1126,975;  379,318;   -0,727;   -0,773
1127,513;  444,227;    0,273;    2,136
1128,050;  343,136;    1,636;   -0,682
1128,587;  453,136;    2,000;   -0,227
1129,124;  498,682;    0,091;    1,318
1129,661;  355,500;    0,273;    0,227
1130,198;  527,227;    1,636;    0,773
1130,734;  468,773;    0,182;    1,409
1131,271;  330,864;   -0,909;    0,864
1131,808;  498,318;    2,909;    3,045
1132,345;  375,045;    1,545;    0,318
1132,881;  243,136;   -1,545;   -1,864
1133,418;  388,955;    0,727;   -1,136
1133,954;  319,864;    2,455;   -2,682
1134,491;  399,227;    1,364;   -0,773
1135,027;  299,500;    2,364;    0,864
1135,564;  388,227;    0,273;    2,955
1136,100;  373,409;    0,364;    2,136
1136,636;  248,045;   -1,273;   -1,045
1137,172;  357,773;    0,000;   -1,045
1137,708;  285,227;   -1,364;   -1,045
1138,245;  282,682;    1,273;   -1,227
1138,781;  234,045;    1,091;   -3,318
1139,317;  316,409;    1,273;   -1,409
1139,852;  291,682;    3,091;    0,136
1140,388;  404,045;   -1,182;   -0,409
1140,924;  291,500;   -1,091;   -2,227
1141,460;  228,591;   -1,636;    0,136
1141,996;  155,227;   -1,364;    2,682
1142,531;  213,409;    1,364;    3,318
1143,067;  426,045;    1,182;    1,045
1143,602;  495,045;   -0,091;   -0,318
1144,138;  339,864;   -2,636;    1,045
1144,673;  195,864;   -1,455;    1,409
1145,209;  258,591;   -1,909;   -0,318
1145,744;  179,591;   -0,727;    0,864
1146,279;  329,682;    1,818;   -0,136
1146,815;  234,136;    1,545;   -2,682
1147,350;  279,227;   -1,364;    0,045
1147,885;  196,682;   -0,818;   -1,318
1148,420;  192,682;   -2,273;    0,773
1148,955;  163,864;   -1,727;    1,864
1149,490;  190,864;   -0,909;   -1,591
1150,025;  181,409;    0,455;   -1,773
1150,560;  305,045;    1,091;   -0,955
1151,094;  262,955;    1,455;   -0,591
1151,629;  264,409;    1,636;    0,864
1152,164;  187,136;    1,364;    1,318
1152,698;  144,773;   -0,182;   -0,136
1153,233;  103,591;    0,091;   -0,682
1153,767;  151,045;   -3,000;   -2,318
1154,302;  198,409;   -1,455;    1,773
1154,836;  206,136;   -0,455;   -2,136
1155,371;  258,682;   -1,364;    3,682
1155,905;  215,136;   -0,636;    1,682
1156,439;  173,682;   -0,636;   -0,500
1156,973;  211,318;    0,364;    0,318
1157,507;  145,682;   -0,364;    0,682
1158,042;  171,136;   -0,727;    1,045
1158,576;  230,864;    0,182;    1,773
1159,110;  216,227;   -0,818;    2,409
1159,643;  178,409;    0,636;   -0,045
1160,177;  118,864;   -1,545;    1,500

