
Integration time [ms]:   0,040
Averaging Nr. [scans]: 11
Smoothing Nr. [pixels]: 0
Data measured with spectrometer [name]: 7318044SP
Wave   ;Sample   ;Dark     ;Reference
[nm]   ;[counts] ;[counts] ;[counts] 

186,757;   21,901;   31,551;    1,318
187,357;   65,904;   22,551;    0,955
187,958;   46,072;   15,460;   -1,591
188,558;   88,437;    8,915;   -1,227
189,159;   54,735;    6,733;   -4,500
189,759;   15,154;    7,278;   -3,591
190,360;   11,931;    2,824;   -2,136
190,960;   63,368;    2,915;   -4,136
191,560;   79,330;    3,189;   -6,591
192,161;  351,458;    4,372;   -3,500
192,761;  183,971;    4,010;   -3,227
193,361;  109,373;    1,556;   -3,773
193,962;  167,710;    2,010;   -2,682
194,562;   91,149;    1,189;   -3,955
195,162;  132,984;   -2,448;   -2,227
195,762;  303,005;   -3,176;   -0,045
196,362;  250,512;    1,370;   -2,500
196,963;  103,983;    2,006;   -0,864
197,563;  186,896;    1,551;   -0,955
198,163;  125,083;    0,096;   -0,682
198,763;  142,767;    1,733;   -0,500
199,363;  255,748;    3,096;   -0,500
199,963;  220,890;    0,369;    0,409
200,563;  189,343;    2,823;   -1,409
201,163;  165,173;    3,277;   -0,227
201,763;  271,787;    3,732;    0,318
202,363;  190,614;    1,459;    1,500
202,963;  316,839;    1,459;    1,045
203,563;  443,822;    0,277;    0,500
204,162;  267,931;    2,096;   -1,864
204,762;  264,030;    0,550;    0,591
205,362;  215,378;    3,004;    1,955
205,962;  328,532;    3,096;    1,955
206,562;  325,460;    1,823;    2,318
207,161;  292,502;   -0,087;    0,318
207,761;  456,129;    1,277;    2,409
208,361;  328,394;   -0,268;    1,409
208,960;  431,866;    0,459;    1,500
209,560;  516,134;    1,277;    1,591
210,160;  489,345;    0,550;    1,864
210,759;  457,514;    4,186;    1,227
211,359;  464,292;    1,459;    1,045
211,958;  743,449;    1,277;    2,045
212,558;  835,423;    1,732;    1,864
213,157;  664,571;    1,822;    1,500
213,757; 1130,500;    3,822;   -0,227
214,356;  815,188;    1,277;   -0,409
214,956; 1159,664;    3,095;    0,409
215,555;  766,886;    2,095;    2,136
216,154;  699,827;   -2,723;   -0,591
216,754;  703,818;    0,277;    0,773
217,353;  861,875;   -0,268;   -1,045
217,952;  713,038;   -0,178;    0,318
218,552;  962,588;    1,368;   -0,773
219,151;  858,855;    0,277;    0,955
219,750;  851,639;    0,004;   -0,227
220,349;  991,487;   -0,451;    1,045
220,948; 1052,095;   -1,360;    1,136
221,548; 1094,471;    0,913;    1,227
222,147; 1208,389;   -0,087;   -0,409
222,746; 1500,991;   -0,451;   -0,955
223,345; 1404,831;    0,731;    0,500
223,944; 1409,715;   -0,451;    0,773
224,543; 1593,021;    1,004;   -1,409
225,142; 1705,797;    0,094;    0,136
225,741; 1618,260;   -0,814;    1,045
226,340; 1639,950;   -0,451;   -0,955
226,939; 2112,017;   -0,996;   -0,136
227,538; 2087,006;   -0,360;   -0,773
228,137; 2257,313;   -0,814;    0,864
228,735; 2437,945;   -0,541;    1,227
229,334; 2168,754;   -0,905;   -0,227
229,933; 2565,645;    0,459;    0,591
230,532; 2695,410;    1,186;   -0,409
231,131; 2738,679;    1,732;    0,318
231,729; 2925,896;   -2,450;   -2,318
232,328; 3091,851;   -0,723;   -1,500
232,927; 3164,075;    1,004;   -0,500
233,525; 3311,475;    3,640;    0,045
234,124; 3522,742;    2,368;   -1,591
234,723; 3547,596;    0,913;   -1,045
235,321; 3718,453;    2,277;    0,136
235,920; 3992,718;    1,186;   -1,227
236,518; 4233,303;    3,459;    0,318
237,117; 4448,261;    0,004;   -0,227
237,715; 4622,909;    0,640;   -0,500
238,314; 4684,514;   -0,087;   -2,318
238,912; 4766,182;   -0,723;   -1,409
239,510; 4813,074;    0,459;   -1,227
240,109; 5020,344;    0,004;    3,773
240,707; 5069,789;   -0,996;    1,227
241,305; 5460,216;    0,550;    0,136
241,904; 5706,488;   -0,178;   -2,045
242,502; 5655,138;   -0,632;   -0,227
243,100; 5601,355;   -0,087;   -0,955
243,698; 5836,275;    0,732;    1,682
244,297; 6031,850;   -0,632;    0,682
244,895; 5843,080;   -0,269;   -2,318
245,493; 6210,547;    2,186;   -0,591
246,091; 6239,134;    1,368;   -1,318
246,689; 6217,766;    1,004;    0,591
247,287; 6388,184;    0,822;   -1,136
247,885; 6689,091;   -1,451;    1,227
248,483; 6787,330;    1,822;   -0,500
249,081; 6909,507;    0,185;    1,591
249,679; 7087,703;   -0,178;    1,682
250,277; 7336,242;   -1,723;    0,864
250,875; 7366,995;   -1,087;   -1,045
251,473; 7392,752;   -1,178;    0,500
252,071; 7582,421;    1,459;    1,045
252,669; 7730,079;   -1,814;    0,318
253,267; 8017,502;   -0,087;    0,773
253,864; 7985,184;   -0,360;    0,682
254,462; 7824,351;    1,640;    1,591
255,060; 7783,329;   -0,269;    1,318
255,658; 8134,624;    0,822;   -0,136
256,255; 8574,089;    0,186;   -2,045
256,853; 8446,909;   -0,269;    1,409
257,451; 8479,720;    0,822;    1,864
258,048; 8724,153;    1,822;    1,864
258,646; 8454,983;    1,731;   -1,045
259,243; 8632,364;   -0,087;    2,227
259,841; 8721,961;   -0,814;    0,318
260,438; 8581,791;   -0,087;    0,864
261,036; 9343,159;   -1,905;    1,409
261,633; 9233,451;   -0,087;    2,227
262,231; 8923,461;    2,731;   -0,045
262,828; 9010,309;   -0,905;    1,136
263,425; 9100,689;    0,913;   -0,591
264,023; 9383,419;    0,186;    0,045
264,620; 8893,156;   -0,360;   -0,318
265,217; 9275,174;   -2,087;    3,136
265,815; 9334,771;   -1,905;    2,136
266,412; 9125,274;    0,731;    0,136
267,009; 9225,716;   -1,451;    0,773
267,606; 9106,346;    0,822;   -0,955
268,203; 9040,845;   -0,269;   -0,591
268,801; 9360,833;    1,731;    0,591
269,398; 9675,136;   -0,360;    2,500
269,995; 9659,400;    0,277;    1,591
270,592; 9429,695;   -0,632;   -0,500
271,189; 9629,077;    0,186;    0,409
271,786; 9760,726;   -0,632;    1,227
272,383; 9591,622;   -1,087;    0,227
272,980; 9774,057;    0,277;    0,318
273,577;10261,915;    0,004;    1,227
274,174; 9828,055;    0,822;    2,591
274,771; 9785,261;   -0,814;   -0,773
275,367; 9937,183;    2,277;    1,409
275,964; 9905,482;    0,731;   -0,500
276,561;10019,092;    1,549;   -1,045
277,158;10268,521;    0,095;   -1,773
277,755;10401,871;    2,185;    0,409
278,351; 9783,160;   -0,451;   -1,500
278,948;10088,471;   -0,815;    0,045
279,545;10106,450;   -1,360;    2,318
280,141;10734,430;   -1,723;   -2,045
280,738;10602,979;   -0,451;   -0,136
281,334;10887,045;   -1,633;    0,591
281,931;10256,160;   -0,087;   -1,318
282,528;10325,988;    0,822;   -0,500
283,124;11043,351;   -1,087;   -0,500
283,721;10966,415;   -0,451;    1,409
284,317;10765,046;    0,185;    2,500
284,913;11359,210;   -1,360;    0,591
285,510;11540,301;    0,640;   -0,318
286,106;11543,666;   -2,269;   -0,955
286,703;11177,153;   -0,360;    1,955
287,299;11367,324;   -1,451;   -0,591
287,895;11553,551;    0,822;   -1,045
288,491;12142,227;    0,186;    2,136
289,088;11877,508;   -2,360;    2,409
289,684;11915,442;   -1,723;    1,500
290,280;11946,326;    0,368;    0,682
290,876;12046,392;    1,822;    5,500
291,472;11923,735;    1,276;    2,227
292,068;12027,948;    1,367;    0,227
292,665;11729,415;    2,095;    0,773
293,261;11310,177;    0,276;    2,136
293,857;11687,771;    2,913;    2,136
294,453;11615,822;    3,550;    0,955
295,049;11529,642;   -0,268;    1,955
295,644;11541,916;    0,095;    0,136
296,240;11447,537;   -0,905;   -0,136
296,836;11499,348;   -0,995;    0,318
297,432;11768,391;    1,096;   -0,500
298,028;11833,818;    0,732;    0,773
298,624;12220,361;    1,459;    1,864
299,220;12464,835;    2,368;    0,591
299,815;12156,770;    1,005;   -0,409
300,411;11942,551;    0,914;    1,773
301,007;11974,532;    1,368;    0,227
301,602;12036,143;   -0,541;   -2,318
302,198;12206,124;    0,732;   -0,773
302,794;12556,154;    1,187;   -0,500
303,389;12643,713;   -1,177;    1,045
303,985;12697,149;    0,550;    1,409
304,580;12688,968;    1,459;    1,591
305,176;12655,065;   -3,086;    0,136
305,771;12603,137;   -1,268;   -1,227
306,367;12422,590;    4,095;    0,136
306,962;12767,780;    0,641;    1,500
307,558;12486,716;   -0,450;    0,136
308,153;12444,797;    1,095;   -1,136
308,748;12648,738;   -0,814;    1,682
309,344;12649,350;   -0,632;   -1,318
309,939;12711,341;   -1,905;   -1,318
310,534;12980,300;   -0,086;   -1,682
311,130;12896,897;    0,459;   -2,500
311,725;12623,751;    1,004;   -0,500
312,320;12946,211;    2,459;    0,045
312,915;12824,941;    1,459;   -1,045
313,510;12910,696;    1,550;   -0,500
314,105;13392,823;    1,096;    1,409
314,700;12757,858;   -3,086;   -1,045
315,295;12377,059;   -0,904;    0,045
315,890;11964,589;    1,277;    0,864
316,485;12351,669;   -0,359;   -0,318
317,080;12467,970;   -3,086;    1,591
317,675;13048,307;    2,005;   -0,682
318,270;12452,692;    5,550;    3,318
318,865;12443,597;    3,278;    3,045
319,460;12280,293;   -0,904;    0,591
320,055;12488,252;   -0,541;   -1,227
320,650;12183,107;   -1,995;   -0,591
321,244;12217,184;   -0,177;   -1,409
321,839;13163,690;   -1,541;   -0,227
322,434;13054,484;   -1,086;   -1,591
323,029;12653,564;    1,732;    1,591
323,623;12486,557;    1,550;    0,773
324,218;12266,988;    2,368;    1,409
324,812;12152,886;    1,096;    1,591
325,407;11973,112;   -0,814;    2,045
326,002;11881,907;    0,277;   -0,409
326,596;12153,936;    0,914;    1,318
327,191;12366,885;    0,823;   -1,045
327,785;11930,209;   -0,813;   -0,227
328,379;12158,644;    1,368;    0,136
328,974;11962,857;    0,914;   -3,955
329,568;12167,558;    0,186;   -2,409
330,163;11964,514;    2,096;    1,045
330,757;12344,378;    2,459;    1,591
331,351;11676,633;    0,459;    0,682
331,945;11967,695;    0,914;    1,409
332,540;11569,365;   -1,723;   -0,591
333,134;11710,264;   -1,086;    0,773
333,728;11969,879;    0,005;    0,318
334,322;12264,121;   -1,177;   -0,864
334,916;11526,917;    0,277;    0,955
335,510;11891,838;   -0,450;   -0,136
336,105;12124,067;   -1,086;    1,591
336,699;11849,015;   -1,086;    0,591
337,293;11752,240;   -1,723;    0,318
337,887;11935,334;   -2,723;    1,955
338,481;12046,211;    0,459;    0,591
339,074;12197,913;   -0,359;    2,682
339,668;12003,313;   -1,632;    1,227
340,262;12274,027;    1,732;    3,227
340,856;11771,657;    1,822;   -0,682
341,450;11109,483;    1,004;    1,864
342,044;12000,240;    1,459;    0,136
342,637;11835,344;    0,913;   -2,136
343,231;11663,511;   -2,360;    0,682
343,825;11607,374;   -1,086;   -0,591
344,419;11569,812;   -1,995;    0,500
345,012;11364,895;    2,459;    4,045
345,606;11384,200;    4,641;    1,591
346,199;11207,175;   -1,813;   -0,227
346,793;10710,939;    1,914;    2,045
347,386;10889,213;   -0,813;   -1,136
347,980;10906,281;   -0,268;   -0,045
348,573;10682,269;    2,278;    0,409
349,167;10372,885;    5,278;    4,773
349,760;10686,744;    2,914;    2,682
350,354;10678,658;   -0,813;    1,136
350,947;10434,965;    1,096;    1,682
351,540;10088,352;   -0,358;   -1,409
352,134; 9981,685;    1,096;    1,136
352,727;10102,077;   -0,086;    1,136
353,320; 9870,739;    0,005;    0,591
353,913; 9720,524;   -1,995;    1,864
354,507; 9926,274;    0,823;   -1,227
355,100; 9898,429;    0,460;    0,864
355,693; 9173,629;    2,005;    2,409
356,286; 9235,680;    0,823;    2,773
356,879; 9553,662;   -0,722;    1,227
357,472; 9121,616;   -0,904;    1,500
358,065; 9341,332;   -0,722;    2,500
358,658; 9249,385;   -0,540;    2,318
359,251; 8891,666;   -1,631;   -0,591
359,844; 8382,500;   -1,904;   -1,136
360,437; 8589,224;   -2,995;    0,045
361,030; 8831,725;    1,369;   -0,682
361,623; 8434,819;    2,824;    0,318
362,215; 8496,350;   -0,086;    2,045
362,808; 8320,104;   -2,358;   -1,682
363,401; 8533,389;   -2,449;    0,136
363,994; 8237,772;   -0,631;   -1,500
364,586; 8112,311;    0,824;   -1,500
365,179; 8377,172;   -0,449;   -1,136
365,772; 7845,714;   -1,995;    2,045
366,364; 8195,703;    1,915;   -3,227
366,957; 8361,045;    2,279;   -0,045
367,549; 8372,023;    2,188;   -0,864
368,142; 8039,731;    1,825;   -1,500
368,734; 8229,086;    0,734;   -2,136
369,327; 8182,911;    1,643;   -0,500
369,919; 8107,915;   -1,538;    0,409
370,512; 7884,007;   -1,083;   -0,500
371,104; 7665,685;   -0,901;    1,591
371,696; 7835,083;    1,191;   -0,955
372,289; 7939,409;    0,373;    1,136
372,881; 8065,149;   -2,080;    1,318
373,473; 7977,828;   -2,170;    1,136
374,066; 7789,148;   -0,169;    0,500
374,658; 7646,774;    0,378;    1,136
375,250; 7977,904;    0,653;   -1,409
375,842; 7841,178;    0,473;   -0,045
376,434; 7736,196;   -0,435;   -0,409
377,026; 8298,381;    0,204;   -2,500
377,618; 8208,010;   -0,158;   -0,682
378,210; 8021,859;   -0,338;   -1,955
378,802; 7880,759;    0,754;   -0,591
379,394; 7852,938;    1,846;    0,682
379,986; 8466,290;    1,393;   -0,955
380,578; 8562,134;   -0,153;    0,773
381,170; 7884,141;   -0,972;    0,045
381,762; 7838,985;    0,755;    1,409
382,354; 8067,064;   -0,065;   -1,318
382,945; 8173,825;   -2,976;    0,318
383,537; 8297,733;   -2,705;   -1,955
384,129; 8310,178;   -2,160;   -1,136
384,721; 8513,581;   -0,252;    0,955
385,312; 8457,967;   -0,161;   -0,955
385,904; 8526,530;   -2,706;    1,591
386,496; 7907,106;   -0,979;    1,045
387,087; 8048,381;    1,022;    2,500
387,679; 8068,980;   -1,160;    0,045
388,270; 8225,242;    2,840;    2,045
388,862; 8353,163;    1,295;   -0,318
389,453; 8249,391;   -0,887;    1,045
390,045; 8526,450;   -0,705;   -2,682
390,636; 8424,390;    0,204;   -0,591
391,227; 8296,722;   -0,523;   -0,045
391,819; 8385,070;    0,204;    0,773
392,410; 8459,963;    1,022;    0,045
393,001; 8412,218;   -0,979;   -1,591
393,593; 8713,953;    1,930;   -0,045
394,184; 8592,773;    1,385;   -0,409
394,775; 8506,809;    1,839;    2,136
395,366; 8667,890;    1,385;    0,773
395,957; 8714,367;    0,113;    0,136
396,548; 9018,937;   -0,342;    2,682
397,139; 9319,760;   -2,433;    0,591
397,730; 9055,213;   -1,888;    0,955
398,321; 9129,047;   -1,252;    0,955
398,912; 9176,932;   -0,615;    0,136
399,503; 9211,592;   -3,524;   -1,409
400,094; 8627,603;    0,294;    1,682
400,685; 8494,334;   -0,433;    0,045
401,276; 8555,753;    0,930;   -0,955
401,867; 8882,837;   -0,888;    0,773
402,458; 8932,258;   -2,251;   -2,318
403,048; 8946,323;    1,112;    0,591
403,639; 8565,185;    0,840;    0,864
404,230; 8819,363;    2,476;    0,318
404,821; 8728,410;   -0,615;    0,045
405,411; 8894,612;    1,203;   -2,591
406,002; 8465,000;   -1,252;   -1,136
406,592; 8323,838;    2,294;    0,045
407,183; 8626,925;    0,566;   -1,500
407,774; 8569,835;    3,475;   -0,136
408,364; 8854,218;    0,930;    0,409
408,954; 8487,599;    0,384;    1,227
409,545; 8522,858;    1,021;    1,045
410,135; 8040,528;    1,293;    0,500
410,726; 8226,690;    1,838;    0,318
411,316; 8622,317;    0,111;    0,773
411,906; 8258,992;   -0,253;   -0,409
412,497; 7720,041;   -1,070;   -0,045
413,087; 8356,387;   -1,980;   -0,227
413,677; 8763,540;   -0,707;    3,864
414,267; 8636,945;    0,656;    1,409
414,857; 8636,335;   -2,980;    4,227
415,448; 8914,259;    0,839;    0,500
416,038; 8582,676;    0,020;   -0,591
416,628; 8570,163;   -0,889;    0,409
417,218; 8025,284;    0,565;    3,318
417,808; 8296,311;    0,202;   -0,409
418,398; 8788,711;    0,020;    2,682
418,988; 8822,428;    2,020;    0,591
419,578; 9073,080;   -0,707;    1,409
420,168; 9414,546;   -1,343;   -0,955
420,757; 8997,563;   -1,343;   -1,500
421,347; 8661,253;    0,111;   -0,227
421,937; 8851,453;    2,292;    1,409
422,527; 8801,966;    0,838;   -0,773
423,116; 8617,375;   -0,253;   -0,045
423,706; 8974,946;   -1,889;    0,318
424,296; 8955,210;    1,384;    0,682
424,885; 9388,210;   -0,071;   -3,045
425,475; 9669,549;    1,474;   -2,864
426,065; 9579,117;   -0,980;   -0,318
426,654; 9164,817;   -0,435;   -0,318
427,244; 9325,507;    0,020;    1,409
427,833; 8781,931;    1,383;   -0,500
428,423; 9264,646;   -0,526;    1,136
429,012;10013,401;   -0,344;   -1,136
429,601; 9517,041;   -1,344;    0,136
430,191; 9736,866;    1,292;    4,318
430,780; 9389,804;   -0,344;   -0,409
431,369; 9312,500;    0,746;   -0,045
431,959; 9897,554;   -1,254;    0,500
432,548; 9725,871;   -1,163;   -0,045
433,137; 9883,652;   -1,254;   -1,318
433,726;10418,885;    0,292;    0,500
434,315; 9752,347;   -0,526;    2,409
434,905; 9840,920;   -1,254;    1,409
435,494; 9705,318;    0,746;    0,955
436,083;10198,693;   -0,981;   -0,955
436,672;10075,474;    0,110;    0,500
437,261; 9625,358;    0,292;   -1,955
437,850; 9763,645;    1,383;    0,682
438,439; 9767,777;    3,291;    1,955
439,027; 9641,813;    3,655;    1,773
439,616; 9984,297;    2,927;    1,227
440,205; 9815,454;    0,200;   -2,136
440,794; 9973,773;    2,109;   -0,045
441,383;10194,671;   -1,346;   -0,591
441,971;10021,926;   -2,436;    0,591
442,560; 9905,882;    0,563;   -1,773
443,149; 9628,618;    0,379;   -1,318
443,737; 9790,796;   -0,074;   -2,318
444,326;10070,622;    0,018;    0,318
444,915;10167,905;   -1,982;    0,864
445,503;10568,674;   -2,891;   -0,318
446,092; 9828,437;    0,382;    2,136
446,680;10356,958;    0,382;    0,318
447,269;10497,784;   -0,346;   -0,318
447,857;10288,600;    0,018;   -1,773
448,445;10356,299;    0,563;    1,318
449,034;10599,668;   -1,528;   -1,136
449,622;10778,218;   -1,073;    3,500
450,210; 9945,227;    2,017;    2,227
450,799;10521,440;    0,290;   -0,591
451,387;10449,961;    1,381;   -0,591
451,975;10104,185;    2,654;    0,864
452,563;10198,710;    3,472;    2,318
453,151;10262,293;   -0,528;   -1,227
453,739;10187,443;   -1,347;    0,136
454,328;10037,899;    2,381;   -2,136
454,916; 9733,002;    2,562;   -0,136
455,504; 9940,058;    1,017;    1,227
456,092;10118,578;    0,017;   -1,591
456,679;10120,741;    1,472;    0,682
457,267;10023,466;    4,017;    1,045
457,855;10187,215;    1,017;    1,409
458,443; 9915,775;   -0,165;    1,682
459,031;10059,436;    0,108;    2,409
459,619;10554,165;   -1,801;    2,864
460,206;10705,237;    0,835;    2,045
460,794;10764,149;   -2,983;   -0,227
461,382;11011,132;   -0,529;   -0,864
461,970;10597,886;    1,198;    1,864
462,557;10613,909;   -0,711;   -0,682
463,145;10790,010;   -3,165;   -1,682
463,732;10971,970;    2,016;   -1,045
464,320;10944,108;   -0,075;   -3,045
464,907;10575,219;    2,743;   -0,773
465,495;10434,309;    0,743;   -1,227
466,082;10612,309;   -1,984;   -0,045
466,670;10550,963;   -2,529;    1,227
467,257;10915,734;   -1,711;    2,045
467,844;11091,624;   -0,075;    0,045
468,432;11118,583;    0,834;    3,500
469,019;10550,221;    0,925;   -1,773
469,606;11082,845;    0,470;    3,682
470,193;10928,973;   -1,439;    0,227
470,780;10440,449;   -2,075;    0,864
471,368;10819,197;   -1,257;   -0,773
471,955;10582,702;    1,379;   -0,682
472,542;10248,122;    0,652;   -1,136
473,129;10493,425;   -0,166;    0,136
473,716;10189,180;    1,470;    0,591
474,303;10386,189;    0,652;   -0,864
474,890;10733,702;   -1,439;   -0,500
475,477;10736,727;   -1,621;    0,409
476,064;10627,038;    1,106;   -1,591
476,650;10574,650;    0,288;    0,318
477,237;10426,650;   -0,258;    0,955
477,824;10608,981;   -1,076;    0,864
478,411;10619,872;   -1,894;   -0,318
478,997;10804,610;    0,560;   -0,773
479,584;10879,348;    1,196;   -0,409
480,171;11643,658;   -0,440;   -0,773
480,757;11280,355;    2,651;    0,773
481,344;11579,817;    0,469;    0,409
481,931;11097,417;    1,105;    1,045
482,517;12201,539;   -1,258;    0,318
483,104;12847,680;    1,106;    2,864
483,690;13140,602;   -1,804;    0,045
484,276;13476,459;   -0,895;    0,227
484,863;13205,947;    2,469;    1,136
485,449;13806,720;   -0,077;    0,318
486,035;13789,588;   -1,986;   -0,136
486,622;14230,858;   -0,895;    0,045
487,208;14168,071;    1,378;    1,500
487,794;13981,277;    0,741;    0,318
488,380;14076,131;    0,105;   -1,409
488,967;14193,577;   -1,168;   -0,409
489,553;14235,992;   -1,895;   -1,409
490,139;14431,605;    1,559;    0,773
490,725;13786,628;    0,741;   -0,227
491,311;13289,483;    3,287;    3,045
491,897;12600,769;   -0,986;    1,500
492,483;12371,836;    0,105;    1,227
493,069;12214,482;    3,923;    0,864
493,655;12214,689;    1,650;    0,682
494,241;12114,089;    1,377;   -0,955
494,826;12549,806;    0,287;   -1,045
495,412;12004,292;    2,559;   -0,682
495,998;12149,882;   -0,805;   -0,318
496,584;12273,674;    0,377;    1,045
497,169;12280,236;    1,014;   -0,682
497,755;12245,091;    0,650;    1,227
498,341;12819,232;    0,559;    0,318
498,926;12427,362;    1,832;    1,955
499,512;12538,744;    1,286;    2,955
500,097;12722,593;    0,195;   -0,318
500,683;12667,358;   -0,350;    2,136
501,268;13007,490;   -0,169;   -0,955
501,854;12682,875;   -0,169;    1,227
502,439;12606,453;   -0,624;   -1,773
503,024;12843,969;    0,195;    0,500
503,610;12903,079;   -0,078;   -0,682
504,195;12926,250;    0,558;    1,955
504,780;13064,053;    2,922;    1,227
505,366;12901,208;    3,013;    2,864
505,951;12586,350;    0,740;    1,045
506,536;12585,901;   -3,260;   -3,682
507,121;12570,880;    0,285;   -0,318
507,706;13098,348;    2,376;    1,045
508,291;13501,719;    2,649;    1,136
508,876;12925,176;   -0,988;    2,591
509,461;12393,537;   -0,169;   -0,773
510,046;12802,733;    0,194;    0,318
510,631;13051,021;   -0,351;   -0,773
511,216;12731,961;    2,467;   -0,500
511,801;13111,428;   -0,442;    2,591
512,386;13445,752;    0,740;    0,500
512,971;13330,695;   -2,988;    0,955
513,555;12874,579;   -0,897;   -1,500
514,140;13696,732;   -0,442;   -3,136
514,725;13717,842;   -0,715;   -1,136
515,309;13845,543;   -0,533;    0,318
515,894;13291,598;   -0,624;   -2,227
516,479;13733,097;   -0,624;   -0,955
517,063;13540,784;    0,376;    1,227
517,648;13694,620;    1,012;   -1,136
518,232;13365,323;   -0,261;   -1,409
518,817;13717,028;   -0,079;    1,682
519,401;13920,969;    2,194;    0,591
519,985;13407,752;    1,103;    1,136
520,570;13315,318;    0,830;   -1,955
521,154;13593,621;    2,102;    0,591
521,738;13749,836;   -2,352;    2,409
522,323;14333,231;   -0,170;    1,682
522,907;14072,791;    0,466;   -0,136
523,491;13739,077;    0,557;    0,955
524,075;13736,418;    2,284;    0,591
524,659;13848,647;    1,466;    0,591
525,243;13316,242;    1,739;    0,409
525,827;13546,481;    0,648;   -0,045
526,411;14431,738;   -1,989;   -0,136
526,995;14654,478;   -0,352;    1,409
527,579;14241,187;   -0,443;   -1,045
528,163;14525,017;    0,375;   -1,500
528,747;14456,358;    2,466;   -0,773
529,331;14763,641;   -0,080;   -1,409
529,915;14980,785;    1,738;    0,955
530,499;14927,026;   -0,807;    1,227
531,082;14661,633;   -0,534;    1,591
531,666;14096,073;    1,374;    0,773
532,250;14765,335;    1,284;    2,682
532,833;15105,383;    0,920;    2,773
533,417;14950,696;   -1,807;    0,864
534,001;14927,267;    1,647;   -0,318
534,584;15638,664;    0,374;    0,500
535,168;15503,655;    0,465;    1,409
535,751;15578,382;    0,647;    0,045
536,334;14988,967;   -0,898;   -0,409
536,918;15551,077;    0,011;    1,591
537,501;15693,139;   -0,899;    1,318
538,085;15652,897;   -0,444;    1,045
538,668;15842,874;    0,829;    2,409
539,251;16210,215;    1,829;    3,773
539,834;16171,561;    0,101;    0,773
540,418;16104,444;   -1,990;    4,318
541,001;16230,740;   -0,990;    1,773
541,584;16223,371;    2,101;    2,227
542,167;15928,130;    1,374;    2,955
542,750;16078,565;    1,919;   -0,773
543,333;15663,861;    0,555;    2,136
543,916;16492,341;    0,192;    2,500
544,499;17096,990;   -1,354;    0,227
545,082;17083,244;    1,374;    3,591
545,665;17207,604;    1,919;    1,500
546,248;17577,316;    1,010;   -0,318
546,830;17213,171;   -0,445;    1,955
547,413;17639,423;    1,010;   -0,773
547,996;18209,358;    0,555;    0,500
548,579;17945,401;    0,919;    0,955
549,161;17718,292;    1,828;    2,682
549,744;17507,335;   -0,809;    0,409
550,326;18014,981;   -0,809;   -1,136
550,909;17842,829;    2,737;    0,591
551,492;18235,954;   -0,263;    0,227
552,074;18030,987;   -0,173;   -1,318
552,657;18582,051;    2,373;    0,045
553,239;18297,073;   -0,173;   -0,773
553,821;18218,075;   -1,082;    1,045
554,404;17757,560;    1,282;    1,136
554,986;18132,159;    0,464;    1,045
555,568;18733,726;    1,191;   -0,955
556,151;17945,885;    1,191;   -0,227
556,733;18144,136;   -0,264;   -0,864
557,315;18643,096;    0,100;    0,500
557,897;18415,956;    0,554;   -0,500
558,479;18558,360;   -1,991;    1,318
559,061;18715,493;   -0,719;   -0,864
559,643;19022,581;   -0,264;    0,045
560,225;19362,435;    1,645;    2,864
560,807;19429,217;    0,918;    0,318
561,389;18887,576;    0,554;    2,318
561,971;19717,835;    0,463;    2,136
562,553;19511,984;   -1,628;    1,591
563,135;19590,639;   -0,537;    1,136
563,717;19185,784;    3,372;    1,136
564,298;19960,042;    3,645;   -0,045
564,880;19678,383;    0,645;   -1,409
565,462;19858,746;    0,645;    1,318
566,043;20998,814;   -0,446;    2,318
566,625;20576,173;    1,918;    1,227
567,207;20426,071;    1,099;    1,682
567,788;21597,275;   -1,264;    1,500
568,370;22479,081;    1,917;   -0,500
568,951;22291,092;    0,190;    0,227
569,533;23129,325;   -0,628;   -0,500
570,114;23601,431;   -0,446;    0,682
570,695;24174,695;   -0,174;   -1,318
571,277;24702,748;   -0,265;   -1,682
571,858;25461,190;    2,008;   -1,136
572,439;26349,464;    1,554;   -1,045
573,021;26541,822;    2,099;   -2,773
573,602;27033,128;   -1,265;    0,318
574,183;28038,062;   -2,083;    2,227
574,764;28195,199;   -1,629;    0,409
575,345;28754,521;    0,917;   -0,136
575,926;29271,501;   -0,356;    0,136
576,507;29233,759;    1,099;   -0,227
577,088;30431,637;    3,099;    1,682
577,669;30492,780;    0,735;    1,955
578,250;31277,153;    0,644;   -1,045
578,831;31961,454;   -1,356;   -2,227
579,412;32197,303;   -0,810;    0,955
579,993;33016,648;    1,008;    0,227
580,573;33272,866;   -0,629;   -0,955
581,154;32286,180;    0,735;   -0,591
581,735;33230,835;    0,644;    0,773
582,315;32724,471;   -0,629;    2,136
582,896;32935,108;   -0,174;    1,227
583,477;32377,578;    0,189;    1,227
584,057;32591,343;    0,553;    0,955
584,638;32920,466;    2,553;    2,318
585,218;32894,153;   -0,538;    2,682
585,799;33055,876;    0,281;   -0,227
586,379;32959,910;    0,372;    1,591
586,959;31683,217;    0,735;    0,318
587,540;30926,891;   -0,629;    2,227
588,120;30516,319;    1,007;   -0,045
588,700;29548,522;    2,553;    2,136
589,281;29887,257;    0,462;   -0,955
589,861;29890,133;    0,099;   -1,682
590,441;29619,811;    2,371;   -2,682
591,021;28569,098;   -0,265;   -2,591
591,601;28783,001;   -0,537;    0,500
592,181;28767,743;   -0,719;   -0,773
592,761;28059,280;    0,007;    1,409
593,341;27979,272;   -0,901;    0,045
593,921;27965,241;   -0,265;    1,591
594,501;27881,158;   -0,538;    1,318
595,081;27736,173;    0,917;   -0,318
595,661;28134,918;   -1,447;    0,955
596,240;28659,578;   -0,537;    0,136
596,820;28352,890;    0,372;    1,955
597,400;28483,300;    2,008;    0,773
597,980;28643,029;    2,008;    1,045
598,559;28651,196;    2,735;   -0,227
599,139;28310,586;   -0,174;   -1,227
599,718;28277,040;   -0,174;   -0,409
600,298;28556,682;    0,735;    0,682
600,877;28807,770;    2,917;    1,409
601,457;29105,536;    2,281;    1,136
602,036;28959,088;    0,190;    2,045
602,616;29188,025;    0,644;    1,682
603,195;29507,259;   -0,355;    3,500
603,774;29062,253;   -0,901;    2,045
604,354;28924,139;    0,826;   -0,500
604,933;28410,988;    0,463;    1,864
605,512;28550,485;    3,554;    0,591
606,091;28581,196;   -0,537;    3,773
606,671;29394,872;    0,281;    0,773
607,250;28522,608;    1,644;    3,136
607,829;28736,870;    2,372;    3,227
608,408;28577,337;    1,190;    2,591
608,987;27622,745;    1,281;    3,409
609,566;27903,286;   -1,265;   -2,500
610,145;28018,640;   -1,082;    0,682
610,723;28417,690;    4,372;    6,864
611,302;27628,614;   -0,446;    1,682
611,881;27149,013;    5,008;   11,227
612,460;27989,631;    1,645;    3,955
613,039;28429,574;   -0,082;    2,045
613,617;27142,192;    1,736;    4,773
614,196;27274,390;    1,099;    1,227
614,775;27622,897;    1,009;    2,409
615,353;27601,453;    0,736;    0,864
615,932;27353,617;    0,100;    2,409
616,510;27898,438;    0,554;    0,591
617,089;27452,962;    7,100;   17,591
617,667;27193,439;    2,372;    6,136
618,246;27021,963;   -1,537;    1,318
618,824;27204,495;   -3,355;   -0,955
619,402;26771,135;   -2,900;   -1,773
619,981;27279,805;   -0,173;   -1,045
620,559;27070,552;    0,009;    1,682
621,137;26584,183;   -0,718;    1,864
621,715;26602,596;   -1,173;   -0,682
622,293;26542,510;   -0,537;   -0,773
622,871;26988,187;   -0,718;    0,500
623,450;26586,722;    0,373;   -0,864
624,028;26487,397;    0,191;   -0,955
624,606;26098,380;   -1,718;    1,682
625,183;26515,286;   -1,536;   -1,136
625,761;26170,737;    1,009;    1,136
626,339;26450,371;    1,373;    2,591
626,917;26791,189;   -0,172;   -0,045
627,495;26798,598;   -0,354;    1,318
628,073;26272,108;   -0,263;    2,864
628,650;25940,001;    0,100;    2,136
629,228;26413,099;    0,373;    4,409
629,806;25814,374;    2,282;    1,136
630,383;26058,812;    1,464;   -0,318
630,961;25818,496;    2,555;   -0,955
631,539;25558,953;    2,464;    0,227
632,116;24948,587;   11,373;   15,409
632,694;25487,366;    2,555;    6,500
633,271;25838,256;    0,828;    2,682
633,848;25776,864;    1,828;    2,045
634,426;25785,635;   -1,081;    1,773
635,003;24867,353;    1,101;   -0,409
635,580;25233,062;    1,192;    3,682
636,158;25768,609;    3,737;    1,227
636,735;25761,106;    0,555;   -0,500
637,312;25877,491;   -0,809;   -0,682
637,889;25914,126;   -4,354;   -0,682
638,466;25397,127;   -3,990;   -0,409
639,043;25435,484;    2,101;   -1,136
639,620;25735,812;   -2,262;   -0,955
640,197;26069,938;    1,100;    1,682
640,774;26197,448;   -0,172;    1,136
641,351;26620,050;    0,737;    1,136
641,928;26086,379;   -0,627;    1,409
642,505;25744,799;    0,828;   -0,500
643,082;25835,946;   -1,718;    1,227
643,658;24846,003;   -0,718;    1,500
644,235;25650,968;    1,191;    2,500
644,812;25929,843;    1,918;    0,773
645,388;25635,535;   -0,991;    1,409
645,965;25690,501;   -0,809;    1,682
646,542;25786,920;   -1,445;   -0,227
647,118;25793,613;    1,009;   -0,955
647,695;26114,306;   -0,263;    1,136
648,271;25990,180;   -0,536;    0,500
648,848;26330,691;    0,736;    2,227
649,424;26162,929;    0,827;    1,318
650,000;25929,895;   -0,354;   -1,045
650,577;25720,042;   -0,627;   -0,955
651,153;26165,189;   -1,809;    0,955
651,729;27223,609;    1,191;    0,864
652,305;27849,938;    0,645;    2,773
652,881;33219,721;   -0,082;    1,136
653,458;40203,232;    1,100;    0,227
654,034;43501,743;    0,282;    1,591
654,610;44758,618;    0,554;    0,773
655,186;46024,128;    0,645;    3,045
655,762;45669,185;   -0,991;    0,409
656,338;45616,514;    0,100;    0,136
656,913;46545,570;   -0,082;    0,409
657,489;45699,445;    0,827;   -0,318
658,065;45662,319;   -0,173;   -1,591
658,641;46304,648;   -0,900;   -0,864
659,217;45520,068;   -0,991;    0,409
659,792;44989,579;    0,645;   -0,409
660,368;45139,090;   -2,173;   -0,682
660,944;44450,328;   -2,082;    1,227
661,519;39091,566;   -0,628;    0,409
662,095;33061,258;   -1,719;    0,591
662,670;28909,769;    1,281;   -0,136
663,246;28020,007;    1,009;   -0,409
663,821;27450,700;    0,281;    1,682
664,396;26960,302;    0,009;    1,864
664,972;27200,267;    0,009;   -0,500
665,547;27543,414;    1,372;    0,136
666,122;27608,562;   -1,082;    0,318
666,698;27884,618;   -0,173;    0,318
667,273;27166,311;   -0,173;    0,136
667,848;28034,549;    2,372;    1,500
668,423;27863,969;    2,190;    2,318
668,998;28422,570;    2,827;   -0,682
669,573;28921,536;   -3,264;   -1,500
670,148;28759,228;   -1,446;   -0,682
670,723;28536,285;   -1,810;    0,318
671,298;28956,886;    2,372;    1,045
671,873;29112,306;   -0,082;   -0,136
672,448;29034,454;    0,645;    0,136
673,023;29354,692;   -1,992;   -0,227
673,597;29764,293;    0,827;    2,318
674,172;29529,350;   -0,355;    0,318
674,747;28983,588;    0,372;   -1,045
675,321;28816,826;   -0,628;    3,318
675,896;28348,155;    0,645;    1,045
676,471;29389,484;    2,645;    1,591
677,045;29086,449;   -1,264;    0,682
677,620;29206,324;    0,190;    1,136
678,194;29480,926;   -2,628;    1,136
678,769;29065,982;   -1,083;   -0,318
679,343;29351,311;   -0,628;    1,773
679,917;29273,913;   -1,446;    1,955
680,492;29352,151;    0,826;    3,227
681,066;29464,934;    3,372;    0,409
681,640;29464,172;    1,463;   -0,318
682,214;30318,865;    0,735;    0,500
682,788;29871,649;   -1,356;   -0,773
683,363;29774,796;   -1,810;    1,682
683,937;29443,398;   -1,719;   -0,318
684,511;30215,181;    0,463;   -0,591
685,085;29943,146;   -1,356;    0,318
685,659;29596,839;   -2,538;    0,864
686,232;29892,350;   -0,356;   -0,318
686,806;29604,043;   -0,901;    0,409
687,380;30302,463;   -0,174;    0,591
687,954;30498,882;   -1,174;    1,136
688,528;30187,484;   -0,719;    1,955
689,101;30907,995;   -3,992;    1,045
689,675;30560,051;   -0,356;   -0,136
690,249;29943,835;   -0,719;    0,409
690,822;30214,982;    0,280;    0,318
691,396;30309,675;   -0,265;    1,227
691,969;29792,004;    1,280;    0,136
692,543;30242,333;   -0,447;   -1,955
693,116;29884,298;   -0,265;   -1,409
693,690;29740,536;    0,099;    0,500
694,263;30286,138;   -1,083;    2,955
694,836;30383,103;    1,371;    3,591
695,410;29062,796;   -0,265;    1,773
695,983;29502,670;    0,189;    0,591
696,556;29418,090;   -0,447;   -1,045
697,129;29774,238;   -0,356;    1,409
697,703;29450,658;   -1,629;    1,955
698,276;29414,259;    1,462;   -0,773
698,849;29239,316;    1,280;    1,409
699,422;29612,826;   -1,083;    0,591
699,995;29318,792;    0,007;    0,136
700,568;29820,575;   -0,629;    3,045
701,140;29775,723;   -2,811;    1,682
701,713;29539,961;   -0,174;    2,409
702,286;29261,835;   -0,538;    0,864
702,859;29206,710;   -0,902;   -0,591
703,432;28340,493;    0,825;    0,682
704,004;28833,004;    0,462;    0,318
704,577;28752,878;   -0,629;    0,136
705,150;29347,389;    0,189;    2,500
705,722;29125,627;   -0,356;   -3,227
706,295;28881,775;   -0,175;   -0,591
706,867;28745,740;   -0,175;    1,955
707,440;28945,524;   -1,720;   -0,409
708,012;29224,762;    0,462;    0,591
708,584;29138,091;    2,462;    0,227
709,157;29392,692;    1,825;   -0,591
709,729;29084,112;    2,280;    2,045
710,301;29941,896;    0,734;    0,045
710,874;29904,589;   -1,447;   -0,227
711,446;28779,918;    0,371;    0,864
712,018;28669,247;    0,098;    0,500
712,590;28450,212;   -1,993;    1,682
713,162;28990,541;    0,825;    1,318
713,734;29223,597;    1,825;   -2,045
714,306;29107,108;   -1,902;   -0,409
714,878;27761,983;    0,825;    0,864
715,450;28597,493;    0,643;    0,864
716,022;28864,822;    1,552;    1,318
716,593;28970,151;    0,189;    0,591
717,165;28936,662;   -3,175;   -1,227
717,737;28602,719;    0,280;    0,409
718,309;28246,411;    0,280;   -0,045
718,880;28276,013;   -0,539;   -1,409
719,452;28440,615;   -0,175;   -1,591
720,024;28038,762;    0,734;   -0,591
720,595;28562,091;   -2,902;    0,955
721,167;28102,147;    0,370;   -2,045
721,738;27707,294;   -0,812;   -1,045
722,309;27759,805;   -0,993;   -1,227
722,881;27480,589;   -1,357;    0,773
723,452;28116,736;   -2,630;    2,864
724,023;28286,883;   -0,721;    2,682
724,595;27996,485;    0,007;    0,682
725,166;27765,541;    0,007;   -0,409
725,737;27436,234;    1,734;    0,227
726,308;27482,472;   -0,266;    0,318
726,879;27991,619;   -1,630;    1,227
727,450;27864,130;    0,552;   -0,045
728,021;27780,823;    3,097;    0,682
728,592;27514,879;    0,734;    0,500
729,163;27858,935;    0,643;   -0,136
729,734;27930,537;    0,188;   -0,227
730,305;28301,957;    1,734;    0,136
730,876;28627,922;    0,188;    2,955
731,447;28365,706;    2,188;    2,682
732,017;28498,853;    1,097;    1,864
732,588;27999,546;    0,734;    1,227
733,159;28243,602;    0,643;   -1,045
733,729;27948,295;    0,006;    0,409
734,300;27233,351;    0,915;    0,864
734,870;27634,953;    3,461;    0,591
735,441;28232,736;    0,370;   -0,591
736,011;28007,884;    0,643;   -1,591
736,582;27895,394;   -0,812;    0,045
737,152;27359,542;   -1,721;   -2,045
737,722;27805,598;   -0,267;   -0,682
738,293;27467,381;   -1,358;    1,318
738,863;27417,983;    2,461;    2,318
739,433;27190,130;    5,279;    0,318
740,003;27819,005;   -0,994;   -0,682
740,573;27286,061;    2,097;   -1,591
741,143;27196,117;   -1,085;    0,318
741,713;27951,355;    1,188;   -0,500
742,283;27700,412;    0,915;    1,591
742,853;27422,559;    1,915;    1,591
743,423;26863,070;    1,733;    0,045
743,993;27012,399;   -0,358;    1,500
744,563;26396,091;    0,097;   -0,864
745,133;26341,784;   -0,812;   -0,864
745,702;26994,840;   -0,267;    1,773
746,272;26167,624;   -0,176;    0,591
746,842;25942,408;   -1,358;   -0,591
747,411;26389,373;   -0,267;   -0,318
747,981;26612,520;    0,097;    0,500
748,551;26636,304;    2,278;   -1,045
749,120;26458,178;    0,642;   -0,227
749,690;26845,416;   -0,631;    2,409
750,259;27177,018;    1,369;    2,955
750,828;27173,529;    1,551;   -1,955
751,398;27387,040;    1,278;   -0,045
751,967;26927,187;    2,187;    0,409
752,536;27122,425;   -0,813;   -0,227
753,105;27530,299;    0,096;    0,227
753,675;27367,356;    0,096;    1,773
754,244;27305,503;   -0,904;    3,591
754,813;27312,196;    0,551;    1,227
755,382;26867,979;    0,460;    0,955
755,951;27537,035;    1,551;    3,682
756,520;27035,546;   -0,085;    1,864
757,089;27614,330;    0,278;    0,500
757,658;27716,295;    1,733;    1,227
758,227;27726,352;    1,096;    0,318
758,795;28069,499;    1,187;    1,136
759,364;28254,191;   -0,086;   -0,591
759,933;27282,793;   -1,176;   -0,045
760,501;26762,577;    0,733;   -1,318
761,070;27262,997;   -2,813;   -1,409
761,639;27971,689;   -1,904;    1,318
762,207;27298,655;    1,551;   -0,955
762,776;27270,529;    0,369;    0,864
763,344;27222,949;   -0,995;    0,591
763,913;26296,914;   -0,722;    1,409
764,481;27038,971;    1,005;   -0,136
765,049;26831,572;   -1,358;    1,409
765,618;26672,901;   -0,086;    0,318
766,186;26739,230;    0,278;    0,136
766,754;26942,014;    0,005;    1,864
767,322;25939,707;   -1,995;    0,409
767,890;25992,945;   -0,722;   -1,773
768,459;26421,456;   -2,177;   -0,318
769,027;26598,512;    1,641;    3,409
769,595;25545,659;    3,278;    2,591
770,163;26013,625;    3,823;    2,955
770,730;25754,044;    0,732;   -0,136
771,298;25555,737;    0,187;   -1,409
771,866;25625,066;   -1,541;    4,955
772,434;25949,032;   -0,631;   -1,864
773,002;26120,270;    0,005;    0,682
773,569;25785,053;    0,914;    1,682
774,137;25613,291;   -0,268;   -0,045
774,705;26376,711;    0,278;   -0,136
775,272;25841,858;    0,641;    0,682
775,840;25601,460;   -0,177;    2,682
776,407;25181,153;    0,277;    1,955
776,975;24751,118;   -0,632;    0,318
777,542;25762,629;   -1,086;   -0,045
778,110;25606,413;   -1,268;   -0,045
778,677;25244,014;   -2,359;   -0,864
779,244;24984,798;    2,186;    1,045
779,812;25146,400;    1,823;    0,864
780,379;24987,274;    0,005;    1,136
780,946;25241,603;    1,005;   -0,773
781,513;25510,023;   -1,450;    0,318
782,080;24944,261;   -0,086;    2,864
782,647;25727,045;   -0,268;    3,045
783,214;25318,828;   -0,177;    3,864
783,781;24891,975;   -0,723;   -0,682
784,348;24706,577;   -0,632;    1,500
784,915;25211,634;   -3,177;    0,318
785,482;24982,963;    1,368;    2,591
786,049;25402,655;    0,186;   -0,591
786,615;25522,530;    0,277;   -0,955
787,182;25271,768;    0,186;   -0,682
787,749;24951,006;   -2,814;    1,409
788,315;24293,608;   -1,632;   -0,409
788,882;24591,755;    1,550;   -1,227
789,448;25283,902;    1,732;   -0,955
790,015;25245,867;    1,095;    3,227
790,581;24845,924;    1,459;    0,227
791,148;24770,071;    0,641;    1,045
791,714;24978,400;   -0,541;    3,136
792,280;24624,002;    0,186;    1,591
792,847;24168,876;    0,550;    2,500
793,413;24756,023;   -0,269;   -0,318
793,979;24315,261;    3,459;   -1,318
794,545;24415,863;    4,459;    2,682
795,111;23781,374;    2,186;    1,318
795,678;23961,430;    0,731;   -1,682
796,244;23638,305;    3,368;    0,136
796,810;24185,816;    1,731;    0,773
797,375;23908,236;    0,549;   -2,136
797,941;23893,383;   -0,541;    0,591
798,507;24043,984;   -0,451;   -0,955
799,073;23590,768;   -0,360;    0,591
799,639;23628,370;   -2,632;    3,136
800,205;23654,426;    0,095;    2,682
800,770;23211,664;    0,640;    1,773
801,336;23293,993;    1,368;   -0,955
801,901;23005,959;    4,549;    3,136
802,467;23559,288;   -0,542;    2,045
803,033;22888,798;   -0,087;    0,864
803,598;23130,309;    1,913;   -1,045
804,163;23169,184;    1,095;   -0,318
804,729;23137,513;   -0,178;    1,136
805,294;23535,478;    0,822;    2,227
805,859;23287,807;    0,731;   -0,409
806,425;22781,682;    1,186;    2,682
806,990;22449,465;    2,186;    4,318
807,555;22905,885;   -1,451;    2,591
808,120;22806,214;    0,822;   -0,409
808,685;22871,907;    0,185;   -2,500
809,250;22364,054;    0,004;   -0,500
809,815;22643,747;    1,913;    0,682
810,380;23194,530;   -0,269;    1,591
810,945;23757,314;   -1,087;    2,045
811,510;22915,006;    2,094;    1,591
812,075;22630,790;   -0,633;   -1,409
812,640;22624,392;    2,003;    1,409
813,204;22665,084;    0,822;   -0,227
813,769;23195,141;    2,094;   -0,045
814,334;22586,015;    0,458;    0,864
814,898;22663,253;    0,367;    0,591
815,463;22541,310;    1,276;   -0,773
816,027;22493,911;   -0,724;   -2,318
816,592;22565,513;    0,640;   -2,045
817,156;22089,933;    2,094;    1,136
817,721;21967,080;    4,276;    2,318
818,285;21891,227;    2,912;    1,500
818,849;22528,375;   -1,451;    1,682
819,414;22449,704;   -0,269;    2,955
819,978;22012,396;   -1,269;    1,773
820,542;22582,089;    2,003;    0,500
821,106;22284,691;   -0,815;    0,682
821,670;22389,292;   -0,815;    2,591
822,234;22135,349;   -0,270;    1,409
822,798;21525,678;    0,003;    0,500
823,362;21483,916;   -0,633;    4,227
823,926;20787,427;    0,094;    1,136
824,490;21068,483;   -0,997;   -0,682
825,054;21494,994;   -0,088;   -1,136
825,618;21122,050;   -1,542;   -1,500
826,181;21074,106;    0,458;   -1,318
826,745;20948,799;    1,367;   -1,045
827,309;21304,946;    1,185;    1,318
827,872;20639,457;    1,367;    0,955
828,436;21646,786;    1,185;   -0,773
828,999;21701,388;   -0,997;    1,227
829,563;20518,535;   -0,179;    1,136
830,126;20339,773;   -0,179;   -0,591
830,690;20366,920;   -1,997;    2,864
831,253;19880,158;   -0,543;    2,227
831,816;20015,578;   -1,906;    0,500
832,380;19931,635;    0,185;    0,864
832,943;20189,145;   -1,361;   -0,500
833,506;19627,474;    2,639;   -1,227
834,069;20405,349;    3,912;   -0,955
834,632;20467,678;    1,730;    1,318
835,195;20352,007;    1,003;    0,955
835,758;19538,245;   -0,997;    1,955
836,321;19400,938;    0,730;   -1,045
836,884;19502,721;   -0,725;   -0,955
837,447;19529,323;   -2,816;    1,773
838,010;19878,561;    0,366;    3,227
838,573;20124,617;   -1,179;    0,773
839,135;20061,401;   -1,361;   -0,955
839,698;19550,094;    1,275;    0,409
840,261;19038,059;    1,003;   -0,227
840,823;18881,479;   -0,543;    0,864
841,386;19127,172;   -0,452;   -2,409
841,948;19047,955;   -1,361;    1,773
842,511;18787,375;    0,912;    1,682
843,073;18943,068;    1,912;    0,227
843,636;18748,215;   -0,361;   -0,227
844,198;18710,089;    0,911;    0,591
844,760;18847,964;    1,093;    1,955
845,322;18452,293;    0,548;    1,136
845,885;18931,713;    0,730;    0,591
846,447;19330,769;   -1,998;    0,227
847,009;18913,825;    1,911;   -0,682
847,571;19232,518;    0,820;   -2,045
848,133;19328,120;   -1,089;   -1,864
848,695;19116,994;   -0,543;    1,409
849,257;18689,960;   -1,089;   -1,682
849,819;18854,652;   -0,998;   -0,409
850,381;18891,254;   -0,725;   -0,864
850,942;19292,310;    1,093;   -0,591
851,504;19281,094;    1,184;    0,227
852,066;19262,332;    1,275;   -1,591
852,628;18757,206;   -0,180;    1,955
853,189;18335,717;    1,638;    2,682
853,751;18455,865;   -0,907;    1,409
854,312;18233,557;   -0,453;   -1,682
854,874;18750,704;   -2,089;   -0,773
855,435;19299,215;   -0,907;   -1,682
855,997;19467,908;   -1,816;   -0,136
856,558;18752,510;    0,366;    1,773
857,119;18827,111;    0,820;    2,864
857,681;18491,986;    0,002;    0,318
858,242;18586,315;    1,911;   -2,136
858,803;18994,462;    0,456;   -0,773
859,364;19556,882;    0,184;   -4,773
859,925;18842,211;   -2,453;   -0,955
860,486;18730,085;   -0,453;   -0,955
861,047;18464,051;   -0,544;   -1,227
861,608;18314,653;   -1,089;   -0,773
862,169;18404,072;    0,638;   -0,045
862,730;18173,947;    0,456;    1,409
863,291;18459,276;   -0,635;   -0,500
863,852;18834,423;   -0,635;    1,955
864,412;18265,479;   -0,271;   -0,864
864,973;16871,263;   -0,089;    0,500
865,534;16728,683;   -1,726;    0,227
866,094;18217,103;    1,820;    0,227
866,655;17904,250;    1,274;    3,318
867,215;18141,215;    0,274;    0,136
867,776;17979,999;    0,547;   -0,136
868,336;18126,328;   -1,453;    0,136
868,897;17594,930;    2,638;    1,682
869,457;17320,259;    1,365;    0,318
870,017;17513,224;    0,547;   -1,227
870,578;18051,553;   -0,817;    0,773
871,138;17778,155;   -2,089;   -0,955
871,698;17335,120;   -0,817;   -1,318
872,258;17224,086;   -0,453;   -2,864
872,818;17625,960;    2,729;    0,045
873,378;17552,653;    0,638;    1,045
873,938;17055,800;    0,547;    0,500
874,498;17366,129;    0,274;   -1,955
875,058;17338,458;    2,183;    1,773
875,618;17177,333;    1,910;   -2,682
876,177;17074,752;    1,274;    0,136
876,737;16692,718;   -0,090;    1,955
877,297;16713,774;    0,183;    1,955
877,856;16741,830;   -0,362;    0,318
878,416;16738,796;    1,183;   -0,136
878,976;16927,307;   -1,817;    0,409
879,535;17061,999;    0,092;    3,136
880,095;16801,237;   -0,544;    0,045
880,654;16933,930;   -1,090;    1,318
881,213;17087,895;    2,456;    1,500
881,773;16697,315;    2,637;    2,682
882,332;17051,826;    3,365;    5,136
882,891;16888,064;    3,092;    2,136
883,451;17374,211;   -1,272;    1,682
884,010;16760,086;   -2,908;   -0,409
884,569;16829,415;   -0,999;   -0,045
885,128;17013,471;    2,819;   -1,864
885,687;17102,982;    4,455;    0,682
886,246;16817,220;    1,455;    2,136
886,805;16574,731;    2,455;    2,045
887,364;16805,060;   -0,999;   -0,500
887,922;17159,298;   -1,181;    0,045
888,481;16695,536;   -1,545;    0,591
889,040;17051,956;    1,183;    2,136
889,599;17685,649;    2,455;    1,409
890,157;17784,705;    1,455;    2,409
890,716;17443,034;   -0,090;    0,227
891,274;17224,818;    0,092;   -1,136
891,833;17674,329;    1,546;    0,864
892,391;17563,294;   -0,454;    0,500
892,950;17590,623;    1,819;   -0,773
893,508;17966,588;    0,455;   -0,409
894,067;17329,463;    0,637;    0,136
894,625;17241,337;   -0,636;   -1,500
895,183;17454,121;   -0,363;   -0,682
895,741;17347,450;    1,728;   -1,773
896,299;17160,506;   -0,545;   -2,409
896,858;17322,381;    0,819;   -1,591
897,416;17456,164;    2,728;   -1,318
897,974;17206,766;    1,819;    0,318
898,532;17377,550;    6,091;    2,682
899,089;17255,969;    2,091;   -0,682
899,647;17295,026;   -1,454;    1,318
900,205;16997,173;    1,182;    1,045
900,763;17209,138;   -0,454;    0,227
901,321;17252,649;    2,364;   -1,409
901,878;16654,069;   -1,000;   -0,773
902,436;16534,944;   -1,363;    1,318
902,994;16967,727;    4,728;    3,682
903,551;16365,420;    0,728;    0,409
904,109;16713,112;    0,182;   -1,409
904,666;16273,623;    2,455;    1,045
905,224;16135,407;    0,182;   -0,409
905,781;15898,009;    0,727;   -0,318
906,338;15950,701;   -1,363;    1,045
906,895;15879,121;    0,637;    2,045
907,453;15832,359;    1,727;    1,136
908,010;15880,870;   -0,909;    0,409
908,567;15531,563;    1,273;    0,591
909,124;15005,801;    0,364;   -1,500
909,681;15101,130;   -2,909;    0,682
910,238;15250,368;    0,636;   -1,318
910,795;15528,697;   -0,273;   -1,136
911,352;15163,333;   -2,909;   -2,682
911,909;14580,788;   -1,364;   -0,864
912,466;15095,879;   -3,182;    1,500
913,022;14646,788;   -1,636;    0,500
913,579;14994,152;   -0,909;    2,045
914,136;14694,879;    1,636;    0,955
914,692;15036,333;    0,091;   -1,227
915,249;14636,152;    1,455;    0,409
915,806;14882,788;    0,182;    1,955
916,362;14642,879;    1,909;    1,864
916,918;14198,879;    2,000;    1,045
917,475;14143,788;   -1,182;    0,955
918,031;14193,242;    3,364;   -0,045
918,587;13656,879;   -0,909;   -0,318
919,144;13844,697;   -2,273;    0,227
919,700;14157,788;    1,727;    0,773
920,256;13757,879;    0,727;    0,045
920,812;13381,970;   -0,727;   -1,045
921,368;13390,242;   -1,727;   -1,045
921,924;13015,879;    0,182;   -0,136
922,480;12574,515;   -0,545;    1,227
923,036;13218,788;    1,273;    1,955
923,592;13154,788;    0,455;    0,318
924,148;13066,333;    0,455;   -0,955
924,704;12371,788;   -1,364;   -0,409
925,259;12604,515;   -0,273;    0,591
925,815;12412,242;    1,455;    0,500
926,371;11910,697;    2,909;    1,409
926,926;11803,788;    2,091;    0,591
927,482;11432,788;   -1,364;    0,773
928,037;11335,606;    0,909;    2,045
928,593;11630,152;    1,636;    1,045
929,148;11418,061;   -1,818;   -1,500
929,704;10928,697;   -1,455;   -0,500
930,259;11126,970;    0,091;   -0,136
930,814;10192,515;   -0,818;    1,955
931,369; 9871,152;    1,091;   -0,773
931,925; 9751,606;   -0,091;    0,136
932,480; 9674,697;   -2,818;   -2,591
933,035; 9565,152;    0,545;   -0,318
933,590; 9319,333;    0,364;   -1,773
934,145; 8932,333;   -1,364;   -0,318
934,700; 9260,788;    0,455;   -0,591
935,255; 9099,424;   -0,091;    0,045
935,809; 8403,697;    3,182;    0,864
936,364; 7504,424;   -0,455;   -0,136
936,919; 7477,697;    0,455;   -1,773
937,474; 7341,424;    1,455;    0,136
938,028; 7091,697;   -1,636;    1,136
938,583; 6601,697;    1,818;    4,682
939,138; 6860,061;    2,091;    2,136
939,692; 6279,606;    1,636;   -1,136
940,247; 5988,152;   -0,727;   -1,045
940,801; 5533,879;   -0,636;    0,227
941,355; 5419,606;   -0,364;    2,591
941,910; 5095,333;   -0,273;   -2,136
942,464; 5215,061;   -0,818;   -0,318
943,018; 5002,879;    1,000;   -0,227
943,572; 4942,515;    2,545;   -0,682
944,126; 4366,515;    0,091;   -0,409
944,681; 4287,879;    3,091;    0,227
945,235; 4254,606;    1,000;   -0,591
945,789; 4188,788;    0,364;   -1,864
946,342; 4290,606;    0,455;   -0,591
946,896; 4087,061;   -2,273;    0,955
947,450; 3845,697;    1,545;   -0,227
948,004; 4077,606;    1,727;   -0,045
948,558; 4060,606;    0,273;   -0,864
949,111; 3977,970;   -0,273;   -0,318
949,665; 4024,970;    1,636;   -0,682
950,219; 3879,152;   -0,091;   -1,045
950,772; 3958,970;   -1,909;    1,864
951,326; 3853,606;    0,545;   -0,955
951,879; 3947,424;    0,727;   -2,318
952,433; 3996,970;    0,000;    2,227
952,986; 3837,424;    2,909;    0,682
953,539; 3777,515;   -0,273;    0,591
954,093; 3712,424;    0,545;   -1,318
954,646; 3854,515;    0,909;    1,318
955,199; 3664,333;    0,000;   -0,500
955,752; 3549,424;   -0,455;    1,773
956,305; 3488,333;   -0,091;    2,955
956,858; 3673,333;    0,818;   -0,318
957,411; 3843,152;   -0,545;    2,136
957,964; 3701,788;    1,364;    2,136
958,517; 3668,606;   -1,545;    3,136
959,070; 3495,788;   -0,455;    1,955
959,623; 3591,333;    1,091;    1,500
960,176; 3347,697;    1,727;    2,045
960,728; 3341,061;   -2,727;    0,773
961,281; 3396,152;    0,545;    0,500
961,834; 3422,061;   -0,909;    0,864
962,386; 3322,970;    1,727;    1,045
962,939; 3257,152;    0,364;   -0,318
963,491; 3399,152;    0,455;    1,136
964,043; 3274,697;    1,182;    2,409
964,596; 3395,970;   -1,000;    2,227
965,148; 3248,697;   -1,000;    1,773
965,700; 3166,242;    1,091;   -0,227
966,253; 3317,879;   -0,636;    0,318
966,805; 3151,242;   -2,273;    0,773
967,357; 3195,515;    1,091;   -1,500
967,909; 3167,788;    0,455;   -1,227
968,461; 3267,879;    0,545;    3,136
969,013; 3191,061;   -0,182;   -0,864
969,565; 3283,697;   -0,455;   -1,136
970,117; 3340,788;   -0,364;    1,045
970,669; 3172,788;    0,182;   -0,136
971,220; 3045,061;   -0,455;   -1,500
971,772; 2961,333;   -0,636;   -0,318
972,324; 3080,970;    0,091;   -0,500
972,876; 3023,606;    0,818;   -0,045
973,427; 3183,242;    1,909;   -1,045
973,979; 3140,242;   -0,727;   -2,500
974,530; 3172,606;    1,818;    1,318
975,082; 3158,061;   -0,545;    1,682
975,633; 3052,424;    1,091;    1,682
976,184; 3211,424;    0,909;    0,773
976,736; 3013,333;    0,091;    0,227
977,287; 2807,424;   -0,909;   -0,500
977,838; 2977,515;    0,909;   -0,318
978,389; 3061,788;   -1,000;   -0,500
978,940; 2905,606;    0,545;   -0,409
979,491; 2935,606;    0,091;   -0,500
980,042; 2912,606;    0,182;    3,045
980,593; 2961,515;   -2,545;    0,227
981,144; 3004,333;    2,545;   -0,500
981,695; 2974,242;    1,455;    1,500
982,246; 2930,788;   -0,273;    1,045
982,797; 3082,424;   -1,727;    0,682
983,347; 3184,061;    0,364;    0,591
983,898; 3365,879;    3,091;    0,409
984,449; 3203,606;    2,182;    0,773
984,999; 3077,697;    1,455;   -1,136
985,550; 2852,879;    0,182;   -0,318
986,100; 2881,515;   -0,455;   -0,318
986,651; 2914,333;   -0,818;    0,045
987,201; 2893,879;   -1,000;   -0,591
987,751; 2982,424;    0,818;    2,864
988,302; 2971,333;    2,636;    1,500
988,852; 3013,242;    0,455;   -1,136
989,402; 3039,606;    0,091;    0,682
989,952; 2949,970;   -2,182;    0,864
990,502; 3051,424;   -0,091;    0,682
991,052; 2999,152;   -0,727;    0,045
991,602; 2878,242;   -2,909;    1,318
992,152; 2891,061;    0,455;    0,682
992,702; 2871,152;    1,364;   -0,045
993,252; 2785,515;   -3,000;   -0,500
993,802; 2884,515;   -0,273;    1,318
994,352; 3090,697;   -1,545;    1,136
994,901; 3181,333;   -0,182;    3,227
995,451; 3101,970;   -0,182;    0,318
996,000; 3203,606;    1,636;    0,318
996,550; 2926,788;    2,273;    0,227
997,100; 2909,879;    1,273;   -0,045
997,649; 3197,515;    2,182;    0,955
998,198; 2821,788;    1,727;   -1,500
998,748; 3027,061;    1,091;   -2,318
999,297; 2929,970;   -0,818;   -0,409
999,846; 2986,515;    1,000;   -0,773
1000,395; 3035,242;   -0,818;    0,500
1000,945; 2987,515;    1,818;   -0,773
1001,494; 3073,242;    2,364;    0,682
1002,043; 3068,788;    4,636;    0,864
1002,592; 2906,152;   -1,091;    1,955
1003,141; 3050,606;   -0,455;   -0,682
1003,690; 2931,788;    1,727;    0,500
1004,238; 3009,515;    1,455;   -0,045
1004,787; 2633,515;    1,364;    1,227
1005,336; 2874,970;    0,364;    0,682
1005,885; 3018,606;    1,364;   -2,773
1006,433; 3151,152;    0,545;    0,955
1006,982; 3211,242;    0,455;    1,682
1007,531; 3123,515;   -1,818;   -0,227
1008,079; 3056,788;   -2,273;    0,500
1008,627; 3192,515;   -1,455;    0,409
1009,176; 2937,515;    0,000;   -1,955
1009,724; 2978,606;    1,091;    0,864
1010,273; 3059,879;    1,273;    0,500
1010,821; 3144,970;    0,091;    1,409
1011,369; 2874,061;   -1,364;    1,318
1011,917; 2873,152;   -1,364;   -0,591
1012,465; 3145,333;    1,273;   -1,591
1013,013; 3246,152;    2,091;   -1,682
1013,561; 3133,970;    0,455;   -0,773
1014,109; 3211,606;   -1,909;    1,682
1014,657; 3092,697;    0,364;    0,591
1015,205; 3183,606;    1,636;   -0,955
1015,753; 3209,879;   -0,545;   -1,409
1016,301; 3260,424;   -2,636;    3,045
1016,848; 3256,788;   -1,273;    0,409
1017,396; 3299,788;    2,545;    0,045
1017,944; 3421,788;    1,182;    1,864
1018,491; 3173,788;    0,273;    1,409
1019,039; 3353,697;    0,455;    0,591
1019,586; 3260,879;   -1,364;    1,682
1020,134; 3336,879;    0,455;    1,500
1020,681; 3386,515;    0,182;   -1,136
1021,228; 3377,333;    2,909;   -2,227
1021,776; 3183,879;    1,182;   -1,136
1022,323; 3418,152;    0,455;    0,773
1022,870; 3342,424;   -1,000;   -0,045
1023,417; 3238,970;    2,636;    1,864
1023,964; 3370,515;    2,636;    1,227
1024,511; 3229,697;    1,000;    0,773
1025,058; 3031,061;    3,182;   -0,045
1025,605; 3072,697;   -2,273;    3,136
1026,152; 3314,970;    1,727;   -0,591
1026,699; 3016,424;    1,818;    1,318
1027,245; 3176,152;   -0,091;    0,318
1027,792; 3386,424;   -1,000;    1,409
1028,339; 3286,424;    2,364;   -0,045
1028,885; 3127,242;    1,000;   -0,227
1029,432; 3072,697;   -0,091;    0,227
1029,978; 3130,788;   -1,000;   -1,591
1030,525; 3043,333;    1,000;    0,409
1031,071; 3277,061;   -1,364;    1,136
1031,618; 3385,152;    0,364;    1,682
1032,164; 3168,697;   -0,091;    3,045
1032,710; 3214,697;    1,636;   -1,500
1033,256; 3122,242;   -0,636;   -0,136
1033,803; 3106,606;   -0,545;    1,500
1034,349; 2822,061;   -1,364;    0,136
1034,895; 2975,606;    0,000;   -0,318
1035,441; 2959,970;   -0,818;    0,318
1035,987; 2948,333;   -2,364;   -0,682
1036,533; 2951,515;   -1,455;   -0,955
1037,078; 3162,061;    1,455;    1,682
1037,624; 2975,152;    2,455;   -0,955
1038,170; 3013,879;    0,455;   -0,318
1038,716; 2920,333;    1,636;   -0,409
1039,261; 2817,242;   -2,273;   -0,773
1039,807; 2765,606;   -0,091;    3,409
1040,352; 2836,061;   -1,909;   -0,318
1040,898; 2875,242;   -1,545;   -0,682
1041,443; 2797,061;   -1,455;   -2,591
1041,989; 2820,970;    1,091;    1,591
1042,534; 2685,879;   -0,364;    2,591
1043,079; 2779,333;    2,909;    0,955
1043,625; 2589,152;    1,818;    0,500
1044,170; 2646,242;   -1,364;    1,045
1044,715; 2901,333;    2,455;    0,955
1045,260; 2709,424;    2,182;   -0,955
1045,805; 2743,515;    1,182;   -0,591
1046,350; 2676,152;    1,364;   -0,409
1046,895; 2646,424;    2,909;    1,591
1047,440; 2600,333;    5,364;    0,409
1047,985; 2494,152;    2,818;   -0,955
1048,530; 2413,424;    1,545;    1,227
1049,074; 2497,788;    0,000;    0,318
1049,619; 2459,152;   -1,364;    1,955
1050,164; 2252,424;    0,455;    0,227
1050,708; 2310,697;   -0,455;    0,045
1051,253; 2683,879;    1,273;   -2,227
1051,797; 2388,061;    0,818;   -1,318
1052,342; 2381,333;   -1,182;    1,045
1052,886; 2388,606;    0,364;   -1,409
1053,430; 2249,242;   -1,364;    0,136
1053,975; 2266,333;   -0,818;   -0,318
1054,519; 2242,152;   -0,727;    3,227
1055,063; 2278,788;    0,909;    1,318
1055,607; 2169,970;   -0,182;    0,227
1056,151; 2194,788;    2,909;    1,682
1056,695; 2103,424;    2,273;   -1,136
1057,239; 2171,424;   -1,727;   -0,682
1057,783; 2189,606;    0,818;   -1,500
1058,327; 2133,697;    0,000;    1,409
1058,871; 2352,606;   -0,545;    1,318
1059,415; 2064,606;   -0,818;   -0,045
1059,958; 2346,697;    1,455;    2,591
1060,502; 2057,970;   -1,000;   -0,773
1061,046; 1952,242;    0,364;   -0,955
1061,589; 1926,606;   -3,000;   -1,136
1062,133; 1808,242;   -1,273;    1,864
1062,676; 1762,061;    1,182;    0,864
1063,220; 1771,333;    1,091;    0,500
1063,763; 1792,606;    0,909;    1,136
1064,306; 1881,424;   -0,909;    1,864
1064,849; 1756,333;   -0,909;    0,591
1065,393; 1765,061;    2,000;   -1,500
1065,936; 1877,333;    0,182;   -0,409
1066,479; 1747,788;   -1,455;    1,318
1067,022; 1773,152;   -0,273;   -0,227
1067,565; 1677,152;   -0,091;   -1,318
1068,108; 1697,061;    0,727;   -0,591
1068,651; 1661,242;   -0,636;    1,409
1069,194; 1591,152;   -0,455;   -1,682
1069,736; 1602,788;   -1,273;    0,955
1070,279; 1568,152;   -1,364;   -0,500
1070,822; 1637,333;   -2,000;   -0,318
1071,364; 1725,697;   -0,364;    1,318
1071,907; 1545,061;   -0,727;    3,227
1072,450; 1429,515;    0,000;   -0,045
1072,992; 1443,424;   -0,273;    3,136
1073,535; 1591,788;    2,091;    2,136
1074,077; 1376,697;   -0,727;    2,045
1074,619; 1346,606;   -1,364;    0,591
1075,161; 1384,152;   -1,091;    1,500
1075,704; 1575,697;    1,545;    1,227
1076,246; 1356,970;   -0,182;    0,682
1076,788; 1273,424;   -0,364;    1,773
1077,330; 1351,697;    1,273;    2,136
1077,872; 1325,242;    0,909;    0,955
1078,414; 1566,697;    2,727;    0,773
1078,956; 1290,242;    1,273;   -0,227
1079,498; 1563,697;    1,636;    0,318
1080,040; 1270,606;    1,909;   -1,318
1080,581; 1196,970;    1,636;   -0,318
1081,123; 1099,515;    0,091;   -0,773
1081,665; 1166,333;   -1,182;   -0,955
1082,206; 1472,606;    1,364;   -0,500
1082,748; 1330,333;    0,727;    2,045
1083,289; 1188,788;   -2,000;    1,318
1083,831; 1104,788;   -0,545;    0,227
1084,372; 1161,606;    0,000;    0,591
1084,913; 1162,697;    1,091;    0,864
1085,455; 1113,697;   -1,909;   -2,045
1085,996; 1089,697;   -2,273;    0,136
1086,537; 1123,606;   -0,091;    0,864
1087,078; 1139,242;   -0,909;   -2,136
1087,619; 1203,061;   -1,273;    0,227
1088,160; 1103,515;    0,000;    1,318
1088,701; 1082,606;   -1,091;    0,682
1089,242; 1023,061;    1,364;   -2,227
1089,783; 1126,424;   -0,273;    1,409
1090,324; 1091,970;    0,455;    0,682
1090,865;  969,242;    2,727;   -0,409
1091,405;  922,697;    0,727;    2,227
1091,946;  968,424;    0,182;   -0,955
1092,487;  887,606;    0,818;   -1,409
1093,027; 1074,515;   -1,364;   -1,500
1093,568;  915,242;   -0,364;    1,227
1094,108; 1031,697;    0,273;    1,773
1094,649;  964,242;   -1,182;    0,136
1095,189;  883,697;   -0,636;   -0,682
1095,729;  841,515;   -0,091;    0,955
1096,269;  846,242;    0,727;   -0,955
1096,810; 1184,333;   -1,364;    0,500
1097,350;  992,697;    1,364;   -0,773
1097,890;  883,970;    0,364;    1,227
1098,430; 1147,879;    2,364;    2,864
1098,970; 1017,606;    2,182;    1,682
1099,510;  875,152;    0,545;   -2,318
1100,050;  805,515;    1,000;   -1,591
1100,589;  768,879;   -0,727;   -0,318
1101,129;  897,606;    0,818;   -0,955
1101,669; 1053,879;    1,727;    2,136
1102,209;  864,788;   -0,091;    2,227
1102,748;  822,424;    0,000;    0,955
1103,288;  824,333;    1,273;   -1,227
1103,827;  849,697;    3,091;   -2,227
1104,367;  713,697;   -0,091;   -2,409
1104,906;  691,152;    1,364;   -1,136
1105,445;  758,970;    0,636;   -1,136
1105,985;  713,970;   -0,727;    1,500
1106,524;  758,879;   -1,727;   -0,682
1107,063;  729,788;   -2,727;    1,409
1107,602;  700,697;   -1,909;   -1,500
1108,141;  613,152;   -1,909;    1,500
1108,680;  734,879;   -3,455;   -0,591
1109,219;  667,970;   -0,909;   -0,500
1109,758;  668,424;    0,455;    0,682
1110,297;  633,970;    1,000;   -0,682
1110,836;  573,697;   -0,727;    0,955
1111,375;  757,788;   -2,545;    0,409
1111,913;  761,788;   -1,000;    0,773
1112,452;  698,697;   -0,273;    0,136
1112,991;  580,788;    1,091;    1,955
1113,529;  535,333;   -0,818;   -0,045
1114,068;  618,424;   -0,273;    2,955
1114,606;  506,333;   -0,364;   -0,955
1115,144;  684,242;   -1,273;    1,045
1115,683;  602,515;   -0,727;    0,318
1116,221;  663,152;   -0,455;   -0,864
1116,759;  555,333;    0,636;   -0,864
1117,297;  767,424;    0,000;    1,864
1117,836;  563,879;   -2,182;   -1,227
1118,374;  584,606;    0,182;   -0,682
1118,912;  525,152;    0,909;    2,682
1119,450;  519,879;    1,000;    0,864
1119,988;  565,970;    1,545;    2,136
1120,525; 1031,242;    5,091;    3,318
1121,063;  725,606;    1,182;    1,864
1121,601;  525,697;   -0,909;   -1,227
1122,139;  486,879;   -0,727;   -2,045
1122,676;  684,879;   -0,727;    2,773
1123,214;  613,606;   -1,182;    4,409
1123,751;  418,515;    1,727;    2,227
1124,289;  563,424;   -0,091;   -0,409
1124,826;  425,606;    1,727;    0,227
1125,364;  340,879;    1,727;   -0,955
1125,901;  540,242;    1,182;    1,227
1126,438;  662,970;    0,818;    0,955
1126,975;  378,788;   -0,727;   -0,773
1127,513;  442,697;    0,273;    2,136
1128,050;  342,606;    1,636;   -0,682
1128,587;  449,697;    2,000;   -0,227
1129,124;  497,424;    0,091;    1,318
1129,661;  350,879;    0,273;    0,227
1130,198;  529,515;    1,636;    0,773
1130,734;  477,333;    0,182;    1,409
1131,271;  321,697;   -0,909;    0,864
1131,808;  500,879;    2,909;    3,045
1132,345;  372,697;    1,545;    0,318
1132,881;  243,697;   -1,545;   -1,864
1133,418;  383,152;    0,727;   -1,136
1133,954;  318,152;    2,455;   -2,682
1134,491;  405,697;    1,364;   -0,773
1135,027;  298,152;    2,364;    0,864
1135,564;  396,152;    0,273;    2,955
1136,100;  377,061;    0,364;    2,136
1136,636;  255,242;   -1,273;   -1,045
1137,172;  359,606;    0,000;   -1,045
1137,708;  282,515;   -1,364;   -1,045
1138,245;  280,788;    1,273;   -1,227
1138,781;  220,788;    1,091;   -3,318
1139,317;  309,697;    1,273;   -1,409
1139,852;  291,788;    3,091;    0,136
1140,388;  420,606;   -1,182;   -0,409
1140,924;  301,697;   -1,091;   -2,227
1141,460;  223,333;   -1,636;    0,136
1141,996;  149,515;   -1,364;    2,682
1142,531;  218,788;    1,364;    3,318
1143,067;  444,424;    1,182;    1,045
1143,602;  502,788;   -0,091;   -0,318
1144,138;  335,242;   -2,636;    1,045
1144,673;  189,515;   -1,455;    1,409
1145,209;  265,515;   -1,909;   -0,318
1145,744;  181,697;   -0,727;    0,864
1146,279;  324,879;    1,818;   -0,136
1146,815;  234,333;    1,545;   -2,682
1147,350;  283,333;   -1,364;    0,045
1147,885;  182,606;   -0,818;   -1,318
1148,420;  186,333;   -2,273;    0,773
1148,955;  169,515;   -1,727;    1,864
1149,490;  198,970;   -0,909;   -1,591
1150,025;  177,424;    0,455;   -1,773
1150,560;  291,333;    1,091;   -0,955
1151,094;  269,242;    1,455;   -0,591
1151,629;  266,879;    1,636;    0,864
1152,164;  193,242;    1,364;    1,318
1152,698;  149,879;   -0,182;   -0,136
1153,233;  104,697;    0,091;   -0,682
1153,767;  154,879;   -3,000;   -2,318
1154,302;  208,061;   -1,455;    1,773
1154,836;  204,606;   -0,455;   -2,136
1155,371;  264,424;   -1,364;    3,682
1155,905;  213,242;   -0,636;    1,682
1156,439;  163,970;   -0,636;   -0,500
1156,973;  213,515;    0,364;    0,318
1157,507;  144,242;   -0,364;    0,682
1158,042;  185,152;   -0,727;    1,045
1158,576;  228,152;    0,182;    1,773
1159,110;  218,697;   -0,818;    2,409
1159,643;  182,788;    0,636;   -0,045
1160,177;  112,333;   -1,545;    1,500

