
Integration time [ms]:   0,040
Averaging Nr. [scans]: 11
Smoothing Nr. [pixels]: 0
Data measured with spectrometer [name]: 7318044SP
Wave   ;Sample   ;Dark     ;Reference
[nm]   ;[counts] ;[counts] ;[counts] 

186,757;   22,168;   31,551;    1,318
187,357;   56,197;   22,551;    0,955
187,958;   31,998;   15,460;   -1,591
188,558;   88,070;    8,915;   -1,227
189,159;   56,480;    6,733;   -4,500
189,759;   16,082;    7,278;   -3,591
190,360;   15,447;    2,824;   -2,136
190,960;   60,838;    2,915;   -4,136
191,560;   74,531;    3,189;   -6,591
192,161;  335,950;    4,372;   -3,500
192,761;  170,197;    4,010;   -3,227
193,361;  106,890;    1,556;   -3,773
193,962;  160,665;    2,010;   -2,682
194,562;   79,033;    1,189;   -3,955
195,162;  125,017;   -2,448;   -2,227
195,762;  301,070;   -3,176;   -0,045
196,362;  242,839;    1,370;   -2,500
196,963;   95,747;    2,006;   -0,864
197,563;  178,710;    1,551;   -0,955
198,163;  116,408;    0,096;   -0,682
198,763;  137,017;    1,733;   -0,500
199,363;  252,814;    3,096;   -0,500
199,963;  206,106;    0,369;    0,409
200,563;  170,364;    2,823;   -1,409
201,163;  151,905;    3,277;   -0,227
201,763;  251,252;    3,732;    0,318
202,363;  178,888;    1,459;    1,500
202,963;  292,278;    1,459;    1,045
203,563;  407,181;    0,277;    0,500
204,162;  246,649;    2,096;   -1,864
204,762;  240,161;    0,550;    0,591
205,362;  196,617;    3,004;    1,955
205,962;  304,720;    3,096;    1,955
206,562;  313,435;    1,823;    2,318
207,161;  280,713;   -0,087;    0,318
207,761;  433,739;    1,277;    2,409
208,361;  313,929;   -0,268;    1,409
208,960;  426,390;    0,459;    1,500
209,560;  489,899;    1,277;    1,591
210,160;  462,760;    0,550;    1,864
210,759;  427,757;    4,186;    1,227
211,359;  433,405;    1,459;    1,045
211,958;  715,952;    1,277;    2,045
212,558;  799,931;    1,732;    1,864
213,157;  632,521;    1,822;    1,500
213,757; 1091,608;    3,822;   -0,227
214,356;  775,857;    1,277;   -0,409
214,956; 1123,725;    3,095;    0,409
215,555;  724,443;    2,095;    2,136
216,154;  658,020;   -2,723;   -0,591
216,754;  672,831;    0,277;    0,773
217,353;  827,727;   -0,268;   -1,045
217,952;  664,757;   -0,178;    0,318
218,552;  914,578;    1,368;   -0,773
219,151;  803,651;    0,277;    0,955
219,750;  804,780;    0,004;   -0,227
220,349;  940,291;   -0,451;    1,045
220,948; 1009,976;   -1,360;    1,136
221,548; 1026,740;    0,913;    1,227
222,147; 1141,663;   -0,087;   -0,409
222,746; 1425,875;   -0,451;   -0,955
223,345; 1306,619;    0,731;    0,500
223,944; 1315,613;   -0,451;    0,773
224,543; 1489,023;    1,004;   -1,409
225,142; 1597,657;    0,094;    0,136
225,741; 1508,788;   -0,814;    1,045
226,340; 1539,382;   -0,451;   -0,955
226,939; 1994,747;   -0,996;   -0,136
227,538; 1941,082;   -0,360;   -0,773
228,137; 2109,779;   -0,814;    0,864
228,735; 2257,593;   -0,541;    1,227
229,334; 2024,768;   -0,905;   -0,227
229,933; 2381,384;    0,459;    0,591
230,532; 2504,706;    1,186;   -0,409
231,131; 2565,528;    1,732;    0,318
231,729; 2717,366;   -2,450;   -2,318
232,328; 2826,688;   -0,723;   -1,500
232,927; 2889,385;    1,004;   -0,500
233,525; 3035,379;    3,640;    0,045
234,124; 3236,493;    2,368;   -1,591
234,723; 3231,793;    0,913;   -1,045
235,321; 3419,544;    2,277;    0,136
235,920; 3640,552;    1,186;   -1,227
236,518; 3909,212;    3,459;    0,318
237,117; 4107,075;    0,004;   -0,227
237,715; 4272,286;    0,640;   -0,500
238,314; 4308,262;   -0,087;   -2,318
238,912; 4397,202;   -0,723;   -1,409
239,510; 4448,552;    0,459;   -1,227
240,109; 4643,843;    0,004;    3,773
240,707; 4674,829;   -0,996;    1,227
241,305; 5035,521;    0,550;    0,136
241,904; 5250,976;   -0,178;   -2,045
242,502; 5231,895;   -0,632;   -0,227
243,100; 5174,824;   -0,087;   -0,955
243,698; 5419,399;    0,732;    1,682
244,297; 5637,590;   -0,632;    0,682
244,895; 5482,446;   -0,269;   -2,318
245,493; 5839,995;    2,186;   -0,591
246,091; 5851,222;    1,368;   -1,318
246,689; 5857,037;    1,004;    0,591
247,287; 6041,366;    0,822;   -1,136
247,885; 6304,980;   -1,451;    1,227
248,483; 6394,331;    1,822;   -0,500
249,081; 6544,196;    0,185;    1,591
249,679; 6715,395;   -0,178;    1,682
250,277; 7025,592;   -1,723;    0,864
250,875; 6993,646;   -1,087;   -1,045
251,473; 7009,110;   -1,178;    0,500
252,071; 7223,603;    1,459;    1,045
252,669; 7401,795;   -1,814;    0,318
253,267; 7644,003;   -0,087;    0,773
253,864; 7621,093;   -0,360;    0,682
254,462; 7499,151;    1,640;    1,591
255,060; 7453,771;   -0,269;    1,318
255,658; 7783,522;    0,822;   -0,136
256,255; 8219,180;    0,186;   -2,045
256,853; 8074,707;   -0,269;    1,409
257,451; 8062,624;    0,822;    1,864
258,048; 8344,880;    1,822;    1,864
258,646; 8083,693;    1,731;   -1,045
259,243; 8281,344;   -0,087;    2,227
259,841; 8345,767;   -0,814;    0,318
260,438; 8222,225;   -0,087;    0,864
261,036; 8959,079;   -1,905;    1,409
261,633; 8834,438;   -0,087;    2,227
262,231; 8578,725;    2,731;   -0,045
262,828; 8654,419;   -0,905;    1,136
263,425; 8731,691;    0,913;   -0,591
264,023; 8998,680;    0,186;    0,045
264,620; 8564,232;   -0,360;   -0,318
265,217; 8953,162;   -2,087;    3,136
265,815; 9015,825;   -1,905;    2,136
266,412; 8786,078;    0,731;    0,136
267,009; 8871,893;   -1,451;    0,773
267,606; 8754,966;    0,822;   -0,955
268,203; 8713,216;   -0,269;   -0,591
268,801; 9009,641;    1,731;    0,591
269,398; 9311,022;   -0,360;    2,500
269,995; 9303,328;    0,277;    1,591
270,592; 9074,709;   -0,632;   -0,500
271,189; 9263,235;    0,186;    0,409
271,786; 9408,544;   -0,632;    1,227
272,383; 9244,814;   -1,087;    0,227
272,980; 9427,232;    0,277;    0,318
273,577; 9887,486;    0,004;    1,227
274,174; 9455,986;    0,822;    2,591
274,771; 9451,613;   -0,814;   -0,773
275,367; 9595,119;    2,277;    1,409
275,964; 9564,041;    0,731;   -0,500
276,561; 9652,260;    1,549;   -1,045
277,158; 9878,668;    0,095;   -1,773
277,755;10000,014;    2,185;    0,409
278,351; 9395,599;   -0,451;   -1,500
278,948; 9712,161;   -0,815;    0,045
279,545; 9741,606;   -1,360;    2,318
280,141;10350,156;   -1,723;   -2,045
280,738;10272,334;   -0,451;   -0,136
281,334;10511,931;   -1,633;    0,591
281,931; 9845,286;   -0,087;   -1,318
282,528; 9943,846;    0,822;   -0,500
283,124;10701,061;   -1,087;   -0,500
283,721;10602,727;   -0,451;    1,409
284,317;10386,352;    0,185;    2,500
284,913;10945,520;   -1,360;    0,591
285,510;11174,520;    0,640;   -0,318
286,106;11181,262;   -2,269;   -0,955
286,703;10802,846;   -0,360;    1,955
287,299;11006,040;   -1,451;   -0,591
287,895;11208,354;    0,822;   -1,045
288,491;11745,658;    0,186;    2,136
289,088;11523,112;   -2,360;    2,409
289,684;11595,068;   -1,723;    1,500
290,280;11604,145;    0,368;    0,682
290,876;11700,924;    1,822;    5,500
291,472;11590,336;    1,276;    2,227
292,068;11679,269;    1,367;    0,227
292,665;11415,585;    2,095;    0,773
293,261;11023,060;    0,276;    2,136
293,857;11442,229;    2,913;    2,136
294,453;11358,289;    3,550;    0,955
295,049;11221,617;   -0,268;    1,955
295,644;11262,409;    0,095;    0,136
296,240;11194,047;   -0,905;   -0,136
296,836;11197,789;   -0,995;    0,318
297,432;11475,486;    1,096;   -0,500
298,028;11547,003;    0,732;    0,773
298,624;11922,436;    1,459;    1,864
299,220;12198,100;    2,368;    0,591
299,815;11868,023;    1,005;   -0,409
300,411;11635,435;    0,914;    1,773
301,007;11650,175;    1,368;    0,227
301,602;11728,401;   -0,541;   -2,318
302,198;11879,686;    0,732;   -0,773
302,794;12226,604;    1,187;   -0,500
303,389;12340,342;   -1,177;    1,045
303,985;12430,957;    0,550;    1,409
304,580;12407,964;    1,459;    1,591
305,176;12355,677;   -3,086;    0,136
305,771;12288,739;   -1,268;   -1,227
306,367;12173,004;    4,095;    0,136
306,962;12466,764;    0,641;    1,500
307,558;12205,156;   -0,450;    0,136
308,153;12129,135;    1,095;   -1,136
308,748;12346,173;   -0,814;    1,682
309,344;12326,854;   -0,632;   -1,318
309,939;12450,309;   -1,905;   -1,318
310,534;12675,718;   -0,086;   -1,682
311,130;12613,967;    0,459;   -2,500
311,725;12312,904;    1,004;   -0,500
312,320;12662,013;    2,459;    0,045
312,915;12523,994;    1,459;   -1,045
313,510;12621,848;    1,550;   -0,500
314,105;13087,643;    1,096;    1,409
314,700;12458,852;   -3,086;   -1,045
315,295;12068,237;   -0,904;    0,045
315,890;11668,394;    1,277;    0,864
316,485;12063,547;   -0,359;   -0,318
317,080;12164,953;   -3,086;    1,591
317,675;12747,198;    2,005;   -0,682
318,270;12183,066;    5,550;    3,318
318,865;12112,063;    3,278;    3,045
319,460;11944,642;   -0,904;    0,591
320,055;12157,091;   -0,541;   -1,227
320,650;11829,224;   -1,995;   -0,591
321,244;11887,563;   -0,177;   -1,409
321,839;12831,863;   -1,541;   -0,227
322,434;12715,376;   -1,086;   -1,591
323,029;12358,933;    1,732;    1,591
323,623;12195,628;    1,550;    0,773
324,218;11928,273;    2,368;    1,409
324,812;11836,062;    1,096;    1,591
325,407;11642,824;   -0,814;    2,045
326,002;11587,890;    0,277;   -0,409
326,596;11821,478;    0,914;    1,318
327,191;12033,237;    0,823;   -1,045
327,785;11591,296;   -0,813;   -0,227
328,379;11804,632;    1,368;    0,136
328,974;11614,118;    0,914;   -3,955
329,568;11864,552;    0,186;   -2,409
330,163;11667,153;    2,096;    1,045
330,757;12015,344;    2,459;    1,591
331,351;11368,519;    0,459;    0,682
331,945;11685,419;    0,914;    1,409
332,540;11281,250;   -1,723;   -0,591
333,134;11408,228;   -1,086;    0,773
333,728;11701,764;    0,005;    0,318
334,322;12024,384;   -1,177;   -0,864
334,916;11288,780;    0,277;    0,955
335,510;11619,180;   -0,450;   -0,136
336,105;11860,055;   -1,086;    1,591
336,699;11594,715;   -1,086;    0,591
337,293;11516,015;   -1,723;    0,318
337,887;11637,044;   -2,723;    1,955
338,481;11743,278;    0,459;    0,591
339,074;11914,777;   -0,359;    2,682
339,668;11719,910;   -1,632;    1,227
340,262;12034,354;    1,732;    3,227
340,856;11505,420;    1,822;   -0,682
341,450;10801,328;    1,004;    1,864
342,044;11717,288;    1,459;    0,136
342,637;11520,752;    0,913;   -2,136
343,231;11411,505;   -2,360;    0,682
343,825;11378,257;   -1,086;   -0,591
344,419;11317,258;   -1,995;    0,500
345,012;11095,258;    2,459;    4,045
345,606;11146,297;    4,641;    1,591
346,199;10957,647;   -1,813;   -0,227
346,793;10471,508;    1,914;    2,045
347,386;10677,754;   -0,813;   -1,136
347,980;10684,225;   -0,268;   -0,045
348,573;10459,229;    2,278;    0,409
349,167;10128,590;    5,278;    4,773
349,760;10442,719;    2,914;    2,682
350,354;10454,952;   -0,813;    1,136
350,947;10226,693;    1,096;    1,682
351,540; 9893,081;   -0,358;   -1,409
352,134; 9799,205;    1,096;    1,136
352,727; 9865,389;   -0,086;    1,136
353,320; 9639,345;    0,005;    0,591
353,913; 9515,943;   -1,995;    1,864
354,507; 9706,960;    0,823;   -1,227
355,100; 9701,212;    0,460;    0,864
355,693; 8958,175;    2,005;    2,409
356,286; 8993,747;    0,823;    2,773
356,879; 9338,454;   -0,722;    1,227
357,472; 8934,223;   -0,904;    1,500
358,065; 9180,409;   -0,722;    2,500
358,658; 9058,450;   -0,540;    2,318
359,251; 8700,003;   -1,631;   -0,591
359,844; 8192,580;   -1,904;   -1,136
360,437; 8381,096;   -2,995;    0,045
361,030; 8634,517;    1,369;   -0,682
361,623; 8199,273;    2,824;    0,318
362,215; 8303,066;   -0,086;    2,045
362,808; 8105,178;   -2,358;   -1,682
363,401; 8303,578;   -2,449;    0,136
363,994; 8038,333;   -0,631;   -1,500
364,586; 7942,356;    0,824;   -1,500
365,179; 8187,507;   -0,449;   -1,136
365,772; 7661,074;   -1,995;    2,045
366,364; 7959,027;    1,915;   -3,227
366,957; 8140,505;    2,279;   -0,045
367,549; 8184,313;    2,188;   -0,864
368,142; 7809,591;    1,825;   -1,500
368,734; 8021,086;    0,734;   -2,136
369,327; 7961,566;    1,643;   -0,500
369,919; 7891,057;   -1,538;    0,409
370,512; 7676,014;   -1,083;   -0,500
371,104; 7435,595;   -0,901;    1,591
371,696; 7635,911;    1,191;   -0,955
372,289; 7718,481;    0,373;    1,136
372,881; 7877,241;   -2,080;    1,318
373,473; 7793,012;   -2,170;    1,136
374,066; 7574,684;   -0,169;    0,500
374,658; 7423,352;    0,378;    1,136
375,250; 7773,240;    0,653;   -1,409
375,842; 7610,665;    0,473;   -0,045
376,434; 7505,328;   -0,435;   -0,409
377,026; 8067,320;    0,204;   -2,500
377,618; 7976,926;   -0,158;   -0,682
378,210; 7805,178;   -0,338;   -1,955
378,802; 7655,962;    0,754;   -0,591
379,394; 7649,542;    1,846;    0,682
379,986; 8233,991;    1,393;   -0,955
380,578; 8334,499;   -0,153;    0,773
381,170; 7669,229;   -0,972;    0,045
381,762; 7637,219;    0,755;    1,409
382,354; 7805,756;   -0,065;   -1,318
382,945; 7936,789;   -2,976;    0,318
383,537; 8105,769;   -2,705;   -1,955
384,129; 8100,600;   -2,160;   -1,136
384,721; 8291,856;   -0,252;    0,955
385,312; 8193,749;   -0,161;   -0,955
385,904; 8283,978;   -2,706;    1,591
386,496; 7642,042;   -0,979;    1,045
387,087; 7810,923;    1,022;    2,500
387,679; 7846,368;   -1,160;    0,045
388,270; 8003,926;    2,840;    2,045
388,862; 8116,467;    1,295;   -0,318
389,453; 8021,069;   -0,887;    1,045
390,045; 8309,583;   -0,705;   -2,682
390,636; 8193,367;    0,204;   -0,591
391,227; 8060,484;   -0,523;   -0,045
391,819; 8160,907;    0,204;    0,773
392,410; 8255,049;    1,022;    0,045
393,001; 8180,416;   -0,979;   -1,591
393,593; 8450,227;    1,930;   -0,045
394,184; 8335,696;    1,385;   -0,409
394,775; 8249,822;    1,839;    2,136
395,366; 8453,575;    1,385;    0,773
395,957; 8453,724;    0,113;    0,136
396,548; 8756,631;   -0,342;    2,682
397,139; 9071,948;   -2,433;    0,591
397,730; 8814,809;   -1,888;    0,955
398,321; 8844,528;   -1,252;    0,955
398,912; 8891,406;   -0,615;    0,136
399,503; 8932,612;   -3,524;   -1,409
400,094; 8372,881;    0,294;    1,682
400,685; 8236,455;   -0,433;    0,045
401,276; 8315,337;    0,930;   -0,955
401,867; 8631,402;   -0,888;    0,773
402,458; 8705,571;   -2,251;   -2,318
403,048; 8701,790;    1,112;    0,591
403,639; 8299,956;    0,840;    0,864
404,230; 8561,556;    2,476;    0,318
404,821; 8516,067;   -0,615;    0,045
405,411; 8638,978;    1,203;   -2,591
406,002; 8209,556;   -1,252;   -1,136
406,592; 8050,460;    2,294;    0,045
407,183; 8362,696;    0,566;   -1,500
407,774; 8291,438;    3,475;   -0,136
408,364; 8621,285;    0,930;    0,409
408,954; 8231,655;    0,384;    1,227
409,545; 8255,281;    1,021;    1,045
410,135; 7791,377;    1,293;    0,500
410,726; 7974,309;    1,838;    0,318
411,316; 8342,698;    0,111;    0,773
411,906; 7992,897;   -0,253;   -0,409
412,497; 7479,528;   -1,070;   -0,045
413,087; 8102,416;   -1,980;   -0,227
413,677; 8480,795;   -0,707;    3,864
414,267; 8330,931;    0,656;    1,409
414,857; 8347,406;   -2,980;    4,227
415,448; 8622,283;    0,839;    0,500
416,038; 8305,786;    0,020;   -0,591
416,628; 8271,875;   -0,889;    0,409
417,218; 7740,528;    0,565;    3,318
417,808; 8001,822;    0,202;   -0,409
418,398; 8449,311;    0,020;    2,682
418,988; 8477,570;    2,020;    0,591
419,578; 8744,602;   -0,707;    1,409
420,168; 9067,631;   -1,343;   -0,955
420,757; 8663,223;   -1,343;   -1,500
421,347; 8313,827;    0,111;   -0,227
421,937; 8496,212;    2,292;    1,409
422,527; 8455,802;    0,838;   -0,773
423,116; 8260,612;   -0,253;   -0,045
423,706; 8556,989;   -1,889;    0,318
424,296; 8562,618;    1,384;    0,682
424,885; 8976,437;   -0,071;   -3,045
425,475; 9252,761;    1,474;   -2,864
426,065; 9157,422;   -0,980;   -0,318
426,654; 8780,354;   -0,435;   -0,318
427,244; 8917,806;    0,020;    1,409
427,833; 8364,146;    1,383;   -0,500
428,423; 8841,466;   -0,526;    1,136
429,012; 9601,377;   -0,344;   -1,136
429,601; 9096,366;   -1,344;    0,136
430,191; 9309,762;    1,292;    4,318
430,780; 8941,987;   -0,344;   -0,409
431,369; 8871,642;    0,746;   -0,045
431,959; 9467,782;   -1,254;    0,500
432,548; 9299,005;   -1,163;   -0,045
433,137; 9402,683;   -1,254;   -1,318
433,726; 9919,743;    0,292;    0,500
434,315; 9247,470;   -0,526;    2,409
434,905; 9350,912;   -1,254;    1,409
435,494; 9236,511;    0,746;    0,955
436,083; 9688,274;   -0,981;   -0,955
436,672; 9592,498;    0,110;    0,500
437,261; 9111,451;    0,292;   -1,955
437,850; 9250,112;    1,383;    0,682
438,439; 9245,845;    3,291;    1,955
439,027; 9077,236;    3,655;    1,773
439,616; 9395,882;    2,927;    1,227
440,205; 9222,785;    0,200;   -2,136
440,794; 9364,445;    2,109;   -0,045
441,383; 9616,045;   -1,346;   -0,591
441,971; 9445,031;   -2,436;    0,591
442,560; 9285,145;    0,563;   -1,773
443,149; 9034,695;    0,379;   -1,318
443,737; 9169,166;   -0,074;   -2,318
444,326; 9424,338;    0,018;    0,318
444,915; 9466,624;   -1,982;    0,864
445,503; 9849,405;   -2,891;   -0,318
446,092; 9111,250;    0,382;    2,136
446,680; 9643,757;    0,382;    0,318
447,269; 9802,574;   -0,346;   -0,318
447,857; 9551,371;    0,018;   -1,773
448,445; 9653,790;    0,563;    1,318
449,034; 9857,983;   -1,528;   -1,136
449,622; 9971,350;   -1,073;    3,500
450,210; 9216,771;    2,017;    2,227
450,799; 9776,795;    0,290;   -0,591
451,387; 9693,945;    1,381;   -0,591
451,975; 9343,907;    2,654;    0,864
452,563; 9431,904;    3,472;    2,318
453,151; 9444,550;   -0,528;   -1,227
453,739; 9391,114;   -1,347;    0,136
454,328; 9223,220;    2,381;   -2,136
454,916; 8973,034;    2,562;   -0,136
455,504; 9136,195;    1,017;    1,227
456,092; 9267,000;    0,017;   -1,591
456,679; 9255,342;    1,472;    0,682
457,267; 9209,593;    4,017;    1,045
457,855; 9337,694;    1,017;    1,409
458,443; 9080,868;   -0,165;    1,682
459,031; 9232,271;    0,108;    2,409
459,619; 9670,467;   -1,801;    2,864
460,206; 9789,711;    0,835;    2,045
460,794; 9856,427;   -2,983;   -0,227
461,382;10106,835;   -0,529;   -0,864
461,970; 9686,499;    1,198;    1,864
462,557; 9686,251;   -0,711;   -0,682
463,145; 9905,364;   -3,165;   -1,682
463,732;10048,838;    2,016;   -1,045
464,320; 9971,316;   -0,075;   -3,045
464,907; 9589,617;    2,743;   -0,773
465,495; 9498,296;    0,743;   -1,227
466,082; 9666,337;   -1,984;   -0,045
466,670; 9551,714;   -2,529;    1,227
467,257; 9943,658;   -1,711;    2,045
467,844;10061,175;   -0,075;    0,045
468,432;10118,947;    0,834;    3,500
469,019; 9571,467;    0,925;   -1,773
469,606;10060,471;    0,470;    3,682
470,193; 9868,655;   -1,439;    0,227
470,780; 9467,887;   -2,075;    0,864
471,368; 9799,890;   -1,257;   -0,773
471,955; 9582,949;    1,379;   -0,682
472,542; 9233,252;    0,652;   -1,136
473,129; 9443,211;   -0,166;    0,136
473,716; 9167,338;    1,470;    0,591
474,303; 9359,526;    0,652;   -0,864
474,890; 9663,993;   -1,439;   -0,500
475,477; 9672,733;   -1,621;    0,409
476,064; 9519,651;    1,106;   -1,591
476,650; 9474,744;    0,288;    0,318
477,237; 9288,289;   -0,258;    0,955
477,824; 9444,068;   -1,076;    0,864
478,411; 9398,691;   -1,894;   -0,318
478,997; 9589,316;    0,560;   -0,773
479,584; 9653,933;    1,196;   -0,409
480,171;10318,983;   -0,440;   -0,773
480,757; 9966,471;    2,651;    0,773
481,344;10221,685;    0,469;    0,409
481,931; 9717,661;    1,105;    1,045
482,517;10715,725;   -1,258;    0,318
483,104;11295,993;    1,106;    2,864
483,690;11503,730;   -1,804;    0,045
484,276;11751,383;   -0,895;    0,227
484,863;11499,066;    2,469;    1,136
485,449;12071,172;   -0,077;    0,318
486,035;11999,218;   -1,986;   -0,136
486,622;12428,418;   -0,895;    0,045
487,208;12347,617;    1,378;    1,500
487,794;12169,259;    0,741;    0,318
488,380;12288,287;    0,105;   -1,409
488,967;12371,876;   -1,168;   -0,409
489,553;12418,307;   -1,895;   -1,409
490,139;12610,555;    1,559;    0,773
490,725;12027,572;    0,741;   -0,227
491,311;11587,250;    3,287;    3,045
491,897;10961,988;   -0,986;    1,500
492,483;10863,047;    0,105;    1,227
493,069;10794,243;    3,923;    0,864
493,655;10767,158;    1,650;    0,682
494,241;10671,291;    1,377;   -0,955
494,826;11101,849;    0,287;   -1,045
495,412;10606,334;    2,559;   -0,682
495,998;10758,147;   -0,805;   -0,318
496,584;10940,224;    0,377;    1,045
497,169;10961,231;    1,014;   -0,682
497,755;10930,414;    0,650;    1,227
498,341;11531,136;    0,559;    0,318
498,926;11174,615;    1,832;    1,955
499,512;11337,100;    1,286;    2,955
500,097;11513,801;    0,195;   -0,318
500,683;11506,033;   -0,350;    2,136
501,268;11879,616;   -0,169;   -0,955
501,854;11654,626;   -0,169;    1,227
502,439;11641,905;   -0,624;   -1,773
503,024;11890,077;    0,195;    0,500
503,610;11960,825;   -0,078;   -0,682
504,195;12000,531;    0,558;    1,955
504,780;12155,085;    2,922;    1,227
505,366;12029,519;    3,013;    2,864
505,951;11798,778;    0,740;    1,045
506,536;11850,607;   -3,260;   -3,682
507,121;11864,233;    0,285;   -0,318
507,706;12465,971;    2,376;    1,045
508,291;12913,781;    2,649;    1,136
508,876;12361,002;   -0,988;    2,591
509,461;11854,203;   -0,169;   -0,773
510,046;12323,493;    0,194;    0,318
510,631;12566,889;   -0,351;   -0,773
511,216;12240,088;    2,467;   -0,500
511,801;12640,586;   -0,442;    2,591
512,386;12978,249;    0,740;    0,500
512,971;12940,072;   -2,988;    0,955
513,555;12543,430;   -0,897;   -1,500
514,140;13322,667;   -0,442;   -3,136
514,725;13341,837;   -0,715;   -1,136
515,309;13470,998;   -0,533;    0,318
515,894;12923,418;   -0,624;   -2,227
516,479;13372,271;   -0,624;   -0,955
517,063;13275,058;    0,376;    1,227
517,648;13424,253;    1,012;   -1,136
518,232;13083,272;   -0,261;   -1,409
518,817;13439,066;   -0,079;    1,682
519,401;13711,286;    2,194;    0,591
519,985;13174,531;    1,103;    1,136
520,570;13029,080;    0,830;   -1,955
521,154;13317,369;    2,102;    0,591
521,738;13519,284;   -2,352;    2,409
522,323;14101,076;   -0,170;    1,682
522,907;13798,424;    0,466;   -0,136
523,491;13597,161;    0,557;    0,955
524,075;13553,591;    2,284;    0,591
524,659;13641,019;    1,466;    0,591
525,243;13105,700;    1,739;    0,409
525,827;13360,836;    0,648;   -0,045
526,411;14210,473;   -1,989;   -0,136
526,995;14435,567;   -0,352;    1,409
527,579;14033,604;   -0,443;   -1,045
528,163;14328,054;    0,375;   -1,500
528,747;14275,946;    2,466;   -0,773
529,331;14586,688;   -0,080;   -1,409
529,915;14814,093;    1,738;    0,955
530,499;14760,516;   -0,807;    1,227
531,082;14461,233;   -0,534;    1,591
531,666;13871,357;    1,374;    0,773
532,250;14532,467;    1,284;    2,682
532,833;14867,127;    0,920;    2,773
533,417;14725,256;   -1,807;    0,864
534,001;14748,898;    1,647;   -0,318
534,584;15425,002;    0,374;    0,500
535,168;15245,995;    0,465;    1,409
535,751;15381,028;    0,647;    0,045
536,334;14790,332;   -0,898;   -0,409
536,918;15318,081;    0,011;    1,591
537,501;15491,583;   -0,899;    1,318
538,085;15500,789;   -0,444;    1,045
538,668;15652,947;    0,829;    2,409
539,251;15987,468;    1,829;    3,773
539,834;16009,999;    0,101;    0,773
540,418;15960,854;   -1,990;    4,318
541,001;16066,523;   -0,990;    1,773
541,584;16019,653;    2,101;    2,227
542,167;15716,263;    1,374;    2,955
542,750;15860,599;    1,919;   -0,773
543,333;15460,499;    0,555;    2,136
543,916;16250,455;    0,192;    2,500
544,499;16916,730;   -1,354;    0,227
545,082;16918,164;    1,374;    3,591
545,665;17041,440;    1,919;    1,500
546,248;17397,863;    1,010;   -0,318
546,830;17016,723;   -0,445;    1,955
547,413;17445,862;    1,010;   -0,773
547,996;17949,239;    0,555;    0,500
548,579;17753,721;    0,919;    0,955
549,161;17558,881;    1,828;    2,682
549,744;17323,909;   -0,809;    0,409
550,326;17825,552;   -0,809;   -1,136
550,909;17661,205;    2,737;    0,591
551,492;18011,349;   -0,263;    0,227
552,074;17768,355;   -0,173;   -1,318
552,657;18363,691;    2,373;    0,045
553,239;18135,981;   -0,173;   -0,773
553,821;18028,366;   -1,082;    1,045
554,404;17536,474;    1,282;    1,136
554,986;17892,424;    0,464;    1,045
555,568;18486,623;    1,191;   -0,955
556,151;17758,508;    1,191;   -0,227
556,733;17904,316;   -0,264;   -0,864
557,315;18430,972;    0,100;    0,500
557,897;18211,563;    0,554;   -0,500
558,479;18302,056;   -1,991;    1,318
559,061;18474,250;   -0,719;   -0,864
559,643;18832,443;   -0,264;    0,045
560,225;19189,239;    1,645;    2,864
560,807;19177,262;    0,918;    0,318
561,389;18657,069;    0,554;    2,318
561,971;19446,564;    0,463;    2,136
562,553;19243,831;   -1,628;    1,591
563,135;19386,852;   -0,537;    1,136
563,717;18990,544;    3,372;    1,136
564,298;19704,156;    3,645;   -0,045
564,880;19433,091;    0,645;   -1,409
565,462;19584,182;    0,645;    1,318
566,043;20761,917;   -0,446;    2,318
566,625;20289,914;    1,918;    1,227
567,207;20165,703;    1,099;    1,682
567,788;21309,266;   -1,264;    1,500
568,370;22103,775;    1,917;   -0,500
568,951;21977,168;    0,190;    0,227
569,533;22865,369;   -0,628;   -0,500
570,114;23291,525;   -0,446;    0,682
570,695;23835,660;   -0,174;   -1,318
571,277;24361,701;   -0,265;   -1,682
571,858;25154,244;    2,008;   -1,136
572,439;26005,531;    1,554;   -1,045
573,021;26144,018;    2,099;   -2,773
573,602;26675,882;   -1,265;    0,318
574,183;27622,350;   -2,083;    2,227
574,764;27724,399;   -1,629;    0,409
575,345;28295,346;    0,917;   -0,136
575,926;28901,442;   -0,356;    0,136
576,507;28863,242;    1,099;   -0,227
577,088;29901,120;    3,099;    1,682
577,669;29971,609;    0,735;    1,955
578,250;30787,532;    0,644;   -1,045
578,831;31501,890;   -1,356;   -2,227
579,412;31733,584;   -0,810;    0,955
579,993;32498,563;    1,008;    0,227
580,573;32791,052;   -0,629;   -0,955
581,154;31789,371;    0,735;   -0,591
581,735;32778,665;    0,644;    0,773
582,315;32242,301;   -0,629;    2,136
582,896;32492,672;   -0,174;    1,227
583,477;31863,300;    0,189;    1,227
584,057;32121,713;    0,553;    0,955
584,638;32427,017;    2,553;    2,318
585,218;32454,706;   -0,538;    2,682
585,799;32558,438;    0,281;   -0,227
586,379;32499,484;    0,372;    1,591
586,959;31172,595;    0,735;    0,318
587,540;30503,058;   -0,629;    2,227
588,120;30106,914;    1,007;   -0,045
588,700;29113,684;    2,553;    2,136
589,281;29405,899;    0,462;   -0,955
589,861;29414,133;    0,099;   -1,682
590,441;29181,542;    2,371;   -2,682
591,021;28140,014;   -0,265;   -2,591
591,601;28400,218;   -0,537;    0,500
592,181;28395,690;   -0,719;   -0,773
592,761;27652,254;    0,007;    1,409
593,341;27577,105;   -0,901;    0,045
593,921;27629,089;   -0,265;    1,591
594,501;27530,808;   -0,538;    1,318
595,081;27310,295;    0,917;   -0,318
595,661;27682,120;   -1,447;    0,955
596,240;28259,250;   -0,537;    0,136
596,820;27956,579;    0,372;    1,955
597,400;28102,959;    2,008;    0,773
597,980;28282,799;    2,008;    1,045
598,559;28296,585;    2,735;   -0,227
599,139;28006,242;   -0,174;   -1,227
599,718;27939,969;   -0,174;   -0,409
600,298;28208,798;    0,735;    0,682
600,877;28438,809;    2,917;    1,409
601,457;28669,866;    2,281;    1,136
602,036;28580,124;    0,190;    2,045
602,616;28796,614;    0,644;    1,682
603,195;29145,226;   -0,355;    3,500
603,774;28677,943;   -0,901;    2,045
604,354;28534,736;    0,826;   -0,500
604,933;28026,481;    0,463;    1,864
605,512;28124,715;    3,554;    0,591
606,091;28197,171;   -0,537;    3,773
606,671;29060,656;    0,281;    0,773
607,250;28158,845;    1,644;    3,136
607,829;28392,129;    2,372;    3,227
608,408;28199,223;    1,190;    2,591
608,987;27184,662;    1,281;    3,409
609,566;27535,850;   -1,265;   -2,500
610,145;27607,371;   -1,082;    0,682
610,723;28006,508;    4,372;    6,864
611,302;27320,631;   -0,446;    1,682
611,881;26838,295;    5,008;   11,227
612,460;27695,819;    1,645;    3,955
613,039;28065,963;   -0,082;    2,045
613,617;26776,538;    1,736;    4,773
614,196;26988,123;    1,099;    1,227
614,775;27338,016;    1,009;    2,409
615,353;27287,947;    0,736;    0,864
615,932;27062,653;    0,100;    2,409
616,510;27575,467;    0,554;    0,591
617,089;27121,086;    7,100;   17,591
617,667;26874,293;    2,372;    6,136
618,246;26745,828;   -1,537;    1,318
618,824;26868,810;   -3,355;   -0,955
619,402;26418,723;   -2,900;   -1,773
619,981;26946,224;   -0,173;   -1,045
620,559;26745,525;    0,009;    1,682
621,137;26307,059;   -0,718;    1,864
621,715;26372,377;   -1,173;   -0,682
622,293;26232,297;   -0,537;   -0,773
622,871;26661,063;   -0,718;    0,500
623,450;26241,256;    0,373;   -0,864
624,028;26165,735;    0,191;   -0,955
624,606;25791,637;   -1,718;    1,682
625,183;26185,194;   -1,536;   -1,136
625,761;25825,009;    1,009;    1,136
626,339;26149,168;    1,373;    2,591
626,917;26501,391;   -0,172;   -0,045
627,495;26550,705;   -0,354;    1,318
628,073;25973,049;   -0,263;    2,864
628,650;25670,191;    0,100;    2,136
629,228;26094,001;    0,373;    4,409
629,806;25490,561;    2,282;    1,136
630,383;25710,108;    1,464;   -0,318
630,961;25564,138;    2,555;   -0,955
631,539;25298,433;    2,464;    0,227
632,116;24696,593;   11,373;   15,409
632,694;25205,114;    2,555;    6,500
633,271;25562,854;    0,828;    2,682
633,848;25491,902;    1,828;    2,045
634,426;25517,242;   -1,081;    1,773
635,003;24605,632;    1,101;   -0,409
635,580;24965,891;    1,192;    3,682
636,158;25504,138;    3,737;    1,227
636,735;25443,067;    0,555;   -0,500
637,312;25608,070;   -0,809;   -0,682
637,889;25730,648;   -4,354;   -0,682
638,466;25152,325;   -3,990;   -0,409
639,043;25198,347;    2,101;   -1,136
639,620;25509,676;   -2,262;   -0,955
640,197;25846,799;    1,100;    1,682
640,774;25969,580;   -0,172;    1,136
641,351;26365,907;    0,737;    1,136
641,928;25798,142;   -0,627;    1,409
642,505;25435,469;    0,828;   -0,500
643,082;25515,523;   -1,718;    1,227
643,658;24577,031;   -0,718;    1,500
644,235;25332,267;    1,191;    2,500
644,812;25660,230;    1,918;    0,773
645,388;25331,829;   -0,991;    1,409
645,965;25438,974;   -0,809;    1,682
646,542;25496,937;   -1,445;   -0,227
647,118;25452,354;    1,009;   -0,955
647,695;25795,408;   -0,263;    1,136
648,271;25679,462;   -0,536;    0,500
648,848;26027,970;    0,736;    2,227
649,424;25872,388;    0,827;    1,318
650,000;25634,896;   -0,354;   -1,045
650,577;25458,950;   -0,627;   -0,955
651,153;25915,276;   -1,809;    0,955
651,729;26947,694;    1,191;    0,864
652,305;27462,839;    0,645;    2,773
652,881;32624,438;   -0,082;    1,136
653,458;39468,128;    1,100;    0,227
654,034;42813,818;    0,282;    1,591
654,610;44016,236;    0,554;    0,773
655,186;45237,381;    0,645;    3,045
655,762;44826,253;   -0,991;    0,409
656,338;44843,579;    0,100;    0,136
656,913;45764,997;   -0,082;    0,409
657,489;45019,414;    0,827;   -0,318
658,065;44989,922;   -0,173;   -1,591
658,641;45595,704;   -0,900;   -0,864
659,217;44853,848;   -0,991;    0,409
659,792;44222,811;    0,645;   -0,409
660,368;44419,320;   -2,173;   -0,682
660,944;43830,464;   -2,082;    1,227
661,519;38639,882;   -0,628;    0,409
662,095;32785,208;   -1,719;    0,591
662,670;28698,171;    1,281;   -0,136
663,246;27761,043;    1,009;   -0,409
663,821;27184,370;    0,281;    1,682
664,396;26659,787;    0,009;    1,864
664,972;26961,932;    0,009;   -0,500
665,547;27243,350;    1,372;    0,136
666,122;27305,040;   -1,082;    0,318
666,698;27584,275;   -0,173;    0,318
667,273;26968,602;   -0,173;    0,136
667,848;27745,110;    2,372;    1,500
668,423;27555,164;    2,190;    2,318
668,998;28111,673;    2,827;   -0,682
669,573;28628,272;   -3,264;   -1,500
670,148;28449,053;   -1,446;   -0,682
670,723;28259,471;   -1,810;    0,318
671,298;28656,161;    2,372;    1,045
671,873;28781,851;   -0,082;   -0,136
672,448;28751,359;    0,645;    0,136
673,023;29094,322;   -1,992;   -0,227
673,597;29396,285;    0,827;    2,318
674,172;29181,157;   -0,355;    0,318
674,747;28647,302;    0,372;   -1,045
675,321;28422,901;   -0,628;    3,318
675,896;28051,773;    0,645;    1,045
676,471;29061,191;    2,645;    1,591
677,045;28807,881;   -1,264;    0,682
677,620;28910,207;    0,190;    1,136
678,194;29226,261;   -2,628;    1,136
678,769;28792,588;   -1,083;   -0,318
679,343;29037,733;   -0,628;    1,773
679,917;28910,423;   -1,446;    1,955
680,492;29001,931;    0,826;    3,227
681,066;29145,349;    3,372;    0,409
681,640;29156,312;    1,463;   -0,318
682,214;29999,729;    0,735;    0,500
682,788;29538,419;   -1,356;   -0,773
683,363;29448,291;   -1,810;    1,682
683,937;29113,163;   -1,719;   -0,318
684,511;29924,672;    0,463;   -0,591
685,085;29625,998;   -1,356;    0,318
685,659;29352,598;   -2,538;    0,864
686,232;29614,651;   -0,356;   -0,318
686,806;29299,342;   -0,901;    0,409
687,380;30021,577;   -0,174;    0,591
687,954;30208,177;   -1,174;    1,136
688,528;29933,230;   -0,719;    1,955
689,101;30682,557;   -3,992;    1,045
689,675;30229,702;   -0,356;   -0,136
690,249;29656,756;   -0,719;    0,409
690,822;29927,082;    0,280;    0,318
691,396;30026,591;   -0,265;    1,227
691,969;29494,372;    1,280;    0,136
692,543;29924,153;   -0,447;   -1,955
693,116;29562,752;   -0,265;   -1,409
693,690;29450,170;    0,099;    0,500
694,263;30009,678;   -1,083;    2,955
694,836;30085,186;    1,371;    3,591
695,410;28748,149;   -0,265;    1,773
695,983;29138,112;    0,189;    0,591
696,556;29124,075;   -0,447;   -1,045
697,129;29497,402;   -0,356;    1,409
697,703;29207,819;   -1,629;    1,955
698,276;29118,691;    1,462;   -0,773
698,849;28986,836;    1,280;    1,409
699,422;29378,253;   -1,083;    0,591
699,995;29003,853;    0,007;    0,136
700,568;29556,270;   -0,629;    3,045
701,140;29527,233;   -2,811;    1,682
701,713;29253,923;   -0,174;    2,409
702,286;29039,704;   -0,538;    0,864
702,859;28905,485;   -0,902;   -0,591
703,432;28103,903;    0,825;    0,682
704,004;28539,866;    0,462;    0,318
704,577;28435,102;   -0,629;    0,136
705,150;29067,610;    0,189;    2,500
705,722;28786,936;   -0,356;   -3,227
706,295;28546,990;   -0,175;   -0,591
706,867;28485,317;   -0,175;    1,955
707,440;28675,462;   -1,720;   -0,409
708,012;28892,879;    0,462;    0,591
708,584;28803,206;    2,462;    0,227
709,157;29088,441;    1,825;   -0,591
709,729;28711,950;    2,280;    2,045
710,301;29562,185;    0,734;    0,045
710,874;29600,966;   -1,447;   -0,227
711,446;28407,748;    0,371;    0,864
712,018;28393,256;    0,098;    0,500
712,590;28101,946;   -1,993;    1,682
713,162;28632,818;    0,825;    1,318
713,734;28844,690;    1,825;   -2,045
714,306;28753,744;   -1,902;   -0,409
714,878;27431,889;    0,825;    0,864
715,450;28245,034;    0,643;    0,864
716,022;28487,996;    1,552;    1,318
716,593;28669,868;    0,189;    0,591
717,165;28620,922;   -3,175;   -1,227
717,737;28343,976;    0,280;    0,409
718,309;27955,212;    0,280;   -0,045
718,880;27946,175;   -0,539;   -1,409
719,452;28169,865;   -0,175;   -1,591
720,024;27756,646;    0,734;   -0,591
720,595;28308,791;   -2,902;    0,955
721,167;27867,481;    0,370;   -2,045
721,738;27448,535;   -0,812;   -1,045
722,309;27407,952;   -0,993;   -1,227
722,881;27135,370;   -1,357;    0,773
723,452;27821,787;   -2,630;    2,864
724,023;27992,387;   -0,721;    2,682
724,595;27741,986;    0,007;    0,682
725,166;27549,312;    0,007;   -0,409
725,737;27183,821;    1,734;    0,227
726,308;27217,056;   -0,266;    0,318
726,879;27668,474;   -1,630;    1,227
727,450;27533,801;    0,552;   -0,045
728,021;27500,854;    3,097;    0,682
728,592;27272,090;    0,734;    0,500
729,163;27585,144;    0,643;   -0,136
729,734;27650,743;    0,188;   -0,227
730,305;28009,706;    1,734;    0,136
730,876;28332,851;    0,188;    2,955
731,447;28081,996;    2,188;    2,682
732,017;28183,231;    1,097;    1,864
732,588;27644,831;    0,734;    1,227
733,159;27838,793;    0,643;   -1,045
733,729;27607,029;    0,006;    0,409
734,300;26898,174;    0,915;    0,864
734,870;27351,410;    3,461;    0,591
735,441;27899,372;    0,370;   -0,591
736,011;27653,608;    0,643;   -1,591
736,582;27598,298;   -0,812;    0,045
737,152;27067,261;   -1,721;   -2,045
737,722;27472,497;   -0,267;   -0,682
738,293;27181,005;   -1,358;    1,318
738,863;27107,786;    2,461;    2,318
739,433;26926,931;    5,279;    0,318
740,003;27508,440;   -0,994;   -0,682
740,573;26928,312;    2,097;   -1,591
741,143;26880,638;   -1,085;    0,318
741,713;27663,056;    1,188;   -0,500
742,283;27392,200;    0,915;    1,591
742,853;27160,891;    1,915;    1,591
743,423;26557,944;    1,733;    0,045
743,993;26720,725;   -0,358;    1,500
744,563;26137,597;    0,097;   -0,864
745,133;26111,742;   -0,812;   -0,864
745,702;26775,887;   -0,267;    1,773
746,272;25943,032;   -0,176;    0,591
746,842;25711,176;   -1,358;   -0,591
747,411;26162,685;   -0,267;   -0,318
747,981;26327,921;    0,097;    0,500
748,551;26338,883;    2,278;   -1,045
749,120;26228,392;    0,642;   -0,227
749,690;26616,991;   -0,631;    2,409
750,259;26906,136;    1,369;    2,955
750,828;26846,917;    1,551;   -1,955
751,398;27062,062;    1,278;   -0,045
751,967;26639,479;    2,187;    0,409
752,536;26844,988;   -0,813;   -0,227
753,105;27284,405;    0,096;    0,227
753,675;27067,459;    0,096;    1,773
754,244;27047,513;   -0,904;    3,591
754,813;27039,657;    0,551;    1,227
755,382;26629,075;    0,460;    0,955
755,951;27214,038;    1,551;    3,682
756,520;26682,455;   -0,085;    1,864
757,089;27276,418;    0,278;    0,500
757,658;27442,199;    1,733;    1,227
758,227;27400,799;    1,096;    0,318
758,795;27675,762;    1,187;    1,136
759,364;27881,270;   -0,086;   -0,591
759,933;26902,960;   -1,176;   -0,045
760,501;26418,741;    0,733;   -1,318
761,070;26892,886;   -2,813;   -1,409
761,639;27613,940;   -1,904;    1,318
762,207;26999,266;    1,551;   -0,955
762,776;26939,775;    0,369;    0,864
763,344;26889,011;   -0,995;    0,591
763,913;25928,519;   -0,722;    1,409
764,481;26737,936;    1,005;   -0,136
765,049;26503,808;   -1,358;    1,409
765,618;26392,044;   -0,086;    0,318
766,186;26441,916;    0,278;    0,136
766,754;26685,061;    0,005;    1,864
767,322;25657,751;   -1,995;    0,409
767,890;25690,350;   -0,722;   -1,773
768,459;26079,586;   -2,177;   -0,318
769,027;26296,913;    1,641;    3,409
769,595;25253,966;    3,278;    2,591
770,163;25671,566;    3,823;    2,955
770,730;25447,620;    0,732;   -0,136
771,298;25286,401;    0,187;   -1,409
771,866;25335,273;   -1,541;    4,955
772,434;25716,236;   -0,631;   -1,864
773,002;25887,198;    0,005;    0,682
773,569;25522,071;    0,914;    1,682
774,137;25301,397;   -0,268;   -0,045
774,705;26068,542;    0,278;   -0,136
775,272;25602,959;    0,641;    0,682
775,840;25359,195;   -0,177;    2,682
776,407;24904,703;    0,277;    1,955
776,975;24507,484;   -0,632;    0,318
777,542;25478,993;   -1,086;   -0,045
778,110;25324,410;   -1,268;   -0,045
778,677;24986,646;   -2,359;   -0,864
779,244;24775,063;    2,186;    1,045
779,812;24900,845;    1,823;    0,864
780,379;24757,807;    0,005;    1,136
780,946;25034,316;    1,005;   -0,773
781,513;25306,642;   -1,450;    0,318
782,080;24710,696;   -0,086;    2,864
782,647;25459,477;   -0,268;    3,045
783,214;25014,713;   -0,177;    3,864
783,781;24598,221;   -0,723;   -0,682
784,348;24531,093;   -0,632;    1,500
784,915;24951,056;   -3,177;    0,318
785,482;24710,747;    1,368;    2,591
786,049;25119,800;    0,186;   -0,591
786,615;25231,854;    0,277;   -0,955
787,182;24949,817;    0,186;   -0,682
787,749;24655,507;   -2,814;    1,409
788,315;23993,652;   -1,632;   -0,409
788,882;24301,524;    1,550;   -1,227
789,448;25014,669;    1,732;   -0,955
790,015;24989,814;    1,095;    3,227
790,581;24607,049;    1,459;    0,227
791,148;24485,558;    0,641;    1,045
791,714;24658,702;   -0,541;    3,136
792,280;24351,393;    0,186;    1,591
792,847;23944,356;    0,550;    2,500
793,413;24492,137;   -0,269;   -0,318
793,979;24058,009;    3,459;   -1,318
794,545;24204,608;    4,459;    2,682
795,111;23543,298;    2,186;    1,318
795,678;23711,079;    0,731;   -1,682
796,244;23336,042;    3,368;    0,136
796,810;23859,369;    1,731;    0,773
797,375;23601,604;    0,549;   -2,136
797,941;23634,567;   -0,541;    0,591
798,507;23735,439;   -0,451;   -0,955
799,073;23272,948;   -0,360;    0,591
799,639;23391,729;   -2,632;    3,136
800,205;23368,419;    0,095;    2,682
800,770;22947,473;    0,640;    1,773
801,336;23063,618;    1,368;   -0,955
801,901;22785,399;    4,549;    3,136
802,467;23335,634;   -0,542;    2,045
803,033;22640,506;   -0,087;    0,864
803,598;22844,197;    1,913;   -1,045
804,163;22878,614;    1,095;   -0,318
804,729;22876,941;   -0,178;    1,136
805,294;23257,176;    0,822;    2,227
805,859;23062,503;    0,731;   -0,409
806,425;22582,739;    1,186;    2,682
806,990;22208,974;    2,186;    4,318
807,555;22673,028;   -1,451;    2,591
808,120;22562,446;    0,822;   -0,409
808,685;22579,499;    0,185;   -2,500
809,250;22142,099;    0,004;   -0,500
809,815;22374,062;    1,913;    0,682
810,380;22976,661;   -0,269;    1,591
810,945;23582,169;   -1,087;    2,045
811,510;22683,678;    2,094;    1,591
812,075;22374,186;   -0,633;   -1,409
812,640;22423,967;    2,003;    1,409
813,204;22465,930;    0,822;   -0,227
813,769;22972,075;    2,094;   -0,045
814,334;22364,038;    0,458;    0,864
814,898;22431,273;    0,367;    0,591
815,463;22276,873;    1,276;   -0,773
816,027;22264,290;   -0,724;   -2,318
816,592;22302,344;    0,640;   -2,045
817,156;21842,034;    2,094;    1,136
817,721;21723,997;    4,276;    2,318
818,285;21689,233;    2,912;    1,500
818,849;22313,196;   -1,451;    1,682
819,414;22193,068;   -0,269;    2,955
819,978;21754,213;   -1,269;    1,773
820,542;22364,994;    2,003;    0,500
821,106;22066,957;   -0,815;    0,682
821,670;22133,192;   -0,815;    2,591
822,234;21854,701;   -0,270;    1,409
822,798;21264,300;    0,003;    0,500
823,362;21253,536;   -0,633;    4,227
823,926;20573,226;    0,094;    1,136
824,490;20789,643;   -0,997;   -0,682
825,054;21243,697;   -0,088;   -1,136
825,618;20875,660;   -1,542;   -1,500
826,181;20821,441;    0,458;   -1,318
826,745;20769,586;    1,367;   -1,045
827,309;21095,185;    1,185;    1,318
827,872;20487,512;    1,367;    0,955
828,436;21464,202;    1,185;   -0,773
828,999;21468,165;   -0,997;    1,227
829,563;20304,855;   -0,179;    1,136
830,126;20121,727;   -0,179;   -0,591
830,690;20139,417;   -1,997;    2,864
831,253;19693,380;   -0,543;    2,227
831,816;19829,434;   -1,906;    0,500
832,380;19731,852;    0,185;    0,864
832,943;19966,178;   -1,361;   -0,500
833,506;19419,959;    2,639;   -1,227
834,069;20205,013;    3,912;   -0,955
834,632;20272,340;    1,730;    1,318
835,195;20193,666;    1,003;    0,955
835,758;19361,993;   -0,997;    1,955
836,321;19235,047;    0,730;   -1,045
836,884;19303,828;   -0,725;   -0,955
837,447;19353,791;   -2,816;    1,773
838,010;19650,481;    0,366;    3,227
838,573;19919,444;   -1,179;    0,773
839,135;19874,225;   -1,361;   -0,955
839,698;19361,279;    1,275;    0,409
840,261;18848,605;    1,003;   -0,227
840,823;18676,114;   -0,543;    0,864
841,386;18928,804;   -0,452;   -2,409
841,948;18838,130;   -1,361;    1,773
842,511;18563,912;    0,912;    1,682
843,073;18727,056;    1,912;    0,227
843,636;18504,292;   -0,361;   -0,227
844,198;18476,255;    0,911;    0,591
844,760;18639,400;    1,093;    1,955
845,322;18279,090;    0,548;    1,136
845,885;18689,053;    0,730;    0,591
846,447;19124,107;   -1,998;    0,227
847,009;18755,433;    1,911;   -0,682
847,571;19112,578;    0,820;   -2,045
848,133;19142,177;   -1,089;   -1,864
848,695;18923,231;   -0,543;    1,409
849,257;18498,830;   -1,089;   -1,682
849,819;18683,248;   -0,998;   -0,409
850,381;18727,665;   -0,725;   -0,864
850,942;19093,537;    1,093;   -0,591
851,504;19078,137;    1,184;    0,227
852,066;19110,827;    1,275;   -1,591
852,628;18609,699;   -0,180;    1,955
853,189;18145,934;    1,638;    2,682
853,751;18230,443;   -0,907;    1,409
854,312;18062,042;   -0,453;   -1,682
854,874;18568,187;   -2,089;   -0,773
855,435;19113,968;   -0,907;   -1,682
855,997;19283,022;   -1,816;   -0,136
856,558;18553,257;    0,366;    1,773
857,119;18634,675;    0,820;    2,864
857,681;18269,547;    0,002;    0,318
858,242;18371,510;    1,911;   -2,136
858,803;18794,382;    0,456;   -0,773
859,364;19340,799;    0,184;   -4,773
859,925;18716,035;   -2,453;   -0,955
860,486;18595,907;   -0,453;   -0,955
861,047;18337,143;   -0,544;   -1,227
861,608;18186,287;   -1,089;   -0,773
862,169;18250,432;    0,638;   -0,045
862,730;18040,668;    0,456;    1,409
863,291;18285,085;   -0,635;   -0,500
863,852;18675,048;   -0,635;    1,955
864,412;18102,920;   -0,271;   -0,864
864,973;16679,338;   -0,089;    0,500
865,534;16533,664;   -1,726;    0,227
866,094;18103,900;    1,820;    0,227
866,655;17757,408;    1,274;    3,318
867,215;18004,008;    0,274;    0,136
867,776;17825,789;    0,547;   -0,136
868,336;17963,024;   -1,453;    0,136
868,897;17443,987;    2,638;    1,682
869,457;17169,314;    1,365;    0,318
870,017;17380,641;    0,547;   -1,227
870,578;17907,603;   -0,817;    0,773
871,138;17540,930;   -2,089;   -0,955
871,698;17133,984;   -0,817;   -1,318
872,258;17009,129;   -0,453;   -2,864
872,818;17406,364;    2,729;    0,045
873,378;17359,145;    0,638;    1,045
873,938;16880,745;    0,547;    0,500
874,498;17213,071;    0,274;   -1,955
875,058;17137,489;    2,183;    1,773
875,618;16970,452;    1,910;   -2,682
876,177;16882,596;    1,274;    0,136
876,737;16499,377;   -0,090;    1,955
877,297;16553,068;    0,183;    1,955
877,856;16532,940;   -0,362;    0,318
878,416;16495,084;    1,183;   -0,136
878,976;16728,411;   -1,817;    0,409
879,535;16893,283;    0,092;    3,136
880,095;16608,064;   -0,544;    0,045
880,654;16750,118;   -1,090;    1,318
881,213;16849,445;    2,456;    1,500
881,773;16518,862;    2,637;    2,682
882,332;16870,643;    3,365;    5,136
882,891;16675,970;    3,092;    2,136
883,451;17151,478;   -1,272;    1,682
884,010;16565,532;   -2,908;   -0,409
884,569;16667,313;   -0,999;   -0,045
885,128;16849,458;    2,819;   -1,864
885,687;16888,603;    4,455;    0,682
886,246;16611,202;    1,455;    2,136
886,805;16408,983;    2,455;    2,045
887,364;16658,219;   -0,999;   -0,500
887,922;17007,545;   -1,181;    0,045
888,481;16538,872;   -1,545;    0,591
889,040;16815,380;    1,183;    2,136
889,599;17518,798;    2,455;    1,409
890,157;17552,942;    1,455;    2,409
890,716;17213,723;   -0,090;    0,227
891,274;17031,050;    0,092;   -1,136
891,833;17461,649;    1,546;    0,864
892,391;17358,249;   -0,454;    0,500
892,950;17408,484;    1,819;   -0,773
893,508;17791,720;    0,455;   -0,409
894,067;17150,956;    0,637;    0,136
894,625;17030,918;   -0,636;   -1,500
895,183;17267,063;   -0,363;   -0,682
895,741;17205,935;    1,728;   -1,773
896,299;17013,716;   -0,545;   -2,409
896,858;17149,679;    0,819;   -1,591
897,416;17277,460;    2,728;   -1,318
897,974;17013,696;    1,819;    0,318
898,532;17216,386;    6,091;    2,682
899,089;17166,622;    2,091;   -0,682
899,647;17144,585;   -1,454;    1,318
900,205;16868,639;    1,182;    1,045
900,763;17038,602;   -0,454;    0,227
901,321;17038,292;    2,364;   -1,409
901,878;16434,164;   -1,000;   -0,773
902,436;16348,945;   -1,363;    1,318
902,994;16781,635;    4,728;    3,682
903,551;16207,598;    0,728;    0,409
904,109;16548,470;    0,182;   -1,409
904,666;16148,706;    2,455;    1,045
905,224;16000,487;    0,182;   -0,409
905,781;15753,541;    0,727;   -0,318
906,338;15807,322;   -1,363;    1,045
906,895;15724,012;    0,637;    2,045
907,453;15675,702;    1,727;    1,136
908,010;15724,574;   -0,909;    0,409
908,567;15361,083;    1,273;    0,591
909,124;14844,773;    0,364;   -1,500
909,681;14937,372;   -2,909;    0,682
910,238;15083,699;    0,636;   -1,318
910,795;15374,571;   -0,273;   -1,136
911,352;15024,025;   -2,909;   -2,682
911,909;14418,843;   -1,364;   -0,864
912,466;14942,934;   -3,182;    1,500
913,022;14536,934;   -1,636;    0,500
913,579;14870,480;   -0,909;    2,045
914,136;14553,025;    1,636;    0,955
914,692;14861,207;    0,091;   -1,227
915,249;14468,480;    1,455;    0,409
915,806;14693,934;    0,182;    1,955
916,362;14487,753;    1,909;    1,864
916,918;14043,571;    2,000;    1,045
917,475;14037,571;   -1,182;    0,955
918,031;14077,843;    3,364;   -0,045
918,587;13550,298;   -0,909;   -0,318
919,144;13718,389;   -2,273;    0,227
919,700;14027,662;    1,727;    0,773
920,256;13596,116;    0,727;    0,045
920,812;13224,389;   -0,727;   -1,045
921,368;13235,389;   -1,727;   -1,045
921,924;12887,662;    0,182;   -0,136
922,480;12494,298;   -0,545;    1,227
923,036;13122,298;    1,273;    1,955
923,592;13007,389;    0,455;    0,318
924,148;12955,662;    0,455;   -0,955
924,704;12280,207;   -1,364;   -0,409
925,259;12528,662;   -0,273;    0,591
925,815;12307,934;    1,455;    0,500
926,371;11798,662;    2,909;    1,409
926,926;11693,571;    2,091;    0,591
927,482;11381,934;   -1,364;    0,773
928,037;11241,480;    0,909;    2,045
928,593;11540,480;    1,636;    1,045
929,148;11360,662;   -1,818;   -1,500
929,704;10836,662;   -1,455;   -0,500
930,259;11010,843;    0,091;   -0,136
930,814;10144,389;   -0,818;    1,955
931,369; 9796,843;    1,091;   -0,773
931,925; 9666,662;   -0,091;    0,136
932,480; 9576,025;   -2,818;   -2,591
933,035; 9497,207;    0,545;   -0,318
933,590; 9252,753;    0,364;   -1,773
934,145; 8877,480;   -1,364;   -0,318
934,700; 9195,298;    0,455;   -0,591
935,255; 9009,843;   -0,091;    0,045
935,809; 8320,662;    3,182;    0,864
936,364; 7428,207;   -0,455;   -0,136
936,919; 7400,389;    0,455;   -1,773
937,474; 7266,116;    1,455;    0,136
938,028; 7028,934;   -1,636;    1,136
938,583; 6528,571;    1,818;    4,682
939,138; 6767,843;    2,091;    2,136
939,692; 6219,571;    1,636;   -1,136
940,247; 5955,843;   -0,727;   -1,045
940,801; 5499,753;   -0,636;    0,227
941,355; 5363,116;   -0,364;    2,591
941,910; 5036,207;   -0,273;   -2,136
942,464; 5180,753;   -0,818;   -0,318
943,018; 4968,843;    1,000;   -0,227
943,572; 4923,298;    2,545;   -0,682
944,126; 4339,662;    0,091;   -0,409
944,681; 4236,571;    3,091;    0,227
945,235; 4207,934;    1,000;   -0,591
945,789; 4131,662;    0,364;   -1,864
946,342; 4251,298;    0,455;   -0,591
946,896; 4054,389;   -2,273;    0,955
947,450; 3809,207;    1,545;   -0,227
948,004; 4019,389;    1,727;   -0,045
948,558; 4007,389;    0,273;   -0,864
949,111; 3928,480;   -0,273;   -0,318
949,665; 3975,389;    1,636;   -0,682
950,219; 3844,753;   -0,091;   -1,045
950,772; 3923,298;   -1,909;    1,864
951,326; 3821,571;    0,545;   -0,955
951,879; 3927,025;    0,727;   -2,318
952,433; 3953,298;    0,000;    2,227
952,986; 3810,025;    2,909;    0,682
953,539; 3765,843;   -0,273;    0,591
954,093; 3651,116;    0,545;   -1,318
954,646; 3799,207;    0,909;    1,318
955,199; 3634,934;    0,000;   -0,500
955,752; 3513,753;   -0,455;    1,773
956,305; 3472,934;   -0,091;    2,955
956,858; 3639,389;    0,818;   -0,318
957,411; 3817,843;   -0,545;    2,136
957,964; 3639,843;    1,364;    2,136
958,517; 3636,207;   -1,545;    3,136
959,070; 3452,934;   -0,455;    1,955
959,623; 3534,934;    1,091;    1,500
960,176; 3298,116;    1,727;    2,045
960,728; 3302,116;   -2,727;    0,773
961,281; 3331,207;    0,545;    0,500
961,834; 3377,934;   -0,909;    0,864
962,386; 3295,298;    1,727;    1,045
962,939; 3211,116;    0,364;   -0,318
963,491; 3374,480;    0,455;    1,136
964,043; 3242,934;    1,182;    2,409
964,596; 3369,753;   -1,000;    2,227
965,148; 3188,753;   -1,000;    1,773
965,700; 3102,389;    1,091;   -0,227
966,253; 3269,662;   -0,636;    0,318
966,805; 3108,207;   -2,273;    0,773
967,357; 3168,116;    1,091;   -1,500
967,909; 3123,298;    0,455;   -1,227
968,461; 3216,298;    0,545;    3,136
969,013; 3156,116;   -0,182;   -0,864
969,565; 3246,116;   -0,455;   -1,136
970,117; 3320,571;   -0,364;    1,045
970,669; 3131,116;    0,182;   -0,136
971,220; 2996,843;   -0,455;   -1,500
971,772; 2931,207;   -0,636;   -0,318
972,324; 3050,116;    0,091;   -0,500
972,876; 2972,389;    0,818;   -0,045
973,427; 3128,571;    1,909;   -1,045
973,979; 3092,843;   -0,727;   -2,500
974,530; 3108,389;    1,818;    1,318
975,082; 3119,843;   -0,545;    1,682
975,633; 3026,662;    1,091;    1,682
976,184; 3185,480;    0,909;    0,773
976,736; 2960,662;    0,091;    0,227
977,287; 2777,207;   -0,909;   -0,500
977,838; 2944,298;    0,909;   -0,318
978,389; 3014,298;   -1,000;   -0,500
978,940; 2869,480;    0,545;   -0,409
979,491; 2902,662;    0,091;   -0,500
980,042; 2882,571;    0,182;    3,045
980,593; 2931,571;   -2,545;    0,227
981,144; 2976,298;    2,545;   -0,500
981,695; 2936,116;    1,455;    1,500
982,246; 2898,571;   -0,273;    1,045
982,797; 3053,480;   -1,727;    0,682
983,347; 3167,753;    0,364;    0,591
983,898; 3337,934;    3,091;    0,409
984,449; 3157,934;    2,182;    0,773
984,999; 3047,662;    1,455;   -1,136
985,550; 2821,480;    0,182;   -0,318
986,100; 2838,753;   -0,455;   -0,318
986,651; 2878,662;   -0,818;    0,045
987,201; 2867,298;   -1,000;   -0,591
987,751; 2944,480;    0,818;    2,864
988,302; 2954,389;    2,636;    1,500
988,852; 2973,480;    0,455;   -1,136
989,402; 3012,298;    0,091;    0,682
989,952; 2928,480;   -2,182;    0,864
990,502; 3023,571;   -0,091;    0,682
991,052; 2984,480;   -0,727;    0,045
991,602; 2866,207;   -2,909;    1,318
992,152; 2871,298;    0,455;    0,682
992,702; 2839,298;    1,364;   -0,045
993,252; 2759,753;   -3,000;   -0,500
993,802; 2863,389;   -0,273;    1,318
994,352; 3087,116;   -1,545;    1,136
994,901; 3165,662;   -0,182;    3,227
995,451; 3074,934;   -0,182;    0,318
996,000; 3171,025;    1,636;    0,318
996,550; 2877,662;    2,273;    0,227
997,100; 2874,480;    1,273;   -0,045
997,649; 3176,753;    2,182;    0,955
998,198; 2799,753;    1,727;   -1,500
998,748; 3009,207;    1,091;   -2,318
999,297; 2921,571;   -0,818;   -0,409
999,846; 2957,753;    1,000;   -0,773
1000,395; 3013,571;   -0,818;    0,500
1000,945; 2976,571;    1,818;   -0,773
1001,494; 3064,298;    2,364;    0,682
1002,043; 3056,116;    4,636;    0,864
1002,592; 2896,207;   -1,091;    1,955
1003,141; 3021,389;   -0,455;   -0,682
1003,690; 2893,298;    1,727;    0,500
1004,238; 2986,298;    1,455;   -0,045
1004,787; 2605,480;    1,364;    1,227
1005,336; 2847,025;    0,364;    0,682
1005,885; 2985,571;    1,364;   -2,773
1006,433; 3124,753;    0,545;    0,955
1006,982; 3200,025;    0,455;    1,682
1007,531; 3095,843;   -1,818;   -0,227
1008,079; 3039,025;   -2,273;    0,500
1008,627; 3165,207;   -1,455;    0,409
1009,176; 2897,934;    0,000;   -1,955
1009,724; 2955,389;    1,091;    0,864
1010,273; 3000,934;    1,273;    0,500
1010,821; 3117,843;    0,091;    1,409
1011,369; 2843,662;   -1,364;    1,318
1011,917; 2832,298;   -1,364;   -0,591
1012,465; 3112,662;    1,273;   -1,591
1013,013; 3215,389;    2,091;   -1,682
1013,561; 3113,207;    0,455;   -0,773
1014,109; 3170,753;   -1,909;    1,682
1014,657; 3047,753;    0,364;    0,591
1015,205; 3169,934;    1,636;   -0,955
1015,753; 3188,389;   -0,545;   -1,409
1016,301; 3228,753;   -2,636;    3,045
1016,848; 3220,298;   -1,273;    0,409
1017,396; 3252,934;    2,545;    0,045
1017,944; 3392,662;    1,182;    1,864
1018,491; 3144,753;    0,273;    1,409
1019,039; 3304,025;    0,455;    0,591
1019,586; 3210,571;   -1,364;    1,682
1020,134; 3306,025;    0,455;    1,500
1020,681; 3340,843;    0,182;   -1,136
1021,228; 3331,207;    2,909;   -2,227
1021,776; 3170,662;    1,182;   -1,136
1022,323; 3385,753;    0,455;    0,773
1022,870; 3327,843;   -1,000;   -0,045
1023,417; 3214,025;    2,636;    1,864
1023,964; 3357,934;    2,636;    1,227
1024,511; 3207,025;    1,000;    0,773
1025,058; 3008,025;    3,182;   -0,045
1025,605; 3070,025;   -2,273;    3,136
1026,152; 3282,207;    1,727;   -0,591
1026,699; 3005,843;    1,818;    1,318
1027,245; 3166,571;   -0,091;    0,318
1027,792; 3361,662;   -1,000;    1,409
1028,339; 3261,934;    2,364;   -0,045
1028,885; 3091,571;    1,000;   -0,227
1029,432; 3052,934;   -0,091;    0,227
1029,978; 3121,571;   -1,000;   -1,591
1030,525; 3028,389;    1,000;    0,409
1031,071; 3263,571;   -1,364;    1,136
1031,618; 3375,025;    0,364;    1,682
1032,164; 3144,934;   -0,091;    3,045
1032,710; 3188,934;    1,636;   -1,500
1033,256; 3101,207;   -0,636;   -0,136
1033,803; 3085,389;   -0,545;    1,500
1034,349; 2797,207;   -1,364;    0,136
1034,895; 2945,025;    0,000;   -0,318
1035,441; 2951,662;   -0,818;    0,318
1035,987; 2947,662;   -2,364;   -0,682
1036,533; 2942,934;   -1,455;   -0,955
1037,078; 3148,116;    1,455;    1,682
1037,624; 2960,480;    2,455;   -0,955
1038,170; 2988,662;    0,455;   -0,318
1038,716; 2907,571;    1,636;   -0,409
1039,261; 2810,662;   -2,273;   -0,773
1039,807; 2740,389;   -0,091;    3,409
1040,352; 2805,753;   -1,909;   -0,318
1040,898; 2854,571;   -1,545;   -0,682
1041,443; 2753,571;   -1,455;   -2,591
1041,989; 2786,843;    1,091;    1,591
1042,534; 2665,298;   -0,364;    2,591
1043,079; 2790,480;    2,909;    0,955
1043,625; 2593,571;    1,818;    0,500
1044,170; 2639,934;   -1,364;    1,045
1044,715; 2888,025;    2,455;    0,955
1045,260; 2692,662;    2,182;   -0,955
1045,805; 2737,753;    1,182;   -0,591
1046,350; 2669,753;    1,364;   -0,409
1046,895; 2638,389;    2,909;    1,591
1047,440; 2586,571;    5,364;    0,409
1047,985; 2469,298;    2,818;   -0,955
1048,530; 2387,298;    1,545;    1,227
1049,074; 2467,116;    0,000;    0,318
1049,619; 2424,389;   -1,364;    1,955
1050,164; 2232,298;    0,455;    0,227
1050,708; 2276,934;   -0,455;    0,045
1051,253; 2674,934;    1,273;   -2,227
1051,797; 2364,843;    0,818;   -1,318
1052,342; 2360,662;   -1,182;    1,045
1052,886; 2364,389;    0,364;   -1,409
1053,430; 2247,662;   -1,364;    0,136
1053,975; 2258,934;   -0,818;   -0,318
1054,519; 2241,843;   -0,727;    3,227
1055,063; 2256,207;    0,909;    1,318
1055,607; 2144,753;   -0,182;    0,227
1056,151; 2166,662;    2,909;    1,682
1056,695; 2100,753;    2,273;   -1,136
1057,239; 2155,025;   -1,727;   -0,682
1057,783; 2165,934;    0,818;   -1,500
1058,327; 2128,298;    0,000;    1,409
1058,871; 2352,298;   -0,545;    1,318
1059,415; 2063,934;   -0,818;   -0,045
1059,958; 2340,389;    1,455;    2,591
1060,502; 2039,298;   -1,000;   -0,773
1061,046; 1930,843;    0,364;   -0,955
1061,589; 1910,843;   -3,000;   -1,136
1062,133; 1806,389;   -1,273;    1,864
1062,676; 1749,934;    1,182;    0,864
1063,220; 1756,480;    1,091;    0,500
1063,763; 1793,571;    0,909;    1,136
1064,306; 1864,298;   -0,909;    1,864
1064,849; 1743,025;   -0,909;    0,591
1065,393; 1754,116;    2,000;   -1,500
1065,936; 1861,934;    0,182;   -0,409
1066,479; 1732,843;   -1,455;    1,318
1067,022; 1772,934;   -0,273;   -0,227
1067,565; 1664,207;   -0,091;   -1,318
1068,108; 1669,571;    0,727;   -0,591
1068,651; 1652,843;   -0,636;    1,409
1069,194; 1591,025;   -0,455;   -1,682
1069,736; 1603,298;   -1,273;    0,955
1070,279; 1573,116;   -1,364;   -0,500
1070,822; 1625,934;   -2,000;   -0,318
1071,364; 1744,116;   -0,364;    1,318
1071,907; 1538,207;   -0,727;    3,227
1072,450; 1434,025;    0,000;   -0,045
1072,992; 1443,753;   -0,273;    3,136
1073,535; 1577,662;    2,091;    2,136
1074,077; 1364,298;   -0,727;    2,045
1074,619; 1334,843;   -1,364;    0,591
1075,161; 1363,389;   -1,091;    1,500
1075,704; 1566,025;    1,545;    1,227
1076,246; 1343,662;   -0,182;    0,682
1076,788; 1280,662;   -0,364;    1,773
1077,330; 1339,207;    1,273;    2,136
1077,872; 1304,116;    0,909;    0,955
1078,414; 1550,934;    2,727;    0,773
1078,956; 1273,753;    1,273;   -0,227
1079,498; 1548,298;    1,636;    0,318
1080,040; 1244,480;    1,909;   -1,318
1080,581; 1187,753;    1,636;   -0,318
1081,123; 1113,116;    0,091;   -0,773
1081,665; 1164,934;   -1,182;   -0,955
1082,206; 1470,116;    1,364;   -0,500
1082,748; 1317,753;    0,727;    2,045
1083,289; 1190,934;   -2,000;    1,318
1083,831; 1096,753;   -0,545;    0,227
1084,372; 1131,843;    0,000;    0,591
1084,913; 1153,116;    1,091;    0,864
1085,455; 1100,025;   -1,909;   -2,045
1085,996; 1077,207;   -2,273;    0,136
1086,537; 1105,025;   -0,091;    0,864
1087,078; 1134,662;   -0,909;   -2,136
1087,619; 1185,753;   -1,273;    0,227
1088,160; 1099,389;    0,000;    1,318
1088,701; 1085,934;   -1,091;    0,682
1089,242; 1031,571;    1,364;   -2,227
1089,783; 1124,298;   -0,273;    1,409
1090,324; 1091,207;    0,455;    0,682
1090,865;  960,843;    2,727;   -0,409
1091,405;  918,662;    0,727;    2,227
1091,946;  960,207;    0,182;   -0,955
1092,487;  875,389;    0,818;   -1,409
1093,027; 1057,753;   -1,364;   -1,500
1093,568;  910,934;   -0,364;    1,227
1094,108; 1015,480;    0,273;    1,773
1094,649;  942,934;   -1,182;    0,136
1095,189;  868,480;   -0,636;   -0,682
1095,729;  841,389;   -0,091;    0,955
1096,269;  832,753;    0,727;   -0,955
1096,810; 1154,753;   -1,364;    0,500
1097,350;  984,480;    1,364;   -0,773
1097,890;  871,207;    0,364;    1,227
1098,430; 1154,480;    2,364;    2,864
1098,970; 1013,389;    2,182;    1,682
1099,510;  867,753;    0,545;   -2,318
1100,050;  793,480;    1,000;   -1,591
1100,589;  757,934;   -0,727;   -0,318
1101,129;  896,480;    0,818;   -0,955
1101,669; 1056,389;    1,727;    2,136
1102,209;  858,753;   -0,091;    2,227
1102,748;  827,025;    0,000;    0,955
1103,288;  812,480;    1,273;   -1,227
1103,827;  839,571;    3,091;   -2,227
1104,367;  717,480;   -0,091;   -2,409
1104,906;  691,843;    1,364;   -1,136
1105,445;  751,025;    0,636;   -1,136
1105,985;  715,207;   -0,727;    1,500
1106,524;  743,389;   -1,727;   -0,682
1107,063;  721,753;   -2,727;    1,409
1107,602;  683,480;   -1,909;   -1,500
1108,141;  613,480;   -1,909;    1,500
1108,680;  724,480;   -3,455;   -0,591
1109,219;  658,116;   -0,909;   -0,500
1109,758;  658,389;    0,455;    0,682
1110,297;  624,025;    1,000;   -0,682
1110,836;  575,116;   -0,727;    0,955
1111,375;  755,298;   -2,545;    0,409
1111,913;  764,662;   -1,000;    0,773
1112,452;  702,571;   -0,273;    0,136
1112,991;  578,843;    1,091;    1,955
1113,529;  529,934;   -0,818;   -0,045
1114,068;  602,934;   -0,273;    2,955
1114,606;  504,389;   -0,364;   -0,955
1115,144;  675,389;   -1,273;    1,045
1115,683;  609,843;   -0,727;    0,318
1116,221;  658,116;   -0,455;   -0,864
1116,759;  563,116;    0,636;   -0,864
1117,297;  770,753;    0,000;    1,864
1117,836;  571,480;   -2,182;   -1,227
1118,374;  580,571;    0,182;   -0,682
1118,912;  514,934;    0,909;    2,682
1119,450;  509,480;    1,000;    0,864
1119,988;  569,843;    1,545;    2,136
1120,525; 1028,298;    5,091;    3,318
1121,063;  721,116;    1,182;    1,864
1121,601;  522,025;   -0,909;   -1,227
1122,139;  480,025;   -0,727;   -2,045
1122,676;  684,389;   -0,727;    2,773
1123,214;  613,662;   -1,182;    4,409
1123,751;  410,934;    1,727;    2,227
1124,289;  551,298;   -0,091;   -0,409
1124,826;  423,480;    1,727;    0,227
1125,364;  348,480;    1,727;   -0,955
1125,901;  537,116;    1,182;    1,227
1126,438;  652,389;    0,818;    0,955
1126,975;  365,753;   -0,727;   -0,773
1127,513;  444,934;    0,273;    2,136
1128,050;  353,025;    1,636;   -0,682
1128,587;  448,480;    2,000;   -0,227
1129,124;  496,662;    0,091;    1,318
1129,661;  355,207;    0,273;    0,227
1130,198;  538,571;    1,636;    0,773
1130,734;  479,207;    0,182;    1,409
1131,271;  326,480;   -0,909;    0,864
1131,808;  506,025;    2,909;    3,045
1132,345;  371,571;    1,545;    0,318
1132,881;  231,843;   -1,545;   -1,864
1133,418;  393,753;    0,727;   -1,136
1133,954;  325,843;    2,455;   -2,682
1134,491;  406,662;    1,364;   -0,773
1135,027;  293,934;    2,364;    0,864
1135,564;  385,116;    0,273;    2,955
1136,100;  366,934;    0,364;    2,136
1136,636;  252,480;   -1,273;   -1,045
1137,172;  364,934;    0,000;   -1,045
1137,708;  276,116;   -1,364;   -1,045
1138,245;  275,207;    1,273;   -1,227
1138,781;  223,389;    1,091;   -3,318
1139,317;  304,116;    1,273;   -1,409
1139,852;  285,934;    3,091;    0,136
1140,388;  407,753;   -1,182;   -0,409
1140,924;  290,116;   -1,091;   -2,227
1141,460;  221,843;   -1,636;    0,136
1141,996;  158,298;   -1,364;    2,682
1142,531;  213,753;    1,364;    3,318
1143,067;  437,753;    1,182;    1,045
1143,602;  494,843;   -0,091;   -0,318
1144,138;  337,207;   -2,636;    1,045
1144,673;  197,480;   -1,455;    1,409
1145,209;  269,934;   -1,909;   -0,318
1145,744;  186,480;   -0,727;    0,864
1146,279;  332,571;    1,818;   -0,136
1146,815;  235,298;    1,545;   -2,682
1147,350;  278,480;   -1,364;    0,045
1147,885;  174,207;   -0,818;   -1,318
1148,420;  181,025;   -2,273;    0,773
1148,955;  154,480;   -1,727;    1,864
1149,490;  187,025;   -0,909;   -1,591
1150,025;  172,571;    0,455;   -1,773
1150,560;  302,480;    1,091;   -0,955
1151,094;  268,934;    1,455;   -0,591
1151,629;  272,298;    1,636;    0,864
1152,164;  185,207;    1,364;    1,318
1152,698;  145,753;   -0,182;   -0,136
1153,233;  106,571;    0,091;   -0,682
1153,767;  148,480;   -3,000;   -2,318
1154,302;  206,025;   -1,455;    1,773
1154,836;  199,753;   -0,455;   -2,136
1155,371;  260,934;   -1,364;    3,682
1155,905;  208,753;   -0,636;    1,682
1156,439;  176,662;   -0,636;   -0,500
1156,973;  208,480;    0,364;    0,318
1157,507;  138,753;   -0,364;    0,682
1158,042;  167,753;   -0,727;    1,045
1158,576;  217,662;    0,182;    1,773
1159,110;  207,662;   -0,818;    2,409
1159,643;  180,571;    0,636;   -0,045
1160,177;  108,662;   -1,545;    1,500

