
Integration time [ms]:   0,040
Averaging Nr. [scans]: 11
Smoothing Nr. [pixels]: 0
Data measured with spectrometer [name]: 7318044SP
Wave   ;Sample   ;Dark     ;Reference
[nm]   ;[counts] ;[counts] ;[counts] 

186,757;   19,443;   31,551;    1,318
187,357;   64,436;   22,551;    0,955
187,958;   32,241;   15,460;   -1,591
188,558;   87,888;    8,915;   -1,227
189,159;   60,632;    6,733;   -4,500
189,759;   20,686;    7,278;   -3,591
190,360;   14,083;    2,824;   -2,136
190,960;   70,865;    2,915;   -4,136
191,560;   87,697;    3,189;   -6,591
192,161;  360,925;    4,372;   -3,500
192,761;  187,816;    4,010;   -3,227
193,361;  123,938;    1,556;   -3,773
193,962;  174,774;    2,010;   -2,682
194,562;   88,861;    1,189;   -3,955
195,162;  137,565;   -2,448;   -2,227
195,762;  310,609;   -3,176;   -0,045
196,362;  253,031;    1,370;   -2,500
196,963;   97,872;    2,006;   -0,864
197,563;  185,256;    1,551;   -0,955
198,163;  123,094;    0,096;   -0,682
198,763;  141,407;    1,733;   -0,500
199,363;  254,208;    3,096;   -0,500
199,963;  211,817;    0,369;    0,409
200,563;  184,730;    2,823;   -1,409
201,163;  172,203;    3,277;   -0,227
201,763;  266,088;    3,732;    0,318
202,363;  195,281;    1,459;    1,500
202,963;  318,786;    1,459;    1,045
203,563;  432,310;    0,277;    0,500
204,162;  261,966;    2,096;   -1,864
204,762;  255,173;    0,550;    0,591
205,362;  227,968;    3,004;    1,955
205,962;  330,562;    3,096;    1,955
206,562;  323,320;    1,823;    2,318
207,161;  287,376;   -0,087;    0,318
207,761;  456,352;    1,277;    2,409
208,361;  323,703;   -0,268;    1,409
208,960;  442,633;    0,459;    1,500
209,560;  515,551;    1,277;    1,591
210,160;  490,029;    0,550;    1,864
210,759;  454,831;    4,186;    1,227
211,359;  465,078;    1,459;    1,045
211,958;  745,771;    1,277;    2,045
212,558;  831,560;    1,732;    1,864
213,157;  659,805;    1,822;    1,500
213,757; 1130,471;    3,822;   -0,227
214,356;  804,880;    1,277;   -0,409
214,956; 1170,254;    3,095;    0,409
215,555;  770,677;    2,095;    2,136
216,154;  710,982;   -2,723;   -0,591
216,754;  722,790;    0,277;    0,773
217,353;  854,566;   -0,268;   -1,045
217,952;  703,019;   -0,178;    0,318
218,552;  964,842;    1,368;   -0,773
219,151;  856,114;    0,277;    0,955
219,750;  859,997;    0,004;   -0,227
220,349; 1007,380;   -0,451;    1,045
220,948; 1069,902;   -1,360;    1,136
221,548; 1101,995;    0,913;    1,227
222,147; 1220,912;   -0,087;   -0,409
222,746; 1514,251;   -0,451;   -0,955
223,345; 1390,548;    0,731;    0,500
223,944; 1410,970;   -0,451;    0,773
224,543; 1610,362;    1,004;   -1,409
225,142; 1709,431;    0,094;    0,136
225,741; 1618,790;   -0,814;    1,045
226,340; 1648,301;   -0,451;   -0,955
226,939; 2141,266;   -0,996;   -0,136
227,538; 2119,444;   -0,360;   -0,773
228,137; 2262,104;   -0,814;    0,864
228,735; 2461,918;   -0,541;    1,227
229,334; 2192,726;   -0,905;   -0,227
229,933; 2595,709;    0,459;    0,591
230,532; 2704,742;    1,186;   -0,409
231,131; 2755,553;    1,732;    0,318
231,729; 2936,957;   -2,450;   -2,318
232,328; 3090,093;   -0,723;   -1,500
232,927; 3193,674;    1,004;   -0,500
233,525; 3346,545;    3,640;    0,045
234,124; 3570,346;    2,368;   -1,591
234,723; 3569,658;    0,913;   -1,045
235,321; 3731,612;    2,277;    0,136
235,920; 4006,053;    1,186;   -1,227
236,518; 4285,917;    3,459;    0,318
237,117; 4492,059;    0,004;   -0,227
237,715; 4678,790;    0,640;   -0,500
238,314; 4690,665;   -0,087;   -2,318
238,912; 4793,879;   -0,723;   -1,409
239,510; 4842,496;    0,459;   -1,227
240,109; 5038,758;    0,004;    3,773
240,707; 5089,933;   -0,996;    1,227
241,305; 5467,725;    0,550;    0,136
241,904; 5702,907;   -0,178;   -2,045
242,502; 5673,649;   -0,632;   -0,227
243,100; 5600,235;   -0,087;   -0,955
243,698; 5848,421;    0,732;    1,682
244,297; 6011,458;   -0,632;    0,682
244,895; 5857,421;   -0,269;   -2,318
245,493; 6226,982;    2,186;   -0,591
246,091; 6274,295;    1,368;   -1,318
246,689; 6279,654;    1,004;    0,591
247,287; 6431,526;    0,822;   -1,136
247,885; 6713,441;   -1,451;    1,227
248,483; 6832,762;    1,822;   -0,500
249,081; 6966,228;    0,185;    1,591
249,679; 7112,059;   -0,178;    1,682
250,277; 7379,862;   -1,723;    0,864
250,875; 7395,604;   -1,087;   -1,045
251,473; 7413,187;   -1,178;    0,500
252,071; 7591,489;    1,459;    1,045
252,669; 7786,606;   -1,814;    0,318
253,267; 8025,952;   -0,087;    0,773
253,864; 8003,072;   -0,360;    0,682
254,462; 7864,426;    1,640;    1,591
255,060; 7800,857;   -0,269;    1,318
255,658; 8141,879;    0,822;   -0,136
256,255; 8598,158;    0,186;   -2,045
256,853; 8472,714;   -0,269;    1,409
257,451; 8472,064;    0,822;    1,864
258,048; 8733,858;    1,822;    1,864
258,646; 8449,603;    1,731;   -1,045
259,243; 8665,077;   -0,087;    2,227
259,841; 8751,852;   -0,814;    0,318
260,438; 8589,959;   -0,087;    0,864
261,036; 9360,404;   -1,905;    1,409
261,633; 9217,616;   -0,087;    2,227
262,231; 8950,442;    2,731;   -0,045
262,828; 9025,098;   -0,905;    1,136
263,425; 9111,303;    0,913;   -0,591
264,023; 9402,584;    0,186;    0,045
264,620; 8959,957;   -0,360;   -0,318
265,217; 9294,066;   -2,087;    3,136
265,815; 9398,946;   -1,905;    2,136
266,412; 9194,530;    0,731;    0,136
267,009; 9227,241;   -1,451;    0,773
267,606; 9099,421;    0,822;   -0,955
268,203; 9097,001;   -0,269;   -0,591
268,801; 9401,088;    1,731;    0,591
269,398; 9704,396;   -0,360;    2,500
269,995; 9678,825;    0,277;    1,591
270,592; 9464,395;   -0,632;   -0,500
271,189; 9647,519;    0,186;    0,409
271,786; 9776,976;   -0,632;    1,227
272,383; 9605,050;   -1,087;    0,227
272,980; 9807,946;    0,277;    0,318
273,577;10286,246;    0,004;    1,227
274,174; 9850,388;    0,822;    2,591
274,771; 9820,061;   -0,814;   -0,773
275,367; 9971,695;    2,277;    1,409
275,964; 9941,726;    0,731;   -0,500
276,561;10045,893;    1,549;   -1,045
277,158;10263,422;    0,095;   -1,773
277,755;10385,592;    2,185;    0,409
278,351; 9774,144;   -0,451;   -1,500
278,948;10104,918;   -0,815;    0,045
279,545;10119,074;   -1,360;    2,318
280,141;10783,499;   -1,723;   -2,045
280,738;10668,597;   -0,451;   -0,136
281,334;10899,396;   -1,633;    0,591
281,931;10251,887;   -0,087;   -1,318
282,528;10352,168;    0,822;   -0,500
283,124;11088,426;   -1,087;   -0,500
283,721;10999,959;   -0,451;    1,409
284,317;10781,956;    0,185;    2,500
284,913;11358,300;   -1,360;    0,591
285,510;11537,573;    0,640;   -0,318
286,106;11573,751;   -2,269;   -0,955
286,703;11172,145;   -0,360;    1,955
287,299;11361,306;   -1,451;   -0,591
287,895;11568,535;    0,822;   -1,045
288,491;12136,942;    0,186;    2,136
289,088;11849,862;   -2,360;    2,409
289,684;11951,788;   -1,723;    1,500
290,280;11955,484;    0,368;    0,682
290,876;12055,375;    1,822;    5,500
291,472;11939,454;    1,276;    2,227
292,068;12013,215;    1,367;    0,227
292,665;11713,488;    2,095;    0,773
293,261;11297,165;    0,276;    2,136
293,857;11744,293;    2,913;    2,136
294,453;11701,977;    3,550;    0,955
295,049;11556,684;   -0,268;    1,955
295,644;11549,060;    0,095;    0,136
296,240;11484,764;   -0,905;   -0,136
296,836;11514,113;   -0,995;    0,318
297,432;11797,239;    1,096;   -0,500
298,028;11858,485;    0,732;    0,773
298,624;12261,309;    1,459;    1,864
299,220;12510,870;    2,368;    0,591
299,815;12167,810;    1,005;   -0,409
300,411;11964,139;    0,914;    1,773
301,007;12008,198;    1,368;    0,227
301,602;12010,818;   -0,541;   -2,318
302,198;12217,422;    0,732;   -0,773
302,794;12542,914;    1,187;   -0,500
303,389;12641,020;   -1,177;    1,045
303,985;12739,639;    0,550;    1,409
304,580;12698,546;    1,459;    1,591
305,176;12662,925;   -3,086;    0,136
305,771;12609,273;   -1,268;   -1,227
306,367;12452,729;    4,095;    0,136
306,962;12776,999;    0,641;    1,500
307,558;12504,117;   -0,450;    0,136
308,153;12451,112;    1,095;   -1,136
308,748;12697,596;   -0,814;    1,682
309,344;12650,307;   -0,632;   -1,318
309,939;12755,477;   -1,905;   -1,318
310,534;13009,619;   -0,086;   -1,682
311,130;12952,756;    0,459;   -2,500
311,725;12646,249;    1,004;   -0,500
312,320;13013,341;    2,459;    0,045
312,915;12834,260;    1,459;   -1,045
313,510;12961,195;    1,550;   -0,500
314,105;13456,672;    1,096;    1,409
314,700;12820,256;   -3,086;   -1,045
315,295;12439,728;   -0,904;    0,045
315,890;12014,081;    1,277;    0,864
316,485;12427,986;   -0,359;   -0,318
317,080;12523,736;   -3,086;    1,591
317,675;13087,528;    2,005;   -0,682
318,270;12513,174;    5,550;    3,318
318,865;12500,442;    3,278;    3,045
319,460;12320,695;   -0,904;    0,591
320,055;12543,548;   -0,541;   -1,227
320,650;12214,401;   -1,995;   -0,591
321,244;12268,663;   -0,177;   -1,409
321,839;13217,543;   -1,541;   -0,227
322,434;13071,159;   -1,086;   -1,591
323,029;12689,412;    1,732;    1,591
323,623;12532,778;    1,550;    0,773
324,218;12289,378;    2,368;    1,409
324,812;12162,283;    1,096;    1,591
325,407;11975,604;   -0,814;    2,045
326,002;11936,309;    0,277;   -0,409
326,596;12218,241;    0,914;    1,318
327,191;12398,376;    0,823;   -1,045
327,785;11945,605;   -0,813;   -0,227
328,379;12180,044;    1,368;    0,136
328,974;12000,349;    0,914;   -3,955
329,568;12186,138;    0,186;   -2,409
330,163;12002,635;    2,096;    1,045
330,757;12380,514;    2,459;    1,591
331,351;11685,402;    0,459;    0,682
331,945;11983,364;    0,914;    1,409
332,540;11559,588;   -1,723;   -0,591
333,134;11745,128;   -1,086;    0,773
333,728;11988,284;    0,005;    0,318
334,322;12324,794;   -1,177;   -0,864
334,916;11561,422;    0,277;    0,955
335,510;11909,697;   -0,450;   -0,136
336,105;12199,648;   -1,086;    1,591
336,699;11892,603;   -1,086;    0,591
337,293;11804,289;   -1,723;    0,318
337,887;11964,100;   -2,723;    1,955
338,481;12100,434;    0,459;    0,591
339,074;12224,417;   -0,359;    2,682
339,668;12046,543;   -1,632;    1,227
340,262;12327,347;    1,732;    3,227
340,856;11821,347;    1,822;   -0,682
341,450;11143,813;    1,004;    1,864
342,044;12045,562;    1,459;    0,136
342,637;11810,486;    0,913;   -2,136
343,231;11686,491;   -2,360;    0,682
343,825;11636,689;   -1,086;   -0,591
344,419;11593,939;   -1,995;    0,500
345,012;11394,745;    2,459;    4,045
345,606;11403,684;    4,641;    1,591
346,199;11220,744;   -1,813;   -0,227
346,793;10725,143;    1,914;    2,045
347,386;10921,792;   -0,813;   -1,136
347,980;10961,390;   -0,268;   -0,045
348,573;10731,826;    2,278;    0,409
349,167;10392,071;    5,278;    4,773
349,760;10734,021;    2,914;    2,682
350,354;10691,281;   -0,813;    1,136
350,947;10442,323;    1,096;    1,682
351,540;10121,164;   -0,358;   -1,409
352,134;10076,326;    1,096;    1,136
352,727;10161,638;   -0,086;    1,136
353,320; 9893,109;    0,005;    0,591
353,913; 9718,534;   -1,995;    1,864
354,507; 9962,376;    0,823;   -1,227
355,100; 9971,711;    0,460;    0,864
355,693; 9231,623;    2,005;    2,409
356,286; 9229,048;    0,823;    2,773
356,879; 9570,758;   -0,722;    1,227
357,472; 9159,077;   -0,904;    1,500
358,065; 9376,968;   -0,722;    2,500
358,658; 9279,662;   -0,540;    2,318
359,251; 8941,218;   -1,631;   -0,591
359,844; 8435,045;   -1,904;   -1,136
360,437; 8598,961;   -2,995;    0,045
361,030; 8863,277;    1,369;   -0,682
361,623; 8441,724;    2,824;    0,318
362,215; 8512,167;   -0,086;    2,045
362,808; 8333,560;   -2,358;   -1,682
363,401; 8532,380;   -2,449;    0,136
363,994; 8286,578;   -0,631;   -1,500
364,586; 8174,651;    0,824;   -1,500
365,179; 8389,415;   -0,449;   -1,136
365,772; 7877,984;   -1,995;    2,045
366,364; 8202,495;    1,915;   -3,227
366,957; 8393,727;    2,279;   -0,045
367,549; 8437,883;    2,188;   -0,864
368,142; 8046,944;    1,825;   -1,500
368,734; 8253,007;    0,734;   -2,136
369,327; 8211,097;    1,643;   -0,500
369,919; 8163,997;   -1,538;    0,409
370,512; 7941,706;   -1,083;   -0,500
371,104; 7715,077;   -0,901;    1,591
371,696; 7873,344;    1,191;   -0,955
372,289; 7954,735;    0,373;    1,136
372,881; 8103,612;   -2,080;    1,318
373,473; 8024,981;   -2,170;    1,136
374,066; 7847,777;   -0,169;    0,500
374,658; 7680,585;    0,378;    1,136
375,250; 8035,173;    0,653;   -1,409
375,842; 7878,622;    0,473;   -0,045
376,434; 7777,471;   -0,435;   -0,409
377,026; 8336,641;    0,204;   -2,500
377,618; 8242,533;   -0,158;   -0,682
378,210; 8078,291;   -0,338;   -1,955
378,802; 7929,128;    0,754;   -0,591
379,394; 7915,618;    1,846;    0,682
379,986; 8510,840;    1,393;   -0,955
380,578; 8601,128;   -0,153;    0,773
381,170; 7950,810;   -0,972;    0,045
381,762; 7903,706;    0,755;    1,409
382,354; 8087,584;   -0,065;   -1,318
382,945; 8194,419;   -2,976;    0,318
383,537; 8325,863;   -2,705;   -1,955
384,129; 8338,918;   -2,160;   -1,136
384,721; 8537,525;   -0,252;    0,955
385,312; 8440,927;   -0,161;   -0,955
385,904; 8561,569;   -2,706;    1,591
386,496; 7923,859;   -0,979;    1,045
387,087; 8090,474;    1,022;    2,500
387,679; 8132,061;   -1,160;    0,045
388,270; 8254,859;    2,840;    2,045
388,862; 8360,695;    1,295;   -0,318
389,453; 8281,920;   -0,887;    1,045
390,045; 8559,252;   -0,705;   -2,682
390,636; 8489,362;    0,204;   -0,591
391,227; 8325,435;   -0,523;   -0,045
391,819; 8433,063;    0,204;    0,773
392,410; 8534,601;    1,022;    0,045
393,001; 8447,249;   -0,979;   -1,591
393,593; 8773,171;    1,930;   -0,045
394,184; 8609,986;    1,385;   -0,409
394,775; 8531,386;    1,839;    2,136
395,366; 8721,453;    1,385;    0,773
395,957; 8728,825;    0,113;    0,136
396,548; 9071,405;   -0,342;    2,682
397,139; 9371,848;   -2,433;    0,591
397,730; 9080,593;   -1,888;    0,955
398,321; 9166,982;   -1,252;    0,955
398,912; 9177,871;   -0,615;    0,136
399,503; 9228,529;   -3,524;   -1,409
400,094; 8648,184;    0,294;    1,682
400,685; 8536,631;   -0,433;    0,045
401,276; 8612,592;    0,930;   -0,955
401,867; 8938,411;   -0,888;    0,773
402,458; 9027,460;   -2,251;   -2,318
403,048; 9013,991;    1,112;    0,591
403,639; 8593,841;    0,840;    0,864
404,230; 8811,214;    2,476;    0,318
404,821; 8746,166;   -0,615;    0,045
405,411; 8927,103;    1,203;   -2,591
406,002; 8516,669;   -1,252;   -1,136
406,592; 8360,244;    2,294;    0,045
407,183; 8667,526;    0,566;   -1,500
407,774; 8580,886;    3,475;   -0,136
408,364; 8918,538;    0,930;    0,409
408,954; 8528,286;    0,384;    1,227
409,545; 8561,181;    1,021;    1,045
410,135; 8076,680;    1,293;    0,500
410,726; 8267,408;    1,838;    0,318
411,316; 8657,020;    0,111;    0,773
411,906; 8302,795;   -0,253;   -0,409
412,497; 7786,739;   -1,070;   -0,045
413,087; 8408,903;   -1,980;   -0,227
413,677; 8818,076;   -0,707;    3,864
414,267; 8666,388;    0,656;    1,409
414,857; 8676,054;   -2,980;    4,227
415,448; 8976,868;    0,839;    0,500
416,038; 8632,379;    0,020;   -0,591
416,628; 8622,880;   -0,889;    0,409
417,218; 8062,642;    0,565;    3,318
417,808; 8331,217;    0,202;   -0,409
418,398; 8843,617;    0,020;    2,682
418,988; 8843,973;    2,020;    0,591
419,578; 9108,164;   -0,707;    1,409
420,168; 9462,350;   -1,343;   -0,955
420,757; 9061,718;   -1,343;   -1,500
421,347; 8721,989;    0,111;   -0,227
421,937; 8887,097;    2,292;    1,409
422,527; 8873,341;    0,838;   -0,773
423,116; 8680,008;   -0,253;   -0,045
423,706; 8989,948;   -1,889;    0,318
424,296; 8973,393;    1,384;    0,682
424,885; 9438,393;   -0,071;   -3,045
425,475; 9715,374;    1,474;   -2,864
426,065; 9604,669;   -0,980;   -0,318
426,654; 9221,568;   -0,435;   -0,318
427,244; 9348,880;    0,020;    1,409
427,833; 8803,301;    1,383;   -0,500
428,423; 9328,301;   -0,526;    1,136
429,012;10089,158;   -0,344;   -1,136
429,601; 9566,167;   -1,344;    0,136
430,191; 9819,892;    1,292;    4,318
430,780; 9476,824;   -0,344;   -0,409
431,369; 9399,263;    0,746;   -0,045
431,959;10020,773;   -1,254;    0,500
432,548; 9807,911;   -1,163;   -0,045
433,137; 9927,514;   -1,254;   -1,318
433,726;10457,471;    0,292;    0,500
434,315; 9776,300;   -0,526;    2,409
434,905; 9898,798;   -1,254;    1,409
435,494; 9764,279;    0,746;    0,955
436,083;10237,190;   -0,981;   -0,955
436,672;10136,157;    0,110;    0,500
437,261; 9667,686;    0,292;   -1,955
437,850; 9822,788;    1,383;    0,682
438,439; 9823,662;    3,291;    1,955
439,027; 9656,337;    3,655;    1,773
439,616;10022,283;    2,927;    1,227
440,205; 9882,887;    0,200;   -2,136
440,794;10017,671;    2,109;   -0,045
441,383;10263,487;   -1,346;   -0,591
441,971;10114,377;   -2,436;    0,591
442,560; 9938,616;    0,563;   -1,773
443,149; 9713,282;    0,379;   -1,318
443,737; 9819,560;   -0,074;   -2,318
444,326;10102,357;    0,018;    0,318
444,915;10196,820;   -1,982;    0,864
445,503;10621,585;   -2,891;   -0,318
446,092; 9849,987;    0,382;    2,136
446,680;10407,696;    0,382;    0,318
447,269;10553,798;   -0,346;   -0,318
447,857;10349,804;    0,018;   -1,773
448,445;10451,779;    0,563;    1,318
449,034;10686,782;   -1,528;   -1,136
449,622;10820,514;   -1,073;    3,500
450,210;10016,267;    2,017;    2,227
450,799;10586,210;    0,290;   -0,591
451,387;10534,190;    1,381;   -0,591
451,975;10161,318;    2,654;    0,864
452,563;10257,199;    3,472;    2,318
453,151;10307,158;   -0,528;   -1,227
453,739;10231,778;   -1,347;    0,136
454,328;10071,593;    2,381;   -2,136
454,916; 9780,247;    2,562;   -0,136
455,504; 9988,025;    1,017;    1,227
456,092;10136,085;    0,017;   -1,591
456,679;10131,340;    1,472;    0,682
457,267;10090,710;    4,017;    1,045
457,855;10228,008;    1,017;    1,409
458,443; 9984,488;   -0,165;    1,682
459,031;10134,506;    0,108;    2,409
459,619;10621,048;   -1,801;    2,864
460,206;10764,396;    0,835;    2,045
460,794;10824,132;   -2,983;   -0,227
461,382;11090,400;   -0,529;   -0,864
461,970;10661,700;    1,198;    1,864
462,557;10637,904;   -0,711;   -0,682
463,145;10841,909;   -3,165;   -1,682
463,732;10995,519;    2,016;   -1,045
464,320;10968,485;   -0,075;   -3,045
464,907;10650,955;    2,743;   -0,773
465,495;10497,154;    0,743;   -1,227
466,082;10640,047;   -1,984;   -0,045
466,670;10559,430;   -2,529;    1,227
467,257;10968,479;   -1,711;    2,045
467,844;11127,645;   -0,075;    0,045
468,432;11167,423;    0,834;    3,500
469,019;10620,527;    0,925;   -1,773
469,606;11116,781;    0,470;    3,682
470,193;10936,378;   -1,439;    0,227
470,780;10527,206;   -2,075;    0,864
471,368;10854,143;   -1,257;   -0,773
471,955;10644,372;    1,379;   -0,682
472,542;10252,711;    0,652;   -1,136
473,129;10515,278;   -0,166;    0,136
473,716;10245,122;    1,470;    0,591
474,303;10459,313;    0,652;   -0,864
474,890;10786,390;   -1,439;   -0,500
475,477;10819,421;   -1,621;    0,409
476,064;10721,288;    1,106;   -1,591
476,650;10648,345;    0,288;    0,318
477,237;10485,890;   -0,258;    0,955
477,824;10623,496;   -1,076;    0,864
478,411;10666,386;   -1,894;   -0,318
478,997;10896,861;    0,560;   -0,773
479,584;10944,065;    1,196;   -0,409
480,171;11684,916;   -0,440;   -0,773
480,757;11339,260;    2,651;    0,773
481,344;11657,621;    0,469;    0,409
481,931;11136,707;    1,105;    1,045
482,517;12267,361;   -1,258;    0,318
483,104;12922,215;    1,106;    2,864
483,690;13159,684;   -1,804;    0,045
484,276;13562,549;   -0,895;    0,227
484,863;13290,032;    2,469;    1,136
485,449;13883,181;   -0,077;    0,318
486,035;13900,960;   -1,986;   -0,136
486,622;14294,131;   -0,895;    0,045
487,208;14247,712;    1,378;    1,500
487,794;14092,109;    0,741;    0,318
488,380;14145,511;    0,105;   -1,409
488,967;14230,336;   -1,168;   -0,409
489,553;14297,563;   -1,895;   -1,409
490,139;14473,995;    1,559;    0,773
490,725;13843,656;    0,741;   -0,227
491,311;13397,691;    3,287;    3,045
491,897;12642,705;   -0,986;    1,500
492,483;12422,049;    0,105;    1,227
493,069;12261,693;    3,923;    0,864
493,655;12243,725;    1,650;    0,682
494,241;12164,488;    1,377;   -0,955
494,826;12592,195;    0,287;   -1,045
495,412;12044,590;    2,559;   -0,682
495,998;12195,564;   -0,805;   -0,318
496,584;12339,169;    0,377;    1,045
497,169;12358,736;    1,014;   -0,682
497,755;12321,151;    0,650;    1,227
498,341;12880,731;    0,559;    0,318
498,926;12456,231;    1,832;    1,955
499,512;12621,099;    1,286;    2,955
500,097;12769,571;    0,195;   -0,318
500,683;12666,968;   -0,350;    2,136
501,268;13025,737;   -0,169;   -0,955
501,854;12754,217;   -0,169;    1,227
502,439;12679,807;   -0,624;   -1,773
503,024;12909,133;    0,195;    0,500
503,610;12988,241;   -0,078;   -0,682
504,195;12976,144;    0,558;    1,955
504,780;13111,483;    2,922;    1,227
505,366;12947,272;    3,013;    2,864
505,951;12641,259;    0,740;    1,045
506,536;12634,444;   -3,260;   -3,682
507,121;12641,236;    0,285;   -0,318
507,706;13166,978;    2,376;    1,045
508,291;13543,991;    2,649;    1,136
508,876;12985,834;   -0,988;    2,591
509,461;12445,824;   -0,169;   -0,773
510,046;12880,927;    0,194;    0,318
510,631;13119,209;   -0,351;   -0,773
511,216;12773,881;    2,467;   -0,500
511,801;13125,609;   -0,442;    2,591
512,386;13454,943;    0,740;    0,500
512,971;13415,987;   -2,988;    0,955
513,555;12990,682;   -0,897;   -1,500
514,140;13776,384;   -0,442;   -3,136
514,725;13758,506;   -0,715;   -1,136
515,309;13874,296;   -0,533;    0,318
515,894;13339,077;   -0,624;   -2,227
516,479;13753,307;   -0,624;   -0,955
517,063;13613,082;    0,376;    1,227
517,648;13749,192;    1,012;   -1,136
518,232;13421,370;   -0,261;   -1,409
518,817;13725,802;   -0,079;    1,682
519,401;13978,014;    2,194;    0,591
519,985;13468,430;    1,103;    1,136
520,570;13333,276;    0,830;   -1,955
521,154;13644,857;    2,102;    0,591
521,738;13809,901;   -2,352;    2,409
522,323;14335,374;   -0,170;    1,682
522,907;14099,855;    0,466;   -0,136
523,491;13789,779;    0,557;    0,955
524,075;13792,029;    2,284;    0,591
524,659;13887,070;    1,466;    0,591
525,243;13340,848;    1,739;    0,409
525,827;13586,184;    0,648;   -0,045
526,411;14483,888;   -1,989;   -0,136
526,995;14694,723;   -0,352;    1,409
527,579;14296,356;   -0,443;   -1,045
528,163;14617,919;    0,375;   -1,500
528,747;14503,168;    2,466;   -0,773
529,331;14819,721;   -0,080;   -1,409
529,915;14999,779;    1,738;    0,955
530,499;14967,202;   -0,807;    1,227
531,082;14699,255;   -0,534;    1,591
531,666;14159,895;    1,374;    0,773
532,250;14834,419;    1,284;    2,682
532,833;15166,748;    0,920;    2,773
533,417;15008,335;   -1,807;    0,864
534,001;14999,004;    1,647;   -0,318
534,584;15705,956;    0,374;    0,500
535,168;15519,855;    0,465;    1,409
535,751;15611,205;    0,647;    0,045
536,334;15054,157;   -0,898;   -0,409
536,918;15625,629;    0,011;    1,591
537,501;15717,879;   -0,899;    1,318
538,085;15717,003;   -0,444;    1,045
538,668;15909,890;    0,829;    2,409
539,251;16266,050;    1,829;    3,773
539,834;16279,849;    0,101;    0,773
540,418;16238,743;   -1,990;    4,318
541,001;16326,400;   -0,990;    1,773
541,584;16308,686;    2,101;    2,227
542,167;16009,703;    1,374;    2,955
542,750;16117,233;    1,919;   -0,773
543,333;15752,088;    0,555;    2,136
543,916;16519,832;    0,192;    2,500
544,499;17131,666;   -1,354;    0,227
545,082;17137,285;    1,374;    3,591
545,665;17298,551;    1,919;    1,500
546,248;17700,724;    1,010;   -0,318
546,830;17367,486;   -0,445;    1,955
547,413;17758,566;    1,010;   -0,773
547,996;18270,506;    0,555;    0,500
548,579;18063,919;    0,919;    0,955
549,161;17851,811;    1,828;    2,682
549,744;17597,770;   -0,809;    0,409
550,326;18072,234;   -0,809;   -1,136
550,909;17904,088;    2,737;    0,591
551,492;18259,296;   -0,263;    0,227
552,074;18106,159;   -0,173;   -1,318
552,657;18667,405;    2,373;    0,045
553,239;18399,429;   -0,173;   -0,773
553,821;18315,241;   -1,082;    1,045
554,404;17811,641;    1,282;    1,136
554,986;18220,698;    0,464;    1,045
555,568;18820,904;    1,191;   -0,955
556,151;18042,700;    1,191;   -0,227
556,733;18229,402;   -0,264;   -0,864
557,315;18731,011;    0,100;    0,500
557,897;18511,869;    0,554;   -0,500
558,479;18599,910;   -1,991;    1,318
559,061;18765,600;   -0,719;   -0,864
559,643;19134,046;   -0,264;    0,045
560,225;19480,251;    1,645;    2,864
560,807;19508,774;    0,918;    0,318
561,389;18924,589;    0,554;    2,318
561,971;19780,682;    0,463;    2,136
562,553;19553,092;   -1,628;    1,591
563,135;19685,200;   -0,537;    1,136
563,717;19318,709;    3,372;    1,136
564,298;20053,971;    3,645;   -0,045
564,880;19775,874;    0,645;   -1,409
565,462;19938,692;    0,645;    1,318
566,043;21104,383;   -0,446;    2,318
566,625;20682,014;    1,918;    1,227
567,207;20535,465;    1,099;    1,682
567,788;21692,944;   -1,264;    1,500
568,370;22556,851;    1,917;   -0,500
568,951;22385,127;    0,190;    0,227
569,533;23302,009;   -0,628;   -0,500
570,114;23759,549;   -0,446;    0,682
570,695;24320,737;   -0,174;   -1,318
571,277;24804,704;   -0,265;   -1,682
571,858;25597,506;    2,008;   -1,136
572,439;26517,957;    1,554;   -1,045
573,021;26712,063;    2,099;   -2,773
573,602;27192,727;   -1,265;    0,318
574,183;28172,213;   -2,083;    2,227
574,764;28259,166;   -1,629;    0,409
575,345;28871,583;    0,917;   -0,136
575,926;29426,281;   -0,356;    0,136
576,507;29381,904;    1,099;   -0,227
577,088;30549,873;    3,099;    1,682
577,669;30594,114;    0,735;    1,955
578,250;31480,304;    0,644;   -1,045
578,831;32161,163;   -1,356;   -2,227
579,412;32389,819;   -0,810;    0,955
579,993;33209,256;    1,008;    0,227
580,573;33519,475;   -0,629;   -0,955
581,154;32550,515;    0,735;   -0,591
581,735;33419,805;    0,644;    0,773
582,315;32936,805;   -0,629;    2,136
582,896;33180,530;   -0,174;    1,227
583,477;32565,737;    0,189;    1,227
584,057;32793,588;    0,553;    0,955
584,638;33066,893;    2,553;    2,318
585,218;33043,578;   -0,538;    2,682
585,799;33219,026;    0,281;   -0,227
586,379;33142,873;    0,372;    1,591
586,959;31850,004;    0,735;    0,318
587,540;31114,326;   -0,629;    2,227
588,120;30717,766;    1,007;   -0,045
588,700;29676,868;    2,553;    2,136
589,281;30020,866;    0,462;   -0,955
589,861;30007,745;    0,099;   -1,682
590,441;29799,239;    2,371;   -2,682
591,021;28764,797;   -0,265;   -2,591
591,601;28913,962;   -0,537;    0,500
592,181;28947,065;   -0,719;   -0,773
592,761;28222,266;    0,007;    1,409
593,341;28126,604;   -0,901;    0,045
593,921;28127,659;   -0,265;    1,591
594,501;27996,854;   -0,538;    1,318
595,081;27856,136;    0,917;   -0,318
595,661;28235,339;   -1,447;    0,955
596,240;28774,630;   -0,537;    0,136
596,820;28486,025;    0,372;    1,955
597,400;28651,356;    2,008;    0,773
597,980;28807,805;    2,008;    1,045
598,559;28787,160;    2,735;   -0,227
599,139;28463,098;   -0,174;   -1,227
599,718;28415,098;   -0,174;   -0,409
600,298;28674,374;    0,735;    0,682
600,877;28964,819;    2,917;    1,409
601,457;29200,305;    2,281;    1,136
602,036;29090,320;    0,190;    2,045
602,616;29288,618;    0,644;    1,682
603,195;29639,664;   -0,355;    3,500
603,774;29183,570;   -0,901;    2,045
604,354;29061,184;    0,826;   -0,500
604,933;28496,583;    0,463;    1,864
605,512;28635,258;    3,554;    0,591
606,091;28640,962;   -0,537;    3,773
606,671;29506,733;    0,281;    0,773
607,250;28657,651;    1,644;    3,136
607,829;28869,813;    2,372;    3,227
608,408;28755,920;    1,190;    2,591
608,987;27740,680;    1,281;    3,409
609,566;28022,343;   -1,265;   -2,500
610,145;28186,303;   -1,082;    0,682
610,723;28549,718;    4,372;    6,864
611,302;27820,363;   -0,446;    1,682
611,881;27364,402;    5,008;   11,227
612,460;28189,748;    1,645;    3,955
613,039;28570,411;   -0,082;    2,045
613,617;27289,319;    1,736;    4,773
614,196;27458,780;    1,099;    1,227
614,775;27801,915;    1,009;    2,409
615,353;27757,102;    0,736;    0,864
615,932;27515,267;    0,100;    2,409
616,510;28027,910;    0,554;    0,591
617,089;27570,522;    7,100;   17,591
617,667;27302,999;    2,372;    6,136
618,246;27184,427;   -1,537;    1,318
618,824;27306,778;   -3,355;   -0,955
619,402;26862,147;   -2,900;   -1,773
619,981;27365,084;   -0,173;   -1,045
620,559;27221,645;    0,009;    1,682
621,137;26682,006;   -0,718;    1,864
621,715;26737,512;   -1,173;   -0,682
622,293;26679,696;   -0,537;   -0,773
622,871;27113,374;   -0,718;    0,500
623,450;26688,991;    0,373;   -0,864
624,028;26569,854;    0,191;   -0,955
624,606;26193,196;   -1,718;    1,682
625,183;26650,642;   -1,536;   -1,136
625,761;26218,183;    1,009;    1,136
626,339;26516,280;    1,373;    2,591
626,917;26925,082;   -0,172;   -0,045
627,495;26925,946;   -0,354;    1,318
628,073;26348,178;   -0,263;    2,864
628,650;26060,444;    0,100;    2,136
629,228;26528,821;    0,373;    4,409
629,806;25865,727;    2,282;    1,136
630,383;26145,340;    1,464;   -0,318
630,961;25991,395;    2,555;   -0,955
631,539;25705,571;    2,464;    0,227
632,116;25114,031;   11,373;   15,409
632,694;25610,259;    2,555;    6,500
633,271;25915,227;    0,828;    2,682
633,848;25836,204;    1,828;    2,045
634,426;25836,238;   -1,081;    1,773
635,003;24985,850;    1,101;   -0,409
635,580;25312,740;    1,192;    3,682
636,158;25871,843;    3,737;    1,227
636,735;25847,532;    0,555;   -0,500
637,312;25990,105;   -0,809;   -0,682
637,889;26143,818;   -4,354;   -0,682
638,466;25613,802;   -3,990;   -0,409
639,043;25588,057;    2,101;   -1,136
639,620;25865,839;   -2,262;   -0,955
640,197;26170,457;    1,100;    1,682
640,774;26326,605;   -0,172;    1,136
641,351;26718,390;    0,737;    1,136
641,928;26097,084;   -0,627;    1,409
642,505;25817,050;    0,828;   -0,500
643,082;25951,198;   -1,718;    1,227
643,658;24893,619;   -0,718;    1,500
644,235;25634,586;    1,191;    2,500
644,812;26003,279;    1,918;    0,773
645,388;25739,427;   -0,991;    1,409
645,965;25847,394;   -0,809;    1,682
646,542;25915,087;   -1,445;   -0,227
647,118;25890,236;    1,009;   -0,955
647,695;26191,020;   -0,263;    1,136
648,271;26096,077;   -0,536;    0,500
648,848;26448,044;    0,736;    2,227
649,424;26304,465;    0,827;    1,318
650,000;26028,249;   -0,354;   -1,045
650,577;25853,216;   -0,627;   -0,955
651,153;26350,455;   -1,809;    0,955
651,729;27332,239;    1,191;    0,864
652,305;27986,933;    0,645;    2,773
652,881;33433,808;   -0,082;    1,136
653,458;40492,411;    1,100;    0,227
654,034;43849,287;    0,282;    1,591
654,610;45051,980;    0,554;    0,773
655,186;46322,219;    0,645;    3,045
655,762;45888,913;   -0,991;    0,409
656,338;45916,152;    0,100;    0,136
656,913;46845,482;   -0,082;    0,409
657,489;46007,358;    0,827;   -0,318
658,065;45974,779;   -0,173;   -1,591
658,641;46601,654;   -0,900;   -0,864
659,217;45838,893;   -0,991;    0,409
659,792;45233,496;    0,645;   -0,409
660,368;45410,462;   -2,173;   -0,682
660,944;44668,429;   -2,082;    1,227
661,519;39233,213;   -0,628;    0,409
662,095;33210,725;   -1,719;    0,591
662,670;29064,419;    1,281;   -0,136
663,246;28149,840;    1,009;   -0,409
663,821;27577,988;    0,281;    1,682
664,396;27057,136;    0,009;    1,864
664,972;27362,921;    0,009;   -0,500
665,547;27639,705;    1,372;    0,136
666,122;27635,217;   -1,082;    0,318
666,698;27942,547;   -0,173;    0,318
667,273;27292,150;   -0,173;    0,136
667,848;28131,571;    2,372;    1,500
668,423;27957,264;    2,190;    2,318
668,998;28555,685;    2,827;   -0,682
669,573;29045,379;   -3,264;   -1,500
670,148;28904,982;   -1,446;   -0,682
670,723;28697,584;   -1,810;    0,318
671,298;29149,551;    2,372;    1,045
671,873;29224,063;   -0,082;   -0,136
672,448;29169,574;    0,645;    0,136
673,023;29466,995;   -1,992;   -0,227
673,597;29888,871;    0,827;    2,318
674,172;29672,837;   -0,355;    0,318
674,747;29095,440;    0,372;   -1,045
675,321;28937,497;   -0,628;    3,318
675,896;28504,009;    0,645;    1,045
676,471;29518,521;    2,645;    1,591
677,045;29275,578;   -1,264;    0,682
677,620;29295,272;    0,190;    1,136
678,194;29547,602;   -2,628;    1,136
678,769;29180,386;   -1,083;   -0,318
679,343;29461,262;   -0,628;    1,773
679,917;29353,955;   -1,446;    1,955
680,492;29439,558;    0,826;    3,227
681,066;29563,434;    3,372;    0,409
681,640;29565,036;    1,463;   -0,318
682,214;30391,457;    0,735;    0,500
682,788;29953,333;   -1,356;   -0,773
683,363;29930,208;   -1,810;    1,682
683,937;29606,266;   -1,719;   -0,318
684,511;30347,414;    0,463;   -0,591
685,085;30061,835;   -1,356;    0,318
685,659;29812,528;   -2,538;    0,864
686,232;30079,677;   -0,356;   -0,318
686,806;29739,825;   -0,901;    0,409
687,380;30436,609;   -0,174;    0,591
687,954;30606,121;   -1,174;    1,136
688,528;30339,724;   -0,719;    1,955
689,101;31144,054;   -3,992;    1,045
689,675;30697,384;   -0,356;   -0,136
690,249;30076,168;   -0,719;    0,409
690,822;30356,953;    0,280;    0,318
691,396;30487,919;   -0,265;    1,227
691,969;29936,340;    1,280;    0,136
692,543;30388,579;   -0,447;   -1,955
693,116;29992,909;   -0,265;   -1,409
693,690;29914,512;    0,099;    0,500
694,263;30428,388;   -1,083;    2,955
694,836;30495,536;    1,371;    3,591
695,410;29147,593;   -0,265;    1,773
695,983;29636,287;    0,189;    0,591
696,556;29569,617;   -0,447;   -1,045
697,129;29899,856;   -0,356;    1,409
697,703;29568,277;   -1,629;    1,955
698,276;29549,425;    1,462;   -0,773
698,849;29371,028;    1,280;    1,409
699,422;29703,994;   -1,083;    0,591
699,995;29409,233;    0,007;    0,136
700,568;29895,654;   -0,629;    3,045
701,140;29965,802;   -2,811;    1,682
701,713;29730,405;   -0,174;    2,409
702,286;29447,917;   -0,538;    0,864
702,859;29340,792;   -0,902;   -0,591
703,432;28461,486;    0,825;    0,682
704,004;28981,452;    0,462;    0,318
704,577;28850,692;   -0,629;    0,136
705,150;29463,567;    0,189;    2,500
705,722;29273,352;   -0,356;   -3,227
706,295;29006,863;   -0,175;   -0,591
706,867;28890,375;   -0,175;    1,955
707,440;29097,523;   -1,720;   -0,409
708,012;29348,126;    0,462;    0,591
708,584;29250,729;    2,462;    0,227
709,157;29559,968;    1,825;   -0,591
709,729;29224,571;    2,280;    2,045
710,301;29993,719;    0,734;    0,045
710,874;30032,503;   -1,447;   -0,227
711,446;28887,379;    0,371;    0,864
712,018;28767,436;    0,098;    0,500
712,590;28475,494;   -1,993;    1,682
713,162;29040,369;    0,825;    1,318
713,734;29265,972;    1,825;   -2,045
714,306;29135,393;   -1,902;   -0,409
714,878;27848,814;    0,825;    0,864
715,450;28702,871;    0,643;    0,864
716,022;28927,110;    1,552;    1,318
716,593;29038,258;    0,189;    0,591
717,165;29013,861;   -3,175;   -1,227
717,737;28755,100;    0,280;    0,409
718,309;28385,885;    0,280;   -0,045
718,880;28375,851;   -0,539;   -1,409
719,452;28545,635;   -0,175;   -1,591
720,024;28110,693;    0,734;   -0,591
720,595;28688,841;   -2,902;    0,955
721,167;28260,716;    0,370;   -2,045
721,738;27838,137;   -0,812;   -1,045
722,309;27879,831;   -0,993;   -1,227
722,881;27568,343;   -1,357;    0,773
723,452;28217,400;   -2,630;    2,864
724,023;28367,912;   -0,721;    2,682
724,595;28173,060;    0,007;    0,682
725,166;27845,027;    0,007;   -0,409
725,737;27592,993;    1,734;    0,227
726,308;27666,323;   -0,266;    0,318
726,879;28128,471;   -1,630;    1,227
727,450;27961,438;    0,552;   -0,045
728,021;27933,040;    3,097;    0,682
728,592;27709,098;    0,734;    0,500
729,163;28060,428;    0,643;   -0,136
729,734;28049,030;    0,188;   -0,227
730,305;28396,088;    1,734;    0,136
730,876;28759,145;    0,188;    2,955
731,447;28501,384;    2,188;    2,682
732,017;28636,441;    1,097;    1,864
732,588;28055,680;    0,734;    1,227
733,159;28278,465;    0,643;   -1,045
733,729;28085,431;    0,006;    0,409
734,300;27324,125;    0,915;    0,864
734,870;27707,910;    3,461;    0,591
735,441;28275,694;    0,370;   -0,591
736,011;28090,115;    0,643;   -1,591
736,582;27999,172;   -0,812;    0,045
737,152;27456,139;   -1,721;   -2,045
737,722;27910,014;   -0,267;   -0,682
738,293;27649,526;   -1,358;    1,318
738,863;27551,220;    2,461;    2,318
739,433;27345,550;    5,279;    0,318
740,003;27964,425;   -0,994;   -0,682
740,573;27329,391;    2,097;   -1,591
741,143;27308,358;   -1,085;    0,318
741,713;28066,142;    1,188;   -0,500
742,283;27831,654;    0,915;    1,591
742,853;27590,893;    1,915;    1,591
743,423;27011,223;    1,733;    0,045
743,993;27125,644;   -0,358;    1,500
744,563;26507,974;    0,097;   -0,864
745,133;26508,032;   -0,812;   -0,864
745,702;27178,089;   -0,267;    1,773
746,272;26335,601;   -0,176;    0,591
746,842;26119,022;   -1,358;   -0,591
747,411;26585,079;   -0,267;   -0,318
747,981;26755,318;    0,097;    0,500
748,551;26790,739;    2,278;   -1,045
749,120;26639,160;    0,642;   -0,227
749,690;27059,672;   -0,631;    2,409
750,259;27347,456;    1,369;    2,955
750,828;27218,423;    1,551;   -1,955
751,398;27569,207;    1,278;   -0,045
751,967;27090,174;    2,187;    0,409
752,536;27250,958;   -0,813;   -0,227
753,105;27659,379;    0,096;    0,227
753,675;27440,255;    0,096;    1,773
754,244;27406,039;   -0,904;    3,591
754,813;27459,824;    0,551;    1,227
755,382;27039,335;    0,460;    0,955
755,951;27645,484;    1,551;    3,682
756,520;27174,086;   -0,085;    1,864
757,089;27813,325;    0,278;    0,500
757,658;27896,837;    1,733;    1,227
758,227;27866,258;    1,096;    0,318
758,795;28156,134;    1,187;    1,136
759,364;28347,827;   -0,086;   -0,591
759,933;27385,430;   -1,176;   -0,045
760,501;26856,578;    0,733;   -1,318
761,070;27371,908;   -2,813;   -1,409
761,639;28088,329;   -1,904;    1,318
762,207;27455,659;    1,551;   -0,955
762,776;27399,353;    0,369;    0,864
763,344;27357,592;   -0,995;    0,591
763,913;26369,195;   -0,722;    1,409
764,481;27135,616;    1,005;   -0,136
765,049;26914,855;   -1,358;    1,409
765,618;26784,548;   -0,086;    0,318
766,186;26863,333;    0,278;    0,136
766,754;27057,936;    0,005;    1,864
767,322;26072,084;   -1,995;    0,409
767,890;26106,959;   -0,722;   -1,773
768,459;26523,471;   -2,177;   -0,318
769,027;26684,347;    1,641;    3,409
769,595;25654,949;    3,278;    2,591
770,163;26064,007;    3,823;    2,955
770,730;25869,246;    0,732;   -0,136
771,298;25689,939;    0,187;   -1,409
771,866;25764,179;   -1,541;    4,955
772,434;26092,327;   -0,631;   -1,864
773,002;26204,111;    0,005;    0,682
773,569;25889,260;    0,914;    1,682
774,137;25715,408;   -0,268;   -0,045
774,705;26418,647;    0,278;   -0,136
775,272;25938,886;    0,641;    0,682
775,840;25694,034;   -0,177;    2,682
776,407;25281,910;    0,277;    1,955
776,975;24923,240;   -0,632;    0,318
777,542;25879,388;   -1,086;   -0,045
778,110;25680,445;   -1,268;   -0,045
778,677;25361,411;   -2,359;   -0,864
779,244;25129,105;    2,186;    1,045
779,812;25276,708;    1,823;    0,864
780,379;25156,492;    0,005;    1,136
780,946;25358,459;    1,005;   -0,773
781,513;25663,062;   -1,450;    0,318
782,080;25047,573;   -0,086;    2,864
782,647;25792,358;   -0,268;    3,045
783,214;25347,142;   -0,177;    3,864
783,781;25000,200;   -0,723;   -0,682
784,348;24861,621;   -0,632;    1,500
784,915;25259,587;   -3,177;    0,318
785,482;25095,008;    1,368;    2,591
786,049;25523,247;    0,186;   -0,591
786,615;25620,395;    0,277;   -0,955
787,182;25298,271;    0,186;   -0,682
787,749;24981,873;   -2,814;    1,409
788,315;24366,840;   -1,632;   -0,409
788,882;24618,443;    1,550;   -1,227
789,448;25365,045;    1,732;   -0,955
790,015;25370,284;    1,095;    3,227
790,581;24957,342;    1,459;    0,227
791,148;24863,944;    0,641;    1,045
791,714;25086,002;   -0,541;    3,136
792,280;24738,150;    0,186;    1,591
792,847;24275,389;    0,550;    2,500
793,413;24839,446;   -0,269;   -0,318
793,979;24371,867;    3,459;   -1,318
794,545;24534,652;    4,459;    2,682
795,111;23927,345;    2,186;    1,318
795,678;24067,585;    0,731;   -1,682
796,244;23711,187;    3,368;    0,136
796,810;24244,881;    1,731;    0,773
797,375;23975,120;    0,549;   -2,136
797,941;23992,905;   -0,541;    0,591
798,507;24124,507;   -0,451;   -0,955
799,073;23662,110;   -0,360;    0,591
799,639;23729,895;   -2,632;    3,136
800,205;23744,952;    0,095;    2,682
800,770;23287,282;    0,640;    1,773
801,336;23402,976;    1,368;   -0,955
801,901;23113,942;    4,549;    3,136
802,467;23664,454;   -0,542;    2,045
803,033;22990,966;   -0,087;    0,864
803,598;23224,387;    1,913;   -1,045
804,163;23243,808;    1,095;   -0,318
804,729;23208,228;   -0,178;    1,136
805,294;23566,377;    0,822;    2,227
805,859;23348,343;    0,731;   -0,409
806,425;22855,491;    1,186;    2,682
806,990;22511,549;    2,186;    4,318
807,555;22986,697;   -1,451;    2,591
808,120;22931,754;    0,822;   -0,409
808,685;22972,266;    0,185;   -2,500
809,250;22441,141;    0,004;   -0,500
809,815;22720,653;    1,913;    0,682
810,380;23292,529;   -0,269;    1,591
810,945;23866,313;   -1,087;    2,045
811,510;22949,189;    2,094;    1,591
812,075;22722,791;   -0,633;   -1,409
812,640;22753,212;    2,003;    1,409
813,204;22807,997;    0,822;   -0,227
813,769;23307,054;    2,094;   -0,045
814,334;22731,566;    0,458;    0,864
814,898;22747,896;    0,367;    0,591
815,463;22584,590;    1,276;   -0,773
816,027;22562,374;   -0,724;   -2,318
816,592;22598,704;    0,640;   -2,045
817,156;22185,307;    2,094;    1,136
817,721;22005,819;    4,276;    2,318
818,285;21999,512;    2,912;    1,500
818,849;22656,842;   -1,451;    1,682
819,414;22533,809;   -0,269;    2,955
819,978;22116,502;   -1,269;    1,773
820,542;22733,469;    2,003;    0,500
821,106;22386,708;   -0,815;    0,682
821,670;22531,492;   -0,815;    2,591
822,234;22217,095;   -0,270;    1,409
822,798;21599,153;    0,003;    0,500
823,362;21541,755;   -0,633;    4,227
823,926;20891,540;    0,094;    1,136
824,490;21116,506;   -0,997;   -0,682
825,054;21562,927;   -0,088;   -1,136
825,618;21186,893;   -1,542;   -1,500
826,181;21158,042;    0,458;   -1,318
826,745;21056,735;    1,367;   -1,045
827,309;21441,702;    1,185;    1,318
827,872;20765,214;    1,367;    0,955
828,436;21748,634;    1,185;   -0,773
828,999;21755,419;   -0,997;    1,227
829,563;20508,385;   -0,179;    1,136
830,126;20367,715;   -0,179;   -0,591
830,690;20450,409;   -1,997;    2,864
831,253;19911,830;   -0,543;    2,227
831,816;20106,524;   -1,906;    0,500
832,380;20000,126;    0,185;    0,864
832,943;20214,093;   -1,361;   -0,500
833,506;19700,968;    2,639;   -1,227
834,069;20468,662;    3,912;   -0,955
834,632;20546,719;    1,730;    1,318
835,195;20475,504;    1,003;    0,955
835,758;19672,470;   -0,997;    1,955
836,321;19508,982;    0,730;   -1,045
836,884;19591,676;   -0,725;   -0,955
837,447;19593,551;   -2,816;    1,773
838,010;19884,790;    0,366;    3,227
838,573;20190,938;   -1,179;    0,773
839,135;20118,541;   -1,361;   -0,955
839,698;19577,053;    1,275;    0,409
840,261;19114,837;    1,003;   -0,227
840,823;18930,622;   -0,543;    0,864
841,386;19241,498;   -0,452;   -2,409
841,948;19134,555;   -1,361;    1,773
842,511;18854,067;    0,912;    1,682
843,073;19013,033;    1,912;    0,227
843,636;18734,090;   -0,361;   -0,227
844,198;18755,693;    0,911;    0,591
844,760;18888,296;    1,093;    1,955
845,322;18508,717;    0,548;    1,136
845,885;18964,865;    0,730;    0,591
846,447;19390,286;   -1,998;    0,227
847,009;18999,798;    1,911;   -0,682
847,571;19315,491;    0,820;   -2,045
848,133;19384,003;   -1,089;   -1,864
848,695;19195,424;   -0,543;    1,409
849,257;18815,300;   -1,089;   -1,682
849,819;18973,630;   -0,998;   -0,409
850,381;18973,050;   -0,725;   -0,864
850,942;19385,199;    1,093;   -0,591
851,504;19403,620;    1,184;    0,227
852,066;19392,222;    1,275;   -1,591
852,628;18896,734;   -0,180;    1,955
853,189;18466,610;    1,638;    2,682
853,751;18586,849;   -0,907;    1,409
854,312;18346,451;   -0,453;   -1,682
854,874;18858,327;   -2,089;   -0,773
855,435;19421,839;   -0,907;   -1,682
855,997;19591,805;   -1,816;   -0,136
856,558;18856,226;    0,366;    1,773
857,119;18912,102;    0,820;    2,864
857,681;18569,159;    0,002;    0,318
858,242;18623,398;    1,911;   -2,136
858,803;19089,092;    0,456;   -0,773
859,364;19662,694;    0,184;   -4,773
859,925;18974,297;   -2,453;   -0,955
860,486;18876,718;   -0,453;   -0,955
861,047;18564,957;   -0,544;   -1,227
861,608;18382,833;   -1,089;   -0,773
862,169;18525,072;    0,638;   -0,045
862,730;18284,583;    0,456;    1,409
863,291;18560,550;   -0,635;   -0,500
863,852;18917,880;   -0,635;    1,955
864,412;18373,119;   -0,271;   -0,864
864,973;16963,813;   -0,089;    0,500
865,534;16854,961;   -1,726;    0,227
866,094;18344,109;    1,820;    0,227
866,655;17997,530;    1,274;    3,318
867,215;18272,678;    0,274;    0,136
867,776;18086,190;    0,547;   -0,136
868,336;18221,429;   -1,453;    0,136
868,897;17708,486;    2,638;    1,682
869,457;17408,362;    1,365;    0,318
870,017;17622,055;    0,547;   -1,227
870,578;18173,385;   -0,817;    0,773
871,138;17858,988;   -2,089;   -0,955
871,698;17396,318;   -0,817;   -1,318
872,258;17280,921;   -0,453;   -2,864
872,818;17704,706;    2,729;    0,045
873,378;17609,126;    0,638;    1,045
873,938;17130,002;    0,547;    0,500
874,498;17506,514;    0,274;   -1,955
875,058;17434,935;    2,183;    1,773
875,618;17253,628;    1,910;   -2,682
876,177;17176,686;    1,274;    0,136
876,737;16762,470;   -0,090;    1,955
877,297;16764,346;    0,183;    1,955
877,856;16774,130;   -0,362;    0,318
878,416;16701,097;    1,183;   -0,136
878,976;16974,518;   -1,817;    0,409
879,535;17095,029;    0,092;    3,136
880,095;16863,178;   -0,544;    0,045
880,654;16973,235;   -1,090;    1,318
881,213;17095,292;    2,456;    1,500
881,773;16776,077;    2,637;    2,682
882,332;17129,316;    3,365;    5,136
882,891;16963,100;    3,092;    2,136
883,451;17405,521;   -1,272;    1,682
884,010;16827,397;   -2,908;   -0,409
884,569;16920,636;   -0,999;   -0,045
885,128;17091,875;    2,819;   -1,864
885,687;17150,296;    4,455;    0,682
886,246;16887,444;    1,455;    2,136
886,805;16663,592;    2,455;    2,045
887,364;16914,559;   -0,999;   -0,500
887,922;17274,798;   -1,181;    0,045
888,481;16753,219;   -1,545;    0,591
889,040;17062,458;    1,183;    2,136
889,599;17750,242;    2,455;    1,409
890,157;17827,936;    1,455;    2,409
890,716;17479,811;   -0,090;    0,227
891,274;17318,051;    0,092;   -1,136
891,833;17772,562;    1,546;    0,864
892,391;17630,074;   -0,454;    0,500
892,950;17690,677;    1,819;   -0,773
893,508;18016,916;    0,455;   -0,409
894,067;17356,155;    0,637;    0,136
894,625;17277,303;   -0,636;   -1,500
895,183;17523,633;   -0,363;   -0,682
895,741;17421,600;    1,728;   -1,773
896,299;17240,657;   -0,545;   -2,409
896,858;17429,260;    0,819;   -1,591
897,416;17544,681;    2,728;   -1,318
897,974;17274,556;    1,819;    0,318
898,532;17478,704;    6,091;    2,682
899,089;17375,125;    2,091;   -0,682
899,647;17401,637;   -1,454;    1,318
900,205;17149,876;    1,182;    1,045
900,763;17302,024;   -0,454;    0,227
901,321;17310,809;    2,364;   -1,409
901,878;16743,230;   -1,000;   -0,773
902,436;16621,287;   -1,363;    1,318
902,994;17012,072;    4,728;    3,682
903,551;16466,856;    0,728;    0,409
904,109;16852,641;    0,182;   -1,409
904,666;16375,698;    2,455;    1,045
905,224;16213,028;    0,182;   -0,409
905,781;16002,449;    0,727;   -0,318
906,338;16075,779;   -1,363;    1,045
906,895;15966,655;    0,637;    2,045
907,453;15904,530;    1,727;    1,136
908,010;15950,860;   -0,909;    0,409
908,567;15584,826;    1,273;    0,591
909,124;15076,066;    0,364;   -1,500
909,681;15143,486;   -2,909;    0,682
910,238;15283,362;    0,636;   -1,318
910,795;15597,965;   -0,273;   -1,136
911,352;15189,419;   -2,909;   -2,682
911,909;14619,965;   -1,364;   -0,864
912,466;15124,783;   -3,182;    1,500
913,022;14651,237;   -1,636;    0,500
913,579;15047,510;   -0,909;    2,045
914,136;14730,237;    1,636;    0,955
914,692;15081,146;    0,091;   -1,227
915,249;14723,965;    1,455;    0,409
915,806;14937,601;    0,182;    1,955
916,362;14694,328;    1,909;    1,864
916,918;14249,328;    2,000;    1,045
917,475;14230,783;   -1,182;    0,955
918,031;14295,783;    3,364;   -0,045
918,587;13725,237;   -0,909;   -0,318
919,144;13935,510;   -2,273;    0,227
919,700;14266,328;    1,727;    0,773
920,256;13835,874;    0,727;    0,045
920,812;13478,874;   -0,727;   -1,045
921,368;13475,965;   -1,727;   -1,045
921,924;13063,965;    0,182;   -0,136
922,480;12675,419;   -0,545;    1,227
923,036;13305,328;    1,273;    1,955
923,592;13200,783;    0,455;    0,318
924,148;13116,146;    0,455;   -0,955
924,704;12413,328;   -1,364;   -0,409
925,259;12683,146;   -0,273;    0,591
925,815;12483,056;    1,455;    0,500
926,371;11945,692;    2,909;    1,409
926,926;11853,601;    2,091;    0,591
927,482;11489,601;   -1,364;    0,773
928,037;11360,056;    0,909;    2,045
928,593;11656,056;    1,636;    1,045
929,148;11476,601;   -1,818;   -1,500
929,704;10984,328;   -1,455;   -0,500
930,259;11191,510;    0,091;   -0,136
930,814;10265,965;   -0,818;    1,955
931,369; 9916,419;    1,091;   -0,773
931,925; 9809,965;   -0,091;    0,136
932,480; 9709,328;   -2,818;   -2,591
933,035; 9578,419;    0,545;   -0,318
933,590; 9385,146;    0,364;   -1,773
934,145; 8974,692;   -1,364;   -0,318
934,700; 9326,510;    0,455;   -0,591
935,255; 9120,419;   -0,091;    0,045
935,809; 8421,146;    3,182;    0,864
936,364; 7529,328;   -0,455;   -0,136
936,919; 7488,328;    0,455;   -1,773
937,474; 7349,237;    1,455;    0,136
938,028; 7116,601;   -1,636;    1,136
938,583; 6626,601;    1,818;    4,682
939,138; 6870,692;    2,091;    2,136
939,692; 6292,965;    1,636;   -1,136
940,247; 6011,328;   -0,727;   -1,045
940,801; 5584,965;   -0,636;    0,227
941,355; 5459,510;   -0,364;    2,591
941,910; 5096,783;   -0,273;   -2,136
942,464; 5232,146;   -0,818;   -0,318
943,018; 5043,419;    1,000;   -0,227
943,572; 4985,510;    2,545;   -0,682
944,126; 4390,783;    0,091;   -0,409
944,681; 4283,419;    3,091;    0,227
945,235; 4261,146;    1,000;   -0,591
945,789; 4217,965;    0,364;   -1,864
946,342; 4309,874;    0,455;   -0,591
946,896; 4108,237;   -2,273;    0,955
947,450; 3874,328;    1,545;   -0,227
948,004; 4069,783;    1,727;   -0,045
948,558; 4057,965;    0,273;   -0,864
949,111; 3991,692;   -0,273;   -0,318
949,665; 4030,692;    1,636;   -0,682
950,219; 3899,056;   -0,091;   -1,045
950,772; 3972,419;   -1,909;    1,864
951,326; 3883,601;    0,545;   -0,955
951,879; 3986,965;    0,727;   -2,318
952,433; 3995,328;    0,000;    2,227
952,986; 3843,692;    2,909;    0,682
953,539; 3803,056;   -0,273;    0,591
954,093; 3724,419;    0,545;   -1,318
954,646; 3860,510;    0,909;    1,318
955,199; 3673,692;    0,000;   -0,500
955,752; 3538,783;   -0,455;    1,773
956,305; 3495,965;   -0,091;    2,955
956,858; 3689,965;    0,818;   -0,318
957,411; 3842,965;   -0,545;    2,136
957,964; 3708,601;    1,364;    2,136
958,517; 3682,510;   -1,545;    3,136
959,070; 3511,692;   -0,455;    1,955
959,623; 3590,237;    1,091;    1,500
960,176; 3358,510;    1,727;    2,045
960,728; 3333,146;   -2,727;    0,773
961,281; 3399,874;    0,545;    0,500
961,834; 3440,692;   -0,909;    0,864
962,386; 3355,328;    1,727;    1,045
962,939; 3269,783;    0,364;   -0,318
963,491; 3408,874;    0,455;    1,136
964,043; 3295,056;    1,182;    2,409
964,596; 3424,328;   -1,000;    2,227
965,148; 3265,874;   -1,000;    1,773
965,700; 3173,783;    1,091;   -0,227
966,253; 3326,874;   -0,636;    0,318
966,805; 3167,419;   -2,273;    0,773
967,357; 3203,237;    1,091;   -1,500
967,909; 3153,874;    0,455;   -1,227
968,461; 3268,783;    0,545;    3,136
969,013; 3199,146;   -0,182;   -0,864
969,565; 3287,874;   -0,455;   -1,136
970,117; 3344,510;   -0,364;    1,045
970,669; 3183,601;    0,182;   -0,136
971,220; 3048,783;   -0,455;   -1,500
971,772; 2983,965;   -0,636;   -0,318
972,324; 3090,783;    0,091;   -0,500
972,876; 3033,783;    0,818;   -0,045
973,427; 3176,146;    1,909;   -1,045
973,979; 3133,874;   -0,727;   -2,500
974,530; 3178,146;    1,818;    1,318
975,082; 3182,237;   -0,545;    1,682
975,633; 3078,692;    1,091;    1,682
976,184; 3227,510;    0,909;    0,773
976,736; 3018,146;    0,091;    0,227
977,287; 2810,056;   -0,909;   -0,500
977,838; 3004,601;    0,909;   -0,318
978,389; 3066,237;   -1,000;   -0,500
978,940; 2926,328;    0,545;   -0,409
979,491; 2955,601;    0,091;   -0,500
980,042; 2905,874;    0,182;    3,045
980,593; 2958,510;   -2,545;    0,227
981,144; 2986,965;    2,545;   -0,500
981,695; 2973,419;    1,455;    1,500
982,246; 2926,965;   -0,273;    1,045
982,797; 3084,056;   -1,727;    0,682
983,347; 3201,783;    0,364;    0,591
983,898; 3377,146;    3,091;    0,409
984,449; 3192,601;    2,182;    0,773
984,999; 3098,146;    1,455;   -1,136
985,550; 2880,874;    0,182;   -0,318
986,100; 2906,601;   -0,455;   -0,318
986,651; 2937,965;   -0,818;    0,045
987,201; 2910,692;   -1,000;   -0,591
987,751; 2979,874;    0,818;    2,864
988,302; 2985,056;    2,636;    1,500
988,852; 3024,965;    0,455;   -1,136
989,402; 3076,328;    0,091;    0,682
989,952; 2988,874;   -2,182;    0,864
990,502; 3068,692;   -0,091;    0,682
991,052; 3016,146;   -0,727;    0,045
991,602; 2886,510;   -2,909;    1,318
992,152; 2872,874;    0,455;    0,682
992,702; 2879,419;    1,364;   -0,045
993,252; 2800,965;   -3,000;   -0,500
993,802; 2890,783;   -0,273;    1,318
994,352; 3126,328;   -1,545;    1,136
994,901; 3221,419;   -0,182;    3,227
995,451; 3128,328;   -0,182;    0,318
996,000; 3212,146;    1,636;    0,318
996,550; 2922,692;    2,273;    0,227
997,100; 2933,601;    1,273;   -0,045
997,649; 3216,601;    2,182;    0,955
998,198; 2828,692;    1,727;   -1,500
998,748; 3033,874;    1,091;   -2,318
999,297; 2934,328;   -0,818;   -0,409
999,846; 2992,965;    1,000;   -0,773
1000,395; 3053,510;   -0,818;    0,500
1000,945; 3013,146;    1,818;   -0,773
1001,494; 3109,146;    2,364;    0,682
1002,043; 3088,601;    4,636;    0,864
1002,592; 2922,510;   -1,091;    1,955
1003,141; 3072,510;   -0,455;   -0,682
1003,690; 2936,056;    1,727;    0,500
1004,238; 3004,601;    1,455;   -0,045
1004,787; 2642,056;    1,364;    1,227
1005,336; 2881,783;    0,364;    0,682
1005,885; 3033,874;    1,364;   -2,773
1006,433; 3181,237;    0,545;    0,955
1006,982; 3219,692;    0,455;    1,682
1007,531; 3139,056;   -1,818;   -0,227
1008,079; 3083,419;   -2,273;    0,500
1008,627; 3206,965;   -1,455;    0,409
1009,176; 2941,874;    0,000;   -1,955
1009,724; 2982,874;    1,091;    0,864
1010,273; 3064,965;    1,273;    0,500
1010,821; 3157,692;    0,091;    1,409
1011,369; 2878,874;   -1,364;    1,318
1011,917; 2874,056;   -1,364;   -0,591
1012,465; 3150,692;    1,273;   -1,591
1013,013; 3258,510;    2,091;   -1,682
1013,561; 3152,510;    0,455;   -0,773
1014,109; 3208,146;   -1,909;    1,682
1014,657; 3087,965;    0,364;    0,591
1015,205; 3199,783;    1,636;   -0,955
1015,753; 3236,692;   -0,545;   -1,409
1016,301; 3271,510;   -2,636;    3,045
1016,848; 3267,056;   -1,273;    0,409
1017,396; 3323,328;    2,545;    0,045
1017,944; 3432,510;    1,182;    1,864
1018,491; 3175,510;    0,273;    1,409
1019,039; 3344,965;    0,455;    0,591
1019,586; 3236,965;   -1,364;    1,682
1020,134; 3349,056;    0,455;    1,500
1020,681; 3383,783;    0,182;   -1,136
1021,228; 3380,601;    2,909;   -2,227
1021,776; 3197,601;    1,182;   -1,136
1022,323; 3433,237;    0,455;    0,773
1022,870; 3349,237;   -1,000;   -0,045
1023,417; 3264,056;    2,636;    1,864
1023,964; 3386,965;    2,636;    1,227
1024,511; 3216,510;    1,000;    0,773
1025,058; 3038,692;    3,182;   -0,045
1025,605; 3105,056;   -2,273;    3,136
1026,152; 3321,783;    1,727;   -0,591
1026,699; 3028,328;    1,818;    1,318
1027,245; 3198,510;   -0,091;    0,318
1027,792; 3393,237;   -1,000;    1,409
1028,339; 3288,510;    2,364;   -0,045
1028,885; 3129,601;    1,000;   -0,227
1029,432; 3080,601;   -0,091;    0,227
1029,978; 3149,965;   -1,000;   -1,591
1030,525; 3051,056;    1,000;    0,409
1031,071; 3282,146;   -1,364;    1,136
1031,618; 3400,692;    0,364;    1,682
1032,164; 3181,419;   -0,091;    3,045
1032,710; 3218,328;    1,636;   -1,500
1033,256; 3129,783;   -0,636;   -0,136
1033,803; 3109,692;   -0,545;    1,500
1034,349; 2825,328;   -1,364;    0,136
1034,895; 2981,692;    0,000;   -0,318
1035,441; 2976,601;   -0,818;    0,318
1035,987; 2976,328;   -2,364;   -0,682
1036,533; 2974,874;   -1,455;   -0,955
1037,078; 3168,419;    1,455;    1,682
1037,624; 2976,419;    2,455;   -0,955
1038,170; 3010,783;    0,455;   -0,318
1038,716; 2931,146;    1,636;   -0,409
1039,261; 2845,237;   -2,273;   -0,773
1039,807; 2779,601;   -0,091;    3,409
1040,352; 2834,056;   -1,909;   -0,318
1040,898; 2885,874;   -1,545;   -0,682
1041,443; 2780,419;   -1,455;   -2,591
1041,989; 2819,692;    1,091;    1,591
1042,534; 2706,965;   -0,364;    2,591
1043,079; 2800,601;    2,909;    0,955
1043,625; 2598,328;    1,818;    0,500
1044,170; 2633,056;   -1,364;    1,045
1044,715; 2902,146;    2,455;    0,955
1045,260; 2724,783;    2,182;   -0,955
1045,805; 2766,237;    1,182;   -0,591
1046,350; 2679,237;    1,364;   -0,409
1046,895; 2642,146;    2,909;    1,591
1047,440; 2595,146;    5,364;    0,409
1047,985; 2503,601;    2,818;   -0,955
1048,530; 2431,419;    1,545;    1,227
1049,074; 2492,419;    0,000;    0,318
1049,619; 2453,965;   -1,364;    1,955
1050,164; 2269,965;    0,455;    0,227
1050,708; 2302,419;   -0,455;    0,045
1051,253; 2682,056;    1,273;   -2,227
1051,797; 2389,510;    0,818;   -1,318
1052,342; 2401,965;   -1,182;    1,045
1052,886; 2406,965;    0,364;   -1,409
1053,430; 2263,783;   -1,364;    0,136
1053,975; 2279,601;   -0,818;   -0,318
1054,519; 2263,601;   -0,727;    3,227
1055,063; 2296,874;    0,909;    1,318
1055,607; 2179,601;   -0,182;    0,227
1056,151; 2190,601;    2,909;    1,682
1056,695; 2098,056;    2,273;   -1,136
1057,239; 2175,328;   -1,727;   -0,682
1057,783; 2190,328;    0,818;   -1,500
1058,327; 2132,328;    0,000;    1,409
1058,871; 2371,056;   -0,545;    1,318
1059,415; 2071,237;   -0,818;   -0,045
1059,958; 2345,419;    1,455;    2,591
1060,502; 2062,056;   -1,000;   -0,773
1061,046; 1945,874;    0,364;   -0,955
1061,589; 1929,237;   -3,000;   -1,136
1062,133; 1807,419;   -1,273;    1,864
1062,676; 1757,419;    1,182;    0,864
1063,220; 1760,874;    1,091;    0,500
1063,763; 1798,237;    0,909;    1,136
1064,306; 1874,692;   -0,909;    1,864
1064,849; 1762,874;   -0,909;    0,591
1065,393; 1756,601;    2,000;   -1,500
1065,936; 1877,056;    0,182;   -0,409
1066,479; 1756,146;   -1,455;    1,318
1067,022; 1778,510;   -0,273;   -0,227
1067,565; 1667,874;   -0,091;   -1,318
1068,108; 1693,601;    0,727;   -0,591
1068,651; 1664,510;   -0,636;    1,409
1069,194; 1600,874;   -0,455;   -1,682
1069,736; 1613,510;   -1,273;    0,955
1070,279; 1582,692;   -1,364;   -0,500
1070,822; 1646,692;   -2,000;   -0,318
1071,364; 1733,601;   -0,364;    1,318
1071,907; 1548,692;   -0,727;    3,227
1072,450; 1437,510;    0,000;   -0,045
1072,992; 1434,328;   -0,273;    3,136
1073,535; 1587,237;    2,091;    2,136
1074,077; 1376,056;   -0,727;    2,045
1074,619; 1347,874;   -1,364;    0,591
1075,161; 1394,056;   -1,091;    1,500
1075,704; 1574,965;    1,545;    1,227
1076,246; 1350,237;   -0,182;    0,682
1076,788; 1281,965;   -0,364;    1,773
1077,330; 1356,237;    1,273;    2,136
1077,872; 1331,783;    0,909;    0,955
1078,414; 1549,601;    2,727;    0,773
1078,956; 1289,056;    1,273;   -0,227
1079,498; 1559,056;    1,636;    0,318
1080,040; 1269,419;    1,909;   -1,318
1080,581; 1208,874;    1,636;   -0,318
1081,123; 1119,328;    0,091;   -0,773
1081,665; 1161,874;   -1,182;   -0,955
1082,206; 1484,237;    1,364;   -0,500
1082,748; 1336,328;    0,727;    2,045
1083,289; 1197,056;   -2,000;    1,318
1083,831; 1108,692;   -0,545;    0,227
1084,372; 1153,146;    0,000;    0,591
1084,913; 1156,874;    1,091;    0,864
1085,455; 1112,056;   -1,909;   -2,045
1085,996; 1084,874;   -2,273;    0,136
1086,537; 1115,510;   -0,091;    0,864
1087,078; 1153,419;   -0,909;   -2,136
1087,619; 1187,965;   -1,273;    0,227
1088,160; 1107,146;    0,000;    1,318
1088,701; 1089,419;   -1,091;    0,682
1089,242; 1016,146;    1,364;   -2,227
1089,783; 1128,874;   -0,273;    1,409
1090,324; 1094,237;    0,455;    0,682
1090,865;  976,328;    2,727;   -0,409
1091,405;  932,237;    0,727;    2,227
1091,946;  969,601;    0,182;   -0,955
1092,487;  884,510;    0,818;   -1,409
1093,027; 1062,056;   -1,364;   -1,500
1093,568;  918,237;   -0,364;    1,227
1094,108; 1029,874;    0,273;    1,773
1094,649;  962,056;   -1,182;    0,136
1095,189;  888,056;   -0,636;   -0,682
1095,729;  842,056;   -0,091;    0,955
1096,269;  839,146;    0,727;   -0,955
1096,810; 1160,237;   -1,364;    0,500
1097,350;  994,056;    1,364;   -0,773
1097,890;  896,056;    0,364;    1,227
1098,430; 1155,056;    2,364;    2,864
1098,970; 1024,783;    2,182;    1,682
1099,510;  879,783;    0,545;   -2,318
1100,050;  812,146;    1,000;   -1,591
1100,589;  778,965;   -0,727;   -0,318
1101,129;  905,328;    0,818;   -0,955
1101,669; 1063,419;    1,727;    2,136
1102,209;  879,783;   -0,091;    2,227
1102,748;  833,328;    0,000;    0,955
1103,288;  821,146;    1,273;   -1,227
1103,827;  849,146;    3,091;   -2,227
1104,367;  724,419;   -0,091;   -2,409
1104,906;  686,237;    1,364;   -1,136
1105,445;  764,874;    0,636;   -1,136
1105,985;  706,692;   -0,727;    1,500
1106,524;  744,056;   -1,727;   -0,682
1107,063;  725,874;   -2,727;    1,409
1107,602;  703,965;   -1,909;   -1,500
1108,141;  624,783;   -1,909;    1,500
1108,680;  728,056;   -3,455;   -0,591
1109,219;  656,237;   -0,909;   -0,500
1109,758;  672,237;    0,455;    0,682
1110,297;  650,965;    1,000;   -0,682
1110,836;  582,237;   -0,727;    0,955
1111,375;  757,965;   -2,545;    0,409
1111,913;  759,056;   -1,000;    0,773
1112,452;  695,601;   -0,273;    0,136
1112,991;  570,783;    1,091;    1,955
1113,529;  529,146;   -0,818;   -0,045
1114,068;  606,965;   -0,273;    2,955
1114,606;  508,965;   -0,364;   -0,955
1115,144;  676,692;   -1,273;    1,045
1115,683;  617,783;   -0,727;    0,318
1116,221;  655,874;   -0,455;   -0,864
1116,759;  564,419;    0,636;   -0,864
1117,297;  785,783;    0,000;    1,864
1117,836;  585,419;   -2,182;   -1,227
1118,374;  587,237;    0,182;   -0,682
1118,912;  526,328;    0,909;    2,682
1119,450;  515,419;    1,000;    0,864
1119,988;  568,510;    1,545;    2,136
1120,525; 1028,874;    5,091;    3,318
1121,063;  727,692;    1,182;    1,864
1121,601;  528,328;   -0,909;   -1,227
1122,139;  480,056;   -0,727;   -2,045
1122,676;  690,419;   -0,727;    2,773
1123,214;  623,783;   -1,182;    4,409
1123,751;  431,328;    1,727;    2,227
1124,289;  567,237;   -0,091;   -0,409
1124,826;  421,783;    1,727;    0,227
1125,364;  338,056;    1,727;   -0,955
1125,901;  540,328;    1,182;    1,227
1126,438;  670,056;    0,818;    0,955
1126,975;  375,328;   -0,727;   -0,773
1127,513;  446,874;    0,273;    2,136
1128,050;  342,419;    1,636;   -0,682
1128,587;  452,056;    2,000;   -0,227
1129,124;  495,146;    0,091;    1,318
1129,661;  355,419;    0,273;    0,227
1130,198;  530,419;    1,636;    0,773
1130,734;  480,783;    0,182;    1,409
1131,271;  327,237;   -0,909;    0,864
1131,808;  503,419;    2,909;    3,045
1132,345;  376,783;    1,545;    0,318
1132,881;  247,601;   -1,545;   -1,864
1133,418;  391,510;    0,727;   -1,136
1133,954;  320,601;    2,455;   -2,682
1134,491;  402,874;    1,364;   -0,773
1135,027;  294,783;    2,364;    0,864
1135,564;  391,965;    0,273;    2,955
1136,100;  376,601;    0,364;    2,136
1136,636;  262,237;   -1,273;   -1,045
1137,172;  365,965;    0,000;   -1,045
1137,708;  281,783;   -1,364;   -1,045
1138,245;  280,146;    1,273;   -1,227
1138,781;  234,419;    1,091;   -3,318
1139,317;  311,692;    1,273;   -1,409
1139,852;  289,965;    3,091;    0,136
1140,388;  413,783;   -1,182;   -0,409
1140,924;  299,874;   -1,091;   -2,227
1141,460;  229,601;   -1,636;    0,136
1141,996;  164,237;   -1,364;    2,682
1142,531;  212,601;    1,364;    3,318
1143,067;  435,601;    1,182;    1,045
1143,602;  499,237;   -0,091;   -0,318
1144,138;  334,328;   -2,636;    1,045
1144,673;  196,056;   -1,455;    1,409
1145,209;  279,510;   -1,909;   -0,318
1145,744;  180,237;   -0,727;    0,864
1146,279;  328,146;    1,818;   -0,136
1146,815;  237,692;    1,545;   -2,682
1147,350;  283,783;   -1,364;    0,045
1147,885;  187,874;   -0,818;   -1,318
1148,420;  186,783;   -2,273;    0,773
1148,955;  159,056;   -1,727;    1,864
1149,490;  192,237;   -0,909;   -1,591
1150,025;  176,056;    0,455;   -1,773
1150,560;  301,056;    1,091;   -0,955
1151,094;  269,146;    1,455;   -0,591
1151,629;  274,419;    1,636;    0,864
1152,164;  191,237;    1,364;    1,318
1152,698;  148,965;   -0,182;   -0,136
1153,233;  109,237;    0,091;   -0,682
1153,767;  149,237;   -3,000;   -2,318
1154,302;  203,965;   -1,455;    1,773
1154,836;  204,237;   -0,455;   -2,136
1155,371;  261,237;   -1,364;    3,682
1155,905;  212,146;   -0,636;    1,682
1156,439;  179,510;   -0,636;   -0,500
1156,973;  209,237;    0,364;    0,318
1157,507;  142,965;   -0,364;    0,682
1158,042;  178,692;   -0,727;    1,045
1158,576;  236,783;    0,182;    1,773
1159,110;  214,601;   -0,818;    2,409
1159,643;  182,510;    0,636;   -0,045
1160,177;  110,419;   -1,545;    1,500

