
Integration time [ms]:   0,040
Averaging Nr. [scans]: 11
Smoothing Nr. [pixels]: 0
Data measured with spectrometer [name]: 7318044SP
Wave   ;Sample   ;Dark     ;Reference
[nm]   ;[counts] ;[counts] ;[counts] 

186,757;   22,442;   31,551;    1,318
187,357;   65,792;   22,551;    0,955
187,958;   34,689;   15,460;   -1,591
188,558;   83,159;    8,915;   -1,227
189,159;   55,989;    6,733;   -4,500
189,759;   22,497;    7,278;   -3,591
190,360;   19,884;    2,824;   -2,136
190,960;   63,928;    2,915;   -4,136
191,560;   94,645;    3,189;   -6,591
192,161;  351,825;    4,372;   -3,500
192,761;  181,034;    4,010;   -3,227
193,361;  122,333;    1,556;   -3,773
193,962;  178,832;    2,010;   -2,682
194,562;   90,980;    1,189;   -3,955
195,162;  128,078;   -2,448;   -2,227
195,762;  308,682;   -3,176;   -0,045
196,362;  252,197;    1,370;   -2,500
196,963;   99,588;    2,006;   -0,864
197,563;  182,255;    1,551;   -0,955
198,163;  128,374;    0,096;   -0,682
198,763;  143,320;    1,733;   -0,500
199,363;  264,939;    3,096;   -0,500
199,963;  219,920;    0,369;    0,409
200,563;  189,381;    2,823;   -1,409
201,163;  168,131;    3,277;   -0,227
201,763;  268,014;    3,732;    0,318
202,363;  202,573;    1,459;    1,500
202,963;  318,264;    1,459;    1,045
203,563;  431,513;    0,277;    0,500
204,162;  264,897;    2,096;   -1,864
204,762;  260,297;    0,550;    0,591
205,362;  226,269;    3,004;    1,955
205,962;  344,671;    3,096;    1,955
206,562;  322,983;    1,823;    2,318
207,161;  291,139;   -0,087;    0,318
207,761;  455,651;    1,277;    2,409
208,361;  327,361;   -0,268;    1,409
208,960;  441,022;    0,459;    1,500
209,560;  516,312;    1,277;    1,591
210,160;  496,877;    0,550;    1,864
210,759;  458,222;    4,186;    1,227
211,359;  472,479;    1,459;    1,045
211,958;  743,892;    1,277;    2,045
212,558;  832,771;    1,732;    1,864
213,157;  658,564;    1,822;    1,500
213,757; 1128,236;    3,822;   -0,227
214,356;  812,369;    1,277;   -0,409
214,956; 1162,736;    3,095;    0,409
215,555;  771,262;    2,095;    2,136
216,154;  703,021;   -2,723;   -0,591
216,754;  706,375;    0,277;    0,773
217,353;  861,782;   -0,268;   -1,045
217,952;  703,700;   -0,178;    0,318
218,552;  957,978;    1,368;   -0,773
219,151;  855,525;    0,277;    0,955
219,750;  857,322;    0,004;   -0,227
220,349; 1000,062;   -0,451;    1,045
220,948; 1054,315;   -1,360;    1,136
221,548; 1110,311;    0,913;    1,227
222,147; 1220,863;   -0,087;   -0,409
222,746; 1496,845;   -0,451;   -0,955
223,345; 1395,416;    0,731;    0,500
223,944; 1403,106;   -0,451;    0,773
224,543; 1595,040;    1,004;   -1,409
225,142; 1727,940;    0,094;    0,136
225,741; 1632,109;   -0,814;    1,045
226,340; 1654,439;   -0,451;   -0,955
226,939; 2149,489;   -0,996;   -0,136
227,538; 2118,489;   -0,360;   -0,773
228,137; 2283,689;   -0,814;    0,864
228,735; 2447,684;   -0,541;    1,227
229,334; 2175,311;   -0,905;   -0,227
229,933; 2575,657;    0,459;    0,591
230,532; 2700,324;    1,186;   -0,409
231,131; 2746,043;    1,732;    0,318
231,729; 2924,905;   -2,450;   -2,318
232,328; 3079,221;   -0,723;   -1,500
232,927; 3168,344;    1,004;   -0,500
233,525; 3332,589;    3,640;    0,045
234,124; 3541,110;    2,368;   -1,591
234,723; 3562,787;    0,913;   -1,045
235,321; 3722,381;    2,277;    0,136
235,920; 4010,546;    1,186;   -1,227
236,518; 4283,686;    3,459;    0,318
237,117; 4479,193;    0,004;   -0,227
237,715; 4670,193;    0,640;   -0,500
238,314; 4696,339;   -0,087;   -2,318
238,912; 4772,644;   -0,723;   -1,409
239,510; 4830,442;    0,459;   -1,227
240,109; 5058,062;    0,004;    3,773
240,707; 5080,056;   -0,996;    1,227
241,305; 5491,578;    0,550;    0,136
241,904; 5737,123;   -0,178;   -2,045
242,502; 5666,411;   -0,632;   -0,227
243,100; 5608,546;   -0,087;   -0,955
243,698; 5857,091;    0,732;    1,682
244,297; 6039,770;   -0,632;    0,682
244,895; 5836,644;   -0,269;   -2,318
245,493; 6212,208;    2,186;   -0,591
246,091; 6273,701;    1,368;   -1,318
246,689; 6273,969;    1,004;    0,591
247,287; 6426,932;    0,822;   -1,136
247,885; 6739,306;   -1,451;    1,227
248,483; 6835,622;    1,822;   -0,500
249,081; 6972,825;    0,185;    1,591
249,679; 7130,655;   -0,178;    1,682
250,277; 7370,271;   -1,723;    0,864
250,875; 7351,097;   -1,087;   -1,045
251,473; 7410,957;   -1,178;    0,500
252,071; 7656,622;    1,459;    1,045
252,669; 7745,378;   -1,814;    0,318
253,267; 8019,278;   -0,087;    0,773
253,864; 8035,296;   -0,360;    0,682
254,462; 7870,745;    1,640;    1,591
255,060; 7819,356;   -0,269;    1,318
255,658; 8152,106;    0,822;   -0,136
256,255; 8633,018;    0,186;   -2,045
256,853; 8472,306;   -0,269;    1,409
257,451; 8468,198;    0,822;    1,864
258,048; 8729,627;    1,822;    1,864
258,646; 8487,559;    1,731;   -1,045
259,243; 8683,124;   -0,087;    2,227
259,841; 8728,170;   -0,814;    0,318
260,438; 8591,825;   -0,087;    0,864
261,036; 9349,534;   -1,905;    1,409
261,633; 9215,388;   -0,087;    2,227
262,231; 8978,486;    2,731;   -0,045
262,828; 9070,135;   -0,905;    1,136
263,425; 9125,163;    0,913;   -0,591
264,023; 9410,811;    0,186;    0,045
264,620; 8933,003;   -0,360;   -0,318
265,217; 9311,474;   -2,087;    3,136
265,815; 9420,815;   -1,905;    2,136
266,412; 9185,848;    0,731;    0,136
267,009; 9263,466;   -1,451;    0,773
267,606; 9137,922;    0,822;   -0,955
268,203; 9109,223;   -0,269;   -0,591
268,801; 9426,133;    1,731;    0,591
269,398; 9727,171;   -0,360;    2,500
269,995; 9710,499;    0,277;    1,591
270,592; 9470,706;   -0,632;   -0,500
271,189; 9662,203;    0,186;    0,409
271,786; 9775,381;   -0,632;    1,227
272,383; 9607,817;   -1,087;    0,227
272,980; 9826,898;    0,277;    0,318
273,577;10293,009;    0,004;    1,227
274,174; 9852,243;    0,822;    2,591
274,771; 9865,651;   -0,814;   -0,773
275,367;10042,004;    2,277;    1,409
275,964; 9974,674;    0,731;   -0,500
276,561;10052,848;    1,549;   -1,045
277,158;10308,655;    0,095;   -1,773
277,755;10416,552;    2,185;    0,409
278,351; 9803,281;   -0,451;   -1,500
278,948;10131,424;   -0,815;    0,045
279,545;10151,577;   -1,360;    2,318
280,141;10809,632;   -1,723;   -2,045
280,738;10663,005;   -0,451;   -0,136
281,334;10903,081;   -1,633;    0,591
281,931;10280,216;   -0,087;   -1,318
282,528;10370,859;    0,822;   -0,500
283,124;11099,927;   -1,087;   -0,500
283,721;11002,923;   -0,451;    1,409
284,317;10794,649;    0,185;    2,500
284,913;11398,628;   -1,360;    0,591
285,510;11586,719;    0,640;   -0,318
286,106;11584,712;   -2,269;   -0,955
286,703;11170,923;   -0,360;    1,955
287,299;11351,715;   -1,451;   -0,591
287,895;11589,308;    0,822;   -1,045
288,491;12186,717;    0,186;    2,136
289,088;11910,549;   -2,360;    2,409
289,684;11975,287;   -1,723;    1,500
290,280;11991,163;    0,368;    0,682
290,876;12096,693;    1,822;    5,500
291,472;11950,960;    1,276;    2,227
292,068;12033,541;    1,367;    0,227
292,665;11744,442;    2,095;    0,773
293,261;11340,032;    0,276;    2,136
293,857;11760,243;    2,913;    2,136
294,453;11699,107;    3,550;    0,955
295,049;11553,892;   -0,268;    1,955
295,644;11573,820;    0,095;    0,136
296,240;11487,975;   -0,905;   -0,136
296,836;11566,227;   -0,995;    0,318
297,432;11805,531;    1,096;   -0,500
298,028;11870,959;    0,732;    0,773
298,624;12273,424;    1,459;    1,864
299,220;12520,801;    2,368;    0,591
299,815;12184,471;    1,005;   -0,409
300,411;11995,438;    0,914;    1,773
301,007;12013,216;    1,368;    0,227
301,602;12034,205;   -0,541;   -2,318
302,198;12214,893;    0,732;   -0,773
302,794;12573,117;    1,187;   -0,500
303,389;12672,587;   -1,177;    1,045
303,985;12764,388;    0,550;    1,409
304,580;12754,930;    1,459;    1,591
305,176;12675,951;   -3,086;    0,136
305,771;12630,029;   -1,268;   -1,227
306,367;12504,578;    4,095;    0,136
306,962;12767,750;    0,641;    1,500
307,558;12551,959;   -0,450;    0,136
308,153;12472,865;    1,095;   -1,136
308,748;12667,166;   -0,814;    1,682
309,344;12697,791;   -0,632;   -1,318
309,939;12794,596;   -1,905;   -1,318
310,534;13023,012;   -0,086;   -1,682
311,130;12984,963;    0,459;   -2,500
311,725;12698,094;    1,004;   -0,500
312,320;13047,547;    2,459;    0,045
312,915;12880,835;    1,459;   -1,045
313,510;12969,404;    1,550;   -0,500
314,105;13457,055;    1,096;    1,409
314,700;12854,368;   -3,086;   -1,045
315,295;12468,203;   -0,904;    0,045
315,890;12027,649;    1,277;    0,864
316,485;12435,377;   -0,359;   -0,318
317,080;12559,306;   -3,086;    1,591
317,675;13136,643;    2,005;   -0,682
318,270;12532,009;    5,550;    3,318
318,865;12516,095;    3,278;    3,045
319,460;12363,809;   -0,904;    0,591
320,055;12562,472;   -0,541;   -1,227
320,650;12233,687;   -1,995;   -0,591
321,244;12280,225;   -0,177;   -1,409
321,839;13235,838;   -1,541;   -0,227
322,434;13148,456;   -1,086;   -1,591
323,029;12737,703;    1,732;    1,591
323,623;12546,894;    1,550;    0,773
324,218;12322,213;    2,368;    1,409
324,812;12202,031;    1,096;    1,591
325,407;12006,991;   -0,814;    2,045
326,002;11933,969;    0,277;   -0,409
326,596;12211,898;    0,914;    1,318
327,191;12418,762;    0,823;   -1,045
327,785;11984,444;   -0,813;   -0,227
328,379;12218,885;    1,368;    0,136
328,974;12044,735;    0,914;   -3,955
329,568;12240,432;    0,186;   -2,409
330,163;12043,381;    2,096;    1,045
330,757;12422,542;    2,459;    1,591
331,351;11710,973;    0,459;    0,682
331,945;12019,658;    0,914;    1,409
332,540;11583,523;   -1,723;   -0,591
333,134;11780,338;   -1,086;    0,773
333,728;12046,491;    0,005;    0,318
334,322;12346,634;   -1,177;   -0,864
334,916;11610,271;    0,277;    0,955
335,510;11984,176;   -0,450;   -0,136
336,105;12195,399;   -1,086;    1,591
336,699;11919,084;   -1,086;    0,591
337,293;11890,320;   -1,723;    0,318
337,887;11996,033;   -2,723;    1,955
338,481;12066,823;    0,459;    0,591
339,074;12238,721;   -0,359;    2,682
339,668;12070,300;   -1,632;    1,227
340,262;12353,012;    1,732;    3,227
340,856;11823,926;    1,822;   -0,682
341,450;11168,758;    1,004;    1,864
342,044;12082,684;    1,459;    0,136
342,637;11848,062;    0,913;   -2,136
343,231;11712,626;   -2,360;    0,682
343,825;11680,079;   -1,086;   -0,591
344,419;11626,688;   -1,995;    0,500
345,012;11420,311;    2,459;    4,045
345,606;11422,976;    4,641;    1,591
346,199;11263,760;   -1,813;   -0,227
346,793;10764,339;    1,914;    2,045
347,386;10920,631;   -0,813;   -1,136
347,980;10949,219;   -0,268;   -0,045
348,573;10769,743;    2,278;    0,409
349,167;10422,074;    5,278;    4,773
349,760;10746,752;    2,914;    2,682
350,354;10725,001;   -0,813;    1,136
350,947;10483,594;    1,096;    1,682
351,540;10127,888;   -0,358;   -1,409
352,134;10079,330;    1,096;    1,136
352,727;10196,558;   -0,086;    1,136
353,320; 9926,023;    0,005;    0,591
353,913; 9783,177;   -1,995;    1,864
354,507; 9993,838;    0,823;   -1,227
355,100; 9954,263;    0,460;    0,864
355,693; 9206,166;    2,005;    2,409
356,286; 9274,507;    0,823;    2,773
356,879; 9631,853;   -0,722;    1,227
357,472; 9211,264;   -0,904;    1,500
358,065; 9412,333;   -0,722;    2,500
358,658; 9313,939;   -0,540;    2,318
359,251; 8965,040;   -1,631;   -0,591
359,844; 8417,409;   -1,904;   -1,136
360,437; 8627,241;   -2,995;    0,045
361,030; 8871,463;    1,369;   -0,682
361,623; 8471,903;    2,824;    0,318
362,215; 8528,077;   -0,086;    2,045
362,808; 8349,562;   -2,358;   -1,682
363,401; 8557,376;   -2,449;    0,136
363,994; 8313,117;   -0,631;   -1,500
364,586; 8226,456;    0,824;   -1,500
365,179; 8433,034;   -0,449;   -1,136
365,772; 7902,619;   -1,995;    2,045
366,364; 8244,480;    1,915;   -3,227
366,957; 8438,610;    2,279;   -0,045
367,549; 8436,127;    2,188;   -0,864
368,142; 8068,364;    1,825;   -1,500
368,734; 8282,961;    0,734;   -2,136
369,327; 8227,137;    1,643;   -0,500
369,919; 8135,665;   -1,538;    0,409
370,512; 7939,817;   -1,083;   -0,500
371,104; 7710,713;   -0,901;    1,591
371,696; 7887,592;    1,191;   -0,955
372,289; 7970,331;    0,373;    1,136
372,881; 8122,181;   -2,080;    1,318
373,473; 8030,983;   -2,170;    1,136
374,066; 7860,101;   -0,169;    0,500
374,658; 7694,309;    0,378;    1,136
375,250; 8042,391;    0,653;   -1,409
375,842; 7884,144;    0,473;   -0,045
376,434; 7758,947;   -0,435;   -0,409
377,026; 8355,598;    0,204;   -2,500
377,618; 8262,520;   -0,158;   -0,682
378,210; 8089,588;   -0,338;   -1,955
378,802; 7928,023;    0,754;   -0,591
379,394; 7928,118;    1,846;    0,682
379,986; 8510,317;    1,393;   -0,955
380,578; 8583,416;   -0,153;    0,773
381,170; 7943,939;   -0,972;    0,045
381,762; 7897,139;    0,755;    1,409
382,354; 8085,879;   -0,065;   -1,318
382,945; 8241,940;   -2,976;    0,318
383,537; 8356,161;   -2,705;   -1,955
384,129; 8335,436;   -2,160;   -1,136
384,721; 8557,330;   -0,252;    0,955
385,312; 8477,286;   -0,161;   -0,955
385,904; 8599,648;   -2,706;    1,591
386,496; 7959,385;   -0,979;    1,045
387,087; 8112,621;    1,022;    2,500
387,679; 8152,474;   -1,160;    0,045
388,270; 8267,903;    2,840;    2,045
388,862; 8395,380;    1,295;   -0,318
389,453; 8282,420;   -0,887;    1,045
390,045; 8605,388;   -0,705;   -2,682
390,636; 8511,855;    0,204;   -0,591
391,227; 8377,846;   -0,523;   -0,045
391,819; 8443,114;    0,204;    0,773
392,410; 8540,840;    1,022;    0,045
393,001; 8474,413;   -0,979;   -1,591
393,593; 8771,340;    1,930;   -0,045
394,184; 8641,969;    1,385;   -0,409
394,775; 8544,370;    1,839;    2,136
395,366; 8744,883;    1,385;    0,773
395,957; 8774,064;    0,113;    0,136
396,548; 9079,196;   -0,342;    2,682
397,139; 9397,720;   -2,433;    0,591
397,730; 9119,022;   -1,888;    0,955
398,321; 9169,871;   -1,252;    0,955
398,912; 9221,489;   -0,615;    0,136
399,503; 9257,875;   -3,524;   -1,409
400,094; 8693,715;    0,294;    1,682
400,685; 8531,883;   -0,433;    0,045
401,276; 8611,479;    0,930;   -0,955
401,867; 8930,939;   -0,888;    0,773
402,458; 9055,527;   -2,251;   -2,318
403,048; 9021,883;    1,112;    0,591
403,639; 8624,999;    0,840;    0,864
404,230; 8869,289;    2,476;    0,318
404,821; 8797,875;   -0,615;    0,045
405,411; 8959,816;    1,203;   -2,591
406,002; 8537,562;   -1,252;   -1,136
406,592; 8367,688;    2,294;    0,045
407,183; 8670,888;    0,566;   -1,500
407,774; 8617,699;    3,475;   -0,136
408,364; 8953,530;    0,930;    0,409
408,954; 8567,009;    0,384;    1,227
409,545; 8586,903;    1,021;    1,045
410,135; 8098,226;    1,293;    0,500
410,726; 8271,875;    1,838;    0,318
411,316; 8670,843;    0,111;    0,773
411,906; 8328,804;   -0,253;   -0,409
412,497; 7828,012;   -1,070;   -0,045
413,087; 8477,268;   -1,980;   -0,227
413,677; 8849,271;   -0,707;    3,864
414,267; 8686,764;    0,656;    1,409
414,857; 8664,976;   -2,980;    4,227
415,448; 8962,871;    0,839;    0,500
416,038; 8661,656;    0,020;   -0,591
416,628; 8668,165;   -0,889;    0,409
417,218; 8084,386;    0,565;    3,318
417,808; 8373,416;    0,202;   -0,409
418,398; 8850,726;    0,020;    2,682
418,988; 8869,901;    2,020;    0,591
419,578; 9115,997;   -0,707;    1,409
420,168; 9459,178;   -1,343;   -0,955
420,757; 9069,630;   -1,343;   -1,500
421,347; 8717,467;    0,111;   -0,227
421,937; 8892,938;    2,292;    1,409
422,527; 8874,550;    0,838;   -0,773
423,116; 8693,207;   -0,253;   -0,045
423,706; 8995,514;   -1,889;    0,318
424,296; 8989,504;    1,384;    0,682
424,885; 9450,595;   -0,071;   -3,045
425,475; 9748,216;    1,474;   -2,864
426,065; 9623,511;   -0,980;   -0,318
426,654; 9243,419;   -0,435;   -0,318
427,244; 9392,268;    0,020;    1,409
427,833; 8825,688;    1,383;   -0,500
428,423; 9368,331;   -0,526;    1,136
429,012;10103,923;   -0,344;   -1,136
429,601; 9585,480;   -1,344;    0,136
430,191; 9831,744;    1,292;    4,318
430,780; 9476,037;   -0,344;   -0,409
431,369; 9390,576;    0,746;   -0,045
431,959;10007,179;   -1,254;    0,500
432,548; 9823,772;   -1,163;   -0,045
433,137; 9924,923;   -1,254;   -1,318
433,726;10500,241;    0,292;    0,500
434,315; 9790,800;   -0,526;    2,409
434,905; 9883,853;   -1,254;    1,409
435,494; 9781,966;    0,746;    0,955
436,083;10270,235;   -0,981;   -0,955
436,672;10143,477;    0,110;    0,500
437,261; 9694,375;    0,292;   -1,955
437,850; 9845,565;    1,383;    0,682
438,439; 9866,993;    3,291;    1,955
439,027; 9707,670;    3,655;    1,773
439,616;10030,713;    2,927;    1,227
440,205; 9910,857;    0,200;   -2,136
440,794;10014,647;    2,109;   -0,045
441,383;10298,196;   -1,346;   -0,591
441,971;10122,176;   -2,436;    0,591
442,560; 9993,330;    0,563;   -1,773
443,149; 9749,609;    0,379;   -1,318
443,737; 9882,838;   -0,074;   -2,318
444,326;10177,890;    0,018;    0,318
444,915;10245,806;   -1,982;    0,864
445,503;10666,205;   -2,891;   -0,318
446,092; 9882,882;    0,382;    2,136
446,680;10386,776;    0,382;    0,318
447,269;10576,790;   -0,346;   -0,318
447,857;10366,800;    0,018;   -1,773
448,445;10477,686;    0,563;    1,318
449,034;10695,960;   -1,528;   -1,136
449,622;10869,420;   -1,073;    3,500
450,210;10056,910;    2,017;    2,227
450,799;10604,309;    0,290;   -0,591
451,387;10544,200;    1,381;   -0,591
451,975;10201,872;    2,654;    0,864
452,563;10289,385;    3,472;    2,318
453,151;10318,714;   -0,528;   -1,227
453,739;10280,708;   -1,347;    0,136
454,328;10129,792;    2,381;   -2,136
454,916; 9854,996;    2,562;   -0,136
455,504;10009,861;    1,017;    1,227
456,092;10157,827;    0,017;   -1,591
456,679;10176,810;    1,472;    0,682
457,267;10097,820;    4,017;    1,045
457,855;10246,667;    1,017;    1,409
458,443;10058,244;   -0,165;    1,682
459,031;10179,349;    0,108;    2,409
459,619;10632,979;   -1,801;    2,864
460,206;10765,329;    0,835;    2,045
460,794;10861,341;   -2,983;   -0,227
461,382;11080,525;   -0,529;   -0,864
461,970;10681,643;    1,198;    1,864
462,557;10696,665;   -0,711;   -0,682
463,145;10907,395;   -3,165;   -1,682
463,732;11052,921;    2,016;   -1,045
464,320;10972,802;   -0,075;   -3,045
464,907;10636,452;    2,743;   -0,773
465,495;10500,572;    0,743;   -1,227
466,082;10679,546;   -1,984;   -0,045
466,670;10598,657;   -2,529;    1,227
467,257;10987,890;   -1,711;    2,045
467,844;11161,422;   -0,075;    0,045
468,432;11214,292;    0,834;    3,500
469,019;10635,857;    0,925;   -1,773
469,606;11147,380;    0,470;    3,682
470,193;10961,712;   -1,439;    0,227
470,780;10532,261;   -2,075;    0,864
471,368;10863,748;   -1,257;   -0,773
471,955;10672,793;    1,379;   -0,682
472,542;10313,320;    0,652;   -1,136
473,129;10552,791;   -0,166;    0,136
473,716;10269,724;    1,470;    0,591
474,303;10482,189;    0,652;   -0,864
474,890;10754,368;   -1,439;   -0,500
475,477;10795,765;   -1,621;    0,409
476,064;10709,458;    1,106;   -1,591
476,650;10700,690;    0,288;    0,318
477,237;10509,508;   -0,258;    0,955
477,824;10665,843;   -1,076;    0,864
478,411;10674,550;   -1,894;   -0,318
478,997;10897,303;    0,560;   -0,773
479,584;10957,059;    1,196;   -0,409
480,171;11698,180;   -0,440;   -0,773
480,757;11364,440;    2,651;    0,773
481,344;11662,613;    0,469;    0,409
481,931;11194,992;    1,105;    1,045
482,517;12299,001;   -1,258;    0,318
483,104;12943,300;    1,106;    2,864
483,690;13257,770;   -1,804;    0,045
484,276;13575,459;   -0,895;    0,227
484,863;13278,938;    2,469;    1,136
485,449;13936,550;   -0,077;    0,318
486,035;13900,875;   -1,986;   -0,136
486,622;14314,950;   -0,895;    0,045
487,208;14296,080;    1,378;    1,500
487,794;14108,027;    0,741;    0,318
488,380;14192,067;    0,105;   -1,409
488,967;14266,720;   -1,168;   -0,409
489,553;14347,943;   -1,895;   -1,409
490,139;14561,103;    1,559;    0,773
490,725;13910,583;    0,741;   -0,227
491,311;13389,162;    3,287;    3,045
491,897;12689,814;   -0,986;    1,500
492,483;12505,704;    0,105;    1,227
493,069;12321,256;    3,923;    0,864
493,655;12346,385;    1,650;    0,682
494,241;12237,055;    1,377;   -0,955
494,826;12617,665;    0,287;   -1,045
495,412;12103,425;    2,559;   -0,682
495,998;12240,865;   -0,805;   -0,318
496,584;12393,377;    0,377;    1,045
497,169;12375,582;    1,014;   -0,682
497,755;12279,005;    0,650;    1,227
498,341;12877,850;    0,559;    0,318
498,926;12491,081;    1,832;    1,955
499,512;12678,059;    1,286;    2,955
500,097;12800,704;    0,195;   -0,318
500,683;12722,007;   -0,350;    2,136
501,268;13085,322;   -0,169;   -0,955
501,854;12784,624;   -0,169;    1,227
502,439;12740,038;   -0,624;   -1,773
503,024;12933,723;    0,195;    0,500
503,610;13018,103;   -0,078;   -0,682
504,195;13014,282;    0,558;    1,955
504,780;13138,888;    2,922;    1,227
505,366;12965,766;    3,013;    2,864
505,951;12699,769;    0,740;    1,045
506,536;12681,044;   -3,260;   -3,682
507,121;12670,015;    0,285;   -0,318
507,706;13176,030;    2,376;    1,045
508,291;13589,865;    2,649;    1,136
508,876;13019,903;   -0,988;    2,591
509,461;12505,251;   -0,169;   -0,773
510,046;12923,718;    0,194;    0,318
510,631;13167,268;   -0,351;   -0,773
511,216;12816,307;    2,467;   -0,500
511,801;13200,754;   -0,442;    2,591
512,386;13534,640;    0,740;    0,500
512,971;13455,600;   -2,988;    0,955
513,555;12994,290;   -0,897;   -1,500
514,140;13801,176;   -0,442;   -3,136
514,725;13810,579;   -0,715;   -1,136
515,309;13928,276;   -0,533;    0,318
515,894;13350,329;   -0,624;   -2,227
516,479;13830,016;   -0,624;   -0,955
517,063;13660,153;    0,376;    1,227
517,648;13793,264;    1,012;   -1,136
518,232;13426,090;   -0,261;   -1,409
518,817;13775,613;   -0,079;    1,682
519,401;14020,278;    2,194;    0,591
519,985;13533,419;    1,103;    1,136
520,570;13414,906;    0,830;   -1,955
521,154;13677,127;    2,102;    0,591
521,738;13851,269;   -2,352;    2,409
522,323;14378,097;   -0,170;    1,682
522,907;14144,585;    0,466;   -0,136
523,491;13841,964;    0,557;    0,955
524,075;13842,761;    2,284;    0,591
524,659;13944,706;    1,466;    0,591
525,243;13405,213;    1,739;    0,409
525,827;13630,915;    0,648;   -0,045
526,411;14500,252;   -1,989;   -0,136
526,995;14713,998;   -0,352;    1,409
527,579;14295,094;   -0,443;   -1,045
528,163;14629,844;    0,375;   -1,500
528,747;14561,909;    2,466;   -0,773
529,331;14853,462;   -0,080;   -1,409
529,915;15059,341;    1,738;    0,955
530,499;15024,581;   -0,807;    1,227
531,082;14720,812;   -0,534;    1,591
531,666;14172,189;    1,374;    0,773
532,250;14865,615;    1,284;    2,682
532,833;15217,587;    0,920;    2,773
533,417;15044,811;   -1,807;    0,864
534,001;15036,757;    1,647;   -0,318
534,584;15737,986;    0,374;    0,500
535,168;15551,704;    0,465;    1,409
535,751;15660,408;    0,647;    0,045
536,334;15114,090;   -0,898;   -0,409
536,918;15654,016;    0,011;    1,591
537,501;15805,996;   -0,899;    1,318
538,085;15790,850;   -0,444;    1,045
538,668;15940,737;    0,829;    2,409
539,251;16305,897;    1,829;    3,773
539,834;16300,877;    0,101;    0,773
540,418;16232,960;   -1,990;    4,318
541,001;16393,887;   -0,990;    1,773
541,584;16345,548;    2,101;    2,227
542,167;16047,648;    1,374;    2,955
542,750;16202,272;    1,919;   -0,773
543,333;15794,043;    0,555;    2,136
543,916;16586,873;    0,192;    2,500
544,499;17200,164;   -1,354;    0,227
545,082;17230,966;    1,374;    3,591
545,665;17333,048;    1,919;    1,500
546,248;17704,316;    1,010;   -0,318
546,830;17348,168;   -0,445;    1,955
547,413;17796,070;    1,010;   -0,773
547,996;18302,195;    0,555;    0,500
548,579;18069,613;    0,919;    0,955
549,161;17855,869;    1,828;    2,682
549,744;17652,287;   -0,809;    0,409
550,326;18180,388;   -0,809;   -1,136
550,909;17969,518;    2,737;    0,591
551,492;18307,539;   -0,263;    0,227
552,074;18149,772;   -0,173;   -1,318
552,657;18726,382;    2,373;    0,045
553,239;18428,043;   -0,173;   -0,773
553,821;18327,215;   -1,082;    1,045
554,404;17867,981;    1,282;    1,136
554,986;18280,951;    0,464;    1,045
555,568;18893,158;    1,191;   -0,955
556,151;18095,136;    1,191;   -0,227
556,733;18248,562;   -0,264;   -0,864
557,315;18736,178;    0,100;    0,500
557,897;18532,308;    0,554;   -0,500
558,479;18692,532;   -1,991;    1,318
559,061;18803,684;   -0,719;   -0,864
559,643;19149,308;   -0,264;    0,045
560,225;19514,232;    1,645;    2,864
560,807;19534,308;    0,918;    0,318
561,389;19009,943;    0,554;    2,318
561,971;19848,954;    0,463;    2,136
562,553;19642,176;   -1,628;    1,591
563,135;19742,556;   -0,537;    1,136
563,717;19352,064;    3,372;    1,136
564,298;20072,784;    3,645;   -0,045
564,880;19803,060;    0,645;   -1,409
565,462;19979,879;    0,645;    1,318
566,043;21165,198;   -0,446;    2,318
566,625;20678,647;    1,918;    1,227
567,207;20585,920;    1,099;    1,682
567,788;21750,309;   -1,264;    1,500
568,370;22616,586;    1,917;   -0,500
568,951;22473,586;    0,190;    0,227
569,533;23360,202;   -0,628;   -0,500
570,114;23798,912;   -0,446;    0,682
570,695;24384,564;   -0,174;   -1,318
571,277;24905,625;   -0,265;   -1,682
571,858;25642,697;    2,008;   -1,136
572,439;26560,417;    1,554;   -1,045
573,021;26764,536;    2,099;   -2,773
573,602;27253,016;   -1,265;    0,318
574,183;28242,686;   -2,083;    2,227
574,764;28359,275;   -1,629;    0,409
575,345;28998,149;    0,917;   -0,136
575,926;29546,295;   -0,356;    0,136
576,507;29470,647;    1,099;   -0,227
577,088;30645,433;    3,099;    1,682
577,669;30694,498;    0,735;    1,955
578,250;31498,231;    0,644;   -1,045
578,831;32202,281;   -1,356;   -2,227
579,412;32484,748;   -0,810;    0,955
579,993;33302,823;    1,008;    0,227
580,573;33620,860;   -0,629;   -0,955
581,154;32615,989;    0,735;   -0,591
581,735;33487,733;    0,644;    0,773
582,315;33011,733;   -0,629;    2,136
582,896;33221,821;   -0,174;    1,227
583,477;32633,397;    0,189;    1,227
584,057;32878,972;    0,553;    0,955
584,638;33192,732;    2,553;    2,318
585,218;33182,235;   -0,538;    2,682
585,799;33298,135;    0,281;   -0,227
586,379;33206,706;    0,372;    1,591
586,959;31851,477;    0,735;    0,318
587,540;31183,806;   -0,629;    2,227
588,120;30764,707;    1,007;   -0,045
588,700;29751,441;    2,553;    2,136
589,281;30105,068;    0,462;   -0,955
589,861;30075,858;    0,099;   -1,682
590,441;29877,260;    2,371;   -2,682
591,021;28770,272;   -0,265;   -2,591
591,601;29047,430;   -0,537;    0,500
592,181;29033,896;   -0,719;   -0,773
592,761;28257,658;    0,007;    1,409
593,341;28213,167;   -0,901;    0,045
593,921;28197,038;   -0,265;    1,591
594,501;28091,691;   -0,538;    1,318
595,081;27930,696;    0,917;   -0,318
595,661;28317,174;   -1,447;    0,955
596,240;28811,371;   -0,537;    0,136
596,820;28530,216;    0,372;    1,955
597,400;28684,555;    2,008;    0,773
597,980;28855,180;    2,008;    1,045
598,559;28859,267;    2,735;   -0,227
599,139;28571,024;   -0,174;   -1,227
599,718;28489,115;   -0,174;   -0,409
600,298;28755,571;    0,735;    0,682
600,877;29004,377;    2,917;    1,409
601,457;29247,950;    2,281;    1,136
602,036;29177,334;    0,190;    2,045
602,616;29402,266;    0,644;    1,682
603,195;29717,490;   -0,355;    3,500
603,774;29259,579;   -0,901;    2,045
604,354;29098,830;    0,826;   -0,500
604,933;28572,778;    0,463;    1,864
605,512;28727,631;    3,554;    0,591
606,091;28734,695;   -0,537;    3,773
606,671;29571,923;    0,281;    0,773
607,250;28733,205;    1,644;    3,136
607,829;29004,543;    2,372;    3,227
608,408;28767,562;    1,190;    2,591
608,987;27777,860;    1,281;    3,409
609,566;28088,816;   -1,265;   -2,500
610,145;28219,575;   -1,082;    0,682
610,723;28637,536;    4,372;    6,864
611,302;27883,723;   -0,446;    1,682
611,881;27386,673;    5,008;   11,227
612,460;28185,838;    1,645;    3,955
613,039;28568,859;   -0,082;    2,045
613,617;27302,777;    1,736;    4,773
614,196;27533,415;    1,099;    1,227
614,775;27879,999;    1,009;    2,409
615,353;27822,457;    0,736;    0,864
615,932;27594,440;    0,100;    2,409
616,510;28099,176;    0,554;    0,591
617,089;27610,059;    7,100;   17,591
617,667;27332,899;    2,372;    6,136
618,246;27284,507;   -1,537;    1,318
618,824;27456,495;   -3,355;   -0,955
619,402;26963,955;   -2,900;   -1,773
619,981;27451,344;   -0,173;   -1,045
620,559;27224,811;    0,009;    1,682
621,137;26775,264;   -0,718;    1,864
621,715;26868,862;   -1,173;   -0,682
622,293;26777,773;   -0,537;   -0,773
622,871;27212,997;   -0,718;    0,500
623,450;26768,971;    0,373;   -0,864
624,028;26693,747;    0,191;   -0,955
624,606;26302,724;   -1,718;    1,682
625,183;26688,530;   -1,536;   -1,136
625,761;26312,616;    1,009;    1,136
626,339;26600,899;    1,373;    2,591
626,917;26987,691;   -0,172;   -0,045
627,495;27001,284;   -0,354;    1,318
628,073;26429,967;   -0,263;    2,864
628,650;26136,966;    0,100;    2,136
629,228;26575,255;    0,373;    4,409
629,806;26005,067;    2,282;    1,136
630,383;26231,039;    1,464;   -0,318
630,961;26022,553;    2,555;   -0,955
631,539;25733,906;    2,464;    0,227
632,116;25136,553;   11,373;   15,409
632,694;25708,959;    2,555;    6,500
633,271;26005,465;    0,828;    2,682
633,848;25915,627;    1,828;    2,045
634,426;25929,200;   -1,081;    1,773
635,003;25039,895;    1,101;   -0,409
635,580;25360,784;    1,192;    3,682
636,158;25943,075;    3,737;    1,227
636,735;25934,133;    0,555;   -0,500
637,312;26088,620;   -0,809;   -0,682
637,889;26141,779;   -4,354;   -0,682
638,466;25658,572;   -3,990;   -0,409
639,043;25624,002;    2,101;   -1,136
639,620;25966,601;   -2,262;   -0,955
640,197;26284,152;    1,100;    1,682
640,774;26376,482;   -0,172;    1,136
641,351;26750,904;    0,737;    1,136
641,928;26171,326;   -0,627;    1,409
642,505;25828,020;    0,828;   -0,500
643,082;25942,805;   -1,718;    1,227
643,658;24941,863;   -0,718;    1,500
644,235;25725,648;    1,191;    2,500
644,812;26089,524;    1,918;    0,773
645,388;25787,400;   -0,991;    1,409
645,965;25907,185;   -0,809;    1,682
646,542;25971,425;   -1,445;   -0,227
647,118;25960,028;    1,009;   -0,955
647,695;26282,177;   -0,263;    1,136
648,271;26194,144;   -0,536;    0,500
648,848;26469,020;    0,736;    2,227
649,424;26313,987;    0,827;    1,318
650,000;26079,590;   -0,354;   -1,045
650,577;25883,012;   -0,627;   -0,955
651,153;26376,524;   -1,809;    0,955
651,729;27395,128;    1,191;    0,864
652,305;28076,549;    0,645;    2,773
652,881;33452,698;   -0,082;    1,136
653,458;40498,938;    1,100;    0,227
654,034;43883,359;    0,282;    1,591
654,610;45162,872;    0,554;    0,773
655,186;46405,566;    0,645;    3,045
655,762;45970,897;   -0,991;    0,409
656,338;45963,409;    0,100;    0,136
656,913;46933,194;   -0,082;    0,409
657,489;46116,797;    0,827;   -0,318
658,065;46066,674;   -0,173;   -1,591
658,641;46729,004;   -0,900;   -0,864
659,217;45962,244;   -0,991;    0,409
659,792;45345,120;    0,645;   -0,409
660,368;45563,360;   -2,173;   -0,682
660,944;44764,872;   -2,082;    1,227
661,519;39333,475;   -0,628;    0,409
662,095;33265,079;   -1,719;    0,591
662,670;29103,864;    1,281;   -0,136
663,246;28192,467;    1,009;   -0,409
663,821;27632,707;    0,281;    1,682
664,396;27115,674;    0,009;    1,864
664,972;27368,095;    0,009;   -0,500
665,547;27749,335;    1,372;    0,136
666,122;27755,484;   -1,082;    0,318
666,698;28060,178;   -0,173;    0,318
667,273;27381,054;   -0,173;    0,136
667,848;28201,658;    2,372;    1,500
668,423;28043,534;    2,190;    2,318
668,998;28627,592;    2,827;   -0,682
669,573;29169,013;   -3,264;   -1,500
670,148;28981,889;   -1,446;   -0,682
670,723;28747,583;   -1,810;    0,318
671,298;29211,641;    2,372;    1,045
671,873;29321,426;   -0,082;   -0,136
672,448;29235,393;    0,645;    0,136
673,023;29570,269;   -1,992;   -0,227
673,597;29902,418;    0,827;    2,318
674,172;29731,840;   -0,355;    0,318
674,747;29114,625;    0,372;   -1,045
675,321;28963,410;   -0,628;    3,318
675,896;28544,559;    0,645;    1,045
676,471;29581,889;    2,645;    1,591
677,045;29375,947;   -1,264;    0,682
677,620;29421,005;    0,190;    1,136
678,194;29706,336;   -2,628;    1,136
678,769;29279,576;   -1,083;   -0,318
679,343;29524,633;   -0,628;    1,773
679,917;29389,691;   -1,446;    1,955
680,492;29495,840;    0,826;    3,227
681,066;29639,443;    3,372;    0,409
681,640;29704,320;    1,463;   -0,318
682,214;30512,196;    0,735;    0,500
682,788;30029,890;   -1,356;   -0,773
683,363;30009,220;   -1,810;    1,682
683,937;29675,733;   -1,719;   -0,318
684,511;30431,154;    0,463;   -0,591
685,085;30125,394;   -1,356;    0,318
685,659;29879,270;   -2,538;    0,864
686,232;30193,237;   -0,356;   -0,318
686,806;29830,113;   -0,901;    0,409
687,380;30524,898;   -0,174;    0,591
687,954;30660,956;   -1,174;    1,136
688,528;30392,560;   -0,719;    1,955
689,101;31186,799;   -3,992;    1,045
689,675;30748,130;   -0,356;   -0,136
690,249;30128,097;   -0,719;    0,409
690,822;30423,337;    0,280;    0,318
691,396;30552,304;   -0,265;    1,227
691,969;30014,816;    1,280;    0,136
692,543;30451,419;   -0,447;   -1,955
693,116;30079,568;   -0,265;   -1,409
693,690;29947,535;    0,099;    0,500
694,263;30545,048;   -1,083;    2,955
694,836;30572,833;    1,371;    3,591
695,410;29202,254;   -0,265;    1,773
695,983;29718,585;    0,189;    0,591
696,556;29662,825;   -0,447;   -1,045
697,129;30012,064;   -0,356;    1,409
697,703;29676,577;   -1,629;    1,955
698,276;29670,635;    1,462;   -0,773
698,849;29447,602;    1,280;    1,409
699,422;29808,841;   -1,083;    0,591
699,995;29500,445;    0,007;    0,136
700,568;30008,412;   -0,629;    3,045
701,140;30032,833;   -2,811;    1,682
701,713;29741,618;   -0,174;    2,409
702,286;29480,222;   -0,538;    0,864
702,859;29375,189;   -0,902;   -0,591
703,432;28556,246;    0,825;    0,682
704,004;29002,577;    0,462;    0,318
704,577;28935,180;   -0,629;    0,136
705,150;29531,329;    0,189;    2,500
705,722;29299,751;   -0,356;   -3,227
706,295;29065,809;   -0,175;   -0,591
706,867;28971,412;   -0,175;    1,955
707,440;29170,742;   -1,720;   -0,409
708,012;29467,982;    0,462;    0,591
708,584;29400,495;    2,462;    0,227
709,157;29604,916;    1,825;   -0,591
709,729;29226,065;    2,280;    2,045
710,301;30111,486;    0,734;    0,045
710,874;30060,363;   -1,447;   -0,227
711,446;28964,784;    0,371;    0,864
712,018;28798,115;    0,098;    0,500
712,590;28566,173;   -1,993;    1,682
713,162;29152,230;    0,825;    1,318
713,734;29385,925;    1,825;   -2,045
714,306;29269,892;   -1,902;   -0,409
714,878;27943,859;    0,825;    0,864
715,450;28766,553;    0,643;    0,864
716,022;28953,793;    1,552;    1,318
716,593;29146,941;    0,189;    0,591
717,165;29128,272;   -3,175;   -1,227
717,737;28791,330;    0,280;    0,409
718,309;28450,479;    0,280;   -0,045
718,880;28433,264;   -0,539;   -1,409
719,452;28598,594;   -0,175;   -1,591
720,024;28253,380;    0,734;   -0,591
720,595;28789,528;   -2,902;    0,955
721,167;28343,586;    0,370;   -2,045
721,738;27910,462;   -0,812;   -1,045
722,309;27922,338;   -0,993;   -1,227
722,881;27629,305;   -1,357;    0,773
723,452;28219,272;   -2,630;    2,864
724,023;28437,603;   -0,721;    2,682
724,595;28198,570;    0,007;    0,682
725,166;27911,719;    0,007;   -0,409
725,737;27570,504;    1,734;    0,227
726,308;27704,380;   -0,266;    0,318
726,879;28209,074;   -1,630;    1,227
727,450;28041,132;    0,552;   -0,045
728,021;27974,281;    3,097;    0,682
728,592;27758,430;    0,734;    0,500
729,163;28081,942;    0,643;   -0,136
729,734;28135,091;    0,188;   -0,227
730,305;28494,058;    1,734;    0,136
730,876;28882,479;    0,188;    2,955
731,447;28566,992;    2,188;    2,682
732,017;28696,413;    1,097;    1,864
732,588;28186,471;    0,734;    1,227
733,159;28353,802;    0,643;   -1,045
733,729;28154,496;    0,006;    0,409
734,300;27439,190;    0,915;    0,864
734,870;27815,975;    3,461;    0,591
735,441;28388,215;    0,370;   -0,591
736,011;28187,182;    0,643;   -1,591
736,582;28129,785;   -0,812;    0,045
737,152;27596,480;   -1,721;   -2,045
737,722;28059,538;   -0,267;   -0,682
738,293;27760,232;   -1,358;    1,318
738,863;27642,108;    2,461;    2,318
739,433;27455,802;    5,279;    0,318
740,003;28068,406;   -0,994;   -0,682
740,573;27482,373;    2,097;   -1,591
741,143;27414,612;   -1,085;    0,318
741,713;28193,761;    1,188;   -0,500
742,283;27889,819;    0,915;    1,591
742,853;27627,968;    1,915;    1,591
743,423;27040,026;    1,733;    0,045
743,993;27222,811;   -0,358;    1,500
744,563;26571,141;    0,097;   -0,864
745,133;26508,472;   -0,812;   -0,864
745,702;27168,893;   -0,267;    1,773
746,272;26455,770;   -0,176;    0,591
746,842;26236,918;   -1,358;   -0,591
747,411;26648,522;   -0,267;   -0,318
747,981;26824,852;    0,097;    0,500
748,551;26763,547;    2,278;   -1,045
749,120;26643,877;    0,642;   -0,227
749,690;27049,844;   -0,631;    2,409
750,259;27375,447;    1,369;    2,955
750,828;27322,505;    1,551;   -1,955
751,398;27611,109;    1,278;   -0,045
751,967;27152,894;    2,187;    0,409
752,536;27346,134;   -0,813;   -0,227
753,105;27743,101;    0,096;    0,227
753,675;27575,522;    0,096;    1,773
754,244;27541,216;   -0,904;    3,591
754,813;27566,911;    0,551;    1,227
755,382;27119,696;    0,460;    0,955
755,951;27714,117;    1,551;    3,682
756,520;27218,721;   -0,085;    1,864
757,089;27791,597;    0,278;    0,500
757,658;27966,200;    1,733;    1,227
758,227;27963,440;    1,096;    0,318
758,795;28257,498;    1,187;    1,136
759,364;28406,192;   -0,086;   -0,591
759,933;27434,522;   -1,176;   -0,045
760,501;26903,217;    0,733;   -1,318
761,070;27370,365;   -2,813;   -1,409
761,639;28113,514;   -1,904;    1,318
762,207;27490,208;    1,551;   -0,955
762,776;27402,994;    0,369;    0,864
763,344;27407,142;   -0,995;    0,591
763,913;26465,382;   -0,722;    1,409
764,481;27235,349;    1,005;   -0,136
765,049;26997,952;   -1,358;    1,409
765,618;26859,101;   -0,086;    0,318
766,186;26932,705;    0,278;    0,136
766,754;27084,217;    0,005;    1,864
767,322;26104,093;   -1,995;    0,409
767,890;26148,969;   -0,722;   -1,773
768,459;26577,027;   -2,177;   -0,318
769,027;26715,994;    1,641;    3,409
769,595;25680,325;    3,278;    2,591
770,163;26163,837;    3,823;    2,955
770,730;25868,349;    0,732;   -0,136
771,298;25724,044;    0,187;   -1,409
771,866;25797,374;   -1,541;    4,955
772,434;26140,069;   -0,631;   -1,864
773,002;26267,217;    0,005;    0,682
773,569;25891,275;    0,914;    1,682
774,137;25757,969;   -0,268;   -0,045
774,705;26572,755;    0,278;   -0,136
775,272;26055,903;    0,641;    0,682
775,840;25759,416;   -0,177;    2,682
776,407;25330,565;    0,277;    1,955
776,975;24878,259;   -0,632;    0,318
777,542;25923,953;   -1,086;   -0,045
778,110;25749,193;   -1,268;   -0,045
778,677;25414,705;   -2,359;   -0,864
779,244;25210,218;    2,186;    1,045
779,812;25287,094;    1,823;    0,864
780,379;25151,152;    0,005;    1,136
780,946;25395,210;    1,005;   -0,773
781,513;25739,086;   -1,450;    0,318
782,080;25090,962;   -0,086;    2,864
782,647;25838,292;   -0,268;    3,045
783,214;25402,896;   -0,177;    3,864
783,781;25048,590;   -0,723;   -0,682
784,348;24915,193;   -0,632;    1,500
784,915;25369,706;   -3,177;    0,318
785,482;25123,491;    1,368;    2,591
786,049;25587,185;    0,186;   -0,591
786,615;25703,879;    0,277;   -0,955
787,182;25438,664;    0,186;   -0,682
787,749;25073,450;   -2,814;    1,409
788,315;24436,235;   -1,632;   -0,409
788,882;24692,202;    1,550;   -1,227
789,448;25374,805;    1,732;   -0,955
790,015;25434,499;    1,095;    3,227
790,581;25003,648;    1,459;    0,227
791,148;24879,161;    0,641;    1,045
791,714;25108,128;   -0,541;    3,136
792,280;24775,276;    0,186;    1,591
792,847;24294,334;    0,550;    2,500
793,413;24859,938;   -0,269;   -0,318
793,979;24444,814;    3,459;   -1,318
794,545;24560,781;    4,459;    2,682
795,111;23917,566;    2,186;    1,318
795,678;24166,896;    0,731;   -1,682
796,244;23794,772;    3,368;    0,136
796,810;24283,739;    1,731;    0,773
797,375;24020,979;    0,549;   -2,136
797,941;24029,310;   -0,541;    0,591
798,507;24163,731;   -0,451;   -0,955
799,073;23725,425;   -0,360;    0,591
799,639;23791,392;   -2,632;    3,136
800,205;23801,723;    0,095;    2,682
800,770;23366,145;    0,640;    1,773
801,336;23486,112;    1,368;   -0,955
801,901;23193,260;    4,549;    3,136
802,467;23729,682;   -0,542;    2,045
803,033;23070,376;   -0,087;    0,864
803,598;23288,343;    1,913;   -1,045
804,163;23282,856;    1,095;   -0,318
804,729;23265,823;   -0,178;    1,136
805,294;23624,971;    0,822;    2,227
805,859;23438,029;    0,731;   -0,409
806,425;22944,996;    1,186;    2,682
806,990;22584,509;    2,186;    4,318
807,555;23079,748;   -1,451;    2,591
808,120;22983,533;    0,822;   -0,409
808,685;23061,046;    0,185;   -2,500
809,250;22509,831;    0,004;   -0,500
809,815;22812,253;    1,913;    0,682
810,380;23362,038;   -0,269;    1,591
810,945;23905,641;   -1,087;    2,045
811,510;23078,153;    2,094;    1,591
812,075;22794,848;   -0,633;   -1,409
812,640;22818,360;    2,003;    1,409
813,204;22838,873;    0,822;   -0,227
813,769;23347,749;    2,094;   -0,045
814,334;22771,988;    0,458;    0,864
814,898;22772,955;    0,367;    0,591
815,463;22646,286;    1,276;   -0,773
816,027;22641,798;   -0,724;   -2,318
816,592;22774,311;    0,640;   -2,045
817,156;22300,914;    2,094;    1,136
817,721;22144,063;    4,276;    2,318
818,285;22093,212;    2,912;    1,500
818,849;22711,815;   -1,451;    1,682
819,414;22585,237;   -0,269;    2,955
819,978;22192,022;   -1,269;    1,773
820,542;22765,261;    2,003;    0,500
821,106;22437,228;   -0,815;    0,682
821,670;22551,832;   -0,815;    2,591
822,234;22296,890;   -0,270;    1,409
822,798;21619,402;    0,003;    0,500
823,362;21586,733;   -0,633;    4,227
823,926;20929,063;    0,094;    1,136
824,490;21180,848;   -0,997;   -0,682
825,054;21577,361;   -0,088;   -1,136
825,618;21232,237;   -1,542;   -1,500
826,181;21196,749;    0,458;   -1,318
826,745;21123,262;    1,367;   -1,045
827,309;21448,320;    1,185;    1,318
827,872;20819,650;    1,367;    0,955
828,436;21817,345;    1,185;   -0,773
828,999;21822,675;   -0,997;    1,227
829,563;20624,006;   -0,179;    1,136
830,126;20451,336;   -0,179;   -0,591
830,690;20504,576;   -1,997;    2,864
831,253;19992,270;   -0,543;    2,227
831,816;20174,055;   -1,906;    0,500
832,380;20077,932;    0,185;    0,864
832,943;20276,080;   -1,361;   -0,500
833,506;19764,320;    2,639;   -1,227
834,069;20547,742;    3,912;   -0,955
834,632;20596,254;    1,730;    1,318
835,195;20514,221;    1,003;    0,955
835,758;19699,824;   -0,997;    1,955
836,321;19576,428;    0,730;   -1,045
836,884;19666,395;   -0,725;   -0,955
837,447;19656,816;   -2,816;    1,773
838,010;19898,419;    0,366;    3,227
838,573;20197,296;   -1,179;    0,773
839,135;20192,808;   -1,361;   -0,955
839,698;19658,593;    1,275;    0,409
840,261;19148,742;    1,003;   -0,227
840,823;18982,073;   -0,543;    0,864
841,386;19244,676;   -0,452;   -2,409
841,948;19176,097;   -1,361;    1,773
842,511;18917,337;    0,912;    1,682
843,073;19066,122;    1,912;    0,227
843,636;18833,907;   -0,361;   -0,227
844,198;18794,511;    0,911;    0,591
844,760;18897,841;    1,093;    1,955
845,322;18561,717;    0,548;    1,136
845,885;18974,048;    0,730;    0,591
846,447;19443,288;   -1,998;    0,227
847,009;19026,891;    1,911;   -0,682
847,571;19329,404;    0,820;   -2,045
848,133;19423,280;   -1,089;   -1,864
848,695;19213,701;   -0,543;    1,409
849,257;18805,850;   -1,089;   -1,682
849,819;18975,090;   -0,998;   -0,409
850,381;19026,511;   -0,725;   -0,864
850,942;19369,842;    1,093;   -0,591
851,504;19385,536;    1,184;    0,227
852,066;19363,685;    1,275;   -1,591
852,628;18867,743;   -0,180;    1,955
853,189;18445,255;    1,638;    2,682
853,751;18573,040;   -0,907;    1,409
854,312;18393,735;   -0,453;   -1,682
854,874;18886,883;   -2,089;   -0,773
855,435;19388,487;   -0,907;   -1,682
855,997;19549,090;   -1,816;   -0,136
856,558;18848,148;    0,366;    1,773
857,119;18931,024;    0,820;    2,864
857,681;18595,627;    0,002;    0,318
858,242;18672,231;    1,911;   -2,136
858,803;19135,834;    0,456;   -0,773
859,364;19719,346;    0,184;   -4,773
859,925;19039,132;   -2,453;   -0,955
860,486;18921,826;   -0,453;   -0,955
861,047;18606,520;   -0,544;   -1,227
861,608;18444,942;   -1,089;   -0,773
862,169;18549,090;    0,638;   -0,045
862,730;18308,694;    0,456;    1,409
863,291;18566,752;   -0,635;   -0,500
863,852;18950,173;   -0,635;    1,955
864,412;18400,776;   -0,271;   -0,864
864,973;16972,471;   -0,089;    0,500
865,534;16897,892;   -1,726;    0,227
866,094;18431,496;    1,820;    0,227
866,655;18086,281;    1,274;    3,318
867,215;18309,066;    0,274;    0,136
867,776;18120,942;    0,547;   -0,136
868,336;18251,363;   -1,453;    0,136
868,897;17746,239;    2,638;    1,682
869,457;17442,752;    1,365;    0,318
870,017;17658,446;    0,547;   -1,227
870,578;18211,322;   -0,817;    0,773
871,138;17858,653;   -2,089;   -0,955
871,698;17429,165;   -0,817;   -1,318
872,258;17320,860;   -0,453;   -2,864
872,818;17730,736;    2,729;    0,045
873,378;17669,157;    0,638;    1,045
873,938;17181,215;    0,547;    0,500
874,498;17484,000;    0,274;   -1,955
875,058;17419,876;    2,183;    1,773
875,618;17279,389;    1,910;   -2,682
876,177;17199,901;    1,274;    0,136
876,737;16793,595;   -0,090;    1,955
877,297;16861,471;    0,183;    1,955
877,856;16873,529;   -0,362;    0,318
878,416;16819,678;    1,183;   -0,136
878,976;17012,372;   -1,817;    0,409
879,535;17183,067;    0,092;    3,136
880,095;16905,852;   -0,544;    0,045
880,654;17052,091;   -1,090;    1,318
881,213;17168,240;    2,456;    1,500
881,773;16780,298;    2,637;    2,682
882,332;17167,447;    3,365;    5,136
882,891;17017,687;    3,092;    2,136
883,451;17474,472;   -1,272;    1,682
884,010;16862,893;   -2,908;   -0,409
884,569;16962,588;   -0,999;   -0,045
885,128;17095,100;    2,819;   -1,864
885,687;17220,612;    4,455;    0,682
886,246;16931,125;    1,455;    2,136
886,805;16700,092;    2,455;    2,045
887,364;16994,150;   -0,999;   -0,500
887,922;17315,117;   -1,181;    0,045
888,481;16819,629;   -1,545;    0,591
889,040;17161,505;    1,183;    2,136
889,599;17831,472;    2,455;    1,409
890,157;17908,712;    1,455;    2,409
890,716;17555,679;   -0,090;    0,227
891,274;17330,737;    0,092;   -1,136
891,833;17734,613;    1,546;    0,864
892,391;17659,762;   -0,454;    0,500
892,950;17742,819;    1,819;   -0,773
893,508;18088,968;    0,455;   -0,409
894,067;17438,390;    0,637;    0,136
894,625;17314,175;   -0,636;   -1,500
895,183;17534,051;   -0,363;   -0,682
895,741;17428,654;    1,728;   -1,773
896,299;17277,258;   -0,545;   -2,409
896,858;17451,134;    0,819;   -1,591
897,416;17600,919;    2,728;   -1,318
897,974;17325,795;    1,819;    0,318
898,532;17511,762;    6,091;    2,682
899,089;17425,365;    2,091;   -0,682
899,647;17444,696;   -1,454;    1,318
900,205;17142,481;    1,182;    1,045
900,763;17326,448;   -0,454;    0,227
901,321;17381,506;    2,364;   -1,409
901,878;16804,746;   -1,000;   -0,773
902,436;16682,076;   -1,363;    1,318
902,994;17055,225;    4,728;    3,682
903,551;16513,646;    0,728;    0,409
904,109;16884,613;    0,182;   -1,409
904,666;16428,580;    2,455;    1,045
905,224;16277,457;    0,182;   -0,409
905,781;16014,787;    0,727;   -0,318
906,338;16127,118;   -1,363;    1,045
906,895;16032,085;    0,637;    2,045
907,453;15959,870;    1,727;    1,136
908,010;15990,746;   -0,909;    0,409
908,567;15645,986;    1,273;    0,591
909,124;15097,680;    0,364;   -1,500
909,681;15187,101;   -2,909;    0,682
910,238;15306,159;    0,636;   -1,318
910,795;15625,854;   -0,273;   -1,136
911,352;15260,308;   -2,909;   -2,682
911,909;14702,854;   -1,364;   -0,864
912,466;15198,854;   -3,182;    1,500
913,022;14714,672;   -1,636;    0,500
913,579;15124,126;   -0,909;    2,045
914,136;14775,854;    1,636;    0,955
914,692;15132,944;    0,091;   -1,227
915,249;14731,763;    1,455;    0,409
915,806;14969,217;    0,182;    1,955
916,362;14721,763;    1,909;    1,864
916,918;14300,944;    2,000;    1,045
917,475;14270,490;   -1,182;    0,955
918,031;14321,035;    3,364;   -0,045
918,587;13791,944;   -0,909;   -0,318
919,144;13982,126;   -2,273;    0,227
919,700;14267,399;    1,727;    0,773
920,256;13828,763;    0,727;    0,045
920,812;13486,490;   -0,727;   -1,045
921,368;13498,490;   -1,727;   -1,045
921,924;13111,763;    0,182;   -0,136
922,480;12724,763;   -0,545;    1,227
923,036;13351,672;    1,273;    1,955
923,592;13259,763;    0,455;    0,318
924,148;13189,217;    0,455;   -0,955
924,704;12493,944;   -1,364;   -0,409
925,259;12729,672;   -0,273;    0,591
925,815;12525,399;    1,455;    0,500
926,371;12011,217;    2,909;    1,409
926,926;11925,672;    2,091;    0,591
927,482;11563,399;   -1,364;    0,773
928,037;11412,490;    0,909;    2,045
928,593;11705,490;    1,636;    1,045
929,148;11508,035;   -1,818;   -1,500
929,704;11016,581;   -1,455;   -0,500
930,259;11238,944;    0,091;   -0,136
930,814;10307,581;   -0,818;    1,955
931,369; 9961,581;    1,091;   -0,773
931,925; 9850,490;   -0,091;    0,136
932,480; 9732,308;   -2,818;   -2,591
933,035; 9617,399;    0,545;   -0,318
933,590; 9411,854;    0,364;   -1,773
934,145; 9030,217;   -1,364;   -0,318
934,700; 9351,672;    0,455;   -0,591
935,255; 9141,944;   -0,091;    0,045
935,809; 8456,854;    3,182;    0,864
936,364; 7567,217;   -0,455;   -0,136
936,919; 7517,399;    0,455;   -1,773
937,474; 7391,490;    1,455;    0,136
938,028; 7135,308;   -1,636;    1,136
938,583; 6623,581;    1,818;    4,682
939,138; 6888,308;    2,091;    2,136
939,692; 6334,854;    1,636;   -1,136
940,247; 6077,944;   -0,727;   -1,045
940,801; 5589,944;   -0,636;    0,227
941,355; 5473,944;   -0,364;    2,591
941,910; 5122,490;   -0,273;   -2,136
942,464; 5256,217;   -0,818;   -0,318
943,018; 5046,490;    1,000;   -0,227
943,572; 4975,763;    2,545;   -0,682
944,126; 4380,581;    0,091;   -0,409
944,681; 4284,126;    3,091;    0,227
945,235; 4276,490;    1,000;   -0,591
945,789; 4217,126;    0,364;   -1,864
946,342; 4316,944;    0,455;   -0,591
946,896; 4139,217;   -2,273;    0,955
947,450; 3869,126;    1,545;   -0,227
948,004; 4085,126;    1,727;   -0,045
948,558; 4066,308;    0,273;   -0,864
949,111; 3999,308;   -0,273;   -0,318
949,665; 4049,217;    1,636;   -0,682
950,219; 3912,126;   -0,091;   -1,045
950,772; 3968,308;   -1,909;    1,864
951,326; 3876,944;    0,545;   -0,955
951,879; 3990,126;    0,727;   -2,318
952,433; 4021,308;    0,000;    2,227
952,986; 3841,581;    2,909;    0,682
953,539; 3796,490;   -0,273;    0,591
954,093; 3712,126;    0,545;   -1,318
954,646; 3872,399;    0,909;    1,318
955,199; 3686,490;    0,000;   -0,500
955,752; 3576,399;   -0,455;    1,773
956,305; 3534,763;   -0,091;    2,955
956,858; 3717,854;    0,818;   -0,318
957,411; 3865,581;   -0,545;    2,136
957,964; 3699,035;    1,364;    2,136
958,517; 3698,126;   -1,545;    3,136
959,070; 3509,944;   -0,455;    1,955
959,623; 3592,308;    1,091;    1,500
960,176; 3366,399;    1,727;    2,045
960,728; 3358,217;   -2,727;    0,773
961,281; 3385,126;    0,545;    0,500
961,834; 3456,944;   -0,909;    0,864
962,386; 3359,399;    1,727;    1,045
962,939; 3280,035;    0,364;   -0,318
963,491; 3432,035;    0,455;    1,136
964,043; 3302,581;    1,182;    2,409
964,596; 3430,399;   -1,000;    2,227
965,148; 3267,581;   -1,000;    1,773
965,700; 3171,217;    1,091;   -0,227
966,253; 3341,217;   -0,636;    0,318
966,805; 3156,581;   -2,273;    0,773
967,357; 3207,126;    1,091;   -1,500
967,909; 3182,763;    0,455;   -1,227
968,461; 3291,763;    0,545;    3,136
969,013; 3223,126;   -0,182;   -0,864
969,565; 3312,490;   -0,455;   -1,136
970,117; 3350,672;   -0,364;    1,045
970,669; 3206,672;    0,182;   -0,136
971,220; 3062,217;   -0,455;   -1,500
971,772; 2982,854;   -0,636;   -0,318
972,324; 3106,581;    0,091;   -0,500
972,876; 3037,581;    0,818;   -0,045
973,427; 3201,672;    1,909;   -1,045
973,979; 3156,944;   -0,727;   -2,500
974,530; 3186,672;    1,818;    1,318
975,082; 3183,399;   -0,545;    1,682
975,633; 3105,308;    1,091;    1,682
976,184; 3233,490;    0,909;    0,773
976,736; 3025,308;    0,091;    0,227
977,287; 2815,944;   -0,909;   -0,500
977,838; 2985,672;    0,909;   -0,318
978,389; 3058,217;   -1,000;   -0,500
978,940; 2929,035;    0,545;   -0,409
979,491; 2933,126;    0,091;   -0,500
980,042; 2927,854;    0,182;    3,045
980,593; 2988,672;   -2,545;    0,227
981,144; 3021,217;    2,545;   -0,500
981,695; 2977,126;    1,455;    1,500
982,246; 2945,490;   -0,273;    1,045
982,797; 3115,763;   -1,727;    0,682
983,347; 3216,126;    0,364;    0,591
983,898; 3391,672;    3,091;    0,409
984,449; 3202,399;    2,182;    0,773
984,999; 3101,763;    1,455;   -1,136
985,550; 2878,217;    0,182;   -0,318
986,100; 2912,399;   -0,455;   -0,318
986,651; 2937,944;   -0,818;    0,045
987,201; 2916,763;   -1,000;   -0,591
987,751; 3005,126;    0,818;    2,864
988,302; 2998,035;    2,636;    1,500
988,852; 3014,308;    0,455;   -1,136
989,402; 3062,217;    0,091;    0,682
989,952; 2977,490;   -2,182;    0,864
990,502; 3090,944;   -0,091;    0,682
991,052; 3031,944;   -0,727;    0,045
991,602; 2899,490;   -2,909;    1,318
992,152; 2898,490;    0,455;    0,682
992,702; 2874,672;    1,364;   -0,045
993,252; 2821,672;   -3,000;   -0,500
993,802; 2915,944;   -0,273;    1,318
994,352; 3130,217;   -1,545;    1,136
994,901; 3227,672;   -0,182;    3,227
995,451; 3134,854;   -0,182;    0,318
996,000; 3217,308;    1,636;    0,318
996,550; 2930,308;    2,273;    0,227
997,100; 2930,763;    1,273;   -0,045
997,649; 3224,035;    2,182;    0,955
998,198; 2830,763;    1,727;   -1,500
998,748; 3053,217;    1,091;   -2,318
999,297; 2958,763;   -0,818;   -0,409
999,846; 3013,763;    1,000;   -0,773
1000,395; 3045,490;   -0,818;    0,500
1000,945; 3013,944;    1,818;   -0,773
1001,494; 3108,217;    2,364;    0,682
1002,043; 3103,217;    4,636;    0,864
1002,592; 2925,672;   -1,091;    1,955
1003,141; 3072,308;   -0,455;   -0,682
1003,690; 2928,126;    1,727;    0,500
1004,238; 3025,035;    1,455;   -0,045
1004,787; 2644,217;    1,364;    1,227
1005,336; 2887,308;    0,364;    0,682
1005,885; 3030,126;    1,364;   -2,773
1006,433; 3177,217;    0,545;    0,955
1006,982; 3212,490;    0,455;    1,682
1007,531; 3126,944;   -1,818;   -0,227
1008,079; 3066,763;   -2,273;    0,500
1008,627; 3204,217;   -1,455;    0,409
1009,176; 2937,944;    0,000;   -1,955
1009,724; 2990,763;    1,091;    0,864
1010,273; 3045,944;    1,273;    0,500
1010,821; 3161,035;    0,091;    1,409
1011,369; 2900,308;   -1,364;    1,318
1011,917; 2885,490;   -1,364;   -0,591
1012,465; 3159,035;    1,273;   -1,591
1013,013; 3277,308;    2,091;   -1,682
1013,561; 3155,399;    0,455;   -0,773
1014,109; 3225,217;   -1,909;    1,682
1014,657; 3097,308;    0,364;    0,591
1015,205; 3190,581;    1,636;   -0,955
1015,753; 3218,126;   -0,545;   -1,409
1016,301; 3265,217;   -2,636;    3,045
1016,848; 3284,490;   -1,273;    0,409
1017,396; 3315,217;    2,545;    0,045
1017,944; 3435,581;    1,182;    1,864
1018,491; 3203,308;    0,273;    1,409
1019,039; 3376,308;    0,455;    0,591
1019,586; 3278,035;   -1,364;    1,682
1020,134; 3355,581;    0,455;    1,500
1020,681; 3389,035;    0,182;   -1,136
1021,228; 3398,581;    2,909;   -2,227
1021,776; 3213,126;    1,182;   -1,136
1022,323; 3424,126;    0,455;    0,773
1022,870; 3366,308;   -1,000;   -0,045
1023,417; 3260,854;    2,636;    1,864
1023,964; 3379,854;    2,636;    1,227
1024,511; 3227,399;    1,000;    0,773
1025,058; 3051,854;    3,182;   -0,045
1025,605; 3125,944;   -2,273;    3,136
1026,152; 3319,399;    1,727;   -0,591
1026,699; 3039,399;    1,818;    1,318
1027,245; 3205,581;   -0,091;    0,318
1027,792; 3419,854;   -1,000;    1,409
1028,339; 3295,217;    2,364;   -0,045
1028,885; 3147,217;    1,000;   -0,227
1029,432; 3088,399;   -0,091;    0,227
1029,978; 3160,399;   -1,000;   -1,591
1030,525; 3065,035;    1,000;    0,409
1031,071; 3284,035;   -1,364;    1,136
1031,618; 3397,217;    0,364;    1,682
1032,164; 3184,308;   -0,091;    3,045
1032,710; 3221,217;    1,636;   -1,500
1033,256; 3140,763;   -0,636;   -0,136
1033,803; 3126,763;   -0,545;    1,500
1034,349; 2820,763;   -1,364;    0,136
1034,895; 2983,399;    0,000;   -0,318
1035,441; 2977,490;   -0,818;    0,318
1035,987; 2979,672;   -2,364;   -0,682
1036,533; 2970,035;   -1,455;   -0,955
1037,078; 3191,581;    1,455;    1,682
1037,624; 3003,035;    2,455;   -0,955
1038,170; 3036,035;    0,455;   -0,318
1038,716; 2936,308;    1,636;   -0,409
1039,261; 2851,854;   -2,273;   -0,773
1039,807; 2787,944;   -0,091;    3,409
1040,352; 2841,490;   -1,909;   -0,318
1040,898; 2887,490;   -1,545;   -0,682
1041,443; 2809,944;   -1,455;   -2,591
1041,989; 2831,217;    1,091;    1,591
1042,534; 2697,763;   -0,364;    2,591
1043,079; 2789,490;    2,909;    0,955
1043,625; 2610,308;    1,818;    0,500
1044,170; 2652,944;   -1,364;    1,045
1044,715; 2926,854;    2,455;    0,955
1045,260; 2729,763;    2,182;   -0,955
1045,805; 2758,126;    1,182;   -0,591
1046,350; 2685,126;    1,364;   -0,409
1046,895; 2649,399;    2,909;    1,591
1047,440; 2624,126;    5,364;    0,409
1047,985; 2497,490;    2,818;   -0,955
1048,530; 2421,581;    1,545;    1,227
1049,074; 2503,490;    0,000;    0,318
1049,619; 2465,672;   -1,364;    1,955
1050,164; 2264,308;    0,455;    0,227
1050,708; 2312,126;   -0,455;    0,045
1051,253; 2692,308;    1,273;   -2,227
1051,797; 2389,399;    0,818;   -1,318
1052,342; 2387,217;   -1,182;    1,045
1052,886; 2398,672;    0,364;   -1,409
1053,430; 2276,126;   -1,364;    0,136
1053,975; 2289,399;   -0,818;   -0,318
1054,519; 2266,035;   -0,727;    3,227
1055,063; 2275,308;    0,909;    1,318
1055,607; 2164,944;   -0,182;    0,227
1056,151; 2195,490;    2,909;    1,682
1056,695; 2104,126;    2,273;   -1,136
1057,239; 2170,308;   -1,727;   -0,682
1057,783; 2193,944;    0,818;   -1,500
1058,327; 2136,126;    0,000;    1,409
1058,871; 2370,217;   -0,545;    1,318
1059,415; 2088,581;   -0,818;   -0,045
1059,958; 2355,854;    1,455;    2,591
1060,502; 2062,399;   -1,000;   -0,773
1061,046; 1950,490;    0,364;   -0,955
1061,589; 1941,490;   -3,000;   -1,136
1062,133; 1819,944;   -1,273;    1,864
1062,676; 1764,854;    1,182;    0,864
1063,220; 1772,399;    1,091;    0,500
1063,763; 1806,035;    0,909;    1,136
1064,306; 1884,308;   -0,909;    1,864
1064,849; 1764,308;   -0,909;    0,591
1065,393; 1776,035;    2,000;   -1,500
1065,936; 1870,126;    0,182;   -0,409
1066,479; 1755,854;   -1,455;    1,318
1067,022; 1787,399;   -0,273;   -0,227
1067,565; 1684,490;   -0,091;   -1,318
1068,108; 1709,217;    0,727;   -0,591
1068,651; 1667,126;   -0,636;    1,409
1069,194; 1607,035;   -0,455;   -1,682
1069,736; 1612,035;   -1,273;    0,955
1070,279; 1581,672;   -1,364;   -0,500
1070,822; 1647,126;   -2,000;   -0,318
1071,364; 1740,035;   -0,364;    1,318
1071,907; 1566,854;   -0,727;    3,227
1072,450; 1454,308;    0,000;   -0,045
1072,992; 1441,490;   -0,273;    3,136
1073,535; 1595,672;    2,091;    2,136
1074,077; 1376,308;   -0,727;    2,045
1074,619; 1345,581;   -1,364;    0,591
1075,161; 1380,035;   -1,091;    1,500
1075,704; 1572,672;    1,545;    1,227
1076,246; 1371,581;   -0,182;    0,682
1076,788; 1298,035;   -0,364;    1,773
1077,330; 1350,854;    1,273;    2,136
1077,872; 1311,672;    0,909;    0,955
1078,414; 1564,763;    2,727;    0,773
1078,956; 1294,581;    1,273;   -0,227
1079,498; 1563,581;    1,636;    0,318
1080,040; 1265,399;    1,909;   -1,318
1080,581; 1197,126;    1,636;   -0,318
1081,123; 1121,035;    0,091;   -0,773
1081,665; 1168,126;   -1,182;   -0,955
1082,206; 1489,035;    1,364;   -0,500
1082,748; 1333,854;    0,727;    2,045
1083,289; 1202,672;   -2,000;    1,318
1083,831; 1119,854;   -0,545;    0,227
1084,372; 1162,217;    0,000;    0,591
1084,913; 1149,490;    1,091;    0,864
1085,455; 1124,126;   -1,909;   -2,045
1085,996; 1099,399;   -2,273;    0,136
1086,537; 1119,490;   -0,091;    0,864
1087,078; 1148,126;   -0,909;   -2,136
1087,619; 1213,672;   -1,273;    0,227
1088,160; 1111,854;    0,000;    1,318
1088,701; 1096,763;   -1,091;    0,682
1089,242; 1029,035;    1,364;   -2,227
1089,783; 1138,944;   -0,273;    1,409
1090,324; 1087,581;    0,455;    0,682
1090,865;  967,763;    2,727;   -0,409
1091,405;  938,490;    0,727;    2,227
1091,946;  975,399;    0,182;   -0,955
1092,487;  883,763;    0,818;   -1,409
1093,027; 1070,399;   -1,364;   -1,500
1093,568;  933,763;   -0,364;    1,227
1094,108; 1028,399;    0,273;    1,773
1094,649;  958,399;   -1,182;    0,136
1095,189;  881,944;   -0,636;   -0,682
1095,729;  839,672;   -0,091;    0,955
1096,269;  842,944;    0,727;   -0,955
1096,810; 1178,035;   -1,364;    0,500
1097,350;  985,672;    1,364;   -0,773
1097,890;  890,126;    0,364;    1,227
1098,430; 1152,490;    2,364;    2,864
1098,970; 1031,854;    2,182;    1,682
1099,510;  881,854;    0,545;   -2,318
1100,050;  803,490;    1,000;   -1,591
1100,589;  774,581;   -0,727;   -0,318
1101,129;  896,399;    0,818;   -0,955
1101,669; 1060,126;    1,727;    2,136
1102,209;  885,126;   -0,091;    2,227
1102,748;  830,308;    0,000;    0,955
1103,288;  818,672;    1,273;   -1,227
1103,827;  854,763;    3,091;   -2,227
1104,367;  721,035;   -0,091;   -2,409
1104,906;  686,490;    1,364;   -1,136
1105,445;  762,308;    0,636;   -1,136
1105,985;  707,944;   -0,727;    1,500
1106,524;  760,399;   -1,727;   -0,682
1107,063;  737,490;   -2,727;    1,409
1107,602;  704,490;   -1,909;   -1,500
1108,141;  619,035;   -1,909;    1,500
1108,680;  742,944;   -3,455;   -0,591
1109,219;  663,490;   -0,909;   -0,500
1109,758;  664,944;    0,455;    0,682
1110,297;  643,126;    1,000;   -0,682
1110,836;  584,763;   -0,727;    0,955
1111,375;  758,763;   -2,545;    0,409
1111,913;  759,035;   -1,000;    0,773
1112,452;  692,490;   -0,273;    0,136
1112,991;  585,399;    1,091;    1,955
1113,529;  535,672;   -0,818;   -0,045
1114,068;  605,308;   -0,273;    2,955
1114,606;  513,581;   -0,364;   -0,955
1115,144;  679,490;   -1,273;    1,045
1115,683;  617,035;   -0,727;    0,318
1116,221;  664,763;   -0,455;   -0,864
1116,759;  573,672;    0,636;   -0,864
1117,297;  776,126;    0,000;    1,864
1117,836;  571,035;   -2,182;   -1,227
1118,374;  575,308;    0,182;   -0,682
1118,912;  516,944;    0,909;    2,682
1119,450;  515,035;    1,000;    0,864
1119,988;  578,217;    1,545;    2,136
1120,525; 1034,035;    5,091;    3,318
1121,063;  725,944;    1,182;    1,864
1121,601;  532,035;   -0,909;   -1,227
1122,139;  485,126;   -0,727;   -2,045
1122,676;  693,581;   -0,727;    2,773
1123,214;  619,581;   -1,182;    4,409
1123,751;  420,854;    1,727;    2,227
1124,289;  565,944;   -0,091;   -0,409
1124,826;  426,854;    1,727;    0,227
1125,364;  347,308;    1,727;   -0,955
1125,901;  537,126;    1,182;    1,227
1126,438;  658,490;    0,818;    0,955
1126,975;  368,672;   -0,727;   -0,773
1127,513;  454,854;    0,273;    2,136
1128,050;  353,399;    1,636;   -0,682
1128,587;  455,217;    2,000;   -0,227
1129,124;  502,217;    0,091;    1,318
1129,661;  355,581;    0,273;    0,227
1130,198;  537,399;    1,636;    0,773
1130,734;  478,490;    0,182;    1,409
1131,271;  332,672;   -0,909;    0,864
1131,808;  520,854;    2,909;    3,045
1132,345;  386,763;    1,545;    0,318
1132,881;  245,581;   -1,545;   -1,864
1133,418;  393,944;    0,727;   -1,136
1133,954;  329,944;    2,455;   -2,682
1134,491;  409,490;    1,364;   -0,773
1135,027;  300,308;    2,364;    0,864
1135,564;  399,308;    0,273;    2,955
1136,100;  378,672;    0,364;    2,136
1136,636;  263,490;   -1,273;   -1,045
1137,172;  363,217;    0,000;   -1,045
1137,708;  284,944;   -1,364;   -1,045
1138,245;  281,581;    1,273;   -1,227
1138,781;  223,944;    1,091;   -3,318
1139,317;  307,035;    1,273;   -1,409
1139,852;  286,126;    3,091;    0,136
1140,388;  412,217;   -1,182;   -0,409
1140,924;  289,944;   -1,091;   -2,227
1141,460;  228,126;   -1,636;    0,136
1141,996;  159,944;   -1,364;    2,682
1142,531;  214,126;    1,364;    3,318
1143,067;  437,490;    1,182;    1,045
1143,602;  505,763;   -0,091;   -0,318
1144,138;  338,126;   -2,636;    1,045
1144,673;  203,763;   -1,455;    1,409
1145,209;  269,672;   -1,909;   -0,318
1145,744;  178,126;   -0,727;    0,864
1146,279;  323,308;    1,818;   -0,136
1146,815;  235,944;    1,545;   -2,682
1147,350;  286,944;   -1,364;    0,045
1147,885;  190,490;   -0,818;   -1,318
1148,420;  190,399;   -2,273;    0,773
1148,955;  172,581;   -1,727;    1,864
1149,490;  209,944;   -0,909;   -1,591
1150,025;  178,672;    0,455;   -1,773
1150,560;  299,126;    1,091;   -0,955
1151,094;  265,490;    1,455;   -0,591
1151,629;  264,217;    1,636;    0,864
1152,164;  191,944;    1,364;    1,318
1152,698;  144,854;   -0,182;   -0,136
1153,233;  107,126;    0,091;   -0,682
1153,767;  157,399;   -3,000;   -2,318
1154,302;  210,217;   -1,455;    1,773
1154,836;  198,217;   -0,455;   -2,136
1155,371;  267,399;   -1,364;    3,682
1155,905;  209,944;   -0,636;    1,682
1156,439;  175,490;   -0,636;   -0,500
1156,973;  214,399;    0,364;    0,318
1157,507;  144,490;   -0,364;    0,682
1158,042;  171,763;   -0,727;    1,045
1158,576;  221,944;    0,182;    1,773
1159,110;  210,217;   -0,818;    2,409
1159,643;  180,217;    0,636;   -0,045
1160,177;  116,763;   -1,545;    1,500

