
Integration time [ms]:   0,040
Averaging Nr. [scans]: 11
Smoothing Nr. [pixels]: 0
Data measured with spectrometer [name]: 7318044SP
Wave   ;Sample   ;Dark     ;Reference
[nm]   ;[counts] ;[counts] ;[counts] 

186,757;   27,054;   31,551;    1,318
187,357;   66,774;   22,551;    0,955
187,958;   39,579;   15,460;   -1,591
188,558;   86,499;    8,915;   -1,227
189,159;   53,879;    6,733;   -4,500
189,759;   23,115;    7,278;   -3,591
190,360;   14,694;    2,824;   -2,136
190,960;   57,022;    2,915;   -4,136
191,560;   82,490;    3,189;   -6,591
192,161;  349,537;    4,372;   -3,500
192,761;  167,882;    4,010;   -3,227
193,361;  118,004;    1,556;   -3,773
193,962;  167,294;    2,010;   -2,682
194,562;   84,290;    1,189;   -3,955
195,162;  126,449;   -2,448;   -2,227
195,762;  298,311;   -3,176;   -0,045
196,362;  240,733;    1,370;   -2,500
196,963;   98,028;    2,006;   -0,864
197,563;  169,958;    1,551;   -0,955
198,163;  108,341;    0,096;   -0,682
198,763;  126,836;    1,733;   -0,500
199,363;  241,001;    3,096;   -0,500
199,963;  197,064;    0,369;    0,409
200,563;  167,614;    2,823;   -1,409
201,163;  141,723;    3,277;   -0,227
201,763;  246,517;    3,732;    0,318
202,363;  173,892;    1,459;    1,500
202,963;  288,124;    1,459;    1,045
203,563;  407,739;    0,277;    0,500
204,162;  240,395;    2,096;   -1,864
204,762;  230,966;    0,550;    0,591
205,362;  198,398;    3,004;    1,955
205,962;  300,718;    3,096;    1,955
206,562;  294,204;    1,823;    2,318
207,161;  260,078;   -0,087;    0,318
207,761;  424,054;    1,277;    2,409
208,361;  297,223;   -0,268;    1,409
208,960;  410,153;    0,459;    1,500
209,560;  481,799;    1,277;    1,591
210,160;  451,186;    0,550;    1,864
210,759;  402,260;    4,186;    1,227
211,359;  421,962;    1,459;    1,045
211,958;  695,837;    1,277;    2,045
212,558;  778,717;    1,732;    1,864
213,157;  612,052;    1,822;    1,500
213,757; 1070,900;    3,822;   -0,227
214,356;  762,037;    1,277;   -0,409
214,956; 1107,956;    3,095;    0,409
215,555;  714,379;    2,095;    2,136
216,154;  655,684;   -2,723;   -0,591
216,754;  665,765;    0,277;    0,773
217,353;  814,359;   -0,268;   -1,045
217,952;  661,539;   -0,178;    0,318
218,552;  907,726;    1,368;   -0,773
219,151;  793,089;    0,277;    0,955
219,750;  796,153;    0,004;   -0,227
220,349;  915,536;   -0,451;    1,045
220,948; 1008,331;   -1,360;    1,136
221,548; 1011,515;    0,913;    1,227
222,147; 1136,069;   -0,087;   -0,409
222,746; 1445,953;   -0,451;   -0,955
223,345; 1308,705;    0,731;    0,500
223,944; 1307,945;   -0,451;    0,773
224,543; 1487,882;    1,004;   -1,409
225,142; 1617,315;    0,094;    0,136
225,741; 1528,947;   -0,814;    1,045
226,340; 1553,003;   -0,451;   -0,955
226,939; 2032,513;   -0,996;   -0,136
227,538; 1986,873;   -0,360;   -0,773
228,137; 2143,988;   -0,814;    0,864
228,735; 2301,256;   -0,541;    1,227
229,334; 2040,156;   -0,905;   -0,227
229,933; 2424,775;    0,459;    0,591
230,532; 2533,171;    1,186;   -0,409
231,131; 2596,346;    1,732;    0,318
231,729; 2748,296;   -2,450;   -2,318
232,328; 2897,431;   -0,723;   -1,500
232,927; 2997,285;    1,004;   -0,500
233,525; 3134,429;    3,640;    0,045
234,124; 3371,412;    2,368;   -1,591
234,723; 3379,269;    0,913;   -1,045
235,321; 3540,405;    2,277;    0,136
235,920; 3782,210;    1,186;   -1,227
236,518; 4036,528;    3,459;    0,318
237,117; 4226,852;    0,004;   -0,227
237,715; 4411,856;    0,640;   -0,500
238,314; 4488,095;   -0,087;   -2,318
238,912; 4588,672;   -0,723;   -1,409
239,510; 4619,016;    0,459;   -1,227
240,109; 4796,006;    0,004;    3,773
240,707; 4869,271;   -0,996;    1,227
241,305; 5253,700;    0,550;    0,136
241,904; 5494,155;   -0,178;   -2,045
242,502; 5462,806;   -0,632;   -0,227
243,100; 5370,028;   -0,087;   -0,955
243,698; 5613,668;    0,732;    1,682
244,297; 5829,251;   -0,632;    0,682
244,895; 5658,304;   -0,269;   -2,318
245,493; 6034,775;    2,186;   -0,591
246,091; 6023,451;    1,368;   -1,318
246,689; 6020,901;    1,004;    0,591
247,287; 6205,864;    0,822;   -1,136
247,885; 6499,416;   -1,451;    1,227
248,483; 6593,919;    1,822;   -0,500
249,081; 6749,930;    0,185;    1,591
249,679; 6910,124;   -0,178;    1,682
250,277; 7164,473;   -1,723;    0,864
250,875; 7161,306;   -1,087;   -1,045
251,473; 7199,889;   -1,178;    0,500
252,071; 7402,100;    1,459;    1,045
252,669; 7571,036;   -1,814;    0,318
253,267; 7817,018;   -0,087;    0,773
253,864; 7800,592;   -0,360;    0,682
254,462; 7656,310;    1,640;    1,591
255,060; 7618,286;   -0,269;    1,318
255,658; 7973,308;    0,822;   -0,136
256,255; 8427,223;    0,186;   -2,045
256,853; 8272,325;   -0,269;    1,409
257,451; 8252,493;    0,822;    1,864
258,048; 8554,378;    1,822;    1,864
258,646; 8290,578;    1,731;   -1,045
259,243; 8509,597;   -0,087;    2,227
259,841; 8539,554;   -0,814;    0,318
260,438; 8407,570;   -0,087;    0,864
261,036; 9150,015;   -1,905;    1,409
261,633; 9035,045;   -0,087;    2,227
262,231; 8788,417;    2,731;   -0,045
262,828; 8868,982;   -0,905;    1,136
263,425; 8928,005;    0,913;   -0,591
264,023; 9232,013;    0,186;    0,045
264,620; 8779,114;   -0,360;   -0,318
265,217; 9132,131;   -2,087;    3,136
265,815; 9199,466;   -1,905;    2,136
266,412; 8965,414;    0,731;    0,136
267,009; 9061,034;   -1,451;    0,773
267,606; 8954,851;    0,822;   -0,955
268,203; 8904,158;   -0,269;   -0,591
268,801; 9198,972;    1,731;    0,591
269,398; 9506,644;   -0,360;    2,500
269,995; 9506,891;    0,277;    1,591
270,592; 9265,824;   -0,632;   -0,500
271,189; 9456,676;    0,186;    0,409
271,786; 9572,041;   -0,632;    1,227
272,383; 9424,661;   -1,087;    0,227
272,980; 9643,102;    0,277;    0,318
273,577;10103,584;    0,004;    1,227
274,174; 9671,272;    0,822;    2,591
274,771; 9645,672;   -0,814;   -0,773
275,367; 9789,943;    2,277;    1,409
275,964; 9774,519;    0,731;   -0,500
276,561; 9857,868;    1,549;   -1,045
277,158;10084,761;    0,095;   -1,773
277,755;10211,566;    2,185;    0,409
278,351; 9608,846;   -0,451;   -1,500
278,948; 9928,166;   -0,815;    0,045
279,545; 9919,140;   -1,360;    2,318
280,141;10583,292;   -1,723;   -2,045
280,738;10468,935;   -0,451;   -0,136
281,334;10719,007;   -1,633;    0,591
281,931;10080,589;   -0,087;   -1,318
282,528;10190,779;    0,822;   -0,500
283,124;10903,037;   -1,087;   -0,500
283,721;10786,388;   -0,451;    1,409
284,317;10612,476;    0,185;    2,500
284,913;11182,821;   -1,360;    0,591
285,510;11395,639;    0,640;   -0,318
286,106;11397,362;   -2,269;   -0,955
286,703;11003,665;   -0,360;    1,955
287,299;11194,736;   -1,451;   -0,591
287,895;11409,055;    0,822;   -1,045
288,491;11981,735;    0,186;    2,136
289,088;11701,383;   -2,360;    2,409
289,684;11774,126;   -1,723;    1,500
290,280;11819,732;    0,368;    0,682
290,876;11906,350;    1,822;    5,500
291,472;11755,884;    1,276;    2,227
292,068;11882,554;    1,367;    0,227
292,665;11579,372;    2,095;    0,773
293,261;11163,322;    0,276;    2,136
293,857;11617,631;    2,913;    2,136
294,453;11539,679;    3,550;    0,955
295,049;11395,113;   -0,268;    1,955
295,644;11413,762;    0,095;    0,136
296,240;11330,194;   -0,905;   -0,136
296,836;11384,815;   -0,995;    0,318
297,432;11661,578;    1,096;   -0,500
298,028;11712,733;    0,732;    0,773
298,624;12102,920;    1,459;    1,864
299,220;12386,208;    2,368;    0,591
299,815;12048,421;    1,005;   -0,409
300,411;11833,477;    0,914;    1,773
301,007;11860,809;    1,368;    0,227
301,602;11912,520;   -0,541;   -2,318
302,198;12090,943;    0,732;   -0,773
302,794;12412,707;    1,187;   -0,500
303,389;12551,085;   -1,177;    1,045
303,985;12621,523;    0,550;    1,409
304,580;12617,703;    1,459;    1,591
305,176;12567,809;   -3,086;    0,136
305,771;12475,066;   -1,268;   -1,227
306,367;12349,431;    4,095;    0,136
306,962;12656,974;    0,641;    1,500
307,558;12399,183;   -0,450;    0,136
308,153;12318,086;    1,095;   -1,136
308,748;12547,207;   -0,814;    1,682
309,344;12554,191;   -0,632;   -1,318
309,939;12645,906;   -1,905;   -1,318
310,534;12868,412;   -0,086;   -1,682
311,130;12827,640;    0,459;   -2,500
311,725;12553,133;    1,004;   -0,500
312,320;12900,407;    2,459;    0,045
312,915;12730,417;    1,459;   -1,045
313,510;12820,624;    1,550;   -0,500
314,105;13347,101;    1,096;    1,409
314,700;12707,594;   -3,086;   -1,045
315,295;12319,248;   -0,904;    0,045
315,890;11885,055;    1,277;    0,864
316,485;12247,870;   -0,359;   -0,318
317,080;12382,984;   -3,086;    1,591
317,675;12980,139;    2,005;   -0,682
318,270;12407,421;    5,550;    3,318
318,865;12373,507;    3,278;    3,045
319,460;12229,397;   -0,904;    0,591
320,055;12437,250;   -0,541;   -1,227
320,650;12116,739;   -1,995;   -0,591
321,244;12149,002;   -0,177;   -1,409
321,839;13110,881;   -1,541;   -0,227
322,434;12970,952;   -1,086;   -1,591
323,029;12602,114;    1,732;    1,591
323,623;12454,025;    1,550;    0,773
324,218;12199,989;    2,368;    1,409
324,812;12087,712;    1,096;    1,591
325,407;11863,760;   -0,814;    2,045
326,002;11823,829;    0,277;   -0,409
326,596;12115,580;    0,914;    1,318
327,191;12311,805;    0,823;   -1,045
327,785;11896,671;   -0,813;   -0,227
328,379;12116,382;    1,368;    0,136
328,974;11935,232;    0,914;   -3,955
329,568;12121,294;    0,186;   -2,409
330,163;11951,792;    2,096;    1,045
330,757;12297,580;    2,459;    1,591
331,351;11615,558;    0,459;    0,682
331,945;11918,248;    0,914;    1,409
332,540;11498,563;   -1,723;   -0,591
333,134;11696,103;   -1,086;    0,773
333,728;11930,986;    0,005;    0,318
334,322;12234,405;   -1,177;   -0,864
334,916;11523,942;    0,277;    0,955
335,510;11853,671;   -0,450;   -0,136
336,105;12088,623;   -1,086;    1,591
336,699;11812,032;   -1,086;    0,591
337,293;11731,901;   -1,723;    0,318
337,887;11901,257;   -2,723;    1,955
338,481;12026,227;    0,459;    0,591
339,074;12135,483;   -0,359;    2,682
339,668;11956,427;   -1,632;    1,227
340,262;12259,867;    1,732;    3,227
340,856;11721,686;    1,822;   -0,682
341,450;11058,788;    1,004;    1,864
342,044;11995,628;    1,459;    0,136
342,637;11783,733;    0,913;   -2,136
343,231;11663,466;   -2,360;    0,682
343,825;11590,209;   -1,086;   -0,591
344,419;11540,004;   -1,995;    0,500
345,012;11345,902;    2,459;    4,045
345,606;11350,568;    4,641;    1,591
346,199;11161,265;   -1,813;   -0,227
346,793;10666,936;    1,914;    2,045
347,386;10848,039;   -0,813;   -1,136
347,980;10883,273;   -0,268;   -0,045
348,573;10652,801;    2,278;    0,409
349,167;10304,227;    5,278;    4,773
349,760;10676,087;    2,914;    2,682
350,354;10676,256;   -0,813;    1,136
350,947;10424,752;    1,096;    1,682
351,540;10088,320;   -0,358;   -1,409
352,134; 9978,119;    1,096;    1,136
352,727;10057,522;   -0,086;    1,136
353,320; 9851,993;    0,005;    0,591
353,913; 9705,054;   -1,995;    1,864
354,507; 9924,169;    0,823;   -1,227
355,100; 9896,686;    0,460;    0,864
355,693; 9169,870;    2,005;    2,409
356,286; 9229,932;    0,823;    2,773
356,879; 9584,551;   -0,722;    1,227
357,472; 9133,416;   -0,904;    1,500
358,065; 9326,488;   -0,722;    2,500
358,658; 9258,092;   -0,540;    2,318
359,251; 8920,647;   -1,631;   -0,591
359,844; 8398,565;   -1,904;   -1,136
360,437; 8580,481;   -2,995;    0,045
361,030; 8843,070;    1,369;   -0,682
361,623; 8417,062;    2,824;    0,318
362,215; 8482,415;   -0,086;    2,045
362,808; 8328,080;   -2,358;   -1,682
363,401; 8509,355;   -2,449;    0,136
363,994; 8217,916;   -0,631;   -1,500
364,586; 8138,444;    0,824;   -1,500
365,179; 8393,026;   -0,449;   -1,136
365,772; 7856,958;   -1,995;    2,045
366,364; 8186,742;    1,915;   -3,227
366,957; 8359,338;    2,279;   -0,045
367,549; 8389,312;    2,188;   -0,864
368,142; 8047,646;    1,825;   -1,500
368,734; 8249,800;    0,734;   -2,136
369,327; 8194,163;    1,643;   -0,500
369,919; 8077,153;   -1,538;    0,409
370,512; 7878,135;   -1,083;   -0,500
371,104; 7674,870;   -0,901;    1,591
371,696; 7857,409;    1,191;   -0,955
372,289; 7967,346;    0,373;    1,136
372,881; 8065,859;   -2,080;    1,318
373,473; 7991,410;   -2,170;    1,136
374,066; 7808,570;   -0,169;    0,500
374,658; 7638,014;    0,378;    1,136
375,250; 8018,966;    0,653;   -1,409
375,842; 7856,324;    0,473;   -0,045
376,434; 7754,355;   -0,435;   -0,409
377,026; 8353,707;    0,204;   -2,500
377,618; 8228,962;   -0,158;   -0,682
378,210; 8049,357;   -0,338;   -1,955
378,802; 7878,466;    0,754;   -0,591
379,394; 7873,047;    1,846;    0,682
379,986; 8483,542;    1,393;   -0,955
380,578; 8577,102;   -0,153;    0,773
381,170; 7898,694;   -0,972;    0,045
381,762; 7877,862;    0,755;    1,409
382,354; 8097,286;   -0,065;   -1,318
382,945; 8176,212;   -2,976;    0,318
383,537; 8307,202;   -2,705;   -1,955
384,129; 8339,620;   -2,160;   -1,136
384,721; 8541,318;   -0,252;    0,955
385,312; 8462,720;   -0,161;   -0,955
385,904; 8531,362;   -2,706;    1,591
386,496; 7882,198;   -0,979;    1,045
387,087; 8057,721;    1,022;    2,500
387,679; 8118,127;   -1,160;    0,045
388,270; 8231,470;    2,840;    2,045
388,862; 8342,579;    1,295;   -0,318
389,453; 8250,713;   -0,887;    1,045
390,045; 8534,954;   -0,705;   -2,682
390,636; 8449,428;    0,204;   -0,591
391,227; 8316,865;   -0,523;   -0,045
391,819; 8376,401;    0,204;    0,773
392,410; 8492,031;    1,022;    0,045
393,001; 8445,314;   -0,979;   -1,591
393,593; 8752,782;    1,930;   -0,045
394,184; 8610,142;    1,385;   -0,409
394,775; 8515,997;    1,839;    2,136
395,366; 8729,246;    1,385;    0,773
395,957; 8744,072;    0,113;    0,136
396,548; 9044,107;   -0,342;    2,682
397,139; 9368,641;   -2,433;    0,591
397,730; 9067,750;   -1,888;    0,955
398,321; 9125,593;   -1,252;    0,955
398,912; 9153,391;   -0,615;    0,136
399,503; 9201,868;   -3,524;   -1,409
400,094; 8657,341;    0,294;    1,682
400,685; 8533,424;   -0,433;    0,045
401,276; 8587,749;    0,930;   -0,955
401,867; 8913,113;   -0,888;    0,773
402,458; 9023,253;   -2,251;   -2,318
403,048; 8982,238;    1,112;    0,591
403,639; 8565,997;    0,840;    0,864
404,230; 8807,825;    2,476;    0,318
404,821; 8759,595;   -0,615;    0,045
405,411; 8879,077;    1,203;   -2,591
406,002; 8489,280;   -1,252;   -1,136
406,592; 8347,946;    2,294;    0,045
407,183; 8652,864;    0,566;   -1,500
407,774; 8552,042;    3,475;   -0,136
408,364; 8903,240;    0,930;    0,409
408,954; 8532,443;    0,384;    1,227
409,545; 8574,610;    1,021;    1,045
410,135; 8079,109;    1,293;    0,500
410,726; 8252,564;    1,838;    0,318
411,316; 8634,904;    0,111;    0,773
411,906; 8292,497;   -0,253;   -0,409
412,497; 7759,622;   -1,070;   -0,045
413,087; 8399,514;   -1,980;   -0,227
413,677; 8809,687;   -0,707;    3,864
414,267; 8641,454;    0,656;    1,409
414,857; 8654,847;   -2,980;    4,227
415,448; 8939,570;    0,839;    0,500
416,038; 8608,535;    0,020;   -0,591
416,628; 8584,582;   -0,889;    0,409
417,218; 8044,617;    0,565;    3,318
417,808; 8321,919;    0,202;   -0,409
418,398; 8829,047;    0,020;    2,682
418,988; 8802,402;    2,020;    0,591
419,578; 9097,139;   -0,707;    1,409
420,168; 9434,688;   -1,343;   -0,955
420,757; 9047,966;   -1,343;   -1,500
421,347; 8694,872;    0,111;   -0,227
421,937; 8870,617;    2,292;    1,409
422,527; 8806,043;    0,838;   -0,773
423,116; 8620,983;   -0,253;   -0,045
423,706; 8976,741;   -1,889;    0,318
424,296; 8960,004;    1,384;    0,682
424,885; 9374,277;   -0,071;   -3,045
425,475; 9699,349;    1,474;   -2,864
426,065; 9599,280;   -0,980;   -0,318
426,654; 9224,542;   -0,435;   -0,318
427,244; 9346,219;    0,020;    1,409
427,833; 8787,185;    1,383;   -0,500
428,423; 9289,457;   -0,526;    1,136
429,012;10041,588;   -0,344;   -1,136
429,601; 9520,778;   -1,344;    0,136
430,191; 9792,594;    1,292;    4,318
430,780; 9441,890;   -0,344;   -0,409
431,369; 9350,783;    0,746;   -0,045
431,959; 9973,294;   -1,254;    0,500
432,548; 9795,794;   -1,163;   -0,045
433,137; 9893,580;   -1,254;   -1,318
433,726;10455,445;    0,292;    0,500
434,315; 9787,821;   -0,526;    2,409
434,905; 9850,318;   -1,254;    1,409
435,494; 9741,526;    0,746;    0,955
436,083;10217,801;   -0,981;   -0,955
436,672;10129,405;    0,110;    0,500
437,261; 9704,843;    0,292;   -1,955
437,850; 9801,581;    1,383;    0,682
438,439; 9823,909;    3,291;    1,955
439,027; 9677,493;    3,655;    1,773
439,616;10006,167;    2,927;    1,227
440,205; 9863,953;    0,200;   -2,136
440,794; 9939,737;    2,109;   -0,045
441,383;10245,371;   -1,346;   -0,591
441,971;10095,079;   -2,436;    0,591
442,560; 9933,863;    0,563;   -1,773
443,149; 9703,621;    0,379;   -1,318
443,737; 9850,444;   -0,074;   -2,318
444,326;10116,787;    0,018;    0,318
444,915;10174,795;   -1,982;    0,864
445,503;10586,650;   -2,891;   -0,318
446,092; 9829,144;    0,382;    2,136
446,680;10369,762;    0,382;    0,318
447,269;10559,591;   -0,346;   -0,318
447,857;10325,688;    0,018;   -1,773
448,445;10444,117;    0,563;    1,318
449,034;10644,938;   -1,528;   -1,136
449,622;10813,034;   -1,073;    3,500
450,210;10009,969;    2,017;    2,227
450,799;10560,639;    0,290;   -0,591
451,387;10485,164;    1,381;   -0,591
451,975;10124,293;    2,654;    0,864
452,563;10223,447;    3,472;    2,318
453,151;10278,405;   -0,528;   -1,227
453,739;10241,844;   -1,347;    0,136
454,328;10044,840;    2,381;   -2,136
454,916; 9772,767;    2,562;   -0,136
455,504; 9928,000;    1,017;    1,227
456,092;10092,969;    0,017;   -1,591
456,679;10154,770;    1,472;    0,682
457,267;10084,957;    4,017;    1,045
457,855;10227,710;    1,017;    1,409
458,443; 9992,008;   -0,165;    1,682
459,031;10132,390;    0,108;    2,409
459,619;10589,023;   -1,801;    2,864
460,206;10746,280;    0,835;    2,045
460,794;10804,925;   -2,983;   -0,227
461,382;11083,465;   -0,529;   -0,864
461,970;10666,674;    1,198;    1,864
462,557;10660,969;   -0,711;   -0,682
463,145;10846,248;   -3,165;   -1,682
463,732;10999,130;    2,016;   -1,045
464,320;10964,277;   -0,075;   -3,045
464,907;10620,475;    2,743;   -0,773
465,495;10474,220;    0,743;   -1,227
466,082;10650,204;   -1,984;   -0,045
466,670;10569,587;   -2,529;    1,227
467,257;10956,544;   -1,711;    2,045
467,844;11092,620;   -0,075;    0,045
468,432;11136,307;    0,834;    3,500
469,019;10634,592;    0,925;   -1,773
469,606;11159,392;    0,470;    3,682
470,193;10962,443;   -1,439;    0,227
470,780;10500,544;   -2,075;    0,864
471,368;10840,117;   -1,257;   -0,773
471,955;10626,619;    1,379;   -0,682
472,542;10281,413;    0,652;   -1,136
473,129;10474,344;   -0,166;    0,136
473,716;10210,187;    1,470;    0,591
474,303;10457,379;    0,652;   -0,864
474,890;10746,638;   -1,439;   -0,500
475,477;10756,487;   -1,621;    0,409
476,064;10660,354;    1,106;   -1,591
476,650;10656,047;    0,288;    0,318
477,237;10459,592;   -0,258;    0,955
477,824;10656,471;   -1,076;    0,864
478,411;10647,543;   -1,894;   -0,318
478,997;10864,745;    0,560;   -0,773
479,584;10924,767;    1,196;   -0,409
480,171;11662,618;   -0,440;   -0,773
480,757;11333,144;    2,651;    0,773
481,344;11610,323;    0,469;    0,409
481,931;11127,864;    1,105;    1,045
482,517;12263,882;   -1,258;    0,318
483,104;12919,280;    1,106;    2,864
483,690;13210,295;   -1,804;    0,045
484,276;13568,978;   -0,895;    0,227
484,863;13253,370;    2,469;    1,136
485,449;13884,611;   -0,077;    0,318
486,035;13863,298;   -1,986;   -0,136
486,622;14236,924;   -0,895;    0,045
487,208;14168,778;    1,378;    1,500
487,794;14017,265;    0,741;    0,318
488,380;14123,577;    0,105;   -1,409
488,967;14236,220;   -1,168;   -0,409
489,553;14306,720;   -1,895;   -1,409
490,139;14489,243;    1,559;    0,773
490,725;13847,449;    0,741;   -0,227
491,311;13360,393;    3,287;    3,045
491,897;12642,407;   -0,986;    1,500
492,483;12434,932;    0,105;    1,227
493,069;12289,395;    3,923;    0,864
493,655;12268,700;    1,650;    0,682
494,241;12175,371;    1,377;   -0,955
494,826;12594,988;    0,287;   -1,045
495,412;12015,565;    2,559;   -0,682
495,998;12188,357;   -0,805;   -0,318
496,584;12310,599;    0,377;    1,045
497,169;12345,347;    1,014;   -0,682
497,755;12275,762;    0,650;    1,227
498,341;12881,797;    0,559;    0,318
498,926;12460,206;    1,832;    1,955
499,512;12613,346;    1,286;    2,955
500,097;12750,637;    0,195;   -0,318
500,683;12709,397;   -0,350;    2,136
501,268;13041,348;   -0,169;   -0,955
501,854;12741,646;   -0,169;    1,227
502,439;12682,509;   -0,624;   -1,773
503,024;12935,562;    0,195;    0,500
503,610;13017,671;   -0,078;   -0,682
504,195;13014,574;    0,558;    1,955
504,780;13081,094;    2,922;    1,227
505,366;12919,247;    3,013;    2,864
505,951;12653,961;    0,740;    1,045
506,536;12630,510;   -3,260;   -3,682
507,121;12590,393;    0,285;   -0,318
507,706;13136,225;    2,376;    1,045
508,291;13558,148;    2,649;    1,136
508,876;12981,536;   -0,988;    2,591
509,461;12458,708;   -0,169;   -0,773
510,046;12918,266;    0,194;    0,318
510,631;13132,820;   -0,351;   -0,773
511,216;12762,128;    2,467;   -0,500
511,801;13140,947;   -0,442;    2,591
512,386;13497,100;    0,740;    0,500
512,971;13413,417;   -2,988;    0,955
513,555;12981,202;   -0,897;   -1,500
514,140;13774,268;   -0,442;   -3,136
514,725;13729,572;   -0,715;   -1,136
515,309;13877,816;   -0,533;    0,318
515,894;13316,688;   -0,624;   -2,227
516,479;13760,646;   -0,624;   -0,955
517,063;13588,966;    0,376;    1,227
517,648;13723,440;    1,012;   -1,136
518,232;13361,526;   -0,261;   -1,409
518,817;13759,868;   -0,079;    1,682
519,401;13990,716;    2,194;    0,591
519,985;13469,768;    1,103;    1,136
520,570;13312,614;    0,830;   -1,955
521,154;13610,832;    2,102;    0,591
521,738;13834,058;   -2,352;    2,409
522,323;14363,076;   -0,170;    1,682
522,907;14074,557;    0,466;   -0,136
523,491;13807,117;    0,557;    0,955
524,075;13811,095;    2,284;    0,591
524,659;13891,954;    1,466;    0,591
525,243;13359,278;    1,739;    0,409
525,827;13620,613;    0,648;   -0,045
526,411;14496,135;   -1,989;   -0,136
526,995;14726,697;   -0,352;    1,409
527,579;14282,331;   -0,443;   -1,045
528,163;14621,167;    0,375;   -1,500
528,747;14515,143;    2,466;   -0,773
529,331;14833,878;   -0,080;   -1,409
529,915;15051,845;    1,738;    0,955
530,499;15009,449;   -0,807;    1,227
531,082;14728,321;   -0,534;    1,591
531,666;14136,597;    1,374;    0,773
532,250;14778,393;    1,284;    2,682
532,833;15155,632;    0,920;    2,773
533,417;15009,946;   -1,807;    0,864
534,001;15027,979;    1,647;   -0,318
534,584;15687,749;    0,374;    0,500
535,168;15545,739;    0,465;    1,409
535,751;15636,179;    0,647;    0,045
536,334;15043,314;   -0,898;   -0,409
536,918;15631,968;    0,011;    1,591
537,501;15768,217;   -0,899;    1,318
538,085;15734,978;   -0,444;    1,045
538,668;15939,138;    0,829;    2,409
539,251;16254,752;    1,829;    3,773
539,834;16266,096;    0,101;    0,773
540,418;16175,627;   -1,990;    4,318
541,001;16317,738;   -0,990;    1,773
541,584;16310,751;    2,101;    2,227
542,167;16022,769;    1,374;    2,955
542,750;16145,117;    1,919;   -0,773
543,333;15741,517;    0,555;    2,136
543,916;16551,079;    0,192;    2,500
544,499;17156,187;   -1,354;    0,227
545,082;17192,896;    1,374;    3,591
545,665;17325,162;    1,919;    1,500
546,248;17674,699;    1,010;   -0,318
546,830;17290,734;   -0,445;    1,955
547,413;17702,904;    1,010;   -0,773
547,996;18265,662;    0,555;    0,500
548,579;18037,258;    0,919;    0,955
549,161;17850,240;    1,828;    2,682
549,744;17620,200;   -0,809;    0,409
550,326;18112,846;   -0,809;   -1,136
550,909;17929,518;    2,737;    0,591
551,492;18328,271;   -0,263;    0,227
552,074;18111,861;   -0,173;   -1,318
552,657;18676,379;    2,373;    0,045
553,239;18398,040;   -0,173;   -0,773
553,821;18310,489;   -1,082;    1,045
554,404;17814,252;    1,282;    1,136
554,986;18236,128;    0,464;    1,045
555,568;18824,697;    1,191;   -0,955
556,151;18014,039;    1,191;   -0,227
556,733;18205,195;   -0,264;   -0,864
557,315;18669,713;    0,100;    0,500
557,897;18473,116;    0,554;   -0,500
558,479;18604,521;   -1,991;    1,318
559,061;18732,212;   -0,719;   -0,864
559,643;19110,385;   -0,264;    0,045
560,225;19503,044;    1,645;    2,864
560,807;19533,839;    0,918;    0,318
561,389;18973,291;    0,554;    2,318
561,971;19743,656;    0,463;    2,136
562,553;19527,885;   -1,628;    1,591
563,135;19727,357;   -0,537;    1,136
563,717;19368,138;    3,372;    1,136
564,298;20034,582;    3,645;   -0,045
564,880;19784,849;    0,645;   -1,409
565,462;19973,758;    0,645;    1,318
566,043;21130,539;   -0,446;    2,318
566,625;20669,807;    1,918;    1,227
567,207;20555,440;    1,099;    1,682
567,788;21724,009;   -1,264;    1,500
568,370;22551,007;    1,917;   -0,500
568,951;22388,102;    0,190;    0,227
569,533;23321,075;   -0,628;   -0,500
570,114;23779,342;   -0,446;    0,682
570,695;24308,803;   -0,174;   -1,318
571,277;24826,406;   -0,265;   -1,682
571,858;25618,208;    2,008;   -1,136
572,439;26545,023;    1,554;   -1,045
573,021;26712,401;    2,099;   -2,773
573,602;27215,884;   -1,265;    0,318
574,183;28181,915;   -2,083;    2,227
574,764;28328,687;   -1,629;    0,409
575,345;28928,194;    0,917;   -0,136
575,926;29490,801;   -0,356;    0,136
576,507;29439,788;    1,099;   -0,227
577,088;30569,211;    3,099;    1,682
577,669;30606,725;    0,735;    1,955
578,250;31490,460;    0,644;   -1,045
578,831;32176,229;   -1,356;   -2,227
579,412;32390,976;   -0,810;    0,955
579,993;33220,686;    1,008;    0,227
580,573;33566,086;   -0,629;   -0,955
581,154;32521,398;    0,735;   -0,591
581,735;33447,325;    0,644;    0,773
582,315;32959,779;   -0,629;    2,136
582,896;33168,687;   -0,174;    1,227
583,477;32530,075;    0,189;    1,227
584,057;32788,836;    0,553;    0,955
584,638;33155,595;    2,553;    2,318
585,218;33123,280;   -0,538;    2,682
585,799;33258,819;    0,281;   -0,227
586,379;33145,847;    0,372;    1,591
586,959;31783,161;    0,735;    0,318
587,540;31091,664;   -0,629;    2,227
588,120;30646,559;    1,007;   -0,045
588,700;29648,752;    2,553;    2,136
589,281;30053,568;    0,462;   -0,955
589,861;30032,538;    0,099;   -1,682
590,441;29800,214;    2,371;   -2,682
591,021;28695,863;   -0,265;   -2,591
591,601;28943,573;   -0,537;    0,500
592,181;28970,949;   -0,719;   -0,773
592,761;28246,150;    0,007;    1,409
593,341;28118,397;   -0,901;    0,045
593,921;28146,179;   -0,265;    1,591
594,501;28076,102;   -0,538;    1,318
595,081;27905,019;    0,917;   -0,318
595,661;28305,132;   -1,447;    0,955
596,240;28798,514;   -0,537;    0,136
596,820;28495,181;    0,372;    1,955
597,400;28595,513;    2,008;    0,773
597,980;28785,234;    2,008;    1,045
598,559;28827,135;    2,735;   -0,227
599,139;28498,073;   -0,174;   -1,227
599,718;28401,073;   -0,174;   -0,409
600,298;28694,348;    0,735;    0,682
600,877;28929,340;    2,917;    1,409
601,457;29165,371;    2,281;    1,136
602,036;29090,932;    0,190;    2,045
602,616;29337,411;    0,644;    1,682
603,195;29700,366;   -0,355;    3,500
603,774;29201,181;   -0,901;    2,045
604,354;29083,432;    0,826;   -0,500
604,933;28541,922;    0,463;    1,864
605,512;28646,687;    3,554;    0,591
606,091;28733,573;   -0,537;    3,773
606,671;29563,889;    0,281;    0,773
607,250;28664,262;    1,644;    3,136
607,829;28900,969;    2,372;    3,227
608,408;28740,622;    1,190;    2,591
608,987;27695,018;    1,281;    3,409
609,566;28035,682;   -1,265;   -2,500
610,145;28178,642;   -1,082;    0,682
610,723;28532,966;    4,372;    6,864
611,302;27780,429;   -0,446;    1,682
611,881;27290,195;    5,008;   11,227
612,460;28150,723;    1,645;    3,955
613,039;28553,749;   -0,082;    2,045
613,617;27315,203;    1,736;    4,773
614,196;27491,664;    1,099;    1,227
614,775;27823,071;    1,009;    2,409
615,353;27766,077;    0,736;    0,864
615,932;27484,969;    0,100;    2,409
616,510;28057,339;    0,554;    0,591
617,089;27596,315;    7,100;   17,591
617,667;27289,337;    2,372;    6,136
618,246;27199,220;   -1,537;    1,318
618,824;27306,299;   -3,355;   -0,955
619,402;26892,213;   -2,900;   -1,773
619,981;27320,968;   -0,173;   -1,045
620,559;27164,620;    0,009;    1,682
621,137;26703,162;   -0,718;    1,864
621,715;26768,759;   -1,173;   -0,682
622,293;26699,762;   -0,537;   -0,773
622,871;27086,804;   -0,718;    0,500
623,450;26670,056;    0,373;   -0,864
624,028;26603,647;    0,191;   -0,955
624,606;26247,262;   -1,718;    1,682
625,183;26620,526;   -1,536;   -1,136
625,761;26254,885;    1,009;    1,136
626,339;26550,891;    1,373;    2,591
626,917;26981,420;   -0,172;   -0,045
627,495;26962,648;   -0,354;    1,318
628,073;26339,971;   -0,263;    2,864
628,650;26008,601;    0,100;    2,136
629,228;26511,796;    0,373;    4,409
629,806;25896,974;    2,282;    1,136
630,383;26152,587;    1,464;   -0,318
630,961;25924,461;    2,555;   -0,955
631,539;25651,273;    2,464;    0,227
632,116;25068,097;   11,373;   15,409
632,694;25611,870;    2,555;    6,500
633,271;25944,565;    0,828;    2,682
633,848;25900,997;    1,828;    2,045
634,426;25834,394;   -1,081;    1,773
635,003;24934,188;    1,101;   -0,409
635,580;25321,896;    1,192;    3,682
636,158;25861,909;    3,737;    1,227
636,735;25812,961;    0,555;   -0,500
637,312;25965,989;   -0,809;   -0,682
637,889;26068,520;   -4,354;   -0,682
638,466;25575,686;   -3,990;   -0,409
639,043;25592,759;    2,101;   -1,136
639,620;25889,723;   -2,262;   -0,955
640,197;26191,159;    1,100;    1,682
640,774;26289,853;   -0,172;    1,136
641,351;26714,728;    0,737;    1,136
641,928;26133,695;   -0,627;    1,409
642,505;25837,570;    0,828;   -0,500
643,082;25957,537;   -1,718;    1,227
643,658;24898,503;   -0,718;    1,500
644,235;25668,015;    1,191;    2,500
644,812;26044,254;    1,918;    0,773
645,388;25740,675;   -0,991;    1,409
645,965;25837,550;   -0,809;    1,682
646,542;25908,608;   -1,445;   -0,227
647,118;25848,392;    1,009;   -0,955
647,695;26172,359;   -0,263;    1,136
648,271;26026,870;   -0,536;    0,500
648,848;26439,655;    0,736;    2,227
649,424;26258,167;    0,827;    1,318
650,000;26026,042;   -0,354;   -1,045
650,577;25784,009;   -0,627;   -0,955
651,153;26267,611;   -1,809;    0,955
651,729;27329,305;    1,191;    0,864
652,305;27973,453;    0,645;    2,773
652,881;33493,601;   -0,082;    1,136
653,458;40491,659;    1,100;    0,227
654,034;43803,534;    0,282;    1,591
654,610;45059,319;    0,554;    0,773
655,186;46288,285;    0,645;    3,045
655,762;45931,615;   -0,991;    0,409
656,338;45833,854;    0,100;    0,136
656,913;46773,366;   -0,082;    0,409
657,489;45978,332;    0,827;   -0,318
658,065;45995,572;   -0,173;   -1,591
658,641;46625,447;   -0,900;   -0,864
659,217;45908,868;   -0,991;    0,409
659,792;45235,107;    0,645;   -0,409
660,368;45446,346;   -2,173;   -0,682
660,944;44726,312;   -2,082;    1,227
661,519;39169,370;   -0,628;    0,409
662,095;33183,973;   -1,719;    0,591
662,670;29010,939;    1,281;   -0,136
663,246;28133,723;    1,009;   -0,409
663,821;27544,144;    0,281;    1,682
664,396;27066,838;    0,009;    1,864
664,972;27312,168;    0,009;   -0,500
665,547;27622,589;    1,372;    0,136
666,122;27640,555;   -1,082;    0,318
666,698;27955,794;   -0,173;    0,318
667,273;27318,215;   -0,173;    0,136
667,848;28144,454;    2,372;    1,500
668,423;27972,784;    2,190;    2,318
668,998;28481,569;    2,827;   -0,682
669,573;29029,081;   -3,264;   -1,500
670,148;28882,411;   -1,446;   -0,682
670,723;28667,286;   -1,810;    0,318
671,298;29087,071;    2,372;    1,045
671,873;29267,583;   -0,082;   -0,136
672,448;29178,640;    0,645;    0,136
673,023;29504,788;   -1,992;   -0,227
673,597;29829,209;    0,827;    2,318
674,172;29634,903;   -0,355;    0,318
674,747;29079,415;    0,372;   -1,045
675,321;28917,290;   -0,628;    3,318
675,896;28497,256;    0,645;    1,045
676,471;29490,859;    2,645;    1,591
677,045;29251,280;   -1,264;    0,682
677,620;29343,519;    0,190;    1,136
678,194;29624,486;   -2,628;    1,136
678,769;29168,725;   -1,083;   -0,318
679,343;29514,509;   -0,628;    1,773
679,917;29382,021;   -1,446;    1,955
680,492;29418,806;    0,826;    3,227
681,066;29576,772;    3,372;    0,409
681,640;29590,193;    1,463;   -0,318
682,214;30405,978;    0,735;    0,500
682,788;29946,671;   -1,356;   -0,773
683,363;29879,365;   -1,810;    1,682
683,937;29593,331;   -1,719;   -0,318
684,511;30340,934;    0,463;   -0,591
685,085;30072,537;   -1,356;    0,318
685,659;29769,503;   -2,538;    0,864
686,232;30042,015;   -0,356;   -0,318
686,806;29752,436;   -0,901;    0,409
687,380;30436,493;   -0,174;    0,591
687,954;30616,550;   -1,174;    1,136
688,528;30347,335;   -0,719;    1,955
689,101;31088,029;   -3,992;    1,045
689,675;30720,086;   -0,356;   -0,136
690,249;30080,598;   -0,719;    0,409
690,822;30369,837;    0,280;    0,318
691,396;30492,076;   -0,265;    1,227
691,969;29901,951;    1,280;    0,136
692,543;30384,009;   -0,447;   -1,955
693,116;29998,066;   -0,265;   -1,409
693,690;29901,123;    0,099;    0,500
694,263;30504,090;   -1,083;    2,955
694,836;30497,147;    1,371;    3,591
695,410;29184,204;   -0,265;    1,773
695,983;29612,898;    0,189;    0,591
696,556;29569,501;   -0,447;   -1,045
697,129;29926,740;   -0,356;    1,409
697,703;29599,433;   -1,629;    1,955
698,276;29596,672;    1,462;   -0,773
698,849;29409,912;    1,280;    1,409
699,422;29781,423;   -1,083;    0,591
699,995;29461,117;    0,007;    0,136
700,568;29959,993;   -0,629;    3,045
701,140;29979,050;   -2,811;    1,682
701,713;29686,834;   -0,174;    2,409
702,286;29450,710;   -0,538;    0,864
702,859;29316,676;   -0,902;   -0,591
703,432;28485,006;    0,825;    0,682
704,004;29002,154;    0,462;    0,318
704,577;28877,484;   -0,629;    0,136
705,150;29497,178;    0,189;    2,500
705,722;29247,144;   -0,356;   -3,227
706,295;28981,020;   -0,175;   -0,591
706,867;28909,532;   -0,175;    1,955
707,440;29105,953;   -1,720;   -0,409
708,012;29340,010;    0,462;    0,591
708,584;29282,522;    2,462;    0,227
709,157;29535,852;    1,825;   -0,591
709,729;29199,545;    2,280;    2,045
710,301;30023,239;    0,734;    0,045
710,874;30046,751;   -1,447;   -0,227
711,446;28858,899;    0,371;    0,864
712,018;28731,775;    0,098;    0,500
712,590;28522,832;   -1,993;    1,682
713,162;29001,616;    0,825;    1,318
713,734;29278,765;    1,825;   -2,045
714,306;29181,095;   -1,902;   -0,409
714,878;27904,425;    0,825;    0,864
715,450;28735,391;    0,643;    0,864
716,022;28979,448;    1,552;    1,318
716,593;29138,960;    0,189;    0,591
717,165;29052,745;   -3,175;   -1,227
717,737;28718,166;    0,280;    0,409
718,309;28401,041;    0,280;   -0,045
718,880;28316,644;   -0,539;   -1,409
719,452;28501,338;   -0,175;   -1,591
720,024;28146,304;    0,734;   -0,591
720,595;28700,361;   -2,902;    0,955
721,167;28285,328;    0,370;   -2,045
721,738;27801,658;   -0,812;   -1,045
722,309;27813,442;   -0,993;   -1,227
722,881;27549,045;   -1,357;    0,773
723,452;28184,466;   -2,630;    2,864
724,023;28334,705;   -0,721;    2,682
724,595;28135,853;    0,007;    0,682
725,166;27869,092;    0,007;   -0,409
725,737;27602,513;    1,734;    0,227
726,308;27607,843;   -0,266;    0,318
726,879;28088,900;   -1,630;    1,227
727,450;27934,230;    0,552;   -0,045
728,021;27873,379;    3,097;    0,682
728,592;27700,709;    0,734;    0,500
729,163;28055,948;    0,643;   -0,136
729,734;28122,641;    0,188;   -0,227
730,305;28420,881;    1,734;    0,136
730,876;28798,483;    0,188;    2,955
731,447;28541,631;    2,188;    2,682
732,017;28629,598;    1,097;    1,864
732,588;28050,837;    0,734;    1,227
733,159;28268,076;    0,643;   -1,045
733,729;28043,315;    0,006;    0,409
734,300;27300,827;    0,915;    0,864
734,870;27730,793;    3,461;    0,591
735,441;28314,396;    0,370;   -0,591
736,011;28053,181;    0,643;   -1,591
736,582;27984,602;   -0,812;    0,045
737,152;27468,022;   -1,721;   -2,045
737,722;27915,989;   -0,267;   -0,682
738,293;27635,046;   -1,358;    1,318
738,863;27505,285;    2,461;    2,318
739,433;27360,433;    5,279;    0,318
740,003;27971,763;   -0,994;   -0,682
740,573;27357,730;    2,097;   -1,591
741,143;27316,787;   -1,085;    0,318
741,713;28126,754;    1,188;   -0,500
742,283;27836,720;    0,915;    1,591
742,853;27597,141;    1,915;    1,591
743,423;26971,562;    1,733;    0,045
743,993;27168,892;   -0,358;    1,500
744,563;26534,131;    0,097;   -0,864
745,133;26503,915;   -0,812;   -0,864
745,702;27123,882;   -0,267;    1,773
746,272;26354,666;   -0,176;    0,591
746,842;26161,269;   -1,358;   -0,591
747,411;26569,508;   -0,267;   -0,318
747,981;26741,475;    0,097;    0,500
748,551;26828,350;    2,278;   -1,045
749,120;26694,498;    0,642;   -0,227
749,690;27023,374;   -0,631;    2,409
750,259;27380,704;    1,369;    2,955
750,828;27334,216;    1,551;   -1,955
751,398;27529,455;    1,278;   -0,045
751,967;27084,148;    2,187;    0,409
752,536;27301,751;   -0,813;   -0,227
753,105;27716,354;    0,096;    0,227
753,675;27512,957;    0,096;    1,773
754,244;27411,559;   -0,904;    3,591
754,813;27419,253;    0,551;    1,227
755,382;27035,856;    0,460;    0,955
755,951;27630,095;    1,551;    3,682
756,520;27129,334;   -0,085;    1,864
757,089;27721,028;    0,278;    0,500
757,658;27891,085;    1,733;    1,227
758,227;27867,324;    1,096;    0,318
758,795;28148,108;    1,187;    1,136
759,364;28357,620;   -0,086;   -0,591
759,933;27351,041;   -1,176;   -0,045
760,501;26810,099;    0,733;   -1,318
761,070;27361,429;   -2,813;   -1,409
761,639;28087,668;   -1,904;    1,318
762,207;27458,907;    1,551;   -0,955
762,776;27344,237;    0,369;    0,864
763,344;27311,203;   -0,995;    0,591
763,913;26368,169;   -0,722;    1,409
764,481;27162,590;    1,005;   -0,136
765,049;26887,648;   -1,358;    1,409
765,618;26768,796;   -0,086;    0,318
766,186;26816,671;    0,278;    0,136
766,754;27055,910;    0,005;    1,864
767,322;26114,059;   -1,995;    0,409
767,890;26064,389;   -0,722;   -1,773
768,459;26470,446;   -2,177;   -0,318
769,027;26703,958;    1,641;    3,409
769,595;25640,651;    3,278;    2,591
770,163;26050,891;    3,823;    2,955
770,730;25786,857;    0,732;   -0,136
771,298;25603,278;    0,187;   -1,409
771,866;25665,608;   -1,541;    4,955
772,434;26040,847;   -0,631;   -1,864
773,002;26229,086;    0,005;    0,682
773,569;25860,871;    0,914;    1,682
774,137;25755,564;   -0,268;   -0,045
774,705;26484,349;    0,278;   -0,136
775,272;25929,042;    0,641;    0,682
775,840;25662,827;   -0,177;    2,682
776,407;25274,066;    0,277;    1,955
776,975;24856,305;   -0,632;    0,318
777,542;25878,272;   -1,086;   -0,045
778,110;25667,238;   -1,268;   -0,045
778,677;25355,204;   -2,359;   -0,864
779,244;25096,262;    2,186;    1,045
779,812;25260,774;    1,823;    0,864
780,379;25109,740;    0,005;    1,136
780,946;25352,343;    1,005;   -0,773
781,513;25676,400;   -1,450;    0,318
782,080;25045,730;   -0,086;    2,864
782,647;25817,060;   -0,268;    3,045
783,214;25362,935;   -0,177;    3,864
783,781;25001,356;   -0,723;   -0,682
784,348;24887,141;   -0,632;    1,500
784,915;25296,471;   -3,177;    0,318
785,482;25093,892;    1,368;    2,591
786,049;25523,949;    0,186;   -0,591
786,615;25593,552;    0,277;   -0,955
787,182;25296,609;    0,186;   -0,682
787,749;25055,576;   -2,814;    1,409
788,315;24373,269;   -1,632;   -0,409
788,882;24669,326;    1,550;   -1,227
789,448;25407,475;    1,732;   -0,955
790,015;25363,168;    1,095;    3,227
790,581;24962,226;    1,459;    0,227
791,148;24915,828;    0,641;    1,045
791,714;25050,431;   -0,541;    3,136
792,280;24709,307;    0,186;    1,591
792,847;24303,364;    0,550;    2,500
793,413;24877,057;   -0,269;   -0,318
793,979;24382,751;    3,459;   -1,318
794,545;24507,445;    4,459;    2,682
795,111;23914,502;    2,186;    1,318
795,678;24092,105;    0,731;   -1,682
796,244;23708,344;    3,368;    0,136
796,810;24242,219;    1,731;    0,773
797,375;23937,640;    0,549;   -2,136
797,941;24010,243;   -0,541;    0,591
798,507;24164,300;   -0,451;   -0,955
799,073;23662,539;   -0,360;    0,591
799,639;23709,688;   -2,632;    3,136
800,205;23748,290;    0,095;    2,682
800,770;23283,257;    0,640;    1,773
801,336;23395,132;    1,368;   -0,955
801,901;23148,553;    4,549;    3,136
802,467;23665,974;   -0,542;    2,045
803,033;22968,304;   -0,087;    0,864
803,598;23209,270;    1,913;   -1,045
804,163;23220,510;    1,095;   -0,318
804,729;23166,476;   -0,178;    1,136
805,294;23571,897;    0,822;    2,227
805,859;23331,227;    0,731;   -0,409
806,425;22894,739;    1,186;    2,682
806,990;22533,160;    2,186;    4,318
807,555;23025,217;   -1,451;    2,591
808,120;22913,911;    0,822;   -0,409
808,685;22973,241;    0,185;   -2,500
809,250;22425,934;    0,004;   -0,500
809,815;22740,719;    1,913;    0,682
810,380;23298,231;   -0,269;    1,591
810,945;23867,470;   -1,087;    2,045
811,510;22972,345;    2,094;    1,591
812,075;22666,857;   -0,633;   -1,409
812,640;22750,096;    2,003;    1,409
813,204;22800,881;    0,822;   -0,227
813,769;23265,665;    2,094;   -0,045
814,334;22680,450;    0,458;    0,864
814,898;22728,507;    0,367;    0,591
815,463;22592,928;    1,276;   -0,773
816,027;22583,894;   -0,724;   -2,318
816,592;22613,861;    0,640;   -2,045
817,156;22168,554;    2,094;    1,136
817,721;22101,521;    4,276;    2,318
818,285;22010,669;    2,912;    1,500
818,849;22645,454;   -1,451;    1,682
819,414;22544,602;   -0,269;    2,955
819,978;22104,023;   -1,269;    1,773
820,542;22676,716;    2,003;    0,500
821,106;22344,955;   -0,815;    0,682
821,670;22527,013;   -0,815;    2,591
822,234;22240,070;   -0,270;    1,409
822,798;21563,491;    0,003;    0,500
823,362;21581,094;   -0,633;    4,227
823,926;20891,151;    0,094;    1,136
824,490;21124,935;   -0,997;   -0,682
825,054;21519,265;   -0,088;   -1,136
825,618;21177,959;   -1,542;   -1,500
826,181;21122,926;    0,458;   -1,318
826,745;21072,346;    1,367;   -1,045
827,309;21405,222;    1,185;    1,318
827,872;20736,643;    1,367;    0,955
828,436;21714,700;    1,185;   -0,773
828,999;21769,939;   -0,997;    1,227
829,563;20545,724;   -0,179;    1,136
830,126;20381,690;   -0,179;   -0,591
830,690;20434,657;   -1,997;    2,864
831,253;19946,077;   -0,543;    2,227
831,816;20088,862;   -1,906;    0,500
832,380;20004,919;    0,185;    0,864
832,943;20249,795;   -1,361;   -0,500
833,506;19696,761;    2,639;   -1,227
834,069;20451,000;    3,912;   -0,955
834,632;20537,967;    1,730;    1,318
835,195;20456,478;    1,003;    0,955
835,758;19640,899;   -0,997;    1,955
836,321;19501,138;    0,730;   -1,045
836,884;19565,559;   -0,725;   -0,955
837,447;19587,799;   -2,816;    1,773
838,010;19878,129;    0,366;    3,227
838,573;20195,277;   -1,179;    0,773
839,135;20139,152;   -1,361;   -0,955
839,698;19616,209;    1,275;    0,409
840,261;19108,358;    1,003;   -0,227
840,823;18918,688;   -0,543;    0,864
841,386;19222,381;   -0,452;   -2,409
841,948;19134,802;   -1,361;    1,773
842,511;18843,678;    0,912;    1,682
843,073;18990,371;    1,912;    0,227
843,636;18801,792;   -0,361;   -0,227
844,198;18753,577;    0,911;    0,591
844,760;18850,543;    1,093;    1,955
845,322;18507,873;    0,548;    1,136
845,885;18975,840;    0,730;    0,591
846,447;19388,715;   -1,998;    0,227
847,009;19006,227;    1,911;   -0,682
847,571;19276,193;    0,820;   -2,045
848,133;19392,432;   -1,089;   -1,864
848,695;19193,399;   -0,543;    1,409
849,257;18730,002;   -1,089;   -1,682
849,819;18954,513;   -0,998;   -0,409
850,381;18991,843;   -0,725;   -0,864
850,942;19344,446;    1,093;   -0,591
851,504;19371,958;    1,184;    0,227
852,066;19355,288;    1,275;   -1,591
852,628;18886,345;   -0,180;    1,955
853,189;18445,857;    1,638;    2,682
853,751;18537,460;   -0,907;    1,409
854,312;18327,972;   -0,453;   -1,682
854,874;18832,120;   -2,089;   -0,773
855,435;19376,723;   -0,907;   -1,682
855,997;19567,144;   -1,816;   -0,136
856,558;18838,746;    0,366;    1,773
857,119;18956,985;    0,820;    2,864
857,681;18595,588;    0,002;    0,318
858,242;18645,554;    1,911;   -2,136
858,803;19043,248;    0,456;   -0,773
859,364;19634,124;    0,184;   -4,773
859,925;18981,908;   -2,453;   -0,955
860,486;18850,965;   -0,453;   -0,955
861,047;18538,114;   -0,544;   -1,227
861,608;18368,807;   -1,089;   -0,773
862,169;18471,501;    0,638;   -0,045
862,730;18268,740;    0,456;    1,409
863,291;18590,797;   -0,635;   -0,500
863,852;18959,673;   -0,635;    1,955
864,412;18390,366;   -0,271;   -0,864
864,973;16953,787;   -0,089;    0,500
865,534;16869,845;   -1,726;    0,227
866,094;18334,084;    1,820;    0,227
866,655;18018,505;    1,274;    3,318
867,215;18294,926;    0,274;    0,136
867,776;18129,801;    0,547;   -0,136
868,336;18184,131;   -1,453;    0,136
868,897;17709,825;    2,638;    1,682
869,457;17432,064;    1,365;    0,318
870,017;17656,121;    0,547;   -1,227
870,578;18165,088;   -0,817;    0,773
871,138;17816,599;   -2,089;   -0,955
871,698;17365,111;   -0,817;   -1,318
872,258;17272,168;   -0,453;   -2,864
872,818;17654,135;    2,729;    0,045
873,378;17601,647;    0,638;    1,045
873,938;17135,249;    0,547;    0,500
874,498;17427,852;    0,274;   -1,955
875,058;17381,637;    2,183;    1,773
875,618;17237,058;    1,910;   -2,682
876,177;17145,842;    1,274;    0,136
876,737;16791,990;   -0,090;    1,955
877,297;16858,048;    0,183;    1,955
877,856;16798,832;   -0,362;    0,318
878,416;16779,890;    1,183;   -0,136
878,976;16971,947;   -1,817;    0,409
879,535;17092,277;    0,092;    3,136
880,095;16871,334;   -0,544;    0,045
880,654;17001,300;   -1,090;    1,318
881,213;17135,358;    2,456;    1,500
881,773;16728,233;    2,637;    2,682
882,332;17123,381;    3,365;    5,136
882,891;16976,166;    3,092;    2,136
883,451;17398,496;   -1,272;    1,682
884,010;16850,917;   -2,908;   -0,409
884,569;16908,974;   -0,999;   -0,045
885,128;17079,850;    2,819;   -1,864
885,687;17189,089;    4,455;    0,682
886,246;16882,237;    1,455;    2,136
886,805;16662,476;    2,455;    2,045
887,364;16911,624;   -0,999;   -0,500
887,922;17272,682;   -1,181;    0,045
888,481;16817,830;   -1,545;    0,591
889,040;17144,614;    1,183;    2,136
889,599;17783,217;    2,455;    1,409
890,157;17832,456;    1,455;    2,409
890,716;17504,786;   -0,090;    0,227
891,274;17312,207;    0,092;   -1,136
891,833;17727,719;    1,546;    0,864
892,391;17646,231;   -0,454;    0,500
892,950;17713,015;    1,819;   -0,773
893,508;18055,982;    0,455;   -0,409
894,067;17401,675;    0,637;    0,136
894,625;17287,460;   -0,636;   -1,500
895,183;17496,517;   -0,363;   -0,682
895,741;17426,756;    1,728;   -1,773
896,299;17256,268;   -0,545;   -2,409
896,858;17443,507;    0,819;   -1,591
897,416;17582,837;    2,728;   -1,318
897,974;17315,985;    1,819;    0,318
898,532;17522,315;    6,091;    2,682
899,089;17384,009;    2,091;   -0,682
899,647;17381,339;   -1,454;    1,318
900,205;17113,033;    1,182;    1,045
900,763;17294,363;   -0,454;    0,227
901,321;17281,238;    2,364;   -1,409
901,878;16706,659;   -1,000;   -0,773
902,436;16609,353;   -1,363;    1,318
902,994;17035,501;    4,728;    3,682
903,551;16442,649;    0,728;    0,409
904,109;16800,707;    0,182;   -1,409
904,666;16382,491;    2,455;    1,045
905,224;16245,912;    0,182;   -0,409
905,781;15982,151;    0,727;   -0,318
906,338;16067,117;   -1,363;    1,045
906,895;16010,175;    0,637;    2,045
907,453;15939,505;    1,727;    1,136
908,010;15947,380;   -0,909;    0,409
908,567;15601,801;    1,273;    0,591
909,124;15077,858;    0,364;   -1,500
909,681;15158,825;   -2,909;    0,682
910,238;15286,882;    0,636;   -1,318
910,795;15609,212;   -0,273;   -1,136
911,352;15222,667;   -2,909;   -2,682
911,909;14632,848;   -1,364;   -0,864
912,466;15181,939;   -3,182;    1,500
913,022;14688,758;   -1,636;    0,500
913,579;15072,212;   -0,909;    2,045
914,136;14795,667;    1,636;    0,955
914,692;15147,848;    0,091;   -1,227
915,249;14714,758;    1,455;    0,409
915,806;14957,121;    0,182;    1,955
916,362;14722,758;    1,909;    1,864
916,918;14280,030;    2,000;    1,045
917,475;14240,394;   -1,182;    0,955
918,031;14302,667;    3,364;   -0,045
918,587;13703,485;   -0,909;   -0,318
919,144;13924,212;   -2,273;    0,227
919,700;14226,939;    1,727;    0,773
920,256;13801,394;    0,727;    0,045
920,812;13433,485;   -0,727;   -1,045
921,368;13439,030;   -1,727;   -1,045
921,924;13053,758;    0,182;   -0,136
922,480;12646,667;   -0,545;    1,227
923,036;13278,667;    1,273;    1,955
923,592;13210,394;    0,455;    0,318
924,148;13146,758;    0,455;   -0,955
924,704;12427,939;   -1,364;   -0,409
925,259;12694,848;   -0,273;    0,591
925,815;12452,030;    1,455;    0,500
926,371;11933,212;    2,909;    1,409
926,926;11857,030;    2,091;    0,591
927,482;11511,394;   -1,364;    0,773
928,037;11369,485;    0,909;    2,045
928,593;11672,758;    1,636;    1,045
929,148;11471,485;   -1,818;   -1,500
929,704;10984,758;   -1,455;   -0,500
930,259;11192,394;    0,091;   -0,136
930,814;10264,303;   -0,818;    1,955
931,369; 9919,758;    1,091;   -0,773
931,925; 9816,030;   -0,091;    0,136
932,480; 9709,848;   -2,818;   -2,591
933,035; 9621,939;    0,545;   -0,318
933,590; 9356,121;    0,364;   -1,773
934,145; 9004,485;   -1,364;   -0,318
934,700; 9302,394;    0,455;   -0,591
935,255; 9138,212;   -0,091;    0,045
935,809; 8449,303;    3,182;    0,864
936,364; 7540,576;   -0,455;   -0,136
936,919; 7503,939;    0,455;   -1,773
937,474; 7371,303;    1,455;    0,136
938,028; 7123,667;   -1,636;    1,136
938,583; 6618,576;    1,818;    4,682
939,138; 6881,212;    2,091;    2,136
939,692; 6300,030;    1,636;   -1,136
940,247; 6013,030;   -0,727;   -1,045
940,801; 5590,576;   -0,636;    0,227
941,355; 5477,121;   -0,364;    2,591
941,910; 5116,212;   -0,273;   -2,136
942,464; 5227,212;   -0,818;   -0,318
943,018; 5035,848;    1,000;   -0,227
943,572; 4978,939;    2,545;   -0,682
944,126; 4396,667;    0,091;   -0,409
944,681; 4284,848;    3,091;    0,227
945,235; 4261,758;    1,000;   -0,591
945,789; 4195,758;    0,364;   -1,864
946,342; 4318,758;    0,455;   -0,591
946,896; 4118,485;   -2,273;    0,955
947,450; 3863,485;    1,545;   -0,227
948,004; 4062,848;    1,727;   -0,045
948,558; 4057,758;    0,273;   -0,864
949,111; 3982,394;   -0,273;   -0,318
949,665; 4023,303;    1,636;   -0,682
950,219; 3903,394;   -0,091;   -1,045
950,772; 3979,576;   -1,909;    1,864
951,326; 3870,030;    0,545;   -0,955
951,879; 3991,485;    0,727;   -2,318
952,433; 4018,576;    0,000;    2,227
952,986; 3836,030;    2,909;    0,682
953,539; 3775,303;   -0,273;    0,591
954,093; 3718,576;    0,545;   -1,318
954,646; 3872,030;    0,909;    1,318
955,199; 3683,303;    0,000;   -0,500
955,752; 3570,848;   -0,455;    1,773
956,305; 3522,939;   -0,091;    2,955
956,858; 3715,576;    0,818;   -0,318
957,411; 3875,485;   -0,545;    2,136
957,964; 3688,758;    1,364;    2,136
958,517; 3671,303;   -1,545;    3,136
959,070; 3492,121;   -0,455;    1,955
959,623; 3577,303;    1,091;    1,500
960,176; 3328,030;    1,727;    2,045
960,728; 3324,667;   -2,727;    0,773
961,281; 3381,848;    0,545;    0,500
961,834; 3428,030;   -0,909;    0,864
962,386; 3337,212;    1,727;    1,045
962,939; 3256,939;    0,364;   -0,318
963,491; 3405,485;    0,455;    1,136
964,043; 3282,394;    1,182;    2,409
964,596; 3411,939;   -1,000;    2,227
965,148; 3236,939;   -1,000;    1,773
965,700; 3151,212;    1,091;   -0,227
966,253; 3316,576;   -0,636;    0,318
966,805; 3155,303;   -2,273;    0,773
967,357; 3204,667;    1,091;   -1,500
967,909; 3176,939;    0,455;   -1,227
968,461; 3262,758;    0,545;    3,136
969,013; 3206,758;   -0,182;   -0,864
969,565; 3294,303;   -0,455;   -1,136
970,117; 3360,394;   -0,364;    1,045
970,669; 3164,758;    0,182;   -0,136
971,220; 3032,394;   -0,455;   -1,500
971,772; 2948,576;   -0,636;   -0,318
972,324; 3087,667;    0,091;   -0,500
972,876; 3018,667;    0,818;   -0,045
973,427; 3182,848;    1,909;   -1,045
973,979; 3141,576;   -0,727;   -2,500
974,530; 3165,030;    1,818;    1,318
975,082; 3166,212;   -0,545;    1,682
975,633; 3069,212;    1,091;    1,682
976,184; 3203,758;    0,909;    0,773
976,736; 2994,303;    0,091;    0,227
977,287; 2812,030;   -0,909;   -0,500
977,838; 2980,939;    0,909;   -0,318
978,389; 3056,848;   -1,000;   -0,500
978,940; 2921,848;    0,545;   -0,409
979,491; 2934,212;    0,091;   -0,500
980,042; 2914,394;    0,182;    3,045
980,593; 2979,667;   -2,545;    0,227
981,144; 3023,212;    2,545;   -0,500
981,695; 2989,848;    1,455;    1,500
982,246; 2953,303;   -0,273;    1,045
982,797; 3086,758;   -1,727;    0,682
983,347; 3200,848;    0,364;    0,591
983,898; 3392,758;    3,091;    0,409
984,449; 3199,939;    2,182;    0,773
984,999; 3106,758;    1,455;   -1,136
985,550; 2872,212;    0,182;   -0,318
986,100; 2886,848;   -0,455;   -0,318
986,651; 2905,212;   -0,818;    0,045
987,201; 2895,939;   -1,000;   -0,591
987,751; 2988,212;    0,818;    2,864
988,302; 2980,121;    2,636;    1,500
988,852; 2998,121;    0,455;   -1,136
989,402; 3038,576;    0,091;    0,682
989,952; 2967,576;   -2,182;    0,864
990,502; 3055,030;   -0,091;    0,682
991,052; 3014,212;   -0,727;    0,045
991,602; 2901,758;   -2,909;    1,318
992,152; 2896,939;    0,455;    0,682
992,702; 2879,394;    1,364;   -0,045
993,252; 2797,394;   -3,000;   -0,500
993,802; 2897,939;   -0,273;    1,318
994,352; 3121,394;   -1,545;    1,136
994,901; 3198,848;   -0,182;    3,227
995,451; 3120,212;   -0,182;    0,318
996,000; 3212,939;    1,636;    0,318
996,550; 2917,303;    2,273;    0,227
997,100; 2924,121;    1,273;   -0,045
997,649; 3217,121;    2,182;    0,955
998,198; 2836,758;    1,727;   -1,500
998,748; 3033,394;    1,091;   -2,318
999,297; 2935,394;   -0,818;   -0,409
999,846; 2995,303;    1,000;   -0,773
1000,395; 3063,030;   -0,818;    0,500
1000,945; 3014,576;    1,818;   -0,773
1001,494; 3096,758;    2,364;    0,682
1002,043; 3094,394;    4,636;    0,864
1002,592; 2932,303;   -1,091;    1,955
1003,141; 3073,394;   -0,455;   -0,682
1003,690; 2931,030;    1,727;    0,500
1004,238; 3012,394;    1,455;   -0,045
1004,787; 2648,667;    1,364;    1,227
1005,336; 2884,939;    0,364;    0,682
1005,885; 3021,121;    1,364;   -2,773
1006,433; 3155,212;    0,545;    0,955
1006,982; 3235,212;    0,455;    1,682
1007,531; 3116,667;   -1,818;   -0,227
1008,079; 3069,303;   -2,273;    0,500
1008,627; 3216,303;   -1,455;    0,409
1009,176; 2944,667;    0,000;   -1,955
1009,724; 2987,667;    1,091;    0,864
1010,273; 3052,303;    1,273;    0,500
1010,821; 3158,303;    0,091;    1,409
1011,369; 2889,848;   -1,364;    1,318
1011,917; 2877,212;   -1,364;   -0,591
1012,465; 3165,303;    1,273;   -1,591
1013,013; 3274,576;    2,091;   -1,682
1013,561; 3146,848;    0,455;   -0,773
1014,109; 3199,939;   -1,909;    1,682
1014,657; 3083,212;    0,364;    0,591
1015,205; 3194,121;    1,636;   -0,955
1015,753; 3232,394;   -0,545;   -1,409
1016,301; 3264,848;   -2,636;    3,045
1016,848; 3269,485;   -1,273;    0,409
1017,396; 3337,030;    2,545;    0,045
1017,944; 3445,303;    1,182;    1,864
1018,491; 3186,121;    0,273;    1,409
1019,039; 3342,758;    0,455;    0,591
1019,586; 3253,667;   -1,364;    1,682
1020,134; 3348,212;    0,455;    1,500
1020,681; 3387,394;    0,182;   -1,136
1021,228; 3377,394;    2,909;   -2,227
1021,776; 3207,576;    1,182;   -1,136
1022,323; 3423,758;    0,455;    0,773
1022,870; 3337,939;   -1,000;   -0,045
1023,417; 3247,121;    2,636;    1,864
1023,964; 3394,394;    2,636;    1,227
1024,511; 3243,394;    1,000;    0,773
1025,058; 3027,576;    3,182;   -0,045
1025,605; 3082,848;   -2,273;    3,136
1026,152; 3331,212;    1,727;   -0,591
1026,699; 3043,485;    1,818;    1,318
1027,245; 3192,667;   -0,091;    0,318
1027,792; 3403,212;   -1,000;    1,409
1028,339; 3307,667;    2,364;   -0,045
1028,885; 3145,848;    1,000;   -0,227
1029,432; 3079,030;   -0,091;    0,227
1029,978; 3153,394;   -1,000;   -1,591
1030,525; 3049,485;    1,000;    0,409
1031,071; 3291,939;   -1,364;    1,136
1031,618; 3394,121;    0,364;    1,682
1032,164; 3173,576;   -0,091;    3,045
1032,710; 3223,485;    1,636;   -1,500
1033,256; 3132,394;   -0,636;   -0,136
1033,803; 3122,394;   -0,545;    1,500
1034,349; 2833,394;   -1,364;    0,136
1034,895; 2988,212;    0,000;   -0,318
1035,441; 2967,576;   -0,818;    0,318
1035,987; 2968,030;   -2,364;   -0,682
1036,533; 2966,848;   -1,455;   -0,955
1037,078; 3177,121;    1,455;    1,682
1037,624; 3001,030;    2,455;   -0,955
1038,170; 3018,485;    0,455;   -0,318
1038,716; 2937,939;    1,636;   -0,409
1039,261; 2842,939;   -2,273;   -0,773
1039,807; 2778,939;   -0,091;    3,409
1040,352; 2839,394;   -1,909;   -0,318
1040,898; 2896,303;   -1,545;   -0,682
1041,443; 2792,848;   -1,455;   -2,591
1041,989; 2822,121;    1,091;    1,591
1042,534; 2693,667;   -0,364;    2,591
1043,079; 2795,394;    2,909;    0,955
1043,625; 2603,576;    1,818;    0,500
1044,170; 2636,030;   -1,364;    1,045
1044,715; 2910,394;    2,455;    0,955
1045,260; 2723,030;    2,182;   -0,955
1045,805; 2765,303;    1,182;   -0,591
1046,350; 2698,758;    1,364;   -0,409
1046,895; 2661,939;    2,909;    1,591
1047,440; 2616,121;    5,364;    0,409
1047,985; 2509,030;    2,818;   -0,955
1048,530; 2410,939;    1,545;    1,227
1049,074; 2491,576;    0,000;    0,318
1049,619; 2469,394;   -1,364;    1,955
1050,164; 2270,667;    0,455;    0,227
1050,708; 2309,939;   -0,455;    0,045
1051,253; 2687,485;    1,273;   -2,227
1051,797; 2392,212;    0,818;   -1,318
1052,342; 2361,576;   -1,182;    1,045
1052,886; 2375,485;    0,364;   -1,409
1053,430; 2254,212;   -1,364;    0,136
1053,975; 2275,030;   -0,818;   -0,318
1054,519; 2267,939;   -0,727;    3,227
1055,063; 2296,667;    0,909;    1,318
1055,607; 2163,394;   -0,182;    0,227
1056,151; 2190,758;    2,909;    1,682
1056,695; 2120,758;    2,273;   -1,136
1057,239; 2180,667;   -1,727;   -0,682
1057,783; 2191,485;    0,818;   -1,500
1058,327; 2132,848;    0,000;    1,409
1058,871; 2367,939;   -0,545;    1,318
1059,415; 2074,121;   -0,818;   -0,045
1059,958; 2345,303;    1,455;    2,591
1060,502; 2065,303;   -1,000;   -0,773
1061,046; 1951,576;    0,364;   -0,955
1061,589; 1915,303;   -3,000;   -1,136
1062,133; 1812,939;   -1,273;    1,864
1062,676; 1761,394;    1,182;    0,864
1063,220; 1767,848;    1,091;    0,500
1063,763; 1787,485;    0,909;    1,136
1064,306; 1878,576;   -0,909;    1,864
1064,849; 1762,212;   -0,909;    0,591
1065,393; 1771,667;    2,000;   -1,500
1065,936; 1873,121;    0,182;   -0,409
1066,479; 1751,758;   -1,455;    1,318
1067,022; 1780,030;   -0,273;   -0,227
1067,565; 1680,758;   -0,091;   -1,318
1068,108; 1703,758;    0,727;   -0,591
1068,651; 1666,394;   -0,636;    1,409
1069,194; 1603,303;   -0,455;   -1,682
1069,736; 1623,667;   -1,273;    0,955
1070,279; 1577,394;   -1,364;   -0,500
1070,822; 1634,030;   -2,000;   -0,318
1071,364; 1749,576;   -0,364;    1,318
1071,907; 1548,303;   -0,727;    3,227
1072,450; 1445,939;    0,000;   -0,045
1072,992; 1443,576;   -0,273;    3,136
1073,535; 1591,667;    2,091;    2,136
1074,077; 1376,667;   -0,727;    2,045
1074,619; 1346,848;   -1,364;    0,591
1075,161; 1394,030;   -1,091;    1,500
1075,704; 1584,576;    1,545;    1,227
1076,246; 1364,303;   -0,182;    0,682
1076,788; 1282,485;   -0,364;    1,773
1077,330; 1341,485;    1,273;    2,136
1077,872; 1324,030;    0,909;    0,955
1078,414; 1567,758;    2,727;    0,773
1078,956; 1294,394;    1,273;   -0,227
1079,498; 1571,485;    1,636;    0,318
1080,040; 1270,758;    1,909;   -1,318
1080,581; 1195,212;    1,636;   -0,318
1081,123; 1113,939;    0,091;   -0,773
1081,665; 1156,303;   -1,182;   -0,955
1082,206; 1487,303;    1,364;   -0,500
1082,748; 1340,030;    0,727;    2,045
1083,289; 1190,394;   -2,000;    1,318
1083,831; 1102,939;   -0,545;    0,227
1084,372; 1146,758;    0,000;    0,591
1084,913; 1157,212;    1,091;    0,864
1085,455; 1115,667;   -1,909;   -2,045
1085,996; 1100,121;   -2,273;    0,136
1086,537; 1111,303;   -0,091;    0,864
1087,078; 1141,667;   -0,909;   -2,136
1087,619; 1195,848;   -1,273;    0,227
1088,160; 1106,667;    0,000;    1,318
1088,701; 1086,212;   -1,091;    0,682
1089,242; 1024,212;    1,364;   -2,227
1089,783; 1135,939;   -0,273;    1,409
1090,324; 1102,485;    0,455;    0,682
1090,865;  973,576;    2,727;   -0,409
1091,405;  943,576;    0,727;    2,227
1091,946;  972,212;    0,182;   -0,955
1092,487;  891,121;    0,818;   -1,409
1093,027; 1070,303;   -1,364;   -1,500
1093,568;  916,848;   -0,364;    1,227
1094,108; 1032,030;    0,273;    1,773
1094,649;  950,121;   -1,182;    0,136
1095,189;  886,576;   -0,636;   -0,682
1095,729;  845,030;   -0,091;    0,955
1096,269;  836,485;    0,727;   -0,955
1096,810; 1167,030;   -1,364;    0,500
1097,350;  992,848;    1,364;   -0,773
1097,890;  888,848;    0,364;    1,227
1098,430; 1155,485;    2,364;    2,864
1098,970; 1024,121;    2,182;    1,682
1099,510;  868,121;    0,545;   -2,318
1100,050;  802,848;    1,000;   -1,591
1100,589;  778,667;   -0,727;   -0,318
1101,129;  900,758;    0,818;   -0,955
1101,669; 1055,939;    1,727;    2,136
1102,209;  862,576;   -0,091;    2,227
1102,748;  827,212;    0,000;    0,955
1103,288;  819,667;    1,273;   -1,227
1103,827;  851,848;    3,091;   -2,227
1104,367;  726,485;   -0,091;   -2,409
1104,906;  684,576;    1,364;   -1,136
1105,445;  762,394;    0,636;   -1,136
1105,985;  704,394;   -0,727;    1,500
1106,524;  752,576;   -1,727;   -0,682
1107,063;  733,576;   -2,727;    1,409
1107,602;  701,121;   -1,909;   -1,500
1108,141;  617,576;   -1,909;    1,500
1108,680;  738,485;   -3,455;   -0,591
1109,219;  660,758;   -0,909;   -0,500
1109,758;  660,394;    0,455;    0,682
1110,297;  628,939;    1,000;   -0,682
1110,836;  579,939;   -0,727;    0,955
1111,375;  757,576;   -2,545;    0,409
1111,913;  766,667;   -1,000;    0,773
1112,452;  693,485;   -0,273;    0,136
1112,991;  570,848;    1,091;    1,955
1113,529;  534,576;   -0,818;   -0,045
1114,068;  608,848;   -0,273;    2,955
1114,606;  506,939;   -0,364;   -0,955
1115,144;  681,212;   -1,273;    1,045
1115,683;  611,394;   -0,727;    0,318
1116,221;  673,303;   -0,455;   -0,864
1116,759;  571,485;    0,636;   -0,864
1117,297;  792,485;    0,000;    1,864
1117,836;  581,939;   -2,182;   -1,227
1118,374;  586,848;    0,182;   -0,682
1118,912;  522,758;    0,909;    2,682
1119,450;  513,303;    1,000;    0,864
1119,988;  569,848;    1,545;    2,136
1120,525; 1034,121;    5,091;    3,318
1121,063;  729,121;    1,182;    1,864
1121,601;  518,576;   -0,909;   -1,227
1122,139;  472,667;   -0,727;   -2,045
1122,676;  681,848;   -0,727;    2,773
1123,214;  619,667;   -1,182;    4,409
1123,751;  421,303;    1,727;    2,227
1124,289;  557,212;   -0,091;   -0,409
1124,826;  423,576;    1,727;    0,227
1125,364;  342,212;    1,727;   -0,955
1125,901;  530,394;    1,182;    1,227
1126,438;  645,394;    0,818;    0,955
1126,975;  371,576;   -0,727;   -0,773
1127,513;  444,758;    0,273;    2,136
1128,050;  345,394;    1,636;   -0,682
1128,587;  451,576;    2,000;   -0,227
1129,124;  496,485;    0,091;    1,318
1129,661;  352,758;    0,273;    0,227
1130,198;  530,939;    1,636;    0,773
1130,734;  470,848;    0,182;    1,409
1131,271;  323,848;   -0,909;    0,864
1131,808;  501,394;    2,909;    3,045
1132,345;  375,667;    1,545;    0,318
1132,881;  244,030;   -1,545;   -1,864
1133,418;  387,030;    0,727;   -1,136
1133,954;  318,939;    2,455;   -2,682
1134,491;  402,576;    1,364;   -0,773
1135,027;  293,939;    2,364;    0,864
1135,564;  388,758;    0,273;    2,955
1136,100;  378,030;    0,364;    2,136
1136,636;  258,485;   -1,273;   -1,045
1137,172;  360,758;    0,000;   -1,045
1137,708;  275,939;   -1,364;   -1,045
1138,245;  285,121;    1,273;   -1,227
1138,781;  227,485;    1,091;   -3,318
1139,317;  303,576;    1,273;   -1,409
1139,852;  294,848;    3,091;    0,136
1140,388;  412,212;   -1,182;   -0,409
1140,924;  285,485;   -1,091;   -2,227
1141,460;  224,848;   -1,636;    0,136
1141,996;  157,121;   -1,364;    2,682
1142,531;  206,303;    1,364;    3,318
1143,067;  439,848;    1,182;    1,045
1143,602;  504,121;   -0,091;   -0,318
1144,138;  339,121;   -2,636;    1,045
1144,673;  190,939;   -1,455;    1,409
1145,209;  271,394;   -1,909;   -0,318
1145,744;  184,121;   -0,727;    0,864
1146,279;  332,303;    1,818;   -0,136
1146,815;  239,303;    1,545;   -2,682
1147,350;  277,485;   -1,364;    0,045
1147,885;  186,030;   -0,818;   -1,318
1148,420;  192,848;   -2,273;    0,773
1148,955;  175,485;   -1,727;    1,864
1149,490;  199,576;   -0,909;   -1,591
1150,025;  181,212;    0,455;   -1,773
1150,560;  300,394;    1,091;   -0,955
1151,094;  255,030;    1,455;   -0,591
1151,629;  255,394;    1,636;    0,864
1152,164;  187,576;    1,364;    1,318
1152,698;  141,212;   -0,182;   -0,136
1153,233;  100,758;    0,091;   -0,682
1153,767;  159,030;   -3,000;   -2,318
1154,302;  212,030;   -1,455;    1,773
1154,836;  203,212;   -0,455;   -2,136
1155,371;  265,212;   -1,364;    3,682
1155,905;  216,939;   -0,636;    1,682
1156,439;  173,939;   -0,636;   -0,500
1156,973;  206,576;    0,364;    0,318
1157,507;  138,758;   -0,364;    0,682
1158,042;  173,667;   -0,727;    1,045
1158,576;  223,939;    0,182;    1,773
1159,110;  204,121;   -0,818;    2,409
1159,643;  177,212;    0,636;   -0,045
1160,177;  115,667;   -1,545;    1,500

