
Integration time [ms]:   0,040
Averaging Nr. [scans]: 11
Smoothing Nr. [pixels]: 0
Data measured with spectrometer [name]: 7318044SP
Wave   ;Sample   ;Dark     ;Reference
[nm]   ;[counts] ;[counts] ;[counts] 

186,757;   21,363;   31,551;    1,318
187,357;   62,300;   22,551;    0,955
187,958;   42,010;   15,460;   -1,591
188,558;   82,720;    8,915;   -1,227
189,159;   46,311;    6,733;   -4,500
189,759;    7,912;    7,278;   -3,591
190,360;   18,458;    2,824;   -2,136
190,960;   67,756;    2,915;   -4,136
191,560;   79,445;    3,189;   -6,591
192,161;  345,765;    4,372;   -3,500
192,761;  169,550;    4,010;   -3,227
193,361;  115,879;    1,556;   -3,773
193,962;  165,203;    2,010;   -2,682
194,562;   85,582;    1,189;   -3,955
195,162;  121,934;   -2,448;   -2,227
195,762;  292,444;   -3,176;   -0,045
196,362;  233,395;    1,370;   -2,500
196,963;   96,395;    2,006;   -0,864
197,563;  172,450;    1,551;   -0,955
198,163;  115,786;    0,096;   -0,682
198,763;  133,849;    1,733;   -0,500
199,363;  244,555;    3,096;   -0,500
199,963;  205,667;    0,369;    0,409
200,563;  175,744;    2,823;   -1,409
201,163;  153,195;    3,277;   -0,227
201,763;  247,723;    3,732;    0,318
202,363;  178,086;    1,459;    1,500
202,963;  297,205;    1,459;    1,045
203,563;  412,198;    0,277;    0,500
204,162;  252,212;    2,096;   -1,864
204,762;  242,817;    0,550;    0,591
205,362;  208,817;    3,004;    1,955
205,962;  312,191;    3,096;    1,955
206,562;  308,453;    1,823;    2,318
207,161;  276,096;   -0,087;    0,318
207,761;  445,303;    1,277;    2,409
208,361;  305,764;   -0,268;    1,409
208,960;  421,589;    0,459;    1,500
209,560;  501,009;    1,277;    1,591
210,160;  475,324;    0,550;    1,864
210,759;  435,502;    4,186;    1,227
211,359;  442,697;    1,459;    1,045
211,958;  729,789;    1,277;    2,045
212,558;  804,768;    1,732;    1,864
213,157;  634,813;    1,822;    1,500
213,757; 1093,082;    3,822;   -0,227
214,356;  783,330;    1,277;   -0,409
214,956; 1123,471;    3,095;    0,409
215,555;  738,099;    2,095;    2,136
216,154;  672,495;   -2,723;   -0,591
216,754;  685,124;    0,277;    0,773
217,353;  828,747;   -0,268;   -1,045
217,952;  675,869;   -0,178;    0,318
218,552;  917,417;    1,368;   -0,773
219,151;  810,036;    0,277;    0,955
219,750;  813,802;    0,004;   -0,227
220,349;  937,222;   -0,451;    1,045
220,948; 1015,998;   -1,360;    1,136
221,548; 1034,942;    0,913;    1,227
222,147; 1164,411;   -0,087;   -0,409
222,746; 1459,715;   -0,451;   -0,955
223,345; 1341,732;    0,731;    0,500
223,944; 1340,452;   -0,451;    0,773
224,543; 1525,316;    1,004;   -1,409
225,142; 1637,679;    0,094;    0,136
225,741; 1535,173;   -0,814;    1,045
226,340; 1568,222;   -0,451;   -0,955
226,939; 2024,858;   -0,996;   -0,136
227,538; 1993,557;   -0,360;   -0,773
228,137; 2165,072;   -0,814;    0,864
228,735; 2329,886;   -0,541;    1,227
229,334; 2054,879;   -0,905;   -0,227
229,933; 2427,676;    0,459;    0,591
230,532; 2538,907;    1,186;   -0,409
231,131; 2595,365;    1,732;    0,318
231,729; 2772,386;   -2,450;   -2,318
232,328; 2891,799;   -0,723;   -1,500
232,927; 2951,768;    1,004;   -0,500
233,525; 3085,582;    3,640;    0,045
234,124; 3312,603;    2,368;   -1,591
234,723; 3332,904;    0,913;   -1,045
235,321; 3482,019;    2,277;    0,136
235,920; 3732,844;    1,186;   -1,227
236,518; 4010,960;    3,459;    0,318
237,117; 4176,187;    0,004;   -0,227
237,715; 4343,215;    0,640;   -0,500
238,314; 4392,100;   -0,087;   -2,318
238,912; 4499,858;   -0,723;   -1,409
239,510; 4540,481;    0,459;   -1,227
240,109; 4708,680;    0,004;    3,773
240,707; 4761,848;   -0,996;    1,227
241,305; 5156,813;    0,550;    0,136
241,904; 5381,813;   -0,178;   -2,045
242,502; 5361,005;   -0,632;   -0,227
243,100; 5290,481;   -0,087;   -0,955
243,698; 5523,781;    0,732;    1,682
244,297; 5727,428;   -0,632;    0,682
244,895; 5576,103;   -0,269;   -2,318
245,493; 5922,834;    2,186;   -0,591
246,091; 5969,697;    1,368;   -1,318
246,689; 5956,967;    1,004;    0,591
247,287; 6116,932;    0,822;   -1,136
247,885; 6395,638;   -1,451;    1,227
248,483; 6502,442;    1,822;   -0,500
249,081; 6669,127;    0,185;    1,591
249,679; 6846,781;   -0,178;    1,682
250,277; 7086,250;   -1,723;    0,864
250,875; 7089,666;   -1,087;   -1,045
251,473; 7107,040;   -1,178;    0,500
252,071; 7314,897;    1,459;    1,045
252,669; 7495,271;   -1,814;    0,318
253,267; 7739,662;   -0,087;    0,773
253,864; 7698,750;   -0,360;    0,682
254,462; 7571,809;    1,640;    1,591
255,060; 7546,519;   -0,269;    1,318
255,658; 7845,362;    0,822;   -0,136
256,255; 8284,564;    0,186;   -2,045
256,853; 8128,729;   -0,269;    1,409
257,451; 8141,008;    0,822;    1,864
258,048; 8435,264;    1,822;    1,864
258,646; 8194,078;    1,731;   -1,045
259,243; 8394,001;   -0,087;    2,227
259,841; 8444,970;   -0,814;    0,318
260,438; 8306,246;   -0,087;    0,864
261,036; 9085,281;   -1,905;    1,409
261,633; 8949,187;   -0,087;    2,227
262,231; 8681,837;    2,731;   -0,045
262,828; 8742,530;   -0,905;    1,136
263,425; 8801,620;    0,913;   -0,591
264,023; 9101,883;    0,186;    0,045
264,620; 8621,435;   -0,360;   -0,318
265,217; 9048,092;   -2,087;    3,136
265,815; 9113,575;   -1,905;    2,136
266,412; 8865,554;    0,731;    0,136
267,009; 8943,096;   -1,451;    0,773
267,606; 8827,260;    0,822;   -0,955
268,203; 8847,690;   -0,269;   -0,591
268,801; 9114,571;    1,731;    0,591
269,398; 9415,680;   -0,360;    2,500
269,995; 9400,530;    0,277;    1,591
270,592; 9148,547;   -0,632;   -0,500
271,189; 9359,257;    0,186;    0,409
271,786; 9449,110;   -0,632;    1,227
272,383; 9298,379;   -1,087;    0,227
272,980; 9483,162;    0,277;    0,318
273,577; 9968,414;    0,004;    1,227
274,174; 9532,278;    0,822;    2,591
274,771; 9534,816;   -0,814;   -0,773
275,367; 9686,865;    2,277;    1,409
275,964; 9628,243;    0,731;   -0,500
276,561; 9749,372;    1,549;   -1,045
277,158; 9950,599;    0,095;   -1,773
277,755;10070,309;    2,185;    0,409
278,351; 9454,529;   -0,451;   -1,500
278,948; 9810,001;   -0,815;    0,045
279,545; 9818,173;   -1,360;    2,318
280,141;10469,994;   -1,723;   -2,045
280,738;10361,809;   -0,451;   -0,136
281,334;10566,407;   -1,633;    0,591
281,931; 9939,036;   -0,087;   -1,318
282,528;10045,232;    0,822;   -0,500
283,124;10767,264;   -1,087;   -0,500
283,721;10671,113;   -0,451;    1,409
284,317;10464,830;    0,185;    2,500
284,913;11060,361;   -1,360;    0,591
285,510;11240,543;    0,640;   -0,318
286,106;11274,830;   -2,269;   -0,955
286,703;10904,777;   -0,360;    1,955
287,299;11099,606;   -1,451;   -0,591
287,895;11286,194;    0,822;   -1,045
288,491;11859,771;    0,186;    2,136
289,088;11606,589;   -2,360;    2,409
289,684;11685,271;   -1,723;    1,500
290,280;11711,802;    0,368;    0,682
290,876;11808,764;    1,822;    5,500
291,472;11630,631;    1,276;    2,227
292,068;11755,200;    1,367;    0,227
292,665;11449,061;    2,095;    0,773
293,261;11055,445;    0,276;    2,136
293,857;11483,704;    2,913;    2,136
294,453;11424,127;    3,550;    0,955
295,049;11278,362;   -0,268;    1,955
295,644;11304,247;    0,095;    0,136
296,240;11204,519;   -0,905;   -0,136
296,836;11283,715;   -0,995;    0,318
297,432;11528,593;    1,096;   -0,500
298,028;11606,656;    0,732;    0,773
298,624;12018,908;    1,459;    1,864
299,220;12263,663;    2,368;    0,591
299,815;11927,313;    1,005;   -0,409
300,411;11743,089;    0,914;    1,773
301,007;11707,282;    1,368;    0,227
301,602;11755,964;   -0,541;   -2,318
302,198;11915,883;    0,732;   -0,773
302,794;12264,712;    1,187;   -0,500
303,389;12371,541;   -1,177;    1,045
303,985;12503,701;    0,550;    1,409
304,580;12466,890;    1,459;    1,591
305,176;12405,422;   -3,086;    0,136
305,771;12326,939;   -1,268;   -1,227
306,367;12235,750;    4,095;    0,136
306,962;12542,236;    0,641;    1,500
307,558;12244,810;   -0,450;    0,136
308,153;12185,698;    1,095;   -1,136
308,748;12411,555;   -0,814;    1,682
309,344;12421,600;   -0,632;   -1,318
309,939;12486,327;   -1,905;   -1,318
310,534;12748,191;   -0,086;   -1,682
311,130;12686,985;    0,459;   -2,500
311,725;12381,012;    1,004;   -0,500
312,320;12730,939;    2,459;    0,045
312,915;12569,649;    1,459;   -1,045
313,510;12674,684;    1,550;   -0,500
314,105;13154,841;    1,096;    1,409
314,700;12526,960;   -3,086;   -1,045
315,295;12171,618;   -0,904;    0,045
315,890;11716,411;    1,277;    0,864
316,485;12090,474;   -0,359;   -0,318
317,080;12197,880;   -3,086;    1,591
317,675;12793,215;    2,005;   -0,682
318,270;12217,537;    5,550;    3,318
318,865;12187,807;    3,278;    3,045
319,460;12030,023;   -0,904;    0,591
320,055;12228,835;   -0,541;   -1,227
320,650;11906,604;   -1,995;   -0,591
321,244;11954,670;   -0,177;   -1,409
321,839;12904,516;   -1,541;   -0,227
322,434;12796,576;   -1,086;   -1,591
323,029;12426,223;    1,732;    1,591
323,623;12266,464;    1,550;    0,773
324,218;12028,835;    2,368;    1,409
324,812;11863,625;    1,096;    1,591
325,407;11689,023;   -0,814;    2,045
326,002;11599,908;    0,277;   -0,409
326,596;11925,222;    0,914;    1,318
327,191;12091,436;    0,823;   -1,045
327,785;11674,950;   -0,813;   -0,227
328,379;11912,376;    1,368;    0,136
328,974;11715,590;    0,914;   -3,955
329,568;11927,932;    0,186;   -2,409
330,163;11743,897;    2,096;    1,045
330,757;12047,089;    2,459;    1,591
331,351;11405,264;    0,459;    0,682
331,945;11710,345;    0,914;    1,409
332,540;11286,177;   -1,723;   -0,591
333,134;11445,338;   -1,086;    0,773
333,728;11714,509;    0,005;    0,318
334,322;12030,946;   -1,177;   -0,864
334,916;11304,072;    0,277;    0,955
335,510;11662,834;   -0,450;   -0,136
336,105;11923,618;   -1,086;    1,591
336,699;11622,187;   -1,086;    0,591
337,293;11552,942;   -1,723;    0,318
337,887;11667,607;   -2,723;    1,955
338,481;11801,023;    0,459;    0,591
339,074;11949,523;   -0,359;    2,682
339,668;11779,110;   -1,632;    1,227
340,262;12046,373;    1,732;    3,227
340,856;11553,075;    1,822;   -0,682
341,450;10861,257;    1,004;    1,864
342,044;11792,397;    1,459;    0,136
342,637;11551,407;    0,913;   -2,136
343,231;11446,617;   -2,360;    0,682
343,825;11420,638;   -1,086;   -0,591
344,419;11356,275;   -1,995;    0,500
345,012;11164,729;    2,459;    4,045
345,606;11164,041;    4,641;    1,591
346,199;10993,936;   -1,813;   -0,227
346,793;10478,069;    1,914;    2,045
347,386;10680,135;   -0,813;   -1,136
347,980;10695,331;   -0,268;   -0,045
348,573;10468,880;    2,278;    0,409
349,167;10170,513;    5,278;    4,773
349,760;10485,370;    2,914;    2,682
350,354;10446,237;   -0,813;    1,136
350,947;10219,797;    1,096;    1,682
351,540; 9870,185;   -0,358;   -1,409
352,134; 9809,401;    1,096;    1,136
352,727; 9920,314;   -0,086;    1,136
353,320; 9685,359;    0,005;    0,591
353,913; 9547,684;   -1,995;    1,864
354,507; 9746,702;    0,823;   -1,227
355,100; 9740,226;    0,460;    0,864
355,693; 9003,097;    2,005;    2,409
356,286; 9024,125;    0,823;    2,773
356,879; 9387,831;   -0,722;    1,227
357,472; 8970,964;   -0,904;    1,500
358,065; 9177,241;   -0,722;    2,500
358,658; 9075,555;   -0,540;    2,318
359,251; 8698,562;   -1,631;   -0,591
359,844; 8220,685;   -1,904;   -1,136
360,437; 8402,475;   -2,995;    0,045
361,030; 8658,258;    1,369;   -0,682
361,623; 8237,468;    2,824;    0,318
362,215; 8305,807;   -0,086;    2,045
362,808; 8139,283;   -2,358;   -1,682
363,401; 8341,772;   -2,449;    0,136
363,994; 8083,709;   -0,631;   -1,500
364,586; 7989,549;    0,824;   -1,500
365,179; 8206,063;   -0,449;   -1,136
365,772; 7690,087;   -1,995;    2,045
366,364; 8026,584;    1,915;   -3,227
366,957; 8156,060;    2,279;   -0,045
367,549; 8201,049;    2,188;   -0,864
368,142; 7826,962;    1,825;   -1,500
368,734; 8033,456;    0,734;   -2,136
369,327; 8022,844;    1,643;   -0,500
369,919; 7926,970;   -1,538;    0,409
370,512; 7713,198;   -1,083;   -0,500
371,104; 7485,230;   -0,901;    1,591
371,696; 7649,996;    1,191;   -0,955
372,289; 7759,018;    0,373;    1,136
372,881; 7891,138;   -2,080;    1,318
373,473; 7816,450;   -2,170;    1,136
374,066; 7610,843;   -0,169;    0,500
374,658; 7448,502;    0,378;    1,136
375,250; 7810,017;    0,653;   -1,409
375,842; 7672,705;    0,473;   -0,045
376,434; 7541,724;   -0,435;   -0,409
377,026; 8108,705;    0,204;   -2,500
377,618; 8027,029;   -0,158;   -0,682
378,210; 7839,181;   -0,338;   -1,955
378,802; 7669,867;    0,754;   -0,591
379,394; 7666,533;    1,846;    0,682
379,986; 8273,432;    1,393;   -0,955
380,578; 8384,939;   -0,153;    0,773
381,170; 7701,764;   -0,972;    0,045
381,762; 7649,850;    0,755;    1,409
382,354; 7833,031;   -0,065;   -1,318
382,945; 7951,344;   -2,976;    0,318
383,537; 8106,241;   -2,705;   -1,955
384,129; 8094,806;   -2,160;   -1,136
384,721; 8285,973;   -0,252;    0,955
385,312; 8236,413;   -0,161;   -0,955
385,904; 8347,641;   -2,706;    1,591
386,496; 7704,431;   -0,979;    1,045
387,087; 7877,219;    1,022;    2,500
387,679; 7906,481;   -1,160;    0,045
388,270; 7996,855;    2,840;    2,045
388,862; 8149,852;    1,295;   -0,318
389,453; 8049,090;   -0,887;    1,045
390,045; 8317,149;   -0,705;   -2,682
390,636; 8228,114;    0,204;   -0,591
391,227; 8069,960;   -0,523;   -0,045
391,819; 8169,474;    0,204;    0,773
392,410; 8270,890;    1,022;    0,045
393,001; 8186,169;   -0,979;   -1,591
393,593; 8487,435;    1,930;   -0,045
394,184; 8345,540;    1,385;   -0,409
394,775; 8288,393;    1,839;    2,136
395,366; 8460,054;    1,385;    0,773
395,957; 8481,656;    0,113;    0,136
396,548; 8780,928;   -0,342;    2,682
397,139; 9087,698;   -2,433;    0,591
397,730; 8823,197;   -1,888;    0,955
398,321; 8892,008;   -1,252;    0,955
398,912; 8918,613;   -0,615;    0,136
399,503; 8958,547;   -3,524;   -1,409
400,094; 8404,179;    0,294;    1,682
400,685; 8253,571;   -0,433;    0,045
401,276; 8347,634;    0,930;   -0,955
401,867; 8678,519;   -0,888;    0,773
402,458; 8776,505;   -2,251;   -2,318
403,048; 8757,634;    1,112;    0,591
403,639; 8360,071;    0,840;    0,864
404,230; 8576,309;    2,476;    0,318
404,821; 8533,365;   -0,615;    0,045
405,411; 8662,368;    1,203;   -2,591
406,002; 8250,127;   -1,252;   -1,136
406,592; 8128,851;    2,294;    0,045
407,183; 8404,088;    0,566;   -1,500
407,774; 8324,557;    3,475;   -0,136
408,364; 8659,767;    0,930;    0,409
408,954; 8256,319;    0,384;    1,227
409,545; 8286,581;    1,021;    1,045
410,135; 7832,497;    1,293;    0,500
410,726; 7993,248;    1,838;    0,318
411,316; 8394,001;    0,111;    0,773
411,906; 8049,745;   -0,253;   -0,409
412,497; 7510,738;   -1,070;   -0,045
413,087; 8129,172;   -1,980;   -0,227
413,677; 8550,825;   -0,707;    3,864
414,267; 8367,689;    0,656;    1,409
414,857; 8360,983;   -2,980;    4,227
415,448; 8665,948;    0,839;    0,500
416,038; 8350,179;    0,020;   -0,591
416,628; 8313,269;   -0,889;    0,409
417,218; 7765,560;    0,565;    3,318
417,808; 8073,944;    0,202;   -0,409
418,398; 8562,525;    0,020;    2,682
418,988; 8547,147;    2,020;    0,591
419,578; 8792,542;   -0,707;    1,409
420,168; 9127,479;   -1,343;   -0,955
420,757; 8716,707;   -1,343;   -1,500
421,347; 8384,224;    0,111;   -0,227
421,937; 8575,517;    2,292;    1,409
422,527; 8525,745;    0,838;   -0,773
423,116; 8320,825;   -0,253;   -0,045
423,706; 8632,930;   -1,889;    0,318
424,296; 8576,650;    1,384;    0,682
424,885; 9000,014;   -0,071;   -3,045
425,475; 9326,612;    1,474;   -2,864
426,065; 9225,727;   -0,980;   -0,318
426,654; 8865,115;   -0,435;   -0,318
427,244; 8998,657;    0,020;    1,409
427,833; 8410,269;    1,383;   -0,500
428,423; 8902,681;   -0,526;    1,136
429,012; 9709,503;   -0,344;   -1,136
429,601; 9172,947;   -1,344;    0,136
430,191; 9416,069;    1,292;    4,318
430,780; 9041,112;   -0,344;   -0,409
431,369; 8961,223;    0,746;   -0,045
431,959; 9581,181;   -1,254;    0,500
432,548; 9364,405;   -1,163;   -0,045
433,137; 9486,629;   -1,254;   -1,318
433,726;10033,688;    0,292;    0,500
434,315; 9362,870;   -0,526;    2,409
434,905; 9442,677;   -1,254;    1,409
435,494; 9338,639;    0,746;    0,955
436,083; 9777,674;   -0,981;   -0,955
436,672; 9674,080;    0,110;    0,500
437,261; 9259,670;    0,292;   -1,955
437,850; 9372,968;    1,383;    0,682
438,439; 9375,065;    3,291;    1,955
439,027; 9220,093;    3,655;    1,773
439,616; 9531,649;    2,927;    1,227
440,205; 9364,551;    0,200;   -2,136
440,794; 9473,848;    2,109;   -0,045
441,383; 9727,813;   -1,346;   -0,591
441,971; 9565,799;   -2,436;    0,591
442,560; 9432,096;    0,563;   -1,773
443,149; 9152,020;    0,379;   -1,318
443,737; 9330,211;   -0,074;   -2,318
444,326; 9586,743;    0,018;    0,318
444,915; 9633,211;   -1,982;    0,864
445,503;10049,173;   -2,891;   -0,318
446,092; 9266,201;    0,382;    2,136
446,680; 9804,344;    0,382;    0,318
447,269; 9968,617;   -0,346;   -0,318
447,857; 9741,141;    0,018;   -1,773
448,445; 9811,833;    0,563;    1,318
449,034;10054,389;   -1,528;   -1,136
449,622;10159,302;   -1,073;    3,500
450,210; 9397,270;    2,017;    2,227
450,799; 9975,749;    0,290;   -0,591
451,387; 9877,445;    1,381;   -0,591
451,975; 9543,134;    2,654;    0,864
452,563; 9627,403;    3,472;    2,318
453,151; 9646,322;   -0,528;   -1,227
453,739; 9556,979;   -1,347;    0,136
454,328; 9384,994;    2,381;   -2,136
454,916; 9134,899;    2,562;   -0,136
455,504; 9310,696;    1,017;    1,227
456,092; 9472,137;    0,017;   -1,591
456,679; 9469,025;    1,472;    0,682
457,267; 9444,731;    4,017;    1,045
457,855; 9561,469;    1,017;    1,409
458,443; 9291,371;   -0,165;    1,682
459,031; 9426,409;    0,108;    2,409
459,619; 9862,333;   -1,801;    2,864
460,206;10012,305;    0,835;    2,045
460,794;10072,385;   -2,983;   -0,227
461,382;10334,066;   -0,529;   -0,864
461,970; 9941,185;    1,198;    1,864
462,557; 9912,119;   -0,711;   -0,682
463,145;10102,958;   -3,165;   -1,682
463,732;10257,615;    2,016;   -1,045
464,320;10180,639;   -0,075;   -3,045
464,907; 9855,122;    2,743;   -0,773
465,495; 9720,258;    0,743;   -1,227
466,082; 9881,570;   -1,984;   -0,045
466,670; 9790,493;   -2,529;    1,227
467,257;10196,437;   -1,711;    2,045
467,844;10319,227;   -0,075;    0,045
468,432;10345,545;    0,834;    3,500
469,019; 9826,157;    0,925;   -1,773
469,606;10330,797;    0,470;    3,682
470,193;10131,618;   -1,439;    0,227
470,780; 9707,849;   -2,075;    0,864
471,368;10053,489;   -1,257;   -0,773
471,955; 9826,185;    1,379;   -0,682
472,542; 9458,307;    0,652;   -1,136
473,129; 9724,174;   -0,166;    0,136
473,716; 9411,482;    1,470;    0,591
474,303; 9602,489;    0,652;   -0,864
474,890; 9880,502;   -1,439;   -0,500
475,477; 9911,880;   -1,621;    0,409
476,064; 9815,254;    1,106;   -1,591
476,650; 9754,981;    0,288;    0,318
477,237; 9566,981;   -0,258;    0,955
477,824; 9695,670;   -1,076;    0,864
478,411; 9676,747;   -1,894;   -0,318
478,997; 9886,464;    0,560;   -0,773
479,584; 9945,900;    1,196;   -0,409
480,171;10637,404;   -0,440;   -0,773
480,757;10278,530;    2,651;    0,773
481,344;10588,561;    0,469;    0,409
481,931;10084,176;    1,105;    1,045
482,517;11097,330;   -1,258;    0,318
483,104;11674,051;    1,106;    2,864
483,690;11933,425;   -1,804;    0,045
484,276;12185,442;   -0,895;    0,227
484,863;11905,579;    2,469;    1,136
485,449;12502,687;   -0,077;    0,318
486,035;12450,641;   -1,986;   -0,136
486,622;12870,477;   -0,895;    0,045
487,208;12779,676;    1,378;    1,500
487,794;12640,319;    0,741;    0,318
488,380;12768,620;    0,105;   -1,409
488,967;12811,574;   -1,168;   -0,409
489,553;12885,277;   -1,895;   -1,409
490,139;13060,707;    1,559;    0,773
490,725;12457,997;    0,741;   -0,227
491,311;12011,494;    3,287;    3,045
491,897;11404,868;   -0,986;    1,500
492,483;11257,200;    0,105;    1,227
493,069;11139,305;    3,923;    0,864
493,655;11127,767;    1,650;    0,682
494,241;11051,445;    1,377;   -0,955
494,826;11472,637;    0,287;   -1,045
495,412;10944,396;    2,559;   -0,682
495,998;11114,665;   -0,805;   -0,318
496,584;11279,833;    0,377;    1,045
497,169;11246,203;    1,014;   -0,682
497,755;11207,661;    0,650;    1,227
498,341;11844,109;    0,559;    0,318
498,926;11473,770;    1,832;    1,955
499,512;11658,077;    1,286;    2,955
500,097;11803,776;    0,195;   -0,318
500,683;11767,644;   -0,350;    2,136
501,268;12166,773;   -0,169;   -0,955
501,854;11940,329;   -0,169;    1,227
502,439;11880,245;   -0,624;   -1,773
503,024;12107,780;    0,195;    0,500
503,610;12209,619;   -0,078;   -0,682
504,195;12239,325;    0,558;    1,955
504,780;12399,423;    2,922;    1,227
505,366;12263,857;    3,013;    2,864
505,951;12016,209;    0,740;    1,045
506,536;12060,765;   -3,260;   -3,682
507,121;12025,482;    0,285;   -0,318
507,706;12546,766;    2,376;    1,045
508,291;12987,486;    2,649;    1,136
508,876;12451,255;   -0,988;    2,591
509,461;11968,636;   -0,169;   -0,773
510,046;12408,381;    0,194;    0,318
510,631;12672,230;   -0,351;   -0,773
511,216;12351,066;    2,467;   -0,500
511,801;12715,017;   -0,442;    2,591
512,386;13074,590;    0,740;    0,500
512,971;13020,415;   -2,988;    0,955
513,555;12548,772;   -0,897;   -1,500
514,140;13356,283;   -0,442;   -3,136
514,725;13406,090;   -0,715;   -1,136
515,309;13518,433;   -0,533;    0,318
515,894;12971,943;   -0,624;   -2,227
516,479;13458,251;   -0,624;   -0,955
517,063;13319,583;    0,376;    1,227
517,648;13458,233;    1,012;   -1,136
518,232;13101,345;   -0,261;   -1,409
518,817;13490,593;   -0,079;    1,682
519,401;13675,359;    2,194;    0,591
519,985;13178,240;    1,103;    1,136
520,570;13037,516;    0,830;   -1,955
521,154;13354,261;    2,102;    0,591
521,738;13548,904;   -2,352;    2,409
522,323;14119,785;   -0,170;    1,682
522,907;13831,407;    0,466;   -0,136
523,491;13536,327;    0,557;    0,955
524,075;13547,303;    2,284;    0,591
524,659;13646,275;    1,466;    0,591
525,243;13139,047;    1,739;    0,409
525,827;13379,184;    0,648;   -0,045
526,411;14235,457;   -1,989;   -0,136
526,995;14443,187;   -0,352;    1,409
527,579;14040,953;   -0,443;   -1,045
528,163;14387,585;    0,375;   -1,500
528,747;14272,204;    2,466;   -0,773
529,331;14573,764;   -0,080;   -1,409
529,915;14772,169;    1,738;    0,955
530,499;14726,229;   -0,807;    1,227
531,082;14452,673;   -0,534;    1,591
531,666;13905,798;    1,374;    0,773
532,250;14552,816;    1,284;    2,682
532,833;14913,295;    0,920;    2,773
533,417;14760,333;   -1,807;    0,864
534,001;14749,886;    1,647;   -0,318
534,584;15436,354;    0,374;    0,500
535,168;15262,438;    0,465;    1,409
535,751;15367,379;    0,647;    0,045
536,334;14837,865;   -0,898;   -0,409
536,918;15367,613;    0,011;    1,591
537,501;15493,571;   -0,899;    1,318
538,085;15488,414;   -0,444;    1,045
538,668;15662,116;    0,829;    2,409
539,251;16015,274;    1,829;    3,773
539,834;16000,260;    0,101;    0,773
540,418;15950,116;   -1,990;    4,318
541,001;16073,057;   -0,990;    1,773
541,584;16078,280;    2,101;    2,227
542,167;15769,525;    1,374;    2,955
542,750;15890,134;    1,919;   -0,773
543,333;15466,945;    0,555;    2,136
543,916;16255,717;    0,192;    2,500
544,499;16835,539;   -1,354;    0,227
545,082;16906,427;    1,374;    3,591
545,665;17035,249;    1,919;    1,500
546,248;17350,399;    1,010;   -0,318
546,830;17022,441;   -0,445;    1,955
547,413;17455,035;    1,010;   -0,773
547,996;17968,686;    0,555;    0,500
548,579;17750,168;    0,919;    0,955
549,161;17544,238;    1,828;    2,682
549,744;17312,266;   -0,809;    0,409
550,326;17806,909;   -0,809;   -1,136
550,909;17615,835;    2,737;    0,591
551,492;17998,615;   -0,263;    0,227
552,074;17826,895;   -0,173;   -1,318
552,657;18412,140;    2,373;    0,045
553,239;18120,248;   -0,173;   -0,773
553,821;18045,087;   -1,082;    1,045
554,404;17560,105;    1,282;    1,136
554,986;17946,874;    0,464;    1,045
555,568;18560,073;    1,191;   -0,955
556,151;17741,776;    1,191;   -0,227
556,733;17904,129;   -0,264;   -0,864
557,315;18421,241;    0,100;    0,500
557,897;18224,923;    0,554;   -0,500
558,479;18308,597;   -1,991;    1,318
559,061;18470,157;   -0,719;   -0,864
559,643;18798,349;   -0,264;    0,045
560,225;19190,234;    1,645;    2,864
560,807;19249,531;    0,918;    0,318
561,389;18664,157;    0,554;    2,318
561,971;19440,562;    0,463;    2,136
562,553;19222,282;   -1,628;    1,591
563,135;19408,303;   -0,537;    1,136
563,717;19061,178;    3,372;    1,136
564,298;19745,698;    3,645;   -0,045
564,880;19434,635;    0,645;   -1,409
565,462;19612,181;    0,645;    1,318
566,043;20748,824;   -0,446;    2,318
566,625;20337,003;    1,918;    1,227
567,207;20188,884;    1,099;    1,682
567,788;21286,992;   -1,264;    1,500
568,370;22149,593;    1,917;   -0,500
568,951;22007,348;    0,190;    0,227
569,533;22845,733;   -0,628;   -0,500
570,114;23329,887;   -0,446;    0,682
570,695;23859,750;   -0,174;   -1,318
571,277;24368,156;   -0,265;   -1,682
571,858;25152,971;    2,008;   -1,136
572,439;26028,258;    1,554;   -1,045
573,021;26181,837;    2,099;   -2,773
573,602;26650,065;   -1,265;    0,318
574,183;27595,897;   -2,083;    2,227
574,764;27762,219;   -1,629;    0,409
575,345;28321,075;    0,917;   -0,136
575,926;28895,624;   -0,356;    0,136
576,507;28839,880;    1,099;   -0,227
577,088;29991,484;    3,099;    1,682
577,669;29969,519;    0,735;    1,955
578,250;30771,351;    0,644;   -1,045
578,831;31489,802;   -1,356;   -2,227
579,412;31694,768;   -0,810;    0,955
579,993;32542,928;    1,008;    0,227
580,573;32842,691;   -0,629;   -0,955
581,154;31869,372;    0,735;   -0,591
581,735;32751,121;    0,644;    0,773
582,315;32259,848;   -0,629;    2,136
582,896;32495,855;   -0,174;    1,227
583,477;31885,484;    0,189;    1,227
584,057;32127,806;    0,553;    0,955
584,638;32425,565;    2,553;    2,318
585,218;32447,890;   -0,538;    2,682
585,799;32566,439;    0,281;   -0,227
586,379;32478,121;    0,372;    1,591
586,959;31229,960;    0,735;    0,318
587,540;30530,152;   -0,629;    2,227
588,120;30107,463;    1,007;   -0,045
588,700;29167,414;    2,553;    2,136
589,281;29480,173;    0,462;   -0,955
589,861;29449,771;    0,099;   -1,682
590,441;29170,816;    2,371;   -2,682
591,021;28129,743;   -0,265;   -2,591
591,601;28412,855;   -0,537;    0,500
592,181;28429,327;   -0,719;   -0,773
592,761;27741,620;    0,007;    1,409
593,341;27661,561;   -0,901;    0,045
593,921;27647,726;   -0,265;    1,591
594,501;27504,264;   -0,538;    1,318
595,081;27333,932;    0,917;   -0,318
595,661;27666,303;   -1,447;    0,955
596,240;28254,796;   -0,537;    0,136
596,820;27947,125;    0,372;    1,955
597,400;28113,142;    2,008;    0,773
597,980;28271,345;    2,008;    1,045
598,559;28297,949;    2,735;   -0,227
599,139;27998,334;   -0,174;   -1,227
599,718;27867,789;   -0,174;   -0,409
600,298;28115,890;    0,735;    0,682
600,877;28421,264;    2,917;    1,409
601,457;28690,684;    2,281;    1,136
602,036;28580,852;    0,190;    2,045
602,616;28820,887;    0,644;    1,682
603,195;29160,771;   -0,355;    3,500
603,774;28688,215;   -0,901;    2,045
604,354;28517,918;    0,826;   -0,500
604,933;28005,299;    0,463;    1,864
605,512;28154,443;    3,554;    0,591
606,091;28191,806;   -0,537;    3,773
606,671;29037,111;    0,281;    0,773
607,250;28118,027;    1,644;    3,136
607,829;28368,765;    2,372;    3,227
608,408;28216,677;    1,190;    2,591
608,987;27200,296;    1,281;    3,409
609,566;27502,215;   -1,265;   -2,500
610,145;27648,824;   -1,082;    0,682
610,723;28065,506;    4,372;    6,864
611,302;27329,719;   -0,446;    1,682
611,881;26889,929;    5,008;   11,227
612,460;27737,272;    1,645;    3,955
613,039;28081,597;   -0,082;    2,045
613,617;26796,083;    1,736;    4,773
614,196;27001,394;    1,099;    1,227
614,775;27402,559;    1,009;    2,409
615,353;27278,943;    0,736;    0,864
615,932;27018,013;    0,100;    2,409
616,510;27578,828;    0,554;    0,591
617,089;27147,083;    7,100;   17,591
617,667;26807,926;    2,372;    6,136
618,246;26718,188;   -1,537;    1,318
618,824;26891,625;   -3,355;   -0,955
619,402;26437,810;   -2,900;   -1,773
619,981;26956,311;   -0,173;   -1,045
620,559;26775,066;    0,009;    1,682
621,137;26265,419;   -0,718;    1,864
621,715;26360,737;   -1,173;   -0,682
622,293;26289,475;   -0,537;   -0,773
622,871;26715,423;   -0,718;    0,500
623,450;26250,160;    0,373;   -0,864
624,028;26178,730;    0,191;   -0,955
624,606;25825,814;   -1,718;    1,682
625,183;26199,279;   -1,536;   -1,136
625,761;25858,185;    1,009;    1,136
626,339;26179,346;    1,373;    2,591
626,917;26538,112;   -0,172;   -0,045
627,495;26487,790;   -0,354;    1,318
628,073;25976,224;   -0,263;    2,864
628,650;25680,276;    0,100;    2,136
629,228;26112,087;    0,373;    4,409
629,806;25539,192;    2,282;    1,136
630,383;25827,192;    1,464;   -0,318
630,961;25547,678;    2,555;   -0,955
631,539;25318,972;    2,464;    0,227
632,116;24718,042;   11,373;   15,409
632,694;25283,563;    2,555;    6,500
633,271;25566,483;    0,828;    2,682
633,848;25503,895;    1,828;    2,045
634,426;25491,144;   -1,081;    1,773
635,003;24628,350;    1,101;   -0,409
635,580;24985,336;    1,192;    3,682
636,158;25519,130;    3,737;    1,227
636,735;25456,696;    0,555;   -0,500
637,312;25652,063;   -0,809;   -0,682
637,889;25721,822;   -4,354;   -0,682
638,466;25191,133;   -3,990;   -0,409
639,043;25193,791;    2,101;   -1,136
639,620;25543,847;   -2,262;   -0,955
640,197;25855,155;    1,100;    1,682
640,774;25936,937;   -0,172;    1,136
641,351;26342,172;    0,737;    1,136
641,928;25786,499;   -0,627;    1,409
642,505;25457,371;    0,828;   -0,500
643,082;25548,152;   -1,718;    1,227
643,658;24557,570;   -0,718;    1,500
644,235;25311,806;    1,191;    2,500
644,812;25594,769;    1,918;    0,773
645,388;25365,823;   -0,991;    1,409
645,965;25465,786;   -0,809;    1,682
646,542;25607,931;   -1,445;   -0,227
647,118;25570,621;    1,009;   -0,955
647,695;25809,220;   -0,263;    1,136
648,271;25758,183;   -0,536;    0,500
648,848;26075,783;    0,736;    2,227
649,424;25898,473;    0,827;    1,318
650,000;25672,163;   -0,354;   -1,045
650,577;25385,854;   -0,627;   -0,955
651,153;25879,362;   -1,809;    0,955
651,729;26944,143;    1,191;    0,864
652,305;27498,197;    0,645;    2,773
652,881;32676,887;   -0,082;    1,136
653,458;39484,214;    1,100;    0,227
654,034;42774,177;    0,282;    1,591
654,610;44041,686;    0,554;    0,773
655,186;45267,103;    0,645;    3,045
655,762;44898,521;   -0,991;    0,409
656,338;44879,029;    0,100;    0,136
656,913;45880,265;   -0,082;    0,409
657,489;45082,955;    0,827;   -0,318
658,065;44949,827;   -0,173;   -1,591
658,641;45571,972;   -0,900;   -0,864
659,217;44855,481;   -0,991;    0,409
659,792;44305,898;    0,645;   -0,409
660,368;44485,498;   -2,173;   -0,682
660,944;43808,097;   -2,082;    1,227
661,519;38613,151;   -0,628;    0,409
662,095;32752,387;   -1,719;    0,591
662,670;28662,077;    1,281;   -0,136
663,246;27745,313;    1,009;   -0,409
663,821;27167,731;    0,281;    1,682
664,396;26670,148;    0,009;    1,864
664,972;26978,384;    0,009;   -0,500
665,547;27282,711;    1,372;    0,136
666,122;27320,674;   -1,082;    0,318
666,698;27597,091;   -0,173;    0,318
667,273;26941,600;   -0,173;    0,136
667,848;27732,381;    2,372;    1,500
668,423;27544,707;    2,190;    2,318
668,998;28132,307;    2,827;   -0,682
669,573;28632,634;   -3,264;   -1,500
670,148;28439,687;   -1,446;   -0,682
670,723;28254,287;   -1,810;    0,318
671,298;28667,795;    2,372;    1,045
671,873;28846,031;   -0,082;   -0,136
672,448;28761,267;    0,645;    0,136
673,023;29064,594;   -1,992;   -0,227
673,597;29418,193;    0,827;    2,318
674,172;29178,610;   -0,355;    0,318
674,747;28676,664;    0,372;   -1,045
675,321;28491,991;   -0,628;    3,318
675,896;28074,227;    0,645;    1,045
676,471;29038,099;    2,645;    1,591
677,045;28774,517;   -1,264;    0,682
677,620;28893,116;    0,190;    1,136
678,194;29184,443;   -2,628;    1,136
678,769;28808,860;   -1,083;   -0,318
679,343;28995,641;   -0,628;    1,773
679,917;28891,059;   -1,446;    1,955
680,492;28994,840;    0,826;    3,227
681,066;29149,803;    3,372;    0,409
681,640;29141,675;    1,463;   -0,318
682,214;29984,638;    0,735;    0,500
682,788;29542,510;   -1,356;   -0,773
683,363;29492,655;   -1,810;    1,682
683,937;29180,073;   -1,719;   -0,318
684,511;29954,127;    0,463;   -0,591
685,085;29636,635;   -1,356;    0,318
685,659;29344,871;   -2,538;    0,864
686,232;29655,652;   -0,356;   -0,318
686,806;29352,161;   -0,901;    0,409
687,380;29990,033;   -0,174;    0,591
687,954;30172,178;   -1,174;    1,136
688,528;29941,959;   -0,719;    1,955
689,101;30662,467;   -3,992;    1,045
689,675;30284,976;   -0,356;   -0,136
690,249;29655,484;   -0,719;    0,409
690,822;29949,811;    0,280;    0,318
691,396;30052,229;   -0,265;    1,227
691,969;29528,555;    1,280;    0,136
692,543;29969,973;   -0,447;   -1,955
693,116;29614,481;   -0,265;   -1,409
693,690;29467,990;    0,099;    0,500
694,263;30008,771;   -1,083;    2,955
694,836;30079,461;    1,371;    3,591
695,410;28760,243;   -0,265;    1,773
695,983;29252,206;    0,189;    0,591
696,556;29211,532;   -0,447;   -1,045
697,129;29551,404;   -0,356;    1,409
697,703;29192,367;   -1,629;    1,955
698,276;29126,149;    1,462;   -0,773
698,849;28969,203;    1,280;    1,409
699,422;29375,438;   -1,083;    0,591
699,995;29077,220;    0,007;    0,136
700,568;29604,637;   -0,629;    3,045
701,140;29598,691;   -2,811;    1,682
701,713;29309,109;   -0,174;    2,409
702,286;29053,708;   -0,538;    0,864
702,859;28922,944;   -0,902;   -0,591
703,432;28059,998;    0,825;    0,682
704,004;28495,688;    0,462;    0,318
704,577;28421,287;   -0,629;    0,136
705,150;28998,705;    0,189;    2,500
705,722;28806,668;   -0,356;   -3,227
706,295;28541,904;   -0,175;   -0,591
706,867;28421,685;   -0,175;    1,955
707,440;28648,375;   -1,720;   -0,409
708,012;28955,429;    0,462;    0,591
708,584;28872,301;    2,462;    0,227
709,157;29123,810;    1,825;   -0,591
709,729;28801,227;    2,280;    2,045
710,301;29597,827;    0,734;    0,045
710,874;29592,244;   -1,447;   -0,227
711,446;28447,935;    0,371;    0,864
712,018;28338,534;    0,098;    0,500
712,590;28105,224;   -1,993;    1,682
713,162;28654,460;    0,825;    1,318
713,734;28898,059;    1,825;   -2,045
714,306;28775,750;   -1,902;   -0,409
714,878;27461,167;    0,825;    0,864
715,450;28280,312;    0,643;    0,864
716,022;28585,093;    1,552;    1,318
716,593;28684,420;    0,189;    0,591
717,165;28576,929;   -3,175;   -1,227
717,737;28332,892;    0,280;    0,409
718,309;27971,127;    0,280;   -0,045
718,880;27926,727;   -0,539;   -1,409
719,452;28156,235;   -0,175;   -1,591
720,024;27771,198;    0,734;   -0,591
720,595;28295,525;   -2,902;    0,955
721,167;27878,215;    0,370;   -2,045
721,738;27393,542;   -0,812;   -1,045
722,309;27436,050;   -0,993;   -1,227
722,881;27185,377;   -1,357;    0,773
723,452;27780,067;   -2,630;    2,864
724,023;27973,758;   -0,721;    2,682
724,595;27766,357;    0,007;    0,682
725,166;27510,866;    0,007;   -0,409
725,737;27173,010;    1,734;    0,227
726,308;27263,610;   -0,266;    0,318
726,879;27702,209;   -1,630;    1,227
727,450;27562,172;    0,552;   -0,045
728,021;27531,590;    3,097;    0,682
728,592;27292,462;    0,734;    0,500
729,163;27662,607;    0,643;   -0,136
729,734;27708,479;    0,188;   -0,227
730,305;28032,715;    1,734;    0,136
730,876;28343,678;    0,188;    2,955
731,447;28076,004;    2,188;    2,682
732,017;28195,422;    1,097;    1,864
732,588;27639,567;    0,734;    1,227
733,159;27865,802;    0,643;   -1,045
733,729;27657,584;    0,006;    0,409
734,300;26954,092;    0,915;    0,864
734,870;27331,964;    3,461;    0,591
735,441;27912,382;    0,370;   -0,591
736,011;27688,254;    0,643;   -1,591
736,582;27610,035;   -0,812;    0,045
737,152;27096,635;   -1,721;   -2,045
737,722;27540,598;   -0,267;   -0,682
738,293;27216,833;   -1,358;    1,318
738,863;27072,978;    2,461;    2,318
739,433;26905,032;    5,279;    0,318
740,003;27557,722;   -0,994;   -0,682
740,573;26995,595;    2,097;   -1,591
741,143;26896,830;   -1,085;    0,318
741,713;27706,248;    1,188;   -0,500
742,283;27406,756;    0,915;    1,591
742,853;27187,356;    1,915;    1,591
743,423;26586,682;    1,733;    0,045
743,993;26765,191;   -0,358;    1,500
744,563;26160,518;    0,097;   -0,864
745,133;26113,935;   -0,812;   -0,864
745,702;26804,898;   -0,267;    1,773
746,272;26026,407;   -0,176;    0,591
746,842;25771,824;   -1,358;   -0,591
747,411;26180,242;   -0,267;   -0,318
747,981;26356,205;    0,097;    0,500
748,551;26411,259;    2,278;   -1,045
749,120;26290,585;    0,642;   -0,227
749,690;26614,185;   -0,631;    2,409
750,259;26952,057;    1,369;    2,955
750,828;26897,838;    1,551;   -1,955
751,398;27163,801;    1,278;   -0,045
751,967;26722,219;    2,187;    0,409
752,536;26904,182;   -0,813;   -0,227
753,105;27302,690;    0,096;    0,227
753,675;27097,199;    0,096;    1,773
754,244;27014,798;   -0,904;    3,591
754,813;27038,398;    0,551;    1,227
755,382;26639,179;    0,460;    0,955
755,951;27271,960;    1,551;    3,682
756,520;26750,923;   -0,085;    1,864
757,089;27352,704;    0,278;    0,500
757,658;27513,395;    1,733;    1,227
758,227;27456,539;    1,096;    0,318
758,795;27732,775;    1,187;    1,136
759,364;27944,284;   -0,086;   -0,591
759,933;26964,519;   -1,176;   -0,045
760,501;26479,028;    0,733;   -1,318
761,070;26930,355;   -2,813;   -1,409
761,639;27628,136;   -1,904;    1,318
762,207;27018,553;    1,551;   -0,955
762,776;26948,880;    0,369;    0,864
763,344;26889,570;   -0,995;    0,591
763,913;25962,079;   -0,722;    1,409
764,481;26725,860;    1,005;   -0,136
765,049;26513,823;   -1,358;    1,409
765,618;26431,786;   -0,086;    0,318
766,186;26536,658;    0,278;    0,136
766,754;26674,894;    0,005;    1,864
767,322;25659,039;   -1,995;    0,409
767,890;25677,275;   -0,722;   -1,773
768,459;26068,692;   -2,177;   -0,318
769,027;26242,746;    1,641;    3,409
769,595;25212,073;    3,278;    2,591
770,163;25651,581;    3,823;    2,955
770,730;25402,999;    0,732;   -0,136
771,298;25204,325;    0,187;   -1,409
771,866;25321,925;   -1,541;    4,955
772,434;25689,161;   -0,631;   -1,864
773,002;25825,487;    0,005;    0,682
773,569;25505,814;    0,914;    1,682
774,137;25357,141;   -0,268;   -0,045
774,705;26048,831;    0,278;   -0,136
775,272;25576,794;    0,641;    0,682
775,840;25328,121;   -0,177;    2,682
776,407;24896,902;    0,277;    1,955
776,975;24494,410;   -0,632;    0,318
777,542;25472,919;   -1,086;   -0,045
778,110;25319,336;   -1,268;   -0,045
778,677;25003,845;   -2,359;   -0,864
779,244;24725,808;    2,186;    1,045
779,812;24884,953;    1,823;    0,864
780,379;24757,007;    0,005;    1,136
780,946;24987,151;    1,005;   -0,773
781,513;25297,114;   -1,450;    0,318
782,080;24643,441;   -0,086;    2,864
782,647;25421,041;   -0,268;    3,045
783,214;25022,913;   -0,177;    3,864
783,781;24689,057;   -0,723;   -0,682
784,348;24504,839;   -0,632;    1,500
784,915;24966,165;   -3,177;    0,318
785,482;24765,674;    1,368;    2,591
786,049;25169,001;    0,186;   -0,591
786,615;25250,054;    0,277;   -0,955
787,182;25007,108;    0,186;   -0,682
787,749;24646,981;   -2,814;    1,409
788,315;24011,762;   -1,632;   -0,409
788,882;24313,907;    1,550;   -1,227
789,448;25028,597;    1,732;   -0,955
790,015;25013,287;    1,095;    3,227
790,581;24556,159;    1,459;    0,227
791,148;24465,031;    0,641;    1,045
791,714;24659,449;   -0,541;    3,136
792,280;24340,594;    0,186;    1,591
792,847;23939,284;    0,550;    2,500
793,413;24484,520;   -0,269;   -0,318
793,979;24030,937;    3,459;   -1,318
794,545;24158,810;    4,459;    2,682
795,111;23571,773;    2,186;    1,318
795,678;23762,190;    0,731;   -1,682
796,244;23345,608;    3,368;    0,136
796,810;23924,662;    1,731;    0,773
797,375;23625,443;    0,549;   -2,136
797,941;23642,315;   -0,541;    0,591
798,507;23811,187;   -0,451;   -0,955
799,073;23344,514;   -0,360;    0,591
799,639;23367,931;   -2,632;    3,136
800,205;23381,167;    0,095;    2,682
800,770;22957,221;    0,640;    1,773
801,336;23094,184;    1,368;   -0,955
801,901;22780,602;    4,549;    3,136
802,467;23285,383;   -0,542;    2,045
803,033;22610,164;   -0,087;    0,864
803,598;22814,491;    1,913;   -1,045
804,163;22852,090;    1,095;   -0,318
804,729;22867,235;   -0,178;    1,136
805,294;23276,834;    0,822;    2,227
805,859;22976,343;    0,731;   -0,409
806,425;22532,760;    1,186;    2,682
806,990;22224,542;    2,186;    4,318
807,555;22701,596;   -1,451;    2,591
808,120;22577,468;    0,822;   -0,409
808,685;22628,340;    0,185;   -2,500
809,250;22108,667;    0,004;   -0,500
809,815;22425,448;    1,913;    0,682
810,380;22966,047;   -0,269;    1,591
810,945;23516,737;   -1,087;    2,045
811,510;22618,791;    2,094;    1,591
812,075;22364,209;   -0,633;   -1,409
812,640;22408,536;    2,003;    1,409
813,204;22482,953;    0,822;   -0,227
813,769;22950,371;    2,094;   -0,045
814,334;22392,061;    0,458;    0,864
814,898;22427,206;    0,367;    0,591
815,463;22245,442;    1,276;   -0,773
816,027;22262,768;   -0,724;   -2,318
816,592;22334,186;    0,640;   -2,045
817,156;21887,876;    2,094;    1,136
817,721;21765,385;    4,276;    2,318
818,285;21692,620;    2,912;    1,500
818,849;22289,402;   -1,451;    1,682
819,414;22173,728;   -0,269;    2,955
819,978;21798,964;   -1,269;    1,773
820,542;22373,382;    2,003;    0,500
821,106;22054,799;   -0,815;    0,682
821,670;22172,671;   -0,815;    2,591
822,234;21941,453;   -0,270;    1,409
822,798;21300,688;    0,003;    0,500
823,362;21258,197;   -0,633;    4,227
823,926;20582,251;    0,094;    1,136
824,490;20836,850;   -0,997;   -0,682
825,054;21289,268;   -0,088;   -1,136
825,618;20923,140;   -1,542;   -1,500
826,181;20850,921;    0,458;   -1,318
826,745;20750,611;    1,367;   -1,045
827,309;21095,393;    1,185;    1,318
827,872;20467,628;    1,367;    0,955
828,436;21405,500;    1,185;   -0,773
828,999;21482,736;   -0,997;    1,227
829,563;20302,790;   -0,179;    1,136
830,126;20128,844;   -0,179;   -0,591
830,690;20155,625;   -1,997;    2,864
831,253;19663,588;   -0,543;    2,227
831,816;19786,915;   -1,906;    0,500
832,380;19733,060;    0,185;    0,864
832,943;19950,114;   -1,361;   -0,500
833,506;19446,713;    2,639;   -1,227
834,069;20236,949;    3,912;   -0,955
834,632;20279,912;    1,730;    1,318
835,195;20173,148;    1,003;    0,955
835,758;19385,565;   -0,997;    1,955
836,321;19238,074;    0,730;   -1,045
836,884;19330,128;   -0,725;   -0,955
837,447;19338,000;   -2,816;    1,773
838,010;19639,236;    0,366;    3,227
838,573;19896,471;   -1,179;    0,773
839,135;19871,162;   -1,361;   -0,955
839,698;19337,670;    1,275;    0,409
840,261;18854,451;    1,003;   -0,227
840,823;18645,232;   -0,543;    0,864
841,386;18976,105;   -0,452;   -2,409
841,948;18896,704;   -1,361;    1,773
842,511;18602,394;    0,912;    1,682
843,073;18717,085;    1,912;    0,227
843,636;18561,502;   -0,361;   -0,227
844,198;18493,102;    0,911;    0,591
844,760;18626,246;    1,093;    1,955
845,322;18249,664;    0,548;    1,136
845,885;18671,263;    0,730;    0,591
846,447;19114,136;   -1,998;    0,227
847,009;18736,371;    1,911;   -0,682
847,571;19054,243;    0,820;   -2,045
848,133;19157,479;   -1,089;   -1,864
848,695;18927,351;   -0,543;    1,409
849,257;18497,314;   -1,089;   -1,682
849,819;18680,005;   -0,998;   -0,409
850,381;18692,604;   -0,725;   -0,864
850,942;19107,385;    1,093;   -0,591
851,504;19063,348;    1,184;    0,227
852,066;19047,220;    1,275;   -1,591
852,628;18616,547;   -0,180;    1,955
853,189;18154,874;    1,638;    2,682
853,751;18241,655;   -0,907;    1,409
854,312;18058,527;   -0,453;   -1,682
854,874;18542,217;   -2,089;   -0,773
855,435;19074,180;   -0,907;   -1,682
855,997;19257,143;   -1,816;   -0,136
856,558;18559,197;    0,366;    1,773
857,119;18692,524;    0,820;    2,864
857,681;18341,760;    0,002;    0,318
858,242;18397,723;    1,911;   -2,136
858,803;18834,777;    0,456;   -0,773
859,364;19399,740;    0,184;   -4,773
859,925;18713,975;   -2,453;   -0,955
860,486;18586,211;   -0,453;   -0,955
861,047;18305,538;   -0,544;   -1,227
861,608;18154,137;   -1,089;   -0,773
862,169;18271,373;    0,638;   -0,045
862,730;18031,700;    0,456;    1,409
863,291;18246,663;   -0,635;   -0,500
863,852;18641,353;   -0,635;    1,955
864,412;18100,043;   -0,271;   -0,864
864,973;16680,643;   -0,089;    0,500
865,534;16550,424;   -1,726;    0,227
866,094;18048,478;    1,820;    0,227
866,655;17731,532;    1,274;    3,318
867,215;17965,222;    0,274;    0,136
867,776;17843,458;    0,547;   -0,136
868,336;17938,148;   -1,453;    0,136
868,897;17436,202;    2,638;    1,682
869,457;17168,892;    1,365;    0,318
870,017;17379,674;    0,547;   -1,227
870,578;17921,637;   -0,817;    0,773
871,138;17610,963;   -2,089;   -0,955
871,698;17135,381;   -0,817;   -1,318
872,258;17026,798;   -0,453;   -2,864
872,818;17408,125;    2,729;    0,045
873,378;17357,815;    0,638;    1,045
873,938;16904,688;    0,547;    0,500
874,498;17223,469;    0,274;   -1,955
875,058;17127,250;    2,183;    1,773
875,618;16942,304;    1,910;   -2,682
876,177;16904,540;    1,274;    0,136
876,737;16499,685;   -0,090;    1,955
877,297;16544,193;    0,183;    1,955
877,856;16565,701;   -0,362;    0,318
878,416;16514,483;    1,183;   -0,136
878,976;16699,355;   -1,817;    0,409
879,535;16859,409;    0,092;    3,136
880,095;16602,917;   -0,544;    0,045
880,654;16728,153;   -1,090;    1,318
881,213;16839,752;    2,456;    1,500
881,773;16489,625;    2,637;    2,682
882,332;16879,951;    3,365;    5,136
882,891;16729,914;    3,092;    2,136
883,451;17207,786;   -1,272;    1,682
884,010;16577,386;   -2,908;   -0,409
884,569;16687,440;   -0,999;   -0,045
885,128;16839,403;    2,819;   -1,864
885,687;16942,820;    4,455;    0,682
886,246;16630,965;    1,455;    2,136
886,805;16378,837;    2,455;    2,045
887,364;16649,164;   -0,999;   -0,500
887,922;17028,672;   -1,181;    0,045
888,481;16562,908;   -1,545;    0,591
889,040;16867,144;    1,183;    2,136
889,599;17488,561;    2,455;    1,409
890,157;17555,524;    1,455;    2,409
890,716;17200,033;   -0,090;    0,227
891,274;17006,905;    0,092;   -1,136
891,833;17453,414;    1,546;    0,864
892,391;17372,558;   -0,454;    0,500
892,950;17442,794;    1,819;   -0,773
893,508;17791,666;    0,455;   -0,409
894,067;17097,629;    0,637;    0,136
894,625;17025,229;   -0,636;   -1,500
895,183;17302,646;   -0,363;   -0,682
895,741;17145,337;    1,728;   -1,773
896,299;17006,300;   -0,545;   -2,409
896,858;17179,444;    0,819;   -1,591
897,416;17295,589;    2,728;   -1,318
897,974;17022,098;    1,819;    0,318
898,532;17230,152;    6,091;    2,682
899,089;17140,478;    2,091;   -0,682
899,647;17137,260;   -1,454;    1,318
900,205;16859,404;    1,182;    1,045
900,763;17085,640;   -0,454;    0,227
901,321;17118,240;    2,364;   -1,409
901,878;16507,839;   -1,000;   -0,773
902,436;16367,166;   -1,363;    1,318
902,994;16794,038;    4,728;    3,682
903,551;16239,546;    0,728;    0,409
904,109;16604,873;    0,182;   -1,409
904,666;16180,927;    2,455;    1,045
905,224;16019,617;    0,182;   -0,409
905,781;15763,035;    0,727;   -0,318
906,338;15847,180;   -1,363;    1,045
906,895;15770,052;    0,637;    2,045
907,453;15708,287;    1,727;    1,136
908,010;15707,432;   -0,909;    0,409
908,567;15360,668;    1,273;    0,591
909,124;14884,631;    0,364;   -1,500
909,681;14927,321;   -2,909;    0,682
910,238;15059,103;    0,636;   -1,318
910,795;15384,157;   -0,273;   -1,136
911,352;15040,611;   -2,909;   -2,682
911,909;14462,611;   -1,364;   -0,864
912,466;14957,975;   -3,182;    1,500
913,022;14489,611;   -1,636;    0,500
913,579;14835,338;   -0,909;    2,045
914,136;14554,429;    1,636;    0,955
914,692;14887,066;    0,091;   -1,227
915,249;14488,338;    1,455;    0,409
915,806;14726,066;    0,182;    1,955
916,362;14466,247;    1,909;    1,864
916,918;14022,793;    2,000;    1,045
917,475;14040,793;   -1,182;    0,955
918,031;14094,793;    3,364;   -0,045
918,587;13537,702;   -0,909;   -0,318
919,144;13751,429;   -2,273;    0,227
919,700;14056,975;    1,727;    0,773
920,256;13624,884;    0,727;    0,045
920,812;13261,611;   -0,727;   -1,045
921,368;13236,066;   -1,727;   -1,045
921,924;12878,702;    0,182;   -0,136
922,480;12462,884;   -0,545;    1,227
923,036;13070,157;    1,273;    1,955
923,592;13002,247;    0,455;    0,318
924,148;12961,520;    0,455;   -0,955
924,704;12276,338;   -1,364;   -0,409
925,259;12504,975;   -0,273;    0,591
925,815;12291,793;    1,455;    0,500
926,371;11780,884;    2,909;    1,409
926,926;11670,247;    2,091;    0,591
927,482;11329,611;   -1,364;    0,773
928,037;11226,611;    0,909;    2,045
928,593;11521,247;    1,636;    1,045
929,148;11311,793;   -1,818;   -1,500
929,704;10844,611;   -1,455;   -0,500
930,259;11017,793;    0,091;   -0,136
930,814;10127,884;   -0,818;    1,955
931,369; 9809,520;    1,091;   -0,773
931,925; 9680,611;   -0,091;    0,136
932,480; 9598,338;   -2,818;   -2,591
933,035; 9475,429;    0,545;   -0,318
933,590; 9263,247;    0,364;   -1,773
934,145; 8856,884;   -1,364;   -0,318
934,700; 9216,520;    0,455;   -0,591
935,255; 9014,157;   -0,091;    0,045
935,809; 8343,247;    3,182;    0,864
936,364; 7452,611;   -0,455;   -0,136
936,919; 7419,793;    0,455;   -1,773
937,474; 7294,520;    1,455;    0,136
938,028; 7039,338;   -1,636;    1,136
938,583; 6543,702;    1,818;    4,682
939,138; 6789,338;    2,091;    2,136
939,692; 6229,611;    1,636;   -1,136
940,247; 5973,520;   -0,727;   -1,045
940,801; 5506,702;   -0,636;    0,227
941,355; 5390,884;   -0,364;    2,591
941,910; 5029,247;   -0,273;   -2,136
942,464; 5150,520;   -0,818;   -0,318
943,018; 4944,247;    1,000;   -0,227
943,572; 4883,157;    2,545;   -0,682
944,126; 4314,520;    0,091;   -0,409
944,681; 4232,338;    3,091;    0,227
945,235; 4219,611;    1,000;   -0,591
945,789; 4148,066;    0,364;   -1,864
946,342; 4262,611;    0,455;   -0,591
946,896; 4063,247;   -2,273;    0,955
947,450; 3807,793;    1,545;   -0,227
948,004; 4022,338;    1,727;   -0,045
948,558; 4008,520;    0,273;   -0,864
949,111; 3955,066;   -0,273;   -0,318
949,665; 3983,702;    1,636;   -0,682
950,219; 3850,611;   -0,091;   -1,045
950,772; 3922,429;   -1,909;    1,864
951,326; 3826,247;    0,545;   -0,955
951,879; 3918,157;    0,727;   -2,318
952,433; 3950,520;    0,000;    2,227
952,986; 3798,975;    2,909;    0,682
953,539; 3754,157;   -0,273;    0,591
954,093; 3669,884;    0,545;   -1,318
954,646; 3800,157;    0,909;    1,318
955,199; 3616,520;    0,000;   -0,500
955,752; 3505,157;   -0,455;    1,773
956,305; 3455,157;   -0,091;    2,955
956,858; 3649,702;    0,818;   -0,318
957,411; 3799,702;   -0,545;    2,136
957,964; 3652,247;    1,364;    2,136
958,517; 3625,884;   -1,545;    3,136
959,070; 3460,066;   -0,455;    1,955
959,623; 3533,338;    1,091;    1,500
960,176; 3319,066;    1,727;    2,045
960,728; 3295,157;   -2,727;    0,773
961,281; 3358,157;    0,545;    0,500
961,834; 3405,520;   -0,909;    0,864
962,386; 3300,793;    1,727;    1,045
962,939; 3225,520;    0,364;   -0,318
963,491; 3368,066;    0,455;    1,136
964,043; 3239,793;    1,182;    2,409
964,596; 3392,157;   -1,000;    2,227
965,148; 3213,975;   -1,000;    1,773
965,700; 3123,702;    1,091;   -0,227
966,253; 3276,066;   -0,636;    0,318
966,805; 3112,793;   -2,273;    0,773
967,357; 3156,975;    1,091;   -1,500
967,909; 3122,884;    0,455;   -1,227
968,461; 3216,247;    0,545;    3,136
969,013; 3166,429;   -0,182;   -0,864
969,565; 3241,247;   -0,455;   -1,136
970,117; 3299,247;   -0,364;    1,045
970,669; 3138,338;    0,182;   -0,136
971,220; 2991,611;   -0,455;   -1,500
971,772; 2931,157;   -0,636;   -0,318
972,324; 3039,247;    0,091;   -0,500
972,876; 2998,884;    0,818;   -0,045
973,427; 3147,429;    1,909;   -1,045
973,979; 3103,247;   -0,727;   -2,500
974,530; 3142,611;    1,818;    1,318
975,082; 3145,338;   -0,545;    1,682
975,633; 3031,611;    1,091;    1,682
976,184; 3187,611;    0,909;    0,773
976,736; 2980,157;    0,091;    0,227
977,287; 2781,975;   -0,909;   -0,500
977,838; 2953,793;    0,909;   -0,318
978,389; 3021,157;   -1,000;   -0,500
978,940; 2883,611;    0,545;   -0,409
979,491; 2909,247;    0,091;   -0,500
980,042; 2872,157;    0,182;    3,045
980,593; 2912,793;   -2,545;    0,227
981,144; 2957,157;    2,545;   -0,500
981,695; 2933,702;    1,455;    1,500
982,246; 2908,884;   -0,273;    1,045
982,797; 3065,702;   -1,727;    0,682
983,347; 3155,975;    0,364;    0,591
983,898; 3329,702;    3,091;    0,409
984,449; 3130,520;    2,182;    0,773
984,999; 3059,520;    1,455;   -1,136
985,550; 2824,884;    0,182;   -0,318
986,100; 2862,157;   -0,455;   -0,318
986,651; 2897,975;   -0,818;    0,045
987,201; 2880,066;   -1,000;   -0,591
987,751; 2963,066;    0,818;    2,864
988,302; 2954,702;    2,636;    1,500
988,852; 2966,975;    0,455;   -1,136
989,402; 3019,429;    0,091;    0,682
989,952; 2932,338;   -2,182;    0,864
990,502; 3021,975;   -0,091;    0,682
991,052; 2987,066;   -0,727;    0,045
991,602; 2868,066;   -2,909;    1,318
992,152; 2872,611;    0,455;    0,682
992,702; 2855,066;    1,364;   -0,045
993,252; 2770,975;   -3,000;   -0,500
993,802; 2873,884;   -0,273;    1,318
994,352; 3089,702;   -1,545;    1,136
994,901; 3165,520;   -0,182;    3,227
995,451; 3088,702;   -0,182;    0,318
996,000; 3166,247;    1,636;    0,318
996,550; 2889,884;    2,273;    0,227
997,100; 2878,702;    1,273;   -0,045
997,649; 3167,702;    2,182;    0,955
998,198; 2792,793;    1,727;   -1,500
998,748; 3006,702;    1,091;   -2,318
999,297; 2931,702;   -0,818;   -0,409
999,846; 2977,975;    1,000;   -0,773
1000,395; 3013,884;   -0,818;    0,500
1000,945; 2987,157;    1,818;   -0,773
1001,494; 3081,066;    2,364;    0,682
1002,043; 3055,793;    4,636;    0,864
1002,592; 2885,066;   -1,091;    1,955
1003,141; 3018,338;   -0,455;   -0,682
1003,690; 2900,157;    1,727;    0,500
1004,238; 2972,066;    1,455;   -0,045
1004,787; 2610,611;    1,364;    1,227
1005,336; 2853,157;    0,364;    0,682
1005,885; 2991,066;    1,364;   -2,773
1006,433; 3142,157;    0,545;    0,955
1006,982; 3189,520;    0,455;    1,682
1007,531; 3094,520;   -1,818;   -0,227
1008,079; 3034,157;   -2,273;    0,500
1008,627; 3170,157;   -1,455;    0,409
1009,176; 2904,247;    0,000;   -1,955
1009,724; 2957,793;    1,091;    0,864
1010,273; 3029,793;    1,273;    0,500
1010,821; 3135,066;    0,091;    1,409
1011,369; 2869,611;   -1,364;    1,318
1011,917; 2851,611;   -1,364;   -0,591
1012,465; 3128,702;    1,273;   -1,591
1013,013; 3229,793;    2,091;   -1,682
1013,561; 3102,429;    0,455;   -0,773
1014,109; 3159,884;   -1,909;    1,682
1014,657; 3029,702;    0,364;    0,591
1015,205; 3135,884;    1,636;   -0,955
1015,753; 3191,884;   -0,545;   -1,409
1016,301; 3234,975;   -2,636;    3,045
1016,848; 3228,338;   -1,273;    0,409
1017,396; 3277,429;    2,545;    0,045
1017,944; 3396,611;    1,182;    1,864
1018,491; 3142,793;    0,273;    1,409
1019,039; 3318,702;    0,455;    0,591
1019,586; 3221,338;   -1,364;    1,682
1020,134; 3309,429;    0,455;    1,500
1020,681; 3354,338;    0,182;   -1,136
1021,228; 3345,611;    2,909;   -2,227
1021,776; 3164,975;    1,182;   -1,136
1022,323; 3402,611;    0,455;    0,773
1022,870; 3317,611;   -1,000;   -0,045
1023,417; 3221,429;    2,636;    1,864
1023,964; 3346,066;    2,636;    1,227
1024,511; 3195,611;    1,000;    0,773
1025,058; 2993,884;    3,182;   -0,045
1025,605; 3055,793;   -2,273;    3,136
1026,152; 3300,520;    1,727;   -0,591
1026,699; 3015,975;    1,818;    1,318
1027,245; 3175,611;   -0,091;    0,318
1027,792; 3371,884;   -1,000;    1,409
1028,339; 3265,338;    2,364;   -0,045
1028,885; 3108,066;    1,000;   -0,227
1029,432; 3053,247;   -0,091;    0,227
1029,978; 3125,338;   -1,000;   -1,591
1030,525; 3035,611;    1,000;    0,409
1031,071; 3243,338;   -1,364;    1,136
1031,618; 3376,066;    0,364;    1,682
1032,164; 3147,066;   -0,091;    3,045
1032,710; 3189,429;    1,636;   -1,500
1033,256; 3090,611;   -0,636;   -0,136
1033,803; 3082,338;   -0,545;    1,500
1034,349; 2803,338;   -1,364;    0,136
1034,895; 2960,247;    0,000;   -0,318
1035,441; 2957,066;   -0,818;    0,318
1035,987; 2946,247;   -2,364;   -0,682
1036,533; 2947,975;   -1,455;   -0,955
1037,078; 3143,338;    1,455;    1,682
1037,624; 2951,884;    2,455;   -0,955
1038,170; 2982,702;    0,455;   -0,318
1038,716; 2888,520;    1,636;   -0,409
1039,261; 2822,066;   -2,273;   -0,773
1039,807; 2754,975;   -0,091;    3,409
1040,352; 2836,429;   -1,909;   -0,318
1040,898; 2855,429;   -1,545;   -0,682
1041,443; 2765,338;   -1,455;   -2,591
1041,989; 2793,520;    1,091;    1,591
1042,534; 2674,611;   -0,364;    2,591
1043,079; 2780,793;    2,909;    0,955
1043,625; 2575,429;    1,818;    0,500
1044,170; 2621,702;   -1,364;    1,045
1044,715; 2881,702;    2,455;    0,955
1045,260; 2692,884;    2,182;   -0,955
1045,805; 2736,975;    1,182;   -0,591
1046,350; 2665,702;    1,364;   -0,409
1046,895; 2628,429;    2,909;    1,591
1047,440; 2588,884;    5,364;    0,409
1047,985; 2463,793;    2,818;   -0,955
1048,530; 2384,247;    1,545;    1,227
1049,074; 2468,884;    0,000;    0,318
1049,619; 2443,611;   -1,364;    1,955
1050,164; 2242,884;    0,455;    0,227
1050,708; 2292,884;   -0,455;    0,045
1051,253; 2674,884;    1,273;   -2,227
1051,797; 2372,520;    0,818;   -1,318
1052,342; 2352,520;   -1,182;    1,045
1052,886; 2369,884;    0,364;   -1,409
1053,430; 2242,429;   -1,364;    0,136
1053,975; 2267,066;   -0,818;   -0,318
1054,519; 2242,247;   -0,727;    3,227
1055,063; 2281,793;    0,909;    1,318
1055,607; 2144,975;   -0,182;    0,227
1056,151; 2168,884;    2,909;    1,682
1056,695; 2091,702;    2,273;   -1,136
1057,239; 2164,702;   -1,727;   -0,682
1057,783; 2183,520;    0,818;   -1,500
1058,327; 2126,520;    0,000;    1,409
1058,871; 2345,702;   -0,545;    1,318
1059,415; 2064,793;   -0,818;   -0,045
1059,958; 2329,702;    1,455;    2,591
1060,502; 2053,975;   -1,000;   -0,773
1061,046; 1943,157;    0,364;   -0,955
1061,589; 1929,793;   -3,000;   -1,136
1062,133; 1813,793;   -1,273;    1,864
1062,676; 1755,611;    1,182;    0,864
1063,220; 1747,066;    1,091;    0,500
1063,763; 1780,429;    0,909;    1,136
1064,306; 1864,157;   -0,909;    1,864
1064,849; 1753,793;   -0,909;    0,591
1065,393; 1756,520;    2,000;   -1,500
1065,936; 1858,611;    0,182;   -0,409
1066,479; 1747,338;   -1,455;    1,318
1067,022; 1772,884;   -0,273;   -0,227
1067,565; 1666,611;   -0,091;   -1,318
1068,108; 1692,066;    0,727;   -0,591
1068,651; 1659,702;   -0,636;    1,409
1069,194; 1599,157;   -0,455;   -1,682
1069,736; 1607,066;   -1,273;    0,955
1070,279; 1565,975;   -1,364;   -0,500
1070,822; 1633,975;   -2,000;   -0,318
1071,364; 1731,611;   -0,364;    1,318
1071,907; 1535,157;   -0,727;    3,227
1072,450; 1421,793;    0,000;   -0,045
1072,992; 1439,157;   -0,273;    3,136
1073,535; 1592,157;    2,091;    2,136
1074,077; 1363,247;   -0,727;    2,045
1074,619; 1348,520;   -1,364;    0,591
1075,161; 1379,702;   -1,091;    1,500
1075,704; 1561,338;    1,545;    1,227
1076,246; 1342,520;   -0,182;    0,682
1076,788; 1288,975;   -0,364;    1,773
1077,330; 1343,157;    1,273;    2,136
1077,872; 1320,975;    0,909;    0,955
1078,414; 1557,066;    2,727;    0,773
1078,956; 1277,975;    1,273;   -0,227
1079,498; 1542,884;    1,636;    0,318
1080,040; 1250,702;    1,909;   -1,318
1080,581; 1195,702;    1,636;   -0,318
1081,123; 1109,429;    0,091;   -0,773
1081,665; 1163,611;   -1,182;   -0,955
1082,206; 1483,520;    1,364;   -0,500
1082,748; 1321,338;    0,727;    2,045
1083,289; 1192,066;   -2,000;    1,318
1083,831; 1093,702;   -0,545;    0,227
1084,372; 1147,247;    0,000;    0,591
1084,913; 1161,338;    1,091;    0,864
1085,455; 1116,520;   -1,909;   -2,045
1085,996; 1078,520;   -2,273;    0,136
1086,537; 1102,066;   -0,091;    0,864
1087,078; 1139,429;   -0,909;   -2,136
1087,619; 1189,338;   -1,273;    0,227
1088,160; 1088,247;    0,000;    1,318
1088,701; 1088,429;   -1,091;    0,682
1089,242; 1025,520;    1,364;   -2,227
1089,783; 1124,429;   -0,273;    1,409
1090,324; 1091,338;    0,455;    0,682
1090,865;  957,157;    2,727;   -0,409
1091,405;  911,793;    0,727;    2,227
1091,946;  946,611;    0,182;   -0,955
1092,487;  884,066;    0,818;   -1,409
1093,027; 1069,793;   -1,364;   -1,500
1093,568;  898,157;   -0,364;    1,227
1094,108; 1012,793;    0,273;    1,773
1094,649;  954,247;   -1,182;    0,136
1095,189;  870,338;   -0,636;   -0,682
1095,729;  837,975;   -0,091;    0,955
1096,269;  838,702;    0,727;   -0,955
1096,810; 1169,793;   -1,364;    0,500
1097,350;  986,975;    1,364;   -0,773
1097,890;  889,793;    0,364;    1,227
1098,430; 1154,338;    2,364;    2,864
1098,970; 1020,520;    2,182;    1,682
1099,510;  870,429;    0,545;   -2,318
1100,050;  786,793;    1,000;   -1,591
1100,589;  766,157;   -0,727;   -0,318
1101,129;  899,066;    0,818;   -0,955
1101,669; 1062,884;    1,727;    2,136
1102,209;  868,975;   -0,091;    2,227
1102,748;  819,338;    0,000;    0,955
1103,288;  813,793;    1,273;   -1,227
1103,827;  847,793;    3,091;   -2,227
1104,367;  720,975;   -0,091;   -2,409
1104,906;  684,429;    1,364;   -1,136
1105,445;  763,338;    0,636;   -1,136
1105,985;  705,429;   -0,727;    1,500
1106,524;  752,611;   -1,727;   -0,682
1107,063;  720,884;   -2,727;    1,409
1107,602;  696,702;   -1,909;   -1,500
1108,141;  608,793;   -1,909;    1,500
1108,680;  732,247;   -3,455;   -0,591
1109,219;  657,884;   -0,909;   -0,500
1109,758;  667,793;    0,455;    0,682
1110,297;  637,066;    1,000;   -0,682
1110,836;  583,702;   -0,727;    0,955
1111,375;  751,975;   -2,545;    0,409
1111,913;  766,157;   -1,000;    0,773
1112,452;  699,429;   -0,273;    0,136
1112,991;  564,884;    1,091;    1,955
1113,529;  528,429;   -0,818;   -0,045
1114,068;  606,066;   -0,273;    2,955
1114,606;  505,338;   -0,364;   -0,955
1115,144;  673,157;   -1,273;    1,045
1115,683;  602,611;   -0,727;    0,318
1116,221;  645,975;   -0,455;   -0,864
1116,759;  567,793;    0,636;   -0,864
1117,297;  767,429;    0,000;    1,864
1117,836;  562,429;   -2,182;   -1,227
1118,374;  577,247;    0,182;   -0,682
1118,912;  519,247;    0,909;    2,682
1119,450;  514,429;    1,000;    0,864
1119,988;  563,793;    1,545;    2,136
1120,525; 1019,702;    5,091;    3,318
1121,063;  708,884;    1,182;    1,864
1121,601;  520,884;   -0,909;   -1,227
1122,139;  474,066;   -0,727;   -2,045
1122,676;  683,066;   -0,727;    2,773
1123,214;  610,611;   -1,182;    4,409
1123,751;  421,975;    1,727;    2,227
1124,289;  554,066;   -0,091;   -0,409
1124,826;  413,793;    1,727;    0,227
1125,364;  338,611;    1,727;   -0,955
1125,901;  536,975;    1,182;    1,227
1126,438;  660,247;    0,818;    0,955
1126,975;  371,157;   -0,727;   -0,773
1127,513;  443,793;    0,273;    2,136
1128,050;  341,520;    1,636;   -0,682
1128,587;  453,429;    2,000;   -0,227
1129,124;  498,793;    0,091;    1,318
1129,661;  353,157;    0,273;    0,227
1130,198;  528,884;    1,636;    0,773
1130,734;  475,066;    0,182;    1,409
1131,271;  329,702;   -0,909;    0,864
1131,808;  513,429;    2,909;    3,045
1132,345;  379,338;    1,545;    0,318
1132,881;  249,338;   -1,545;   -1,864
1133,418;  396,975;    0,727;   -1,136
1133,954;  316,338;    2,455;   -2,682
1134,491;  407,157;    1,364;   -0,773
1135,027;  296,338;    2,364;    0,864
1135,564;  389,975;    0,273;    2,955
1136,100;  369,066;    0,364;    2,136
1136,636;  259,066;   -1,273;   -1,045
1137,172;  363,702;    0,000;   -1,045
1137,708;  284,793;   -1,364;   -1,045
1138,245;  286,247;    1,273;   -1,227
1138,781;  226,429;    1,091;   -3,318
1139,317;  308,066;    1,273;   -1,409
1139,852;  288,520;    3,091;    0,136
1140,388;  409,247;   -1,182;   -0,409
1140,924;  290,611;   -1,091;   -2,227
1141,460;  225,247;   -1,636;    0,136
1141,996;  159,066;   -1,364;    2,682
1142,531;  214,066;    1,364;    3,318
1143,067;  428,520;    1,182;    1,045
1143,602;  488,702;   -0,091;   -0,318
1144,138;  333,520;   -2,636;    1,045
1144,673;  196,975;   -1,455;    1,409
1145,209;  264,066;   -1,909;   -0,318
1145,744;  183,702;   -0,727;    0,864
1146,279;  336,247;    1,818;   -0,136
1146,815;  246,520;    1,545;   -2,682
1147,350;  279,611;   -1,364;    0,045
1147,885;  188,884;   -0,818;   -1,318
1148,420;  185,793;   -2,273;    0,773
1148,955;  167,338;   -1,727;    1,864
1149,490;  189,429;   -0,909;   -1,591
1150,025;  172,884;    0,455;   -1,773
1150,560;  288,884;    1,091;   -0,955
1151,094;  262,066;    1,455;   -0,591
1151,629;  264,611;    1,636;    0,864
1152,164;  198,066;    1,364;    1,318
1152,698;  149,157;   -0,182;   -0,136
1153,233;  100,429;    0,091;   -0,682
1153,767;  157,611;   -3,000;   -2,318
1154,302;  204,611;   -1,455;    1,773
1154,836;  210,793;   -0,455;   -2,136
1155,371;  259,157;   -1,364;    3,682
1155,905;  213,520;   -0,636;    1,682
1156,439;  171,702;   -0,636;   -0,500
1156,973;  206,429;    0,364;    0,318
1157,507;  141,338;   -0,364;    0,682
1158,042;  176,611;   -0,727;    1,045
1158,576;  230,066;    0,182;    1,773
1159,110;  211,520;   -0,818;    2,409
1159,643;  176,702;    0,636;   -0,045
1160,177;  109,611;   -1,545;    1,500

