
Integration time [ms]:   0,040
Averaging Nr. [scans]: 11
Smoothing Nr. [pixels]: 0
Data measured with spectrometer [name]: 7318044SP
Wave   ;Sample   ;Dark     ;Reference
[nm]   ;[counts] ;[counts] ;[counts] 

186,757;   26,247;   31,551;    1,318
187,357;   67,184;   22,551;    0,955
187,958;   38,621;   15,460;   -1,591
188,558;   81,058;    8,915;   -1,227
189,159;   53,649;    6,733;   -4,500
189,759;   25,068;    7,278;   -3,591
190,360;   24,159;    2,824;   -2,136
190,960;   66,456;    2,915;   -4,136
191,560;   85,236;    3,189;   -6,591
192,161;  346,918;    4,372;   -3,500
192,761;  178,337;    4,010;   -3,227
193,361;  110,939;    1,556;   -3,773
193,962;  169,173;    2,010;   -2,682
194,562;   93,372;    1,189;   -3,955
195,162;  129,998;   -2,448;   -2,227
195,762;  306,691;   -3,176;   -0,045
196,362;  237,460;    1,370;   -2,500
196,963;   87,005;    2,006;   -0,864
197,563;  176,879;    1,551;   -0,955
198,163;  111,215;    0,096;   -0,682
198,763;  141,278;    1,733;   -0,500
199,363;  258,802;    3,096;   -0,500
199,963;  208,823;    0,369;    0,409
200,563;  184,628;    2,823;   -1,409
201,163;  157,261;    3,277;   -0,227
201,763;  260,334;    3,732;    0,318
202,363;  201,425;    1,459;    1,500
202,963;  311,180;    1,459;    1,045
203,563;  433,900;    0,277;    0,500
204,162;  264,369;    2,096;   -1,864
204,762;  252,701;    0,550;    0,591
205,362;  206,883;    3,004;    1,955
205,962;  319,257;    3,096;    1,955
206,562;  321,974;    1,823;    2,318
207,161;  286,435;   -0,087;    0,318
207,761;  464,460;    1,277;    2,409
208,361;  322,285;   -0,268;    1,409
208,960;  435,747;    0,459;    1,500
209,560;  509,621;    1,277;    1,591
210,160;  484,208;    0,550;    1,864
210,759;  440,568;    4,186;    1,227
211,359;  449,855;    1,459;    1,045
211,958;  719,764;    1,277;    2,045
212,558;  819,652;    1,732;    1,864
213,157;  651,879;    1,822;    1,500
213,757; 1102,058;    3,822;   -0,227
214,356;  799,942;    1,277;   -0,409
214,956; 1149,537;    3,095;    0,409
215,555;  751,348;    2,095;    2,136
216,154;  690,379;   -2,723;   -0,591
216,754;  703,191;    0,277;    0,773
217,353;  846,722;   -0,268;   -1,045
217,952;  706,208;   -0,178;    0,318
218,552;  942,484;    1,368;   -0,773
219,151;  827,740;    0,277;    0,955
219,750;  823,142;    0,004;   -0,227
220,349;  976,288;   -0,451;    1,045
220,948; 1040,156;   -1,360;    1,136
221,548; 1077,281;    0,913;    1,227
222,147; 1200,841;   -0,087;   -0,409
222,746; 1495,600;   -0,451;   -0,955
223,345; 1380,072;    0,731;    0,500
223,944; 1387,610;   -0,451;    0,773
224,543; 1558,656;    1,004;   -1,409
225,142; 1690,837;    0,094;    0,136
225,741; 1599,330;   -0,814;    1,045
226,340; 1624,016;   -0,451;   -0,955
226,939; 2102,743;   -0,996;   -0,136
227,538; 2090,897;   -0,360;   -0,773
228,137; 2233,684;   -0,814;    0,864
228,735; 2427,135;   -0,541;    1,227
229,334; 2161,309;   -0,905;   -0,227
229,933; 2538,743;    0,459;    0,591
230,532; 2663,701;    1,186;   -0,409
231,131; 2711,886;    1,732;    0,318
231,729; 2894,998;   -2,450;   -2,318
232,328; 3058,865;   -0,723;   -1,500
232,927; 3140,470;    1,004;   -0,500
233,525; 3270,649;    3,640;    0,045
234,124; 3493,761;    2,368;   -1,591
234,723; 3517,698;    0,913;   -1,045
235,321; 3698,268;    2,277;    0,136
235,920; 3958,729;    1,186;   -1,227
236,518; 4225,481;    3,459;    0,318
237,117; 4422,799;    0,004;   -0,227
237,715; 4610,372;    0,640;   -0,500
238,314; 4617,439;   -0,087;   -2,318
238,912; 4715,288;   -0,723;   -1,409
239,510; 4784,093;    0,459;   -1,227
240,109; 4961,928;    0,004;    3,773
240,707; 5012,460;   -0,996;    1,227
241,305; 5432,879;    0,550;    0,136
241,904; 5645,061;   -0,178;   -2,045
242,502; 5576,890;   -0,632;   -0,227
243,100; 5542,002;   -0,087;   -0,955
243,698; 5790,302;    0,732;    1,682
244,297; 5963,222;   -0,632;    0,682
244,895; 5768,442;   -0,269;   -2,318
245,493; 6135,900;    2,186;   -0,591
246,091; 6206,400;    1,368;   -1,318
246,689; 6207,033;    1,004;    0,591
247,287; 6368,271;    0,822;   -1,136
247,885; 6644,432;   -1,451;    1,227
248,483; 6751,054;    1,822;   -0,500
249,081; 6898,376;    0,185;    1,591
249,679; 7032,666;   -0,178;    1,682
250,277; 7311,953;   -1,723;    0,864
250,875; 7310,733;   -1,087;   -1,045
251,473; 7313,107;   -1,178;    0,500
252,071; 7511,327;    1,459;    1,045
252,669; 7666,701;   -1,814;    0,318
253,267; 7948,365;   -0,087;    0,773
253,864; 7928,816;   -0,360;    0,682
254,462; 7783,330;    1,640;    1,591
255,060; 7736,222;   -0,269;    1,318
255,658; 8099,519;    0,822;   -0,136
256,255; 8521,449;    0,186;   -2,045
256,853; 8355,886;   -0,269;    1,409
257,451; 8373,257;    0,822;    1,864
258,048; 8664,512;    1,822;    1,864
258,646; 8396,691;    1,731;   -1,045
259,243; 8593,068;   -0,087;    2,227
259,841; 8658,128;   -0,814;    0,318
260,438; 8514,495;   -0,087;    0,864
261,036; 9257,439;   -1,905;    1,409
261,633; 9111,890;   -0,087;    2,227
262,231; 8860,086;    2,731;   -0,045
262,828; 8955,142;   -0,905;    1,136
263,425; 9036,505;    0,913;   -0,591
264,023; 9341,495;    0,186;    0,045
264,620; 8887,229;   -0,360;   -0,318
265,217; 9236,614;   -2,087;    3,136
265,815; 9311,733;   -1,905;    2,136
266,412; 9089,621;    0,731;    0,136
267,009; 9145,799;   -1,451;    0,773
267,606; 9030,872;    0,822;   -0,955
268,203; 9002,030;   -0,269;   -0,591
268,801; 9303,729;    1,731;    0,591
269,398; 9603,837;   -0,360;    2,500
269,995; 9554,414;    0,277;    1,591
270,592; 9347,341;   -0,632;   -0,500
271,189; 9568,687;    0,186;    0,409
271,786; 9684,086;   -0,632;    1,227
272,383; 9522,991;   -1,087;    0,227
272,980; 9711,775;    0,277;    0,318
273,577;10145,935;    0,004;    1,227
274,174; 9717,435;    0,822;    2,591
274,771; 9726,610;   -0,814;   -0,773
275,367; 9897,750;    2,277;    1,409
275,964; 9855,582;    0,731;   -0,500
276,561; 9937,621;    1,549;   -1,045
277,158;10194,212;    0,095;   -1,773
277,755;10276,649;    2,185;    0,409
278,351; 9643,869;   -0,451;   -1,500
278,948; 9985,705;   -0,815;    0,045
279,545; 9978,058;   -1,360;    2,318
280,141;10631,425;   -1,723;   -2,045
280,738;10547,240;   -0,451;   -0,136
281,334;10767,656;   -1,633;    0,591
281,931;10155,194;   -0,087;   -1,318
282,528;10220,117;    0,822;   -0,500
283,124;10925,785;   -1,087;   -0,500
283,721;10825,089;   -0,451;    1,409
284,317;10649,079;    0,185;    2,500
284,913;11205,974;   -1,360;    0,591
285,510;11362,156;    0,640;   -0,318
286,106;11462,261;   -2,269;   -0,955
286,703;11056,572;   -0,360;    1,955
287,299;11236,855;   -1,451;   -0,591
287,895;11461,806;    0,822;   -1,045
288,491;12041,292;    0,186;    2,136
289,088;11777,656;   -2,360;    2,409
289,684;11877,247;   -1,723;    1,500
290,280;11827,051;    0,368;    0,682
290,876;11916,649;    1,822;    5,500
291,472;11765,516;    1,276;    2,227
292,068;11908,995;    1,367;    0,227
292,665;11600,400;    2,095;    0,773
293,261;11201,421;    0,276;    2,136
293,857;11606,680;    2,913;    2,136
294,453;11512,194;    3,550;    0,955
295,049;11406,701;   -0,268;    1,955
295,644;11429,404;    0,095;    0,136
296,240;11329,131;   -0,905;   -0,136
296,836;11396,327;   -0,995;    0,318
297,432;11657,932;    1,096;   -0,500
298,028;11696,358;    0,732;    0,773
298,624;12121,428;    1,459;    1,864
299,220;12378,184;    2,368;    0,591
299,815;12042,925;    1,005;   -0,409
300,411;11831,337;    0,914;    1,773
301,007;11825,257;    1,368;    0,227
301,602;11881,121;   -0,541;   -2,318
302,198;12045,768;    0,732;   -0,773
302,794;12405,142;    1,187;   -0,500
303,389;12508,788;   -1,177;    1,045
303,985;12580,768;    0,550;    1,409
304,580;12581,411;    1,459;    1,591
305,176;12508,761;   -3,086;    0,136
305,771;12405,278;   -1,268;   -1,227
306,367;12310,998;    4,095;    0,136
306,962;12643,484;    0,641;    1,500
307,558;12352,149;   -0,450;    0,136
308,153;12302,673;    1,095;   -1,136
308,748;12524,893;   -0,814;    1,682
309,344;12516,030;   -0,632;   -1,318
309,939;12591,393;   -1,905;   -1,318
310,534;12835,075;   -0,086;   -1,682
311,130;12760,869;    0,459;   -2,500
311,725;12492,897;    1,004;   -0,500
312,320;12835,278;    2,459;    0,045
312,915;12692,624;    1,459;   -1,045
313,510;12788,205;    1,550;   -0,500
314,105;13243,726;    1,096;    1,409
314,700;12616,844;   -3,086;   -1,045
315,295;12283,956;   -0,904;    0,045
315,890;11843,477;    1,277;    0,864
316,485;12223,904;   -0,359;   -0,318
317,080;12338,946;   -3,086;    1,591
317,675;12935,827;    2,005;   -0,682
318,270;12352,058;    5,550;    3,318
318,865;12307,872;    3,278;    3,045
319,460;12135,907;   -0,904;    0,591
320,055;12388,355;   -0,541;   -1,227
320,650;12026,761;   -1,995;   -0,591
321,244;12057,191;   -0,177;   -1,409
321,839;13026,673;   -1,541;   -0,227
322,434;12918,551;   -1,086;   -1,591
323,029;12533,107;    1,732;    1,591
323,623;12327,257;    1,550;    0,773
324,218;12128,264;    2,368;    1,409
324,812;12020,963;    1,096;    1,591
325,407;11824,180;   -0,814;    2,045
326,002;11714,883;    0,277;   -0,409
326,596;12039,652;    0,914;    1,318
327,191;12233,411;    0,823;   -1,045
327,785;11801,379;   -0,813;   -0,227
328,379;12004,351;    1,368;    0,136
328,974;11816,656;    0,914;   -3,955
329,568;12038,544;    0,186;   -2,409
330,163;11835,600;    2,096;    1,045
330,757;12184,974;    2,459;    1,591
331,351;11486,694;    0,459;    0,682
331,945;11811,047;    0,914;    1,409
332,540;11418,152;   -1,723;   -0,591
333,134;11576,768;   -1,086;    0,773
333,728;11819,484;    0,005;    0,318
334,322;12129,285;   -1,177;   -0,864
334,916;11401,320;    0,277;    0,955
335,510;11744,628;   -0,450;   -0,136
336,105;12007,411;   -1,086;    1,591
336,699;11691,072;   -1,086;    0,591
337,293;11622,009;   -1,723;    0,318
337,887;11798,946;   -2,723;    1,955
338,481;11885,816;    0,459;    0,591
339,074;12015,407;   -0,359;    2,682
339,668;11874,813;   -1,632;    1,227
340,262;12135,893;    1,732;    3,227
340,856;11634,778;    1,822;   -0,682
341,450;10948,505;    1,004;    1,864
342,044;11847,282;    1,459;    0,136
342,637;11640,019;    0,913;   -2,136
343,231;11499,320;   -2,360;    0,682
343,825;11457,068;   -1,086;   -0,591
344,419;11396,159;   -1,995;    0,500
345,012;11180,886;    2,459;    4,045
345,606;11209,470;    4,641;    1,591
346,199;11038,820;   -1,813;   -0,227
346,793;10539,680;    1,914;    2,045
347,386;10740,292;   -0,813;   -1,136
347,980;10751,306;   -0,268;   -0,045
348,573;10549,855;    2,278;    0,409
349,167;10225,124;    5,278;    4,773
349,760;10603,890;    2,914;    2,682
350,354;10557,757;   -0,813;    1,136
350,947;10288,589;    1,096;    1,682
351,540; 9926,614;   -0,358;   -1,409
352,134; 9877,649;    1,096;    1,136
352,727; 9946,743;   -0,086;    1,136
353,320; 9738,334;    0,005;    0,591
353,913; 9586,295;   -1,995;    1,864
354,507; 9796,131;    0,823;   -1,227
355,100; 9772,383;    0,460;    0,864
355,693; 9029,163;    2,005;    2,409
356,286; 9055,100;    0,823;    2,773
356,879; 9405,715;   -0,722;    1,227
357,472; 9000,575;   -0,904;    1,500
358,065; 9214,851;   -0,722;    2,500
358,658; 9127,621;   -0,540;    2,318
359,251; 8780,719;   -1,631;   -0,591
359,844; 8250,477;   -1,904;   -1,136
360,437; 8449,813;   -2,995;    0,045
361,030; 8721,687;    1,369;   -0,682
361,623; 8314,261;    2,824;    0,318
362,215; 8331,327;   -0,086;    2,045
362,808; 8155,348;   -2,358;   -1,682
363,401; 8367,656;   -2,449;    0,136
363,994; 8120,229;   -0,631;   -1,500
364,586; 8024,159;    0,824;   -1,500
365,179; 8257,491;   -0,449;   -1,136
365,772; 7736,425;   -1,995;    2,045
366,364; 8021,285;    1,915;   -3,227
366,957; 8232,215;    2,279;   -0,045
367,549; 8244,023;    2,188;   -0,864
368,142; 7908,935;    1,825;   -1,500
368,734; 8104,428;    0,734;   -2,136
369,327; 8033,726;    1,643;   -0,500
369,919; 7955,124;   -1,538;    0,409
370,512; 7745,715;   -1,083;   -0,500
371,104; 7513,292;   -0,901;    1,591
371,696; 7692,603;    1,191;   -0,955
372,289; 7791,533;    0,373;    1,136
372,881; 7951,289;   -2,080;    1,318
373,473; 7850,691;   -2,170;    1,136
374,066; 7664,082;   -0,169;    0,500
374,658; 7523,285;    0,378;    1,136
375,250; 7864,072;    0,653;   -1,409
375,842; 7709,848;    0,473;   -0,045
376,434; 7589,866;   -0,435;   -0,409
377,026; 8173,299;    0,204;   -2,500
377,618; 8051,257;   -0,158;   -0,682
378,210; 7893,862;   -0,338;   -1,955
378,802; 7764,093;    0,754;   -0,591
379,394; 7747,303;    1,846;    0,682
379,986; 8341,929;    1,393;   -0,955
380,578; 8433,708;   -0,153;    0,773
381,170; 7756,624;   -0,972;    0,045
381,762; 7706,348;    0,755;    1,409
382,354; 7892,530;   -0,065;   -1,318
382,945; 8024,481;   -2,976;    0,318
383,537; 8159,380;   -2,705;   -1,955
384,129; 8182,219;   -2,160;   -1,136
384,721; 8365,477;   -0,252;    0,955
385,312; 8289,463;   -0,161;   -0,955
385,904; 8391,327;   -2,706;    1,591
386,496; 7750,754;   -0,979;    1,045
387,087; 7903,540;    1,022;    2,500
387,679; 7968,439;   -1,160;    0,045
388,270; 8075,995;    2,840;    2,045
388,862; 8213,719;    1,295;   -0,318
389,453; 8106,411;   -0,887;    1,045
390,045; 8380,470;   -0,705;   -2,682
390,636; 8302,072;    0,204;   -0,591
391,227; 8166,191;   -0,523;   -0,045
391,819; 8259,887;    0,204;    0,773
392,410; 8355,939;    1,022;    0,045
393,001; 8261,673;   -0,979;   -1,591
393,593; 8552,757;    1,930;   -0,045
394,184; 8419,589;    1,385;   -0,409
394,775; 8346,533;    1,839;    2,136
395,366; 8544,922;    1,385;    0,773
395,957; 8555,523;    0,113;    0,136
396,548; 8870,614;   -0,342;    2,682
397,139; 9173,110;   -2,433;    0,591
397,730; 8898,701;   -1,888;    0,955
398,321; 8926,876;   -1,252;    0,955
398,912; 8948,299;   -0,615;    0,136
399,503; 9028,233;   -3,524;   -1,409
400,094; 8448,502;    0,294;    1,682
400,685; 8317,530;   -0,433;    0,045
401,276; 8406,411;    0,930;   -0,955
401,867; 8757,023;   -0,888;    0,773
402,458; 8829,645;   -2,251;   -2,318
403,048; 8796,320;    1,112;    0,591
403,639; 8400,212;    0,840;    0,864
404,230; 8640,540;    2,476;    0,318
404,821; 8585,233;   -0,615;    0,045
405,411; 8716,054;    1,203;   -2,591
406,002; 8320,722;   -1,252;   -1,136
406,592; 8194,901;    2,294;    0,045
407,183; 8492,411;    0,566;   -1,500
407,774; 8406,970;    3,475;   -0,136
408,364; 8715,908;    0,930;    0,409
408,954; 8318,460;    0,384;    1,227
409,545; 8377,904;    1,021;    1,045
410,135; 7917,547;    1,293;    0,500
410,726; 8100,117;    1,838;    0,318
411,316; 8485,596;    0,111;    0,773
411,906; 8104,796;   -0,253;   -0,409
412,497; 7616,061;   -1,070;   -0,045
413,087; 8205,495;   -1,980;   -0,227
413,677; 8617,058;   -0,707;    3,864
414,267; 8484,376;    0,656;    1,409
414,857; 8454,579;   -2,980;    4,227
415,448; 8778,544;    0,839;    0,500
416,038; 8464,229;    0,020;   -0,591
416,628; 8421,138;   -0,889;    0,409
417,218; 7873,156;    0,565;    3,318
417,808; 8144,540;    0,202;   -0,409
418,398; 8611,212;    0,020;    2,682
418,988; 8648,198;    2,020;    0,591
419,578; 8916,775;   -0,707;    1,409
420,168; 9255,621;   -1,343;   -0,955
420,757; 8847,757;   -1,343;   -1,500
421,347; 8505,456;    0,111;   -0,227
421,937; 8669,477;    2,292;    1,409
422,527; 8645,705;    0,838;   -0,773
423,116; 8494,331;   -0,253;   -0,045
423,706; 8793,163;   -1,889;    0,318
424,296; 8778,883;    1,384;    0,682
424,885; 9197,428;   -0,071;   -3,045
425,475; 9492,208;    1,474;   -2,864
426,065; 9397,778;   -0,980;   -0,318
426,654; 9017,803;   -0,435;   -0,318
427,244; 9165,163;    0,020;    1,409
427,833; 8609,138;    1,383;   -0,500
428,423; 9096,733;   -0,526;    1,136
429,012; 9869,554;   -0,344;   -1,136
429,601; 9336,453;   -1,344;    0,136
430,191; 9586,394;    1,292;    4,318
430,780; 9243,526;   -0,344;   -0,409
431,369; 9174,729;    0,746;   -0,045
431,959; 9753,324;   -1,254;    0,500
432,548; 9545,093;   -1,163;   -0,045
433,137; 9685,226;   -1,254;   -1,318
433,726;10238,921;    0,292;    0,500
434,315; 9542,376;   -0,526;    2,409
434,905; 9665,456;   -1,254;    1,409
435,494; 9530,600;    0,746;    0,955
436,083;10022,180;   -0,981;   -0,955
436,672; 9916,313;    0,110;    0,500
437,261; 9467,268;    0,292;   -1,955
437,850; 9614,110;    1,383;    0,682
438,439; 9616,572;    3,291;    1,955
439,027; 9448,236;    3,655;    1,773
439,616; 9774,338;    2,927;    1,227
440,205; 9644,694;    0,200;   -2,136
440,794; 9728,628;    2,109;   -0,045
441,383;10015,502;   -1,346;   -0,591
441,971; 9859,942;   -2,436;    0,591
442,560; 9694,967;    0,563;   -1,773
443,149; 9440,621;    0,379;   -1,318
443,737; 9616,719;   -0,074;   -2,318
444,326; 9912,614;    0,018;    0,318
444,915; 9933,446;   -1,982;    0,864
445,503;10381,044;   -2,891;   -0,318
446,092; 9605,526;    0,382;    2,136
446,680;10136,488;    0,382;    0,318
447,269;10328,124;   -0,346;   -0,318
447,857;10091,012;    0,018;   -1,773
448,445;10177,523;    0,563;    1,318
449,034;10425,079;   -1,528;   -1,136
449,622;10575,900;   -1,073;    3,500
450,210; 9773,051;    2,017;    2,227
450,799;10337,439;    0,290;   -0,591
451,387;10285,771;    1,381;   -0,591
451,975; 9912,551;    2,654;    0,864
452,563; 9994,911;    3,472;    2,318
453,151;10057,740;   -0,528;   -1,227
453,739;10027,852;   -1,347;    0,136
454,328; 9847,866;    2,381;   -2,136
454,916; 9540,044;    2,562;   -0,136
455,504; 9752,841;    1,017;    1,227
456,092; 9866,918;    0,017;   -1,591
456,679; 9903,988;    1,472;    0,682
457,267; 9842,240;    4,017;    1,045
457,855; 9999,886;    1,017;    1,409
458,443; 9756,607;   -0,165;    1,682
459,031; 9904,373;    0,108;    2,409
459,619;10392,659;   -1,801;    2,864
460,206;10481,631;    0,835;    2,045
460,794;10559,984;   -2,983;   -0,227
461,382;10824,575;   -0,529;   -0,864
461,970;10417,785;    1,198;    1,864
462,557;10407,628;   -0,711;   -0,682
463,145;10595,103;   -3,165;   -1,682
463,732;10742,397;    2,016;   -1,045
464,320;10723,967;   -0,075;   -3,045
464,907;10377,540;    2,743;   -0,773
465,495;10233,858;    0,743;   -1,227
466,082;10395,079;   -1,984;   -0,045
466,670;10341,002;   -2,529;    1,227
467,257;10742,855;   -1,711;    2,045
467,844;10877,463;   -0,075;    0,045
468,432;10917,509;    0,834;    3,500
469,019;10380,030;    0,925;   -1,773
469,606;10900,215;    0,470;    3,682
470,193;10738,219;   -1,439;    0,227
470,780;10285,177;   -2,075;    0,864
471,368;10620,089;   -1,257;   -0,773
471,955;10414,421;    1,379;   -0,682
472,542;10071,817;    0,652;   -1,136
473,129;10306,229;   -0,166;    0,136
473,716; 9994,537;    1,470;    0,591
474,303;10235,544;    0,652;   -0,864
474,890;10557,558;   -1,439;   -0,500
475,477;10559,208;   -1,621;    0,409
476,064;10464,400;    1,106;   -1,591
476,650;10442,946;    0,288;    0,318
477,237;10241,764;   -0,258;    0,955
477,824;10408,635;   -1,076;    0,864
478,411;10424,712;   -1,894;   -0,318
478,997;10657,883;    0,560;   -0,773
479,584;10708,684;    1,196;   -0,409
480,171;11409,551;   -0,440;   -0,773
480,757;11056,131;    2,651;    0,773
481,344;11363,254;    0,469;    0,409
481,931;10889,414;    1,105;    1,045
482,517;11956,568;   -1,258;    0,318
483,104;12593,834;    1,106;    2,864
483,690;12901,299;   -1,804;    0,045
484,276;13271,498;   -0,895;    0,227
484,863;12977,453;    2,469;    1,136
485,449;13564,561;   -0,077;    0,318
486,035;13547,516;   -1,986;   -0,136
486,622;13991,533;   -0,895;    0,045
487,208;13933,187;    1,378;    1,500
487,794;13760,103;    0,741;    0,318
488,380;13829,222;    0,105;   -1,409
488,967;13925,631;   -1,168;   -0,409
489,553;13983,698;   -1,895;   -1,409
490,139;14142,219;    1,559;    0,773
490,725;13525,054;    0,741;   -0,227
491,311;13029,733;    3,287;    3,045
491,897;12374,925;   -0,986;    1,500
492,483;12185,984;    0,105;    1,227
493,069;12011,453;    3,923;    0,864
493,655;12021,369;    1,650;    0,682
494,241;11928,956;    1,377;   -0,955
494,826;12351,240;    0,287;   -1,045
495,412;11784,180;    2,559;   -0,682
495,998;11898,904;   -0,805;   -0,318
496,584;12066,072;    0,377;    1,045
497,169;12066,715;    1,014;   -0,682
497,755;12044,355;    0,650;    1,227
498,341;12604,712;    0,559;    0,318
498,926;12177,191;    1,832;    1,955
499,512;12363,226;    1,286;    2,955
500,097;12497,652;    0,195;   -0,318
500,683;12443,701;   -0,350;    2,136
501,268;12785,831;   -0,169;   -0,955
501,854;12484,205;   -0,169;    1,227
502,439;12459,757;   -0,624;   -1,773
503,024;12675,383;    0,195;    0,500
503,610;12720,768;   -0,078;   -0,682
504,195;12741,747;    0,558;    1,955
504,780;12819,208;    2,922;    1,227
505,366;12678,824;    3,013;    2,864
505,951;12414,722;    0,740;    1,045
506,536;12407,914;   -3,260;   -3,682
507,121;12415,086;    0,285;   -0,318
507,706;12933,460;    2,376;    1,045
508,291;13308,544;    2,649;    1,136
508,876;12760,677;   -0,988;    2,591
509,461;12234,421;   -0,169;   -0,773
510,046;12659,530;    0,194;    0,318
510,631;12909,198;   -0,351;   -0,773
511,216;12556,670;    2,467;   -0,500
511,801;12920,257;   -0,442;    2,591
512,386;13239,194;    0,740;    0,500
512,971;13145,201;   -2,988;    0,955
513,555;12695,831;   -0,897;   -1,500
514,140;13533,341;   -0,442;   -3,136
514,725;13505,603;   -0,715;   -1,136
515,309;13666,400;   -0,533;    0,318
515,894;13095,820;   -0,624;   -2,227
516,479;13529,673;   -0,624;   -0,955
517,063;13364,369;    0,376;    1,227
517,648;13527,838;    1,012;   -1,136
518,232;13147,768;   -0,261;   -1,409
518,817;13520,289;   -0,079;    1,682
519,401;13745,872;    2,194;    0,591
519,985;13222,117;    1,103;    1,136
520,570;13122,212;    0,830;   -1,955
521,154;13410,502;    2,102;    0,591
521,738;13585,963;   -2,352;    2,409
522,323;14154,481;   -0,170;    1,682
522,907;13897,194;    0,466;   -0,136
523,491;13613,114;    0,557;    0,955
524,075;13563,453;    2,284;    0,591
524,659;13676,516;    1,466;    0,591
525,243;13113,470;    1,739;    0,409
525,827;13377,425;    0,648;   -0,045
526,411;14245,243;   -1,989;   -0,136
526,995;14467,519;   -0,352;    1,409
527,579;14062,921;   -0,443;   -1,045
528,163;14391,736;    0,375;   -1,500
528,747;14295,537;    2,466;   -0,773
529,331;14566,005;   -0,080;   -1,409
529,915;14814,865;    1,738;    0,955
530,499;14807,470;   -0,807;    1,227
531,082;14485,187;   -0,534;    1,591
531,666;13910,040;    1,374;    0,773
532,250;14565,967;    1,284;    2,682
532,833;14903,355;    0,920;    2,773
533,417;14777,666;   -1,807;    0,864
534,001;14756,946;    1,647;   -0,318
534,584;15413,596;    0,374;    0,500
535,168;15323,589;    0,465;    1,409
535,751;15349,712;    0,647;    0,045
536,334;14784,834;   -0,898;   -0,409
536,918;15349,310;    0,011;    1,591
537,501;15501,722;   -0,899;    1,318
538,085;15499,201;   -0,444;    1,045
538,668;15668,995;    0,829;    2,409
539,251;16025,152;    1,829;    3,773
539,834;15984,229;    0,101;    0,773
540,418;15928,813;   -1,990;    4,318
541,001;16080,572;   -0,990;    1,773
541,584;16041,886;    2,101;    2,227
542,167;15746,858;    1,374;    2,955
542,750;15917,649;    1,919;   -0,773
543,333;15495,005;    0,555;    2,136
543,916;16290,869;    0,192;    2,500
544,499;16907,236;   -1,354;    0,227
545,082;16907,306;    1,374;    3,591
545,665;17026,400;    1,919;    1,500
546,248;17376,096;    1,010;   -0,318
546,830;17055,865;   -0,445;    1,955
547,413;17431,551;    1,010;   -0,773
547,996;17967,110;    0,555;    0,500
548,579;17757,047;    0,919;    0,955
549,161;17532,299;    1,828;    2,682
549,744;17305,782;   -0,809;    0,409
550,326;17806,879;   -0,809;   -1,136
550,909;17622,988;    2,737;    0,591
551,492;18003,040;   -0,263;    0,227
552,074;17790,320;   -0,173;   -1,318
552,657;18360,656;    2,373;    0,045
553,239;18117,310;   -0,173;   -0,773
553,821;18043,240;   -1,082;    1,045
554,404;17517,893;    1,282;    1,136
554,986;17910,754;    0,464;    1,045
555,568;18517,771;    1,191;   -0,955
556,151;17719,837;    1,191;   -0,227
556,733;17919,009;   -0,264;   -0,864
557,315;18429,212;    0,100;    0,500
557,897;18223,893;    0,554;   -0,500
558,479;18309,023;   -1,991;    1,318
559,061;18482,219;   -0,719;   -0,864
559,643;18838,865;   -0,264;    0,045
560,225;19176,386;    1,645;    2,864
560,807;19210,956;    0,918;    0,318
561,389;18641,764;    0,554;    2,318
561,971;19463,170;    0,463;    2,136
562,553;19229,435;   -1,628;    1,591
563,135;19390,365;   -0,537;    1,136
563,717;18997,421;    3,372;    1,136
564,298;19710,033;    3,645;   -0,045
564,880;19464,152;    0,645;   -1,409
565,462;19600,243;    0,645;    1,318
566,043;20813,705;   -0,446;    2,318
566,625;20323,428;    1,918;    1,227
567,207;20155,764;    1,099;    1,682
567,788;21334,691;   -1,264;    1,500
568,370;22150,837;    1,917;   -0,500
568,951;21999,684;    0,190;    0,227
569,533;22847,523;   -0,628;   -0,500
570,114;23337,586;   -0,446;    0,682
570,695;23821,358;   -0,174;   -1,318
571,277;24384,309;   -0,265;   -1,682
571,858;25123,942;    2,008;   -1,136
572,439;25968,502;    1,554;   -1,045
573,021;26167,900;    2,099;   -2,773
573,602;26675,219;   -1,265;    0,318
574,183;27606,869;   -2,083;    2,227
574,764;27678,372;   -1,629;    0,409
575,345;28268,229;    0,917;   -0,136
575,926;28838,051;   -0,356;    0,136
576,507;28828,579;    1,099;   -0,227
577,088;29931,184;    3,099;    1,682
577,669;29986,400;    0,735;    1,955
578,250;30795,505;    0,644;   -1,045
578,831;31435,320;   -1,356;   -2,227
579,412;31643,558;   -0,810;    0,955
579,993;32519,082;    1,008;    0,227
580,573;32875,572;   -0,629;   -0,955
581,154;31825,526;    0,735;   -0,591
581,735;32713,820;    0,644;    0,773
582,315;32292,184;   -0,629;    2,136
582,896;32447,100;   -0,174;    1,227
583,477;31877,729;    0,189;    1,227
584,057;32095,142;    0,553;    0,955
584,638;32450,355;    2,553;    2,318
585,218;32437,862;   -0,538;    2,682
585,799;32557,320;    0,281;   -0,227
586,379;32523,093;    0,372;    1,591
586,959;31259,659;    0,735;    0,318
587,540;30545,397;   -0,629;    2,227
588,120;30036,799;    1,007;   -0,045
588,700;29078,568;    2,553;    2,136
589,281;29431,691;    0,462;   -0,955
589,861;29373,925;    0,099;   -1,682
590,441;29206,789;    2,371;   -2,682
591,021;28195,442;   -0,265;   -2,591
591,601;28402,100;   -0,537;    0,500
592,181;28398,299;   -0,719;   -0,773
592,761;27663,047;    0,007;    1,409
593,341;27586,897;   -0,901;    0,045
593,921;27595,334;   -0,265;    1,591
594,501;27508,327;   -0,538;    1,318
595,081;27299,995;    0,917;   -0,318
595,661;27677,547;   -1,447;    0,955
596,240;28255,222;   -0,537;    0,136
596,820;28003,460;    0,372;    1,955
597,400;28102,659;    2,008;    0,773
597,980;28317,953;    2,008;    1,045
598,559;28319,285;    2,735;   -0,227
599,139;27962,397;   -0,174;   -1,227
599,718;27868,124;   -0,174;   -0,409
600,298;28153,680;    0,735;    0,682
600,877;28380,054;    2,917;    1,409
601,457;28701,656;    2,281;    1,136
602,036;28587,005;    0,190;    2,045
602,616;28818,131;    0,644;    1,682
603,195;29149,198;   -0,355;    3,500
603,774;28689,187;   -0,901;    2,045
604,354;28546,526;    0,826;   -0,500
604,933;28077,726;    0,463;    1,864
605,512;28175,596;    3,554;    0,591
606,091;28263,778;   -0,537;    3,773
606,671;29038,991;    0,281;    0,773
607,250;28123,362;    1,644;    3,136
607,829;28317,100;    2,372;    3,227
608,408;28207,285;    1,190;    2,591
608,987;27227,904;    1,281;    3,409
609,566;27547,733;   -1,265;   -2,500
610,145;27689,886;   -1,082;    0,682
610,723;28067,568;    4,372;    6,864
611,302;27335,963;   -0,446;    1,682
611,881;26841,628;    5,008;   11,227
612,460;27685,425;    1,645;    3,955
613,039;28067,841;   -0,082;    2,045
613,617;26769,872;    1,736;    4,773
614,196;26987,911;    1,099;    1,227
614,775;27336,348;    1,009;    2,409
615,353;27291,733;    0,736;    0,864
615,932;27011,257;    0,100;    2,409
616,510;27574,981;    0,554;    0,591
617,089;27106,054;    7,100;   17,591
617,667;26846,079;    2,372;    6,136
618,246;26662,886;   -1,537;    1,318
618,824;26878,142;   -3,355;   -0,955
619,402;26499,963;   -2,900;   -1,773
619,981;26974,554;   -0,173;   -1,045
620,559;26787,582;    0,009;    1,682
621,137;26268,299;   -0,718;    1,864
621,715;26333,708;   -1,173;   -0,682
622,293;26254,082;   -0,537;   -0,773
622,871;26717,939;   -0,718;    0,500
623,450;26273,768;    0,373;   -0,864
624,028;26151,701;    0,191;   -0,955
624,606;25803,240;   -1,718;    1,682
625,183;26191,523;   -1,536;   -1,136
625,761;25819,337;    1,009;    1,136
626,339;26094,862;    1,373;    2,591
626,917;26501,173;   -0,172;   -0,045
627,495;26529,579;   -0,354;    1,318
628,073;25966,830;   -0,263;    2,864
628,650;25668,337;    0,100;    2,136
629,228;26056,058;    0,373;    4,409
629,806;25492,344;    2,282;    1,136
630,383;25791,799;    1,464;   -0,318
630,961;25591,649;    2,555;   -0,955
631,539;25322,306;    2,464;    0,227
632,116;24671,376;   11,373;   15,409
632,694;25227,261;    2,555;    6,500
633,271;25566,544;    0,828;    2,682
633,848;25493,229;    1,828;    2,045
634,426;25498,841;   -1,081;    1,773
635,003;24628,138;    1,101;   -0,409
635,580;24932,033;    1,192;    3,682
636,158;25512,918;    3,737;    1,227
636,735;25440,121;    0,555;   -0,500
637,312;25623,761;   -0,809;   -0,682
637,889;25729,065;   -4,354;   -0,682
638,466;25195,740;   -3,990;   -0,409
639,043;25200,670;    2,101;   -1,136
639,620;25507,998;   -2,262;   -0,955
640,197;25827,035;    1,100;    1,682
640,774;25941,089;   -0,172;    1,136
641,351;26337,597;    0,737;    1,136
641,928;25775,197;   -0,627;    1,409
642,505;25400,887;    0,828;   -0,500
643,082;25560,759;   -1,718;    1,227
643,658;24587,540;   -0,718;    1,500
644,235;25356,140;    1,191;    2,500
644,812;25652,830;    1,918;    0,773
645,388;25334,793;   -0,991;    1,409
645,965;25476,302;   -0,809;    1,682
646,542;25552,992;   -1,445;   -0,227
647,118;25524,410;    1,009;   -0,955
647,695;25816,554;   -0,263;    1,136
648,271;25698,790;   -0,536;    0,500
648,848;26011,208;    0,736;    2,227
649,424;25929,989;    0,827;    1,318
650,000;25630,861;   -0,354;   -1,045
650,577;25481,915;   -0,627;   -0,955
651,153;25946,969;   -1,809;    0,955
651,729;26942,205;    1,191;    0,864
652,305;27449,441;    0,645;    2,773
652,881;32518,404;   -0,082;    1,136
653,458;39357,094;    1,100;    0,227
654,034;42726,148;    0,282;    1,591
654,610;43978,929;    0,554;    0,773
655,186;45219,710;    0,645;    3,045
655,762;44887,673;   -0,991;    0,409
656,338;44883,818;    0,100;    0,136
656,913;45821,418;   -0,082;    0,409
657,489;44958,926;    0,827;   -0,318
658,065;44887,889;   -0,173;   -1,591
658,641;45549,034;   -0,900;   -0,864
659,217;44870,452;   -0,991;    0,409
659,792;44287,233;    0,645;   -0,409
660,368;44503,742;   -2,173;   -0,682
660,944;43838,159;   -2,082;    1,227
661,519;38694,849;   -0,628;    0,409
662,095;32832,631;   -1,719;    0,591
662,670;28657,866;    1,281;   -0,136
663,246;27788,648;    1,009;   -0,409
663,821;27194,520;    0,281;    1,682
664,396;26669,756;    0,009;    1,864
664,972;26950,355;    0,009;   -0,500
665,547;27254,954;    1,372;    0,136
666,122;27313,917;   -1,082;    0,318
666,698;27591,608;   -0,173;    0,318
667,273;26937,207;   -0,173;    0,136
667,848;27762,716;    2,372;    1,500
668,423;27531,588;    2,190;    2,318
668,998;28124,369;    2,827;   -0,682
669,573;28652,150;   -3,264;   -1,500
670,148;28458,932;   -1,446;   -0,682
670,723;28259,985;   -1,810;    0,318
671,298;28724,676;    2,372;    1,045
671,873;28828,002;   -0,082;   -0,136
672,448;28740,147;    0,645;    0,136
673,023;29084,383;   -1,992;   -0,227
673,597;29448,255;    0,827;    2,318
674,172;29175,037;   -0,355;    0,318
674,747;28671,727;    0,372;   -1,045
675,321;28475,872;   -0,628;    3,318
675,896;28066,926;    0,645;    1,045
676,471;29081,343;    2,645;    1,591
677,045;28862,034;   -1,264;    0,682
677,620;28895,542;    0,190;    1,136
678,194;29165,323;   -2,628;    1,136
678,769;28760,923;   -1,083;   -0,318
679,343;29064,704;   -0,628;    1,773
679,917;28944,394;   -1,446;    1,955
680,492;28971,994;    0,826;    3,227
681,066;29162,775;    3,372;    0,409
681,640;29190,102;    1,463;   -0,318
682,214;30044,792;    0,735;    0,500
682,788;29586,209;   -1,356;   -0,773
683,363;29478,991;   -1,810;    1,682
683,937;29183,954;   -1,719;   -0,318
684,511;29947,280;    0,463;   -0,591
685,085;29674,516;   -1,356;    0,318
685,659;29359,116;   -2,538;    0,864
686,232;29674,897;   -0,356;   -0,318
686,806;29313,042;   -0,901;    0,409
687,380;29981,278;   -0,174;    0,591
687,954;30205,604;   -1,174;    1,136
688,528;29903,113;   -0,719;    1,955
689,101;30666,167;   -3,992;    1,045
689,675;30278,857;   -0,356;   -0,136
690,249;29624,002;   -0,719;    0,409
690,822;29928,783;    0,280;    0,318
691,396;30078,837;   -0,265;    1,227
691,969;29533,709;    1,280;    0,136
692,543;30015,672;   -0,447;   -1,955
693,116;29617,453;   -0,265;   -1,409
693,690;29533,053;    0,099;    0,500
694,263;30046,016;   -1,083;    2,955
694,836;30009,161;    1,371;    3,591
695,410;28703,124;   -0,265;    1,773
695,983;29191,087;    0,189;    0,591
696,556;29175,595;   -0,447;   -1,045
697,129;29511,831;   -0,356;    1,409
697,703;29146,431;   -1,629;    1,955
698,276;29117,030;    1,462;   -0,773
698,849;28995,175;    1,280;    1,409
699,422;29298,320;   -1,083;    0,591
699,995;29021,374;    0,007;    0,136
700,568;29549,246;   -0,629;    3,045
701,140;29586,027;   -2,811;    1,682
701,713;29279,263;   -0,174;    2,409
702,286;29000,953;   -0,538;    0,864
702,859;28929,098;   -0,902;   -0,591
703,432;28066,697;    0,825;    0,682
704,004;28552,206;    0,462;    0,318
704,577;28453,896;   -0,629;    0,136
705,150;29053,223;    0,189;    2,500
705,722;28805,095;   -0,356;   -3,227
706,295;28599,422;   -0,175;   -0,591
706,867;28493,203;   -0,175;    1,955
707,440;28655,621;   -1,720;   -0,409
708,012;28950,584;    0,462;    0,591
708,584;28847,456;    2,462;    0,227
709,157;29061,964;    1,825;   -0,591
709,729;28826,291;    2,280;    2,045
710,301;29611,345;    0,734;    0,045
710,874;29635,308;   -1,447;   -0,227
711,446;28452,998;    0,371;    0,864
712,018;28324,325;    0,098;    0,500
712,590;28100,379;   -1,993;    1,682
713,162;28632,615;    0,825;    1,318
713,734;28873,760;    1,825;   -2,045
714,306;28777,632;   -1,902;   -0,409
714,878;27446,049;    0,825;    0,864
715,450;28245,921;    0,643;    0,864
716,022;28495,521;    1,552;    1,318
716,593;28693,666;    0,189;    0,591
717,165;28620,720;   -3,175;   -1,227
717,737;28361,228;    0,280;    0,409
718,309;27987,828;    0,280;   -0,045
718,880;27990,063;   -0,539;   -1,409
719,452;28206,754;   -0,175;   -1,591
720,024;27749,080;    0,734;   -0,591
720,595;28292,134;   -2,902;    0,955
721,167;27853,552;    0,370;   -2,045
721,738;27448,151;   -0,812;   -1,045
722,309;27441,842;   -0,993;   -1,227
722,881;27210,350;   -1,357;    0,773
723,452;27829,222;   -2,630;    2,864
724,023;28020,004;   -0,721;    2,682
724,595;27733,603;    0,007;    0,682
725,166;27495,566;    0,007;   -0,409
725,737;27234,620;    1,734;    0,227
726,308;27261,947;   -0,266;    0,318
726,879;27694,001;   -1,630;    1,227
727,450;27584,145;    0,552;   -0,045
728,021;27503,109;    3,097;    0,682
728,592;27281,435;    0,734;    0,500
729,163;27609,216;    0,643;   -0,136
729,734;27676,180;    0,188;   -0,227
730,305;28033,870;    1,734;    0,136
730,876;28360,287;    0,188;    2,955
731,447;28044,796;    2,188;    2,682
732,017;28228,123;    1,097;    1,864
732,588;27651,177;    0,734;    1,227
733,159;27840,503;    0,643;   -1,045
733,729;27663,012;    0,006;    0,409
734,300;26941,338;    0,915;    0,864
734,870;27329,301;    3,461;    0,591
735,441;27933,265;    0,370;   -0,591
736,011;27674,955;    0,643;   -1,591
736,582;27659,100;   -0,812;    0,045
737,152;27057,245;   -1,721;   -2,045
737,722;27522,208;   -0,267;   -0,682
738,293;27201,989;   -1,358;    1,318
738,863;27125,588;    2,461;    2,318
739,433;26880,097;    5,279;    0,318
740,003;27590,060;   -0,994;   -0,682
740,573;26973,114;    2,097;   -1,591
741,143;26904,531;   -1,085;    0,318
741,713;27684,494;    1,188;   -0,500
742,283;27364,003;    0,915;    1,591
742,853;27187,148;    1,915;    1,591
743,423;26599,747;    1,733;    0,045
743,993;26744,256;   -0,358;    1,500
744,563;26119,401;    0,097;   -0,864
745,133;26072,818;   -0,812;   -0,864
745,702;26765,781;   -0,267;    1,773
746,272;25987,290;   -0,176;    0,591
746,842;25784,889;   -1,358;   -0,591
747,411;26156,670;   -0,267;   -0,318
747,981;26343,270;    0,097;    0,500
748,551;26348,051;    2,278;   -1,045
749,120;26228,469;    0,642;   -0,227
749,690;26604,159;   -0,631;    2,409
750,259;26962,213;    1,369;    2,955
750,828;26878,721;    1,551;   -1,955
751,398;27135,594;    1,278;   -0,045
751,967;26725,102;    2,187;    0,409
752,536;26885,792;   -0,813;   -0,227
753,105;27299,665;    0,096;    0,227
753,675;27073,991;    0,096;    1,773
754,244;27000,136;   -0,904;    3,591
754,813;27046,008;    0,551;    1,227
755,382;26602,608;    0,460;    0,955
755,951;27223,480;    1,551;    3,682
756,520;26786,806;   -0,085;    1,864
757,089;27331,679;    0,278;    0,500
757,658;27447,369;    1,733;    1,227
758,227;27457,514;    1,096;    0,318
758,795;27736,750;    1,187;    1,136
759,364;27977,349;   -0,086;   -0,591
759,933;26974,130;   -1,176;   -0,045
760,501;26483,639;    0,733;   -1,318
761,070;26934,238;   -2,813;   -1,409
761,639;27669,656;   -1,904;    1,318
762,207;27028,710;    1,551;   -0,955
762,776;26970,582;    0,369;    0,864
763,344;26916,181;   -0,995;    0,591
763,913;26024,872;   -0,722;    1,409
764,481;26777,471;    1,005;   -0,136
765,049;26533,434;   -1,358;    1,409
765,618;26360,852;   -0,086;    0,318
766,186;26450,996;    0,278;    0,136
766,754;26682,959;    0,005;    1,864
767,322;25669,741;   -1,995;    0,409
767,890;25726,886;   -0,722;   -1,773
768,459;26106,576;   -2,177;   -0,318
769,027;26282,630;    1,641;    3,409
769,595;25242,411;    3,278;    2,591
770,163;25650,101;    3,823;    2,955
770,730;25398,883;    0,732;   -0,136
771,298;25229,846;    0,187;   -1,409
771,866;25304,627;   -1,541;    4,955
772,434;25672,954;   -0,631;   -1,864
773,002;25838,008;    0,005;    0,682
773,569;25497,334;    0,914;    1,682
774,137;25265,116;   -0,268;   -0,045
774,705;26080,169;    0,278;   -0,136
775,272;25591,314;    0,641;    0,682
775,840;25325,823;   -0,177;    2,682
776,407;24846,604;    0,277;    1,955
776,975;24441,749;   -0,632;    0,318
777,542;25467,439;   -1,086;   -0,045
778,110;25325,311;   -1,268;   -0,045
778,677;25027,729;   -2,359;   -0,864
779,244;24785,510;    2,186;    1,045
779,812;24918,019;    1,823;    0,864
780,379;24736,891;    0,005;    1,136
780,946;24984,581;    1,005;   -0,773
781,513;25346,362;   -1,450;    0,318
782,080;24727,962;   -0,086;    2,864
782,647;25453,743;   -0,268;    3,045
783,214;24998,070;   -0,177;    3,864
783,781;24667,033;   -0,723;   -0,682
784,348;24536,996;   -0,632;    1,500
784,915;24972,959;   -3,177;    0,318
785,482;24752,376;    1,368;    2,591
786,049;25170,703;    0,186;   -0,591
786,615;25242,848;    0,277;   -0,955
787,182;24985,902;    0,186;   -0,682
787,749;24681,229;   -2,814;    1,409
788,315;24004,010;   -1,632;   -0,409
788,882;24313,155;    1,550;   -1,227
789,448;25012,300;    1,732;   -0,955
790,015;25002,263;    1,095;    3,227
790,581;24551,498;    1,459;    0,227
791,148;24486,916;    0,641;    1,045
791,714;24701,061;   -0,541;    3,136
792,280;24357,297;    0,186;    1,591
792,847;23929,078;    0,550;    2,500
793,413;24515,314;   -0,269;   -0,318
793,979;24055,913;    3,459;   -1,318
794,545;24129,058;    4,459;    2,682
795,111;23552,839;    2,186;    1,318
795,678;23734,620;    0,731;   -1,682
796,244;23381,947;    3,368;    0,136
796,810;23902,092;    1,731;    0,773
797,375;23600,964;    0,549;   -2,136
797,941;23636,836;   -0,541;    0,591
798,507;23786,890;   -0,451;   -0,955
799,073;23311,581;   -0,360;    0,591
799,639;23380,362;   -2,632;    3,136
800,205;23392,870;    0,095;    2,682
800,770;22957,379;    0,640;    1,773
801,336;23056,069;    1,368;   -0,955
801,901;22776,123;    4,549;    3,136
802,467;23318,904;   -0,542;    2,045
803,033;22626,140;   -0,087;    0,864
803,598;22893,649;    1,913;   -1,045
804,163;22889,884;    1,095;   -0,318
804,729;22876,393;   -0,178;    1,136
805,294;23284,356;    0,822;    2,227
805,859;23079,592;    0,731;   -0,409
806,425;22526,282;    1,186;    2,682
806,990;22194,245;    2,186;    4,318
807,555;22696,754;   -1,451;    2,591
808,120;22566,444;    0,822;   -0,409
808,685;22586,952;    0,185;   -2,500
809,250;22086,915;    0,004;   -0,500
809,815;22397,969;    1,913;    0,682
810,380;22939,023;   -0,269;    1,591
810,945;23505,714;   -1,087;    2,045
811,510;22690,677;    2,094;    1,591
812,075;22392,276;   -0,633;   -1,409
812,640;22436,239;    2,003;    1,409
813,204;22445,839;    0,822;   -0,227
813,769;22923,620;    2,094;   -0,045
814,334;22370,765;    0,458;    0,864
814,898;22397,910;    0,367;    0,591
815,463;22265,600;    1,276;   -0,773
816,027;22249,563;   -0,724;   -2,318
816,592;22303,981;    0,640;   -2,045
817,156;21832,489;    2,094;    1,136
817,721;21756,907;    4,276;    2,318
818,285;21696,415;    2,912;    1,500
818,849;22336,287;   -1,451;    1,682
819,414;22244,250;   -0,269;    2,955
819,978;21770,032;   -1,269;    1,773
820,542;22376,904;    2,003;    0,500
821,106;22080,594;   -0,815;    0,682
821,670;22178,193;   -0,815;    2,591
822,234;21942,520;   -0,270;    1,409
822,798;21312,483;    0,003;    0,500
823,362;21270,901;   -0,633;    4,227
823,926;20573,046;    0,094;    1,136
824,490;20831,463;   -0,997;   -0,682
825,054;21229,063;   -0,088;   -1,136
825,618;20852,207;   -1,542;   -1,500
826,181;20852,534;    0,458;   -1,318
826,745;20760,406;    1,367;   -1,045
827,309;21074,915;    1,185;    1,318
827,872;20462,878;    1,367;    0,955
828,436;21447,659;    1,185;   -0,773
828,999;21481,895;   -0,997;    1,227
829,563;20276,676;   -0,179;    1,136
830,126;20108,639;   -0,179;   -0,591
830,690;20140,966;   -1,997;    2,864
831,253;19666,656;   -0,543;    2,227
831,816;19823,437;   -1,906;    0,500
832,380;19745,037;    0,185;    0,864
832,943;19953,454;   -1,361;   -0,500
833,506;19430,599;    2,639;   -1,227
834,069;20190,562;    3,912;   -0,955
834,632;20255,253;    1,730;    1,318
835,195;20179,125;    1,003;    0,955
835,758;19364,361;   -0,997;    1,955
836,321;19209,505;    0,730;   -1,045
836,884;19313,923;   -0,725;   -0,955
837,447;19325,522;   -2,816;    1,773
838,010;19593,395;    0,366;    3,227
838,573;19950,903;   -1,179;    0,773
839,135;19867,957;   -1,361;   -0,955
839,698;19301,375;    1,275;    0,409
840,261;18826,065;    1,003;   -0,227
840,823;18671,573;   -0,543;    0,864
841,386;18975,991;   -0,452;   -2,409
841,948;18872,863;   -1,361;    1,773
842,511;18601,917;    0,912;    1,682
843,073;18717,153;    1,912;    0,227
843,636;18487,298;   -0,361;   -0,227
844,198;18452,534;    0,911;    0,591
844,760;18610,224;    1,093;    1,955
845,322;18259,187;    0,548;    1,136
845,885;18693,150;    0,730;    0,591
846,447;19160,840;   -1,998;    0,227
847,009;18742,167;    1,911;   -0,682
847,571;19041,494;    0,820;   -2,045
848,133;19127,820;   -1,089;   -1,864
848,695;18951,692;   -0,543;    1,409
849,257;18532,019;   -1,089;   -1,682
849,819;18704,073;   -0,998;   -0,409
850,381;18730,218;   -0,725;   -0,864
850,942;19087,727;    1,093;   -0,591
851,504;19008,144;    1,184;    0,227
852,066;19084,925;    1,275;   -1,591
852,628;18579,252;   -0,180;    1,955
853,189;18142,488;    1,638;    2,682
853,751;18267,814;   -0,907;    1,409
854,312;18106,868;   -0,453;   -1,682
854,874;18608,559;   -2,089;   -0,773
855,435;19054,613;   -0,907;   -1,682
855,997;19262,212;   -1,816;   -0,136
856,558;18545,357;    0,366;    1,773
857,119;18660,411;    0,820;    2,864
857,681;18328,374;    0,002;    0,318
858,242;18354,064;    1,911;   -2,136
858,803;18790,391;    0,456;   -0,773
859,364;19410,263;    0,184;   -4,773
859,925;18746,590;   -2,453;   -0,955
860,486;18567,735;   -0,453;   -0,955
861,047;18289,425;   -0,544;   -1,227
861,608;18096,570;   -1,089;   -0,773
862,169;18255,351;    0,638;   -0,045
862,730;18029,678;    0,456;    1,409
863,291;18281,823;   -0,635;   -0,500
863,852;18681,604;   -0,635;    1,955
864,412;18114,294;   -0,271;   -0,864
864,973;16702,894;   -0,089;    0,500
865,534;16594,311;   -1,726;    0,227
866,094;18097,365;    1,820;    0,227
866,655;17755,056;    1,274;    3,318
867,215;17990,382;    0,274;    0,136
867,776;17800,073;    0,547;   -0,136
868,336;17950,126;   -1,453;    0,136
868,897;17443,544;    2,638;    1,682
869,457;17156,871;    1,365;    0,318
870,017;17358,652;    0,547;   -1,227
870,578;17884,888;   -0,817;    0,773
871,138;17607,124;   -2,089;   -0,955
871,698;17147,723;   -0,817;   -1,318
872,258;17010,050;   -0,453;   -2,864
872,818;17398,194;    2,729;    0,045
873,378;17327,612;    0,638;    1,045
873,938;16880,848;    0,547;    0,500
874,498;17250,447;    0,274;   -1,955
875,058;17151,319;    2,183;    1,773
875,618;16927,919;    1,910;   -2,682
876,177;16883,336;    1,274;    0,136
876,737;16541,027;   -0,090;    1,955
877,297;16582,081;    0,183;    1,955
877,856;16550,771;   -0,362;    0,318
878,416;16494,280;    1,183;   -0,136
878,976;16707,697;   -1,817;    0,409
879,535;16853,660;    0,092;    3,136
880,095;16593,714;   -0,544;    0,045
880,654;16721,223;   -1,090;    1,318
881,213;16884,913;    2,456;    1,500
881,773;16502,240;    2,637;    2,682
882,332;16884,839;    3,365;    5,136
882,891;16712,075;    3,092;    2,136
883,451;17219,311;   -1,272;    1,682
884,010;16595,546;   -2,908;   -0,409
884,569;16705,146;   -0,999;   -0,045
885,128;16885,472;    2,819;   -1,864
885,687;16994,345;    4,455;    0,682
886,246;16668,671;    1,455;    2,136
886,805;16414,453;    2,455;    2,045
887,364;16641,143;   -0,999;   -0,500
887,922;17026,015;   -1,181;    0,045
888,481;16544,887;   -1,545;    0,591
889,040;16796,123;    1,183;    2,136
889,599;17481,177;    2,455;    1,409
890,157;17582,322;    1,455;    2,409
890,716;17242,194;   -0,090;    0,227
891,274;17066,793;    0,092;   -1,136
891,833;17502,302;    1,546;    0,864
892,391;17347,901;   -0,454;    0,500
892,950;17444,955;    1,819;   -0,773
893,508;17825,555;    0,455;   -0,409
894,067;17142,245;    0,637;    0,136
894,625;17038,026;   -0,636;   -1,500
895,183;17232,353;   -0,363;   -0,682
895,741;17124,043;    1,728;   -1,773
896,299;16946,188;   -0,545;   -2,409
896,858;17161,606;    0,819;   -1,591
897,416;17298,660;    2,728;   -1,318
897,974;17087,077;    1,819;    0,318
898,532;17251,586;    6,091;    2,682
899,089;17149,731;    2,091;   -0,682
899,647;17186,603;   -1,454;    1,318
900,205;16863,838;    1,182;    1,045
900,763;17070,529;   -0,454;    0,227
901,321;17084,310;    2,364;   -1,409
901,878;16488,455;   -1,000;   -0,773
902,436;16370,054;   -1,363;    1,318
902,994;16777,108;    4,728;    3,682
903,551;16242,162;    0,728;    0,409
904,109;16600,762;    0,182;   -1,409
904,666;16160,270;    2,455;    1,045
905,224;16010,506;    0,182;   -0,409
905,781;15746,833;    0,727;   -0,318
906,338;15853,341;   -1,363;    1,045
906,895;15748,304;    0,637;    2,045
907,453;15685,085;    1,727;    1,136
908,010;15733,139;   -0,909;    0,409
908,567;15397,011;    1,273;    0,591
909,124;14852,611;    0,364;   -1,500
909,681;14965,847;   -2,909;    0,682
910,238;15087,628;    0,636;   -1,318
910,795;15408,227;   -0,273;   -1,136
911,352;15042,773;   -2,909;   -2,682
911,909;14492,045;   -1,364;   -0,864
912,466;14978,682;   -3,182;    1,500
913,022;14514,045;   -1,636;    0,500
913,579;14871,500;   -0,909;    2,045
914,136;14566,682;    1,636;    0,955
914,692;14933,136;    0,091;   -1,227
915,249;14522,773;    1,455;    0,409
915,806;14721,318;    0,182;    1,955
916,362;14497,500;    1,909;    1,864
916,918;14036,773;    2,000;    1,045
917,475;14019,682;   -1,182;    0,955
918,031;14096,227;    3,364;   -0,045
918,587;13522,136;   -0,909;   -0,318
919,144;13766,682;   -2,273;    0,227
919,700;14071,409;    1,727;    0,773
920,256;13621,136;    0,727;    0,045
920,812;13222,045;   -0,727;   -1,045
921,368;13255,500;   -1,727;   -1,045
921,924;12891,409;    0,182;   -0,136
922,480;12474,045;   -0,545;    1,227
923,036;13119,955;    1,273;    1,955
923,592;13022,682;    0,455;    0,318
924,148;12993,227;    0,455;   -0,955
924,704;12275,500;   -1,364;   -0,409
925,259;12523,682;   -0,273;    0,591
925,815;12307,773;    1,455;    0,500
926,371;11810,591;    2,909;    1,409
926,926;11666,318;    2,091;    0,591
927,482;11323,864;   -1,364;    0,773
928,037;11224,045;    0,909;    2,045
928,593;11490,409;    1,636;    1,045
929,148;11344,591;   -1,818;   -1,500
929,704;10844,227;   -1,455;   -0,500
930,259;11056,318;    0,091;   -0,136
930,814;10102,773;   -0,818;    1,955
931,369; 9789,864;    1,091;   -0,773
931,925; 9651,045;   -0,091;    0,136
932,480; 9579,682;   -2,818;   -2,591
933,035; 9463,591;    0,545;   -0,318
933,590; 9222,227;    0,364;   -1,773
934,145; 8880,773;   -1,364;   -0,318
934,700; 9203,318;    0,455;   -0,591
935,255; 9021,500;   -0,091;    0,045
935,809; 8327,682;    3,182;    0,864
936,364; 7432,864;   -0,455;   -0,136
936,919; 7404,955;    0,455;   -1,773
937,474; 7268,591;    1,455;    0,136
938,028; 7043,955;   -1,636;    1,136
938,583; 6566,409;    1,818;    4,682
939,138; 6795,227;    2,091;    2,136
939,692; 6217,955;    1,636;   -1,136
940,247; 5945,045;   -0,727;   -1,045
940,801; 5512,591;   -0,636;    0,227
941,355; 5371,409;   -0,364;    2,591
941,910; 5036,955;   -0,273;   -2,136
942,464; 5173,227;   -0,818;   -0,318
943,018; 4972,773;    1,000;   -0,227
943,572; 4908,136;    2,545;   -0,682
944,126; 4332,773;    0,091;   -0,409
944,681; 4242,864;    3,091;    0,227
945,235; 4220,955;    1,000;   -0,591
945,789; 4142,864;    0,364;   -1,864
946,342; 4252,864;    0,455;   -0,591
946,896; 4063,955;   -2,273;    0,955
947,450; 3812,409;    1,545;   -0,227
948,004; 4029,045;    1,727;   -0,045
948,558; 4012,591;    0,273;   -0,864
949,111; 3941,773;   -0,273;   -0,318
949,665; 3991,864;    1,636;   -0,682
950,219; 3850,591;   -0,091;   -1,045
950,772; 3920,409;   -1,909;    1,864
951,326; 3833,864;    0,545;   -0,955
951,879; 3939,682;    0,727;   -2,318
952,433; 3967,500;    0,000;    2,227
952,986; 3787,864;    2,909;    0,682
953,539; 3750,136;   -0,273;    0,591
954,093; 3684,682;    0,545;   -1,318
954,646; 3810,591;    0,909;    1,318
955,199; 3617,318;    0,000;   -0,500
955,752; 3514,318;   -0,455;    1,773
956,305; 3468,227;   -0,091;    2,955
956,858; 3638,318;    0,818;   -0,318
957,411; 3784,864;   -0,545;    2,136
957,964; 3633,318;    1,364;    2,136
958,517; 3629,955;   -1,545;    3,136
959,070; 3448,773;   -0,455;    1,955
959,623; 3550,045;    1,091;    1,500
960,176; 3322,409;    1,727;    2,045
960,728; 3305,045;   -2,727;    0,773
961,281; 3351,318;    0,545;    0,500
961,834; 3402,591;   -0,909;    0,864
962,386; 3306,318;    1,727;    1,045
962,939; 3244,773;    0,364;   -0,318
963,491; 3380,864;    0,455;    1,136
964,043; 3238,773;    1,182;    2,409
964,596; 3358,409;   -1,000;    2,227
965,148; 3217,864;   -1,000;    1,773
965,700; 3120,864;    1,091;   -0,227
966,253; 3261,864;   -0,636;    0,318
966,805; 3111,682;   -2,273;    0,773
967,357; 3153,955;    1,091;   -1,500
967,909; 3116,591;    0,455;   -1,227
968,461; 3222,864;    0,545;    3,136
969,013; 3160,318;   -0,182;   -0,864
969,565; 3241,136;   -0,455;   -1,136
970,117; 3315,955;   -0,364;    1,045
970,669; 3130,682;    0,182;   -0,136
971,220; 2997,318;   -0,455;   -1,500
971,772; 2925,227;   -0,636;   -0,318
972,324; 3058,045;    0,091;   -0,500
972,876; 3000,955;    0,818;   -0,045
973,427; 3142,136;    1,909;   -1,045
973,979; 3103,591;   -0,727;   -2,500
974,530; 3139,045;    1,818;    1,318
975,082; 3137,864;   -0,545;    1,682
975,633; 3031,227;    1,091;    1,682
976,184; 3188,409;    0,909;    0,773
976,736; 2974,136;    0,091;    0,227
977,287; 2770,227;   -0,909;   -0,500
977,838; 2935,682;    0,909;   -0,318
978,389; 2993,682;   -1,000;   -0,500
978,940; 2877,591;    0,545;   -0,409
979,491; 2898,864;    0,091;   -0,500
980,042; 2885,955;    0,182;    3,045
980,593; 2921,773;   -2,545;    0,227
981,144; 2983,955;    2,545;   -0,500
981,695; 2933,864;    1,455;    1,500
982,246; 2901,045;   -0,273;    1,045
982,797; 3046,682;   -1,727;    0,682
983,347; 3166,318;    0,364;    0,591
983,898; 3332,682;    3,091;    0,409
984,449; 3159,409;    2,182;    0,773
984,999; 3063,682;    1,455;   -1,136
985,550; 2840,045;    0,182;   -0,318
986,100; 2851,773;   -0,455;   -0,318
986,651; 2899,318;   -0,818;    0,045
987,201; 2875,955;   -1,000;   -0,591
987,751; 2959,500;    0,818;    2,864
988,302; 2948,682;    2,636;    1,500
988,852; 2972,045;    0,455;   -1,136
989,402; 3008,864;    0,091;    0,682
989,952; 2930,591;   -2,182;    0,864
990,502; 3027,409;   -0,091;    0,682
991,052; 2988,682;   -0,727;    0,045
991,602; 2860,227;   -2,909;    1,318
992,152; 2865,955;    0,455;    0,682
992,702; 2844,318;    1,364;   -0,045
993,252; 2768,773;   -3,000;   -0,500
993,802; 2876,409;   -0,273;    1,318
994,352; 3094,591;   -1,545;    1,136
994,901; 3169,500;   -0,182;    3,227
995,451; 3088,955;   -0,182;    0,318
996,000; 3179,682;    1,636;    0,318
996,550; 2904,409;    2,273;    0,227
997,100; 2880,682;    1,273;   -0,045
997,649; 3171,773;    2,182;    0,955
998,198; 2804,591;    1,727;   -1,500
998,748; 3016,227;    1,091;   -2,318
999,297; 2916,409;   -0,818;   -0,409
999,846; 2980,955;    1,000;   -0,773
1000,395; 3008,773;   -0,818;    0,500
1000,945; 2977,227;    1,818;   -0,773
1001,494; 3063,955;    2,364;    0,682
1002,043; 3042,864;    4,636;    0,864
1002,592; 2892,227;   -1,091;    1,955
1003,141; 3050,773;   -0,455;   -0,682
1003,690; 2903,682;    1,727;    0,500
1004,238; 2976,318;    1,455;   -0,045
1004,787; 2605,864;    1,364;    1,227
1005,336; 2853,045;    0,364;    0,682
1005,885; 2994,500;    1,364;   -2,773
1006,433; 3114,045;    0,545;    0,955
1006,982; 3182,682;    0,455;    1,682
1007,531; 3089,591;   -1,818;   -0,227
1008,079; 3058,136;   -2,273;    0,500
1008,627; 3174,864;   -1,455;    0,409
1009,176; 2919,591;    0,000;   -1,955
1009,724; 2976,409;    1,091;    0,864
1010,273; 3035,227;    1,273;    0,500
1010,821; 3122,045;    0,091;    1,409
1011,369; 2857,591;   -1,364;    1,318
1011,917; 2831,136;   -1,364;   -0,591
1012,465; 3113,955;    1,273;   -1,591
1013,013; 3233,773;    2,091;   -1,682
1013,561; 3117,955;    0,455;   -0,773
1014,109; 3188,955;   -1,909;    1,682
1014,657; 3070,409;    0,364;    0,591
1015,205; 3165,591;    1,636;   -0,955
1015,753; 3200,409;   -0,545;   -1,409
1016,301; 3242,773;   -2,636;    3,045
1016,848; 3246,136;   -1,273;    0,409
1017,396; 3292,500;    2,545;    0,045
1017,944; 3397,500;    1,182;    1,864
1018,491; 3141,409;    0,273;    1,409
1019,039; 3314,864;    0,455;    0,591
1019,586; 3233,500;   -1,364;    1,682
1020,134; 3324,045;    0,455;    1,500
1020,681; 3356,864;    0,182;   -1,136
1021,228; 3342,500;    2,909;   -2,227
1021,776; 3166,864;    1,182;   -1,136
1022,323; 3391,864;    0,455;    0,773
1022,870; 3348,864;   -1,000;   -0,045
1023,417; 3222,591;    2,636;    1,864
1023,964; 3364,500;    2,636;    1,227
1024,511; 3201,409;    1,000;    0,773
1025,058; 2994,682;    3,182;   -0,045
1025,605; 3070,409;   -2,273;    3,136
1026,152; 3300,500;    1,727;   -0,591
1026,699; 3009,227;    1,818;    1,318
1027,245; 3174,955;   -0,091;    0,318
1027,792; 3376,045;   -1,000;    1,409
1028,339; 3269,318;    2,364;   -0,045
1028,885; 3127,045;    1,000;   -0,227
1029,432; 3059,136;   -0,091;    0,227
1029,978; 3136,773;   -1,000;   -1,591
1030,525; 3022,409;    1,000;    0,409
1031,071; 3259,045;   -1,364;    1,136
1031,618; 3370,682;    0,364;    1,682
1032,164; 3149,409;   -0,091;    3,045
1032,710; 3197,864;    1,636;   -1,500
1033,256; 3113,409;   -0,636;   -0,136
1033,803; 3069,864;   -0,545;    1,500
1034,349; 2785,318;   -1,364;    0,136
1034,895; 2948,409;    0,000;   -0,318
1035,441; 2934,955;   -0,818;    0,318
1035,987; 2919,682;   -2,364;   -0,682
1036,533; 2933,409;   -1,455;   -0,955
1037,078; 3142,409;    1,455;    1,682
1037,624; 2948,591;    2,455;   -0,955
1038,170; 2988,773;    0,455;   -0,318
1038,716; 2893,136;    1,636;   -0,409
1039,261; 2807,136;   -2,273;   -0,773
1039,807; 2740,682;   -0,091;    3,409
1040,352; 2821,045;   -1,909;   -0,318
1040,898; 2854,500;   -1,545;   -0,682
1041,443; 2776,955;   -1,455;   -2,591
1041,989; 2791,227;    1,091;    1,591
1042,534; 2682,955;   -0,364;    2,591
1043,079; 2782,864;    2,909;    0,955
1043,625; 2587,136;    1,818;    0,500
1044,170; 2627,591;   -1,364;    1,045
1044,715; 2889,591;    2,455;    0,955
1045,260; 2709,864;    2,182;   -0,955
1045,805; 2730,136;    1,182;   -0,591
1046,350; 2665,318;    1,364;   -0,409
1046,895; 2639,682;    2,909;    1,591
1047,440; 2597,591;    5,364;    0,409
1047,985; 2467,773;    2,818;   -0,955
1048,530; 2394,409;    1,545;    1,227
1049,074; 2473,864;    0,000;    0,318
1049,619; 2438,955;   -1,364;    1,955
1050,164; 2237,955;    0,455;    0,227
1050,708; 2290,136;   -0,455;    0,045
1051,253; 2676,227;    1,273;   -2,227
1051,797; 2374,682;    0,818;   -1,318
1052,342; 2353,500;   -1,182;    1,045
1052,886; 2376,955;    0,364;   -1,409
1053,430; 2248,500;   -1,364;    0,136
1053,975; 2273,500;   -0,818;   -0,318
1054,519; 2264,682;   -0,727;    3,227
1055,063; 2298,591;    0,909;    1,318
1055,607; 2156,136;   -0,182;    0,227
1056,151; 2174,500;    2,909;    1,682
1056,695; 2091,136;    2,273;   -1,136
1057,239; 2169,500;   -1,727;   -0,682
1057,783; 2180,227;    0,818;   -1,500
1058,327; 2135,045;    0,000;    1,409
1058,871; 2357,773;   -0,545;    1,318
1059,415; 2058,045;   -0,818;   -0,045
1059,958; 2335,409;    1,455;    2,591
1060,502; 2045,591;   -1,000;   -0,773
1061,046; 1946,136;    0,364;   -0,955
1061,589; 1929,682;   -3,000;   -1,136
1062,133; 1792,227;   -1,273;    1,864
1062,676; 1747,409;    1,182;    0,864
1063,220; 1765,045;    1,091;    0,500
1063,763; 1796,045;    0,909;    1,136
1064,306; 1880,591;   -0,909;    1,864
1064,849; 1750,227;   -0,909;    0,591
1065,393; 1753,136;    2,000;   -1,500
1065,936; 1860,500;    0,182;   -0,409
1066,479; 1749,045;   -1,455;    1,318
1067,022; 1769,591;   -0,273;   -0,227
1067,565; 1676,409;   -0,091;   -1,318
1068,108; 1700,318;    0,727;   -0,591
1068,651; 1660,864;   -0,636;    1,409
1069,194; 1588,955;   -0,455;   -1,682
1069,736; 1589,409;   -1,273;    0,955
1070,279; 1569,045;   -1,364;   -0,500
1070,822; 1630,227;   -2,000;   -0,318
1071,364; 1723,227;   -0,364;    1,318
1071,907; 1557,955;   -0,727;    3,227
1072,450; 1430,045;    0,000;   -0,045
1072,992; 1430,409;   -0,273;    3,136
1073,535; 1592,864;    2,091;    2,136
1074,077; 1382,591;   -0,727;    2,045
1074,619; 1338,682;   -1,364;    0,591
1075,161; 1372,682;   -1,091;    1,500
1075,704; 1564,136;    1,545;    1,227
1076,246; 1349,500;   -0,182;    0,682
1076,788; 1284,682;   -0,364;    1,773
1077,330; 1357,773;    1,273;    2,136
1077,872; 1306,409;    0,909;    0,955
1078,414; 1545,136;    2,727;    0,773
1078,956; 1274,227;    1,273;   -0,227
1079,498; 1540,591;    1,636;    0,318
1080,040; 1256,227;    1,909;   -1,318
1080,581; 1192,773;    1,636;   -0,318
1081,123; 1099,591;    0,091;   -0,773
1081,665; 1166,591;   -1,182;   -0,955
1082,206; 1489,591;    1,364;   -0,500
1082,748; 1333,136;    0,727;    2,045
1083,289; 1188,682;   -2,000;    1,318
1083,831; 1105,773;   -0,545;    0,227
1084,372; 1137,136;    0,000;    0,591
1084,913; 1149,682;    1,091;    0,864
1085,455; 1104,227;   -1,909;   -2,045
1085,996; 1087,045;   -2,273;    0,136
1086,537; 1115,591;   -0,091;    0,864
1087,078; 1141,682;   -0,909;   -2,136
1087,619; 1177,591;   -1,273;    0,227
1088,160; 1099,318;    0,000;    1,318
1088,701; 1092,682;   -1,091;    0,682
1089,242; 1019,773;    1,364;   -2,227
1089,783; 1131,227;   -0,273;    1,409
1090,324; 1100,591;    0,455;    0,682
1090,865;  961,955;    2,727;   -0,409
1091,405;  918,682;    0,727;    2,227
1091,946;  956,318;    0,182;   -0,955
1092,487;  880,955;    0,818;   -1,409
1093,027; 1057,409;   -1,364;   -1,500
1093,568;  916,773;   -0,364;    1,227
1094,108; 1018,773;    0,273;    1,773
1094,649;  947,045;   -1,182;    0,136
1095,189;  876,136;   -0,636;   -0,682
1095,729;  840,682;   -0,091;    0,955
1096,269;  841,409;    0,727;   -0,955
1096,810; 1159,136;   -1,364;    0,500
1097,350;  974,500;    1,364;   -0,773
1097,890;  885,591;    0,364;    1,227
1098,430; 1150,682;    2,364;    2,864
1098,970; 1022,045;    2,182;    1,682
1099,510;  869,136;    0,545;   -2,318
1100,050;  800,136;    1,000;   -1,591
1100,589;  771,500;   -0,727;   -0,318
1101,129;  896,864;    0,818;   -0,955
1101,669; 1059,955;    1,727;    2,136
1102,209;  870,227;   -0,091;    2,227
1102,748;  828,864;    0,000;    0,955
1103,288;  819,773;    1,273;   -1,227
1103,827;  837,136;    3,091;   -2,227
1104,367;  708,682;   -0,091;   -2,409
1104,906;  682,864;    1,364;   -1,136
1105,445;  770,500;    0,636;   -1,136
1105,985;  709,227;   -0,727;    1,500
1106,524;  760,955;   -1,727;   -0,682
1107,063;  730,318;   -2,727;    1,409
1107,602;  699,136;   -1,909;   -1,500
1108,141;  619,500;   -1,909;    1,500
1108,680;  737,227;   -3,455;   -0,591
1109,219;  661,409;   -0,909;   -0,500
1109,758;  657,864;    0,455;    0,682
1110,297;  630,227;    1,000;   -0,682
1110,836;  582,227;   -0,727;    0,955
1111,375;  750,773;   -2,545;    0,409
1111,913;  754,045;   -1,000;    0,773
1112,452;  687,136;   -0,273;    0,136
1112,991;  571,864;    1,091;    1,955
1113,529;  537,500;   -0,818;   -0,045
1114,068;  609,591;   -0,273;    2,955
1114,606;  508,227;   -0,364;   -0,955
1115,144;  669,136;   -1,273;    1,045
1115,683;  608,773;   -0,727;    0,318
1116,221;  656,318;   -0,455;   -0,864
1116,759;  562,136;    0,636;   -0,864
1117,297;  773,500;    0,000;    1,864
1117,836;  576,682;   -2,182;   -1,227
1118,374;  582,045;    0,182;   -0,682
1118,912;  506,591;    0,909;    2,682
1119,450;  506,318;    1,000;    0,864
1119,988;  562,500;    1,545;    2,136
1120,525; 1026,864;    5,091;    3,318
1121,063;  726,773;    1,182;    1,864
1121,601;  523,955;   -0,909;   -1,227
1122,139;  480,864;   -0,727;   -2,045
1122,676;  695,591;   -0,727;    2,773
1123,214;  620,864;   -1,182;    4,409
1123,751;  418,682;    1,727;    2,227
1124,289;  557,591;   -0,091;   -0,409
1124,826;  422,773;    1,727;    0,227
1125,364;  343,864;    1,727;   -0,955
1125,901;  535,045;    1,182;    1,227
1126,438;  659,682;    0,818;    0,955
1126,975;  368,136;   -0,727;   -0,773
1127,513;  446,318;    0,273;    2,136
1128,050;  345,955;    1,636;   -0,682
1128,587;  453,955;    2,000;   -0,227
1129,124;  493,318;    0,091;    1,318
1129,661;  340,318;    0,273;    0,227
1130,198;  522,136;    1,636;    0,773
1130,734;  467,591;    0,182;    1,409
1131,271;  325,136;   -0,909;    0,864
1131,808;  506,591;    2,909;    3,045
1132,345;  370,318;    1,545;    0,318
1132,881;  242,955;   -1,545;   -1,864
1133,418;  395,227;    0,727;   -1,136
1133,954;  325,500;    2,455;   -2,682
1134,491;  403,227;    1,364;   -0,773
1135,027;  296,409;    2,364;    0,864
1135,564;  390,409;    0,273;    2,955
1136,100;  373,045;    0,364;    2,136
1136,636;  252,500;   -1,273;   -1,045
1137,172;  356,227;    0,000;   -1,045
1137,708;  268,409;   -1,364;   -1,045
1138,245;  272,591;    1,273;   -1,227
1138,781;  219,591;    1,091;   -3,318
1139,317;  310,682;    1,273;   -1,409
1139,852;  288,136;    3,091;    0,136
1140,388;  408,227;   -1,182;   -0,409
1140,924;  290,409;   -1,091;   -2,227
1141,460;  223,500;   -1,636;    0,136
1141,996;  158,682;   -1,364;    2,682
1142,531;  214,773;    1,364;    3,318
1143,067;  433,409;    1,182;    1,045
1143,602;  491,682;   -0,091;   -0,318
1144,138;  330,227;   -2,636;    1,045
1144,673;  198,500;   -1,455;    1,409
1145,209;  262,409;   -1,909;   -0,318
1145,744;  176,682;   -0,727;    0,864
1146,279;  319,227;    1,818;   -0,136
1146,815;  234,045;    1,545;   -2,682
1147,350;  283,955;   -1,364;    0,045
1147,885;  185,318;   -0,818;   -1,318
1148,420;  183,227;   -2,273;    0,773
1148,955;  169,045;   -1,727;    1,864
1149,490;  192,409;   -0,909;   -1,591
1150,025;  170,227;    0,455;   -1,773
1150,560;  296,318;    1,091;   -0,955
1151,094;  265,682;    1,455;   -0,591
1151,629;  267,500;    1,636;    0,864
1152,164;  188,591;    1,364;    1,318
1152,698;  148,955;   -0,182;   -0,136
1153,233;  109,318;    0,091;   -0,682
1153,767;  155,227;   -3,000;   -2,318
1154,302;  212,318;   -1,455;    1,773
1154,836;  210,500;   -0,455;   -2,136
1155,371;  264,864;   -1,364;    3,682
1155,905;  205,682;   -0,636;    1,682
1156,439;  173,864;   -0,636;   -0,500
1156,973;  218,682;    0,364;    0,318
1157,507;  138,591;   -0,364;    0,682
1158,042;  171,682;   -0,727;    1,045
1158,576;  223,318;    0,182;    1,773
1159,110;  214,409;   -0,818;    2,409
1159,643;  179,136;    0,636;   -0,045
1160,177;  116,591;   -1,545;    1,500

