
Integration time [ms]:   0,040
Averaging Nr. [scans]: 11
Smoothing Nr. [pixels]: 0
Data measured with spectrometer [name]: 7318044SP
Wave   ;Sample   ;Dark     ;Reference
[nm]   ;[counts] ;[counts] ;[counts] 

186,757;   37,525;   31,551;    1,318
187,357;   70,615;   22,551;    0,955
187,958;   47,965;   15,460;   -1,591
188,558;   92,152;    8,915;   -1,227
189,159;   49,902;    6,733;   -4,500
189,759;   21,411;    7,278;   -3,591
190,360;   31,727;    2,824;   -2,136
190,960;   66,521;    2,915;   -4,136
191,560;   78,195;    3,189;   -6,591
192,161;  349,565;    4,372;   -3,500
192,761;  176,776;    4,010;   -3,227
193,361;  121,539;    1,556;   -3,773
193,962;  178,075;    2,010;   -2,682
194,562;   90,279;    1,189;   -3,955
195,162;  134,498;   -2,448;   -2,227
195,762;  310,891;   -3,176;   -0,045
196,362;  251,127;    1,370;   -2,500
196,963;   99,146;    2,006;   -0,864
197,563;  175,975;    1,551;   -0,955
198,163;  118,531;    0,096;   -0,682
198,763;  140,303;    1,733;   -0,500
199,363;  265,103;    3,096;   -0,500
199,963;  217,977;    0,369;    0,409
200,563;  187,250;    2,823;   -1,409
201,163;  166,628;    3,277;   -0,227
201,763;  270,696;    3,732;    0,318
202,363;  203,887;    1,459;    1,500
202,963;  324,024;    1,459;    1,045
203,563;  431,278;    0,277;    0,500
204,162;  268,479;    2,096;   -1,864
204,762;  257,312;    0,550;    0,591
205,362;  216,566;    3,004;    1,955
205,962;  326,714;    3,096;    1,955
206,562;  318,738;    1,823;    2,318
207,161;  288,058;   -0,087;    0,318
207,761;  457,861;    1,277;    2,409
208,361;  325,579;   -0,268;    1,409
208,960;  440,506;    0,459;    1,500
209,560;  517,235;    1,277;    1,591
210,160;  493,807;    0,550;    1,864
210,759;  448,429;    4,186;    1,227
211,359;  457,940;    1,459;    1,045
211,958;  741,184;    1,277;    2,045
212,558;  837,611;    1,732;    1,864
213,157;  667,307;    1,822;    1,500
213,757; 1135,422;    3,822;   -0,227
214,356;  813,835;    1,277;   -0,409
214,956; 1159,579;    3,095;    0,409
215,555;  774,808;    2,095;    2,136
216,154;  705,022;   -2,723;   -0,591
216,754;  710,013;    0,277;    0,773
217,353;  855,612;   -0,268;   -1,045
217,952;  716,691;   -0,178;    0,318
218,552;  967,787;    1,368;   -0,773
219,151;  854,419;    0,277;    0,955
219,750;  843,115;    0,004;   -0,227
220,349;  999,050;   -0,451;    1,045
220,948; 1054,478;   -1,360;    1,136
221,548; 1095,395;    0,913;    1,227
222,147; 1213,495;   -0,087;   -0,409
222,746; 1501,555;   -0,451;   -0,955
223,345; 1389,305;    0,731;    0,500
223,944; 1404,459;   -0,451;    0,773
224,543; 1594,582;    1,004;   -1,409
225,142; 1700,183;    0,094;    0,136
225,741; 1602,369;   -0,814;    1,045
226,340; 1643,787;   -0,451;   -0,955
226,939; 2126,941;   -0,996;   -0,136
227,538; 2099,841;   -0,360;   -0,773
228,137; 2259,781;   -0,814;    0,864
228,735; 2467,958;   -0,541;    1,227
229,334; 2202,586;   -0,905;   -0,227
229,933; 2587,204;    0,459;    0,591
230,532; 2689,603;    1,186;   -0,409
231,131; 2731,144;    1,732;    0,318
231,729; 2915,545;   -2,450;   -2,318
232,328; 3076,499;   -0,723;   -1,500
232,927; 3169,267;    1,004;   -0,500
233,525; 3304,491;    3,640;    0,045
234,124; 3528,299;    2,368;   -1,591
234,723; 3548,063;    0,913;   -1,045
235,321; 3730,559;    2,277;    0,136
235,920; 3986,367;    1,186;   -1,227
236,518; 4244,954;    3,459;    0,318
237,117; 4451,823;    0,004;   -0,227
237,715; 4624,195;    0,640;   -0,500
238,314; 4662,526;   -0,087;   -2,318
238,912; 4771,195;   -0,723;   -1,409
239,510; 4826,267;    0,459;   -1,227
240,109; 5018,262;    0,004;    3,773
240,707; 5056,526;   -0,996;    1,227
241,305; 5468,226;    0,550;    0,136
241,904; 5702,408;   -0,178;   -2,045
242,502; 5660,785;   -0,632;   -0,227
243,100; 5580,095;   -0,087;   -0,955
243,698; 5842,649;    0,732;    1,682
244,297; 6039,863;   -0,632;    0,682
244,895; 5855,004;   -0,269;   -2,318
245,493; 6218,382;    2,186;   -0,591
246,091; 6239,332;    1,368;   -1,318
246,689; 6250,054;    1,004;    0,591
247,287; 6413,927;    0,822;   -1,136
247,885; 6714,564;   -1,451;    1,227
248,483; 6799,709;    1,822;   -0,500
249,081; 6915,165;    0,185;    1,591
249,679; 7080,360;   -0,178;    1,682
250,277; 7378,532;   -1,723;    0,864
250,875; 7349,917;   -1,087;   -1,045
251,473; 7370,223;   -1,178;    0,500
252,071; 7599,163;    1,459;    1,045
252,669; 7755,187;   -1,814;    0,318
253,267; 8029,706;   -0,087;    0,773
253,864; 7987,382;   -0,360;    0,682
254,462; 7830,641;    1,640;    1,591
255,060; 7808,891;   -0,269;    1,318
255,658; 8153,368;    0,822;   -0,136
256,255; 8574,923;    0,186;   -2,045
256,853; 8408,746;   -0,269;    1,409
257,451; 8406,282;    0,822;    1,864
258,048; 8698,986;    1,822;    1,864
258,646; 8443,637;    1,731;   -1,045
259,243; 8656,382;   -0,087;    2,227
259,841; 8707,523;   -0,814;    0,318
260,438; 8572,355;   -0,087;    0,864
261,036; 9342,899;   -1,905;    1,409
261,633; 9238,014;   -0,087;    2,227
262,231; 8962,477;    2,731;   -0,045
262,828; 9028,776;   -0,905;    1,136
263,425; 9104,977;    0,913;   -0,591
264,023; 9383,164;    0,186;    0,045
264,620; 8948,719;   -0,360;   -0,318
265,217; 9305,737;   -2,087;    3,136
265,815; 9371,519;   -1,905;    2,136
266,412; 9135,837;    0,731;    0,136
267,009; 9234,277;   -1,451;    0,773
267,606; 9087,091;    0,822;   -0,955
268,203; 9073,131;   -0,269;   -0,591
268,801; 9370,214;    1,731;    0,591
269,398; 9662,701;   -0,360;    2,500
269,995; 9675,776;    0,277;    1,591
270,592; 9396,072;   -0,632;   -0,500
271,189; 9625,005;    0,186;    0,409
271,786; 9750,650;   -0,632;    1,227
272,383; 9586,272;   -1,087;    0,227
272,980; 9767,345;    0,277;    0,318
273,577;10270,744;    0,004;    1,227
274,174; 9824,885;    0,822;    2,591
274,771; 9826,732;   -0,814;   -0,773
275,367; 9963,467;    2,277;    1,409
275,964; 9928,313;    0,731;   -0,500
276,561;10009,109;    1,549;   -1,045
277,158;10252,542;    0,095;   -1,773
277,755;10405,619;    2,185;    0,409
278,351; 9749,269;   -0,451;   -1,500
278,948;10088,765;   -0,815;    0,045
279,545;10097,560;   -1,360;    2,318
280,141;10740,536;   -1,723;   -2,045
280,738;10634,359;   -0,451;   -0,136
281,334;10872,883;   -1,633;    0,591
281,931;10233,729;   -0,087;   -1,318
282,528;10331,738;    0,822;   -0,500
283,124;11102,005;   -1,087;   -0,500
283,721;11000,256;   -0,451;    1,409
284,317;10817,797;    0,185;    2,500
284,913;11373,052;   -1,360;    0,591
285,510;11537,597;    0,640;   -0,318
286,106;11560,960;   -2,269;   -0,955
286,703;11162,810;   -0,360;    1,955
287,299;11355,887;   -1,451;   -0,591
287,895;11548,841;    0,822;   -1,045
288,491;12099,792;    0,186;    2,136
289,088;11860,528;   -2,360;    2,409
289,684;11979,187;   -1,723;    1,500
290,280;11964,977;    0,368;    0,682
290,876;12062,591;    1,822;    5,500
291,472;11917,483;    1,276;    2,227
292,068;12004,788;    1,367;    0,227
292,665;11708,250;    2,095;    0,773
293,261;11317,287;    0,276;    2,136
293,857;11740,513;    2,913;    2,136
294,453;11646,927;    3,550;    0,955
295,049;11545,647;   -0,268;    1,955
295,644;11553,380;    0,095;    0,136
296,240;11411,543;   -0,905;   -0,136
296,836;11475,624;   -0,995;    0,318
297,432;11809,574;    1,096;   -0,500
298,028;11820,728;    0,732;    0,773
298,624;12229,183;    1,459;    1,864
299,220;12493,747;    2,368;    0,591
299,815;12154,956;    1,005;   -0,409
300,411;11972,738;    0,914;    1,773
301,007;11965,714;    1,368;    0,227
301,602;12000,238;   -0,541;   -2,318
302,198;12198,578;    0,732;   -0,773
302,794;12548,519;    1,187;   -0,500
303,389;12667,988;   -1,177;    1,045
303,985;12753,151;    0,550;    1,409
304,580;12726,242;    1,459;    1,591
305,176;12623,888;   -3,086;    0,136
305,771;12570,870;   -1,268;   -1,227
306,367;12439,234;    4,095;    0,136
306,962;12798,056;    0,641;    1,500
307,558;12517,538;   -0,450;    0,136
308,153;12451,166;    1,095;   -1,136
308,748;12681,924;   -0,814;    1,682
309,344;12664,175;   -0,632;   -1,318
309,939;12763,075;   -1,905;   -1,318
310,534;12961,943;   -0,086;   -1,682
311,130;12944,993;    0,459;   -2,500
311,725;12666,211;    1,004;   -0,500
312,320;12986,852;    2,459;    0,045
312,915;12837,221;    1,459;   -1,045
313,510;12917,702;    1,550;   -0,500
314,105;13422,187;    1,096;    1,409
314,700;12783,315;   -3,086;   -1,045
315,295;12424,424;   -0,904;    0,045
315,890;12016,411;    1,277;    0,864
316,485;12378,766;   -0,359;   -0,318
317,080;12504,974;   -3,086;    1,591
317,675;13048,583;    2,005;   -0,682
318,270;12496,510;    5,550;    3,318
318,865;12479,505;    3,278;    3,045
319,460;12301,297;   -0,904;    0,591
320,055;12516,977;   -0,541;   -1,227
320,650;12157,195;   -1,995;   -0,591
321,244;12250,273;   -0,177;   -1,409
321,839;13212,238;   -1,541;   -0,227
322,434;13056,306;   -1,086;   -1,591
323,029;12712,110;    1,732;    1,591
323,623;12542,652;    1,550;    0,773
324,218;12300,987;    2,368;    1,409
324,812;12181,615;    1,096;    1,591
325,407;11969,752;   -0,814;    2,045
326,002;11919,456;    0,277;   -0,409
326,596;12196,483;    0,914;    1,318
327,191;12378,433;    0,823;   -1,045
327,785;11973,483;   -0,813;   -0,227
328,379;12199,829;    1,368;    0,136
328,974;11974,951;    0,914;   -3,955
329,568;12168,833;    0,186;   -2,409
330,163;11999,060;    2,096;    1,045
330,757;12353,111;    2,459;    1,591
331,351;11665,275;    0,459;    0,682
331,945;11972,333;    0,914;    1,409
332,540;11549,006;   -1,723;   -0,591
333,134;11697,634;   -1,086;    0,773
333,728;12007,975;    0,005;    0,318
334,322;12301,033;   -1,177;   -0,864
334,916;11539,562;    0,277;    0,955
335,510;11896,752;   -0,450;   -0,136
336,105;12158,251;   -1,086;    1,591
336,699;11881,838;   -1,086;    0,591
337,293;11765,430;   -1,723;    0,318
337,887;11929,429;   -2,723;    1,955
338,481;12056,034;    0,459;    0,591
339,074;12213,648;   -0,359;    2,682
339,668;12055,321;   -1,632;    1,227
340,262;12284,580;    1,732;    3,227
340,856;11761,758;    1,822;   -0,682
341,450;11099,585;    1,004;    1,864
342,044;12008,248;    1,459;    0,136
342,637;11791,625;    0,913;   -2,136
343,231;11671,073;   -2,360;    0,682
343,825;11628,470;   -1,086;   -0,591
344,419;11579,088;   -1,995;    0,500
345,012;11385,987;    2,459;    4,045
345,606;11368,928;    4,641;    1,591
346,199;11220,082;   -1,813;   -0,227
346,793;10730,300;    1,914;    2,045
347,386;10884,488;   -0,813;   -1,136
347,980;10897,095;   -0,268;   -0,045
348,573;10682,081;    2,278;    0,409
349,167;10374,330;    5,278;    4,773
349,760;10726,280;    2,914;    2,682
350,354;10722,642;   -0,813;    1,136
350,947;10452,225;    1,096;    1,682
351,540;10119,884;   -0,358;   -1,409
352,134;10022,039;    1,096;    1,136
352,727;10116,618;   -0,086;    1,136
353,320; 9907,912;    0,005;    0,591
353,913; 9704,154;   -1,995;    1,864
354,507; 9921,267;    0,823;   -1,227
355,100; 9927,422;    0,460;    0,864
355,693; 9179,161;    2,005;    2,409
356,286; 9223,944;    0,823;    2,773
356,879; 9576,653;   -0,722;    1,227
357,472; 9163,608;   -0,904;    1,500
358,065; 9362,048;   -0,722;    2,500
358,658; 9268,830;   -0,540;    2,318
359,251; 8915,567;   -1,631;   -0,591
359,844; 8388,489;   -1,904;   -1,136
360,437; 8612,217;   -2,995;    0,045
361,030; 8849,808;    1,369;   -0,682
361,623; 8422,443;    2,824;    0,318
362,215; 8484,975;   -0,086;    2,045
362,808; 8299,276;   -2,358;   -1,682
363,401; 8517,011;   -2,449;    0,136
363,994; 8247,302;   -0,631;   -1,500
364,586; 8156,473;    0,824;   -1,500
365,179; 8382,059;   -0,449;   -1,136
365,772; 7876,430;   -1,995;    2,045
366,364; 8184,409;    1,915;   -3,227
366,957; 8369,290;    2,279;   -0,045
367,549; 8402,903;    2,188;   -0,864
368,142; 8033,334;    1,825;   -1,500
368,734; 8214,682;    0,734;   -2,136
369,327; 8171,140;    1,643;   -0,500
369,919; 8078,957;   -1,538;    0,409
370,512; 7849,860;   -1,083;   -0,500
371,104; 7656,798;   -0,901;    1,591
371,696; 7826,635;    1,191;   -0,955
372,289; 7938,042;    0,373;    1,136
372,881; 8113,129;   -2,080;    1,318
373,473; 7997,430;   -2,170;    1,136
374,066; 7822,905;   -0,169;    0,500
374,658; 7667,042;    0,378;    1,136
375,250; 8015,048;    0,653;   -1,409
375,842; 7859,103;    0,473;   -0,045
376,434; 7748,455;   -0,435;   -0,409
377,026; 8331,691;    0,204;   -2,500
377,618; 8195,282;   -0,158;   -0,682
378,210; 8040,551;   -0,338;   -1,955
378,802; 7897,518;    0,754;   -0,591
379,394; 7862,949;    1,846;    0,682
379,986; 8465,014;    1,393;   -0,955
380,578; 8554,854;   -0,153;    0,773
381,170; 7862,694;   -0,972;    0,045
381,762; 7833,739;    0,755;    1,409
382,354; 8062,755;   -0,065;   -1,318
382,945; 8169,180;   -2,976;    0,318
383,537; 8319,301;   -2,705;   -1,955
384,129; 8288,498;   -2,160;   -1,136
384,721; 8537,545;   -0,252;    0,955
385,312; 8464,574;   -0,161;   -0,955
385,904; 8538,586;   -2,706;    1,591
386,496; 7915,521;   -0,979;    1,045
387,087; 8076,606;    1,022;    2,500
387,679; 8116,746;   -1,160;    0,045
388,270; 8231,731;    2,840;    2,045
388,862; 8348,109;    1,295;   -0,318
389,453; 8256,790;   -0,887;    1,045
390,045; 8528,759;   -0,705;   -2,682
390,636; 8457,694;    0,204;   -0,591
391,227; 8290,577;   -0,523;   -0,045
391,819; 8390,018;    0,204;    0,773
392,410; 8527,278;    1,022;    0,045
393,001; 8416,726;   -0,979;   -1,591
393,593; 8717,827;    1,930;   -0,045
394,184; 8598,736;    1,385;   -0,409
394,775; 8555,772;    1,839;    2,136
395,366; 8717,939;    1,385;    0,773
395,957; 8709,138;    0,113;    0,136
396,548; 9014,348;   -0,342;    2,682
397,139; 9355,528;   -2,433;    0,591
397,730; 9070,807;   -1,888;    0,955
398,321; 9099,281;   -1,252;    0,955
398,912; 9130,713;   -0,615;    0,136
399,503; 9209,372;   -3,524;   -1,409
400,094; 8641,295;    0,294;    1,682
400,685; 8499,476;   -0,433;    0,045
401,276; 8581,985;    0,930;   -0,955
401,867; 8895,981;   -0,888;    0,773
402,458; 9021,671;   -2,251;   -2,318
403,048; 8985,831;    1,112;    0,591
403,639; 8580,962;    0,840;    0,864
404,230; 8822,599;    2,476;    0,318
404,821; 8784,463;   -0,615;    0,045
405,411; 8904,304;    1,203;   -2,591
406,002; 8489,781;   -1,252;   -1,136
406,592; 8306,259;    2,294;    0,045
407,183; 8628,533;    0,566;   -1,500
407,774; 8558,351;    3,475;   -0,136
408,364; 8879,096;    0,930;    0,409
408,954; 8473,933;    0,384;    1,227
409,545; 8540,555;    1,021;    1,045
410,135; 8099,957;    1,293;    0,500
410,726; 8233,127;    1,838;    0,318
411,316; 8637,021;    0,111;    0,773
411,906; 8276,971;   -0,253;   -0,409
412,497; 7748,197;   -1,070;   -0,045
413,087; 8385,452;   -1,980;   -0,227
413,677; 8772,340;   -0,707;    3,864
414,267; 8644,381;    0,656;    1,409
414,857; 8644,318;   -2,980;    4,227
415,448; 8934,507;    0,839;    0,500
416,038; 8616,016;    0,020;   -0,591
416,628; 8573,690;   -0,889;    0,409
417,218; 8035,541;    0,565;    3,318
417,808; 8306,932;    0,202;   -0,409
418,398; 8778,968;    0,020;    2,682
418,988; 8811,050;    2,020;    0,591
419,578; 9078,336;   -0,707;    1,409
420,168; 9406,708;   -1,343;   -0,955
420,757; 9038,175;   -1,343;   -1,500
421,347; 8684,151;    0,111;   -0,227
421,937; 8824,351;    2,292;    1,409
422,527; 8813,410;    0,838;   -0,773
423,116; 8635,814;   -0,253;   -0,045
423,706; 8983,478;   -1,889;    0,318
424,296; 8937,923;    1,384;    0,682
424,885; 9419,378;   -0,071;   -3,045
425,475; 9672,174;    1,474;   -2,864
426,065; 9565,378;   -0,980;   -0,318
426,654; 9203,720;   -0,435;   -0,318
427,244; 9349,224;    0,020;    1,409
427,833; 8786,373;    1,383;   -0,500
428,423; 9274,456;   -0,526;    1,136
429,012;10044,489;   -0,344;   -1,136
429,601; 9530,312;   -1,344;    0,136
430,191; 9767,952;    1,292;    4,318
430,780; 9405,706;   -0,344;   -0,409
431,369; 9318,772;    0,746;   -0,045
431,959; 9950,281;   -1,254;    0,500
432,548; 9767,781;   -1,163;   -0,045
433,137; 9887,472;   -1,254;   -1,318
433,726;10422,431;    0,292;    0,500
434,315; 9786,804;   -0,526;    2,409
434,905; 9855,928;   -1,254;    1,409
435,494; 9715,869;    0,746;    0,955
436,083;10201,331;   -0,981;   -0,955
436,672;10111,659;    0,110;    0,500
437,261; 9659,092;    0,292;   -1,955
437,850; 9768,923;    1,383;    0,682
438,439; 9788,333;    3,291;    1,955
439,027; 9661,279;    3,655;    1,773
439,616; 9983,130;    2,927;    1,227
440,205; 9849,557;    0,200;   -2,136
440,794; 9921,244;    2,109;   -0,045
441,383;10238,054;   -1,346;   -0,591
441,971;10034,854;   -2,436;    0,591
442,560; 9934,995;    0,563;   -1,773
443,149; 9657,137;    0,379;   -1,318
443,737; 9827,285;   -0,074;   -2,318
444,326;10092,191;    0,018;    0,318
444,915;10168,473;   -1,982;    0,864
445,503;10591,059;   -2,891;   -0,318
446,092; 9806,732;    0,382;    2,136
446,680;10394,709;    0,382;    0,318
447,269;10547,355;   -0,346;   -0,318
447,857;10292,356;    0,018;   -1,773
448,445;10413,511;    0,563;    1,318
449,034;10612,061;   -1,528;   -1,136
449,622;10807,065;   -1,073;    3,500
450,210; 9994,444;    2,017;    2,227
450,799;10546,749;    0,290;   -0,591
451,387;10504,363;    1,381;   -0,591
451,975;10149,312;    2,654;    0,864
452,563;10224,652;    3,472;    2,318
453,151;10265,422;   -0,528;   -1,227
453,739;10223,850;   -1,347;    0,136
454,328;10041,941;    2,381;   -2,136
454,916; 9741,955;    2,562;   -0,136
455,504; 9927,827;    1,017;    1,227
456,092;10089,254;    0,017;   -1,591
456,679;10081,418;    1,472;    0,682
457,267;10023,419;    4,017;    1,045
457,855;10173,533;    1,017;    1,409
458,443; 9957,006;   -0,165;    1,682
459,031;10089,119;    0,108;    2,409
459,619;10589,392;   -1,801;    2,864
460,206;10717,646;    0,835;    2,045
460,794;10771,470;   -2,983;   -0,227
461,382;11041,821;   -0,529;   -0,864
461,970;10590,121;    1,198;    1,864
462,557;10643,871;   -0,711;   -0,682
463,145;10832,334;   -3,165;   -1,682
463,732;10976,753;    2,016;   -1,045
464,320;10919,259;   -0,075;   -3,045
464,907;10574,367;    2,743;   -0,773
465,495;10458,556;    0,743;   -1,227
466,082;10612,913;   -1,984;   -0,045
466,670;10570,659;   -2,529;    1,227
467,257;10960,250;   -1,711;    2,045
467,844;11105,505;   -0,075;    0,045
468,432;11110,101;    0,834;    3,500
469,019;10574,652;    0,925;   -1,773
469,606;11093,819;    0,470;    3,682
470,193;10924,134;   -1,439;    0,227
470,780;10482,788;   -2,075;    0,864
471,368;10849,720;   -1,257;   -0,773
471,955;10637,224;    1,379;   -0,682
472,542;10267,103;    0,652;   -1,136
473,129;10494,765;   -0,166;    0,136
473,716;10238,792;    1,470;    0,591
474,303;10439,438;    0,652;   -0,864
474,890;10732,685;   -1,439;   -0,500
475,477;10750,804;   -1,621;    0,409
476,064;10648,664;    1,106;   -1,591
476,650;10601,454;    0,288;    0,318
477,237;10436,817;   -0,258;    0,955
477,824;10611,059;   -1,076;    0,864
478,411;10613,404;   -1,894;   -0,318
478,997;10853,418;    0,560;   -0,773
479,584;10922,342;    1,196;   -0,409
480,171;11632,742;   -0,440;   -0,773
480,757;11329,625;    2,651;    0,773
481,344;11615,992;    0,469;    0,409
481,931;11122,422;    1,105;    1,045
482,517;12227,539;   -1,258;    0,318
483,104;12879,310;    1,106;    2,864
483,690;13182,233;   -1,804;    0,045
484,276;13553,820;   -0,895;    0,227
484,863;13273,397;    2,469;    1,136
485,449;13845,357;   -0,077;    0,318
486,035;13787,771;   -1,986;   -0,136
486,622;14248,311;   -0,895;    0,045
487,208;14181,616;    1,378;    1,500
487,794;13968,553;    0,741;    0,318
488,380;14119,772;    0,105;   -1,409
488,967;14201,496;   -1,168;   -0,409
489,553;14289,000;   -1,895;   -1,409
490,139;14450,068;    1,559;    0,773
490,725;13764,182;    0,741;   -0,227
491,311;13293,400;    3,287;    3,045
491,897;12625,687;   -0,986;    1,500
492,483;12432,391;    0,105;    1,227
493,069;12235,309;    3,923;    0,864
493,655;12231,792;    1,650;    0,682
494,241;12133,555;    1,377;   -0,955
494,826;12543,995;    0,287;   -1,045
495,412;12029,482;    2,559;   -0,682
495,998;12164,715;   -0,805;   -0,318
496,584;12301,233;    0,377;    1,045
497,169;12327,434;    1,014;   -0,682
497,755;12230,112;    0,650;    1,227
498,341;12824,702;    0,559;    0,318
498,926;12433,743;    1,832;    1,955
499,512;12601,501;    1,286;    2,955
500,097;12717,527;    0,195;   -0,318
500,683;12633,017;   -0,350;    2,136
501,268;13000,513;   -0,169;   -0,955
501,854;12710,354;   -0,169;    1,227
502,439;12653,664;   -0,624;   -1,773
503,024;12907,632;    0,195;    0,500
503,610;12965,104;   -0,078;   -0,682
504,195;12964,005;    0,558;    1,955
504,780;13071,622;    2,922;    1,227
505,366;12932,049;    3,013;    2,864
505,951;12655,565;    0,740;    1,045
506,536;12640,569;   -3,260;   -3,682
507,121;12616,183;    0,285;   -0,318
507,706;13110,015;    2,376;    1,045
508,291;13542,751;    2,649;    1,136
508,876;12981,308;   -0,988;    2,591
509,461;12420,939;   -0,169;   -0,773
510,046;12850,407;    0,194;    0,318
510,631;13108,693;   -0,351;   -0,773
511,216;12723,725;    2,467;   -0,500
511,801;13086,642;   -0,442;    2,591
512,386;13434,970;    0,740;    0,500
512,971;13360,280;   -2,988;    0,955
513,555;12939,253;   -0,897;   -1,500
514,140;13739,862;   -0,442;   -3,136
514,725;13701,340;   -0,715;   -1,136
515,309;13834,222;   -0,533;    0,318
515,894;13287,367;   -0,624;   -2,227
516,479;13745,413;   -0,624;   -0,955
517,063;13578,917;    0,376;    1,227
517,648;13714,481;    1,012;   -1,136
518,232;13374,101;   -0,261;   -1,409
518,817;13720,897;   -0,079;    1,682
519,401;13943,110;    2,194;    0,591
519,985;13426,528;    1,103;    1,136
520,570;13316,460;    0,830;   -1,955
521,154;13588,765;    2,102;    0,591
521,738;13786,712;   -2,352;    2,409
522,323;14354,374;   -0,170;    1,682
522,907;14067,757;    0,466;   -0,136
523,491;13787,135;    0,557;    0,955
524,075;13763,021;    2,284;    0,591
524,659;13858,793;    1,466;    0,591
525,243;13340,934;    1,739;    0,409
525,827;13598,176;    0,648;   -0,045
526,411;14442,430;   -1,989;   -0,136
526,995;14621,080;   -0,352;    1,409
527,579;14242,159;   -0,443;   -1,045
528,163;14591,355;    0,375;   -1,500
528,747;14490,423;    2,466;   -0,773
529,331;14795,341;   -0,080;   -1,409
529,915;14974,668;    1,738;    0,955
530,499;14937,455;   -0,807;    1,227
531,082;14652,058;   -0,534;    1,591
531,666;14087,324;    1,374;    0,773
532,250;14779,127;    1,284;    2,682
532,833;15112,905;    0,920;    2,773
533,417;14936,855;   -1,807;    0,864
534,001;14930,611;    1,647;   -0,318
534,584;15659,375;    0,374;    0,500
535,168;15498,366;    0,465;    1,409
535,751;15604,360;    0,647;    0,045
536,334;15014,674;   -0,898;   -0,409
536,918;15575,510;    0,011;    1,591
537,501;15701,302;   -0,899;    1,318
538,085;15693,788;   -0,444;    1,045
538,668;15886,220;    0,829;    2,409
539,251;16254,379;    1,829;    3,773
539,834;16195,452;    0,101;    0,773
540,418;16187,430;   -1,990;    4,318
541,001;16283,907;   -0,990;    1,773
541,584;16234,727;    2,101;    2,227
542,167;15947,390;    1,374;    2,955
542,750;16079,826;    1,919;   -0,773
543,333;15662,764;    0,555;    2,136
543,916;16522,422;    0,192;    2,500
544,499;17154,618;   -1,354;    0,227
545,082;17133,963;    1,374;    3,591
545,665;17252,413;    1,919;    1,500
546,248;17641,855;    1,010;   -0,318
546,830;17282,891;   -0,445;    1,955
547,413;17711,692;    1,010;   -0,773
547,996;18208,447;    0,555;    0,500
548,579;17999,493;    0,919;    0,955
549,161;17804,020;    1,828;    2,682
549,744;17566,157;   -0,809;    0,409
550,326;18061,984;   -0,809;   -1,136
550,909;17899,926;    2,737;    0,591
551,492;18239,957;   -0,263;    0,227
552,074;18020,267;   -0,173;   -1,318
552,657;18615,785;    2,373;    0,045
553,239;18324,990;   -0,173;   -0,773
553,821;18211,807;   -1,082;    1,045
554,404;17706,658;    1,282;    1,136
554,986;18122,804;    0,464;    1,045
555,568;18768,281;    1,191;   -0,955
556,151;17998,531;    1,191;   -0,227
556,733;18132,054;   -0,264;   -0,864
557,315;18585,655;    0,100;    0,500
557,897;18437,059;    0,554;   -0,500
558,479;18567,464;   -1,991;    1,318
559,061;18714,238;   -0,719;   -0,864
559,643;19084,051;   -0,264;    0,045
560,225;19440,081;    1,645;    2,864
560,807;19476,233;    0,918;    0,318
561,389;18898,592;    0,554;    2,318
561,971;19696,493;    0,463;    2,136
562,553;19503,910;   -1,628;    1,591
563,135;19648,383;   -0,537;    1,136
563,717;19234,165;    3,372;    1,136
564,298;19956,242;    3,645;   -0,045
564,880;19714,135;    0,645;   -1,409
565,462;19911,226;    0,645;    1,318
566,043;21063,743;   -0,446;    2,318
566,625;20612,738;    1,918;    1,227
567,207;20491,457;    1,099;    1,682
567,788;21611,389;   -1,264;    1,500
568,370;22454,926;    1,917;   -0,500
568,951;22303,571;    0,190;    0,227
569,533;23178,627;   -0,628;   -0,500
570,114;23672,452;   -0,446;    0,682
570,695;24239,176;   -0,174;   -1,318
571,277;24796,959;   -0,265;   -1,682
571,858;25516,490;    2,008;   -1,136
572,439;26391,217;    1,554;   -1,045
573,021;26595,310;    2,099;   -2,773
573,602;27115,159;   -1,265;    0,318
574,183;28075,278;   -2,083;    2,227
574,764;28220,869;   -1,629;    0,409
575,345;28784,828;    0,917;   -0,136
575,926;29345,714;   -0,356;    0,136
576,507;29296,064;    1,099;   -0,227
577,088;30437,396;    3,099;    1,682
577,669;30476,178;    0,735;    1,955
578,250;31324,642;    0,644;   -1,045
578,831;31982,675;   -1,356;   -2,227
579,412;32206,610;   -0,810;    0,955
579,993;33062,228;    1,008;    0,227
580,573;33425,446;   -0,629;   -0,955
581,154;32429,033;    0,735;   -0,591
581,735;33294,778;    0,644;    0,773
582,315;32757,687;   -0,629;    2,136
582,896;33008,596;   -0,174;    1,227
583,477;32418,070;    0,189;    1,227
584,057;32635,015;    0,553;    0,955
584,638;32938,501;    2,553;    2,318
585,218;32942,824;   -0,538;    2,682
585,799;33132,273;    0,281;   -0,227
586,379;33019,396;    0,372;    1,591
586,959;31722,160;    0,735;    0,318
587,540;31011,929;   -0,629;    2,227
588,120;30566,816;    1,007;   -0,045
588,700;29549,925;    2,553;    2,136
589,281;29868,928;    0,462;   -0,955
589,861;29881,624;    0,099;   -1,682
590,441;29700,210;    2,371;   -2,682
591,021;28601,951;   -0,265;   -2,591
591,601;28813,759;   -0,537;    0,500
592,181;28801,682;   -0,719;   -0,773
592,761;28144,866;    0,007;    1,409
593,341;28050,032;   -0,901;    0,045
593,921;28011,818;   -0,265;    1,591
594,501;27950,828;   -0,538;    1,318
595,081;27778,841;    0,917;   -0,318
595,661;28143,860;   -1,447;    0,955
596,240;28672,882;   -0,537;    0,136
596,820;28328,190;    0,372;    1,955
597,400;28519,787;    2,008;    0,773
597,980;28660,604;    2,008;    1,045
598,559;28667,228;    2,735;   -0,227
599,139;28392,710;   -0,174;   -1,227
599,718;28314,346;   -0,174;   -0,409
600,298;28570,805;    0,735;    0,682
600,877;28877,800;    2,917;    1,409
601,457;29088,835;    2,281;    1,136
602,036;28983,300;    0,190;    2,045
602,616;29244,054;    0,644;    1,682
603,195;29549,558;   -0,355;    3,500
603,774;29062,190;   -0,901;    2,045
604,354;28959,258;    0,826;   -0,500
604,933;28416,836;    0,463;    1,864
605,512;28592,422;    3,554;    0,591
606,091;28652,312;   -0,537;    3,773
606,671;29412,263;    0,281;    0,773
607,250;28537,272;    1,644;    3,136
607,829;28773,076;    2,372;    3,227
608,408;28596,817;    1,190;    2,591
608,987;27637,311;    1,281;    3,409
609,566;27996,137;   -1,265;   -2,500
610,145;28093,934;   -1,082;    0,682
610,723;28452,621;    4,372;    6,864
611,302;27725,270;   -0,446;    1,682
611,881;27262,670;    5,008;   11,227
612,460;28065,925;    1,645;    3,955
613,039;28422,138;   -0,082;    2,045
613,617;27181,762;    1,736;    4,773
614,196;27351,139;    1,099;    1,227
614,775;27710,551;    1,009;    2,409
615,353;27656,742;    0,736;    0,864
615,932;27434,633;    0,100;    2,409
616,510;27988,819;    0,554;    0,591
617,089;27490,069;    7,100;   17,591
617,667;27216,456;    2,372;    6,136
618,246;27074,705;   -1,537;    1,318
618,824;27245,783;   -3,355;   -0,955
619,402;26804,878;   -2,900;   -1,773
619,981;27339,182;   -0,173;   -1,045
620,559;27090,382;    0,009;    1,682
621,137;26592,923;   -0,718;    1,864
621,715;26660,519;   -1,173;   -0,682
622,293;26618,068;   -0,537;   -0,773
622,871;27054,200;   -0,718;    0,500
623,450;26601,186;    0,373;   -0,864
624,028;26492,227;    0,191;   -0,955
624,606;26157,118;   -1,718;    1,682
625,183;26549,113;   -1,536;   -1,136
625,761;26142,835;    1,009;    1,136
626,339;26469,927;    1,373;    2,591
626,917;26835,194;   -0,172;   -0,045
627,495;26834,421;   -0,354;    1,318
628,073;26317,748;   -0,263;    2,864
628,650;25992,553;    0,100;    2,136
629,228;26476,381;    0,373;    4,409
629,806;25838,835;    2,282;    1,136
630,383;26082,362;    1,464;   -0,318
630,961;25919,594;    2,555;   -0,955
631,539;25649,048;    2,464;    0,227
632,116;24992,685;   11,373;   15,409
632,694;25540,189;    2,555;    6,500
633,271;25853,983;    0,828;    2,682
633,848;25786,139;    1,828;    2,045
634,426;25781,360;   -1,081;    1,773
635,003;24903,345;    1,101;   -0,409
635,580;25226,782;    1,192;    3,682
636,158;25826,514;    3,737;    1,227
636,735;25773,833;    0,555;   -0,500
637,312;25925,948;   -0,809;   -0,682
637,889;25998,397;   -4,354;   -0,682
638,466;25476,300;   -3,990;   -0,409
639,043;25481,744;    2,101;   -1,136
639,620;25784,889;   -2,262;   -0,955
640,197;26162,848;    1,100;    1,682
640,774;26242,541;   -0,172;    1,136
641,351;26692,325;    0,737;    1,136
641,928;26102,382;   -0,627;    1,409
642,505;25751,256;    0,828;   -0,500
643,082;25876,949;   -1,718;    1,227
643,658;24830,552;   -0,718;    1,500
644,235;25608,245;    1,191;    2,500
644,812;25937,847;    1,918;    0,773
645,388;25623,813;   -0,991;    1,409
645,965;25740,687;   -0,809;    1,682
646,542;25822,017;   -1,445;   -0,227
647,118;25815,983;    1,009;   -0,955
647,695;26077,857;   -0,263;    1,136
648,271;26037,187;   -0,536;    0,500
648,848;26339,243;    0,736;    2,227
649,424;26157,936;    0,827;    1,318
650,000;25933,811;   -0,354;   -1,045
650,577;25767,232;   -0,627;   -0,955
651,153;26250,106;   -1,809;    0,955
651,729;27253,163;    1,191;    0,864
652,305;27924,402;    0,645;    2,773
652,881;33265,186;   -0,082;    1,136
653,458;40280,151;    1,100;    0,227
654,034;43566,390;    0,282;    1,591
654,610;44782,992;    0,554;    0,773
655,186;46072,594;    0,645;    3,045
655,762;45730,651;   -0,991;    0,409
656,338;45690,526;    0,100;    0,136
656,913;46633,128;   -0,082;    0,409
657,489;45802,366;    0,827;   -0,318
658,065;45744,241;   -0,173;   -1,591
658,641;46393,661;   -0,900;   -0,864
659,217;45719,263;   -0,991;    0,409
659,792;45120,956;    0,645;   -0,409
660,368;45283,195;   -2,173;   -0,682
660,944;44558,979;   -2,082;    1,227
661,519;39143,945;   -0,628;    0,409
662,095;33096,638;   -1,719;    0,591
662,670;29000,058;    1,281;   -0,136
663,246;28046,660;    1,009;   -0,409
663,821;27521,262;    0,281;    1,682
664,396;27019,228;    0,009;    1,864
664,972;27276,557;    0,009;   -0,500
665,547;27581,705;    1,372;    0,136
666,122;27632,307;   -1,082;    0,318
666,698;27917,182;   -0,173;    0,318
667,273;27229,784;   -0,173;    0,136
667,848;28106,113;    2,372;    1,500
668,423;27897,261;    2,190;    2,318
668,998;28437,409;    2,827;   -0,682
669,573;28971,829;   -3,264;   -1,500
670,148;28828,886;   -1,446;   -0,682
670,723;28638,033;   -1,810;    0,318
671,298;29025,181;    2,372;    1,045
671,873;29177,237;   -0,082;   -0,136
672,448;29075,567;    0,645;    0,136
673,023;29409,442;   -1,992;   -0,227
673,597;29772,226;    0,827;    2,318
674,172;29539,646;   -0,355;    0,318
674,747;28994,703;    0,372;   -1,045
675,321;28822,850;   -0,628;    3,318
675,896;28453,816;    0,645;    1,045
676,471;29450,418;    2,645;    1,591
677,045;29184,475;   -1,264;    0,682
677,620;29229,259;    0,190;    1,136
678,194;29542,134;   -2,628;    1,136
678,769;29108,736;   -1,083;   -0,318
679,343;29359,974;   -0,628;    1,773
679,917;29267,304;   -1,446;    1,955
680,492;29316,087;    0,826;    3,227
681,066;29519,962;    3,372;    0,409
681,640;29547,110;    1,463;   -0,318
682,214;30378,712;    0,735;    0,500
682,788;29904,678;   -1,356;   -0,773
683,363;29876,644;   -1,810;    1,682
683,937;29538,246;   -1,719;   -0,318
684,511;30253,484;    0,463;   -0,591
685,085;29993,268;   -1,356;    0,318
685,659;29672,961;   -2,538;    0,864
686,232;30024,381;   -0,356;   -0,318
686,806;29668,347;   -0,901;    0,409
687,380;30327,131;   -0,174;    0,591
687,954;30542,642;   -1,174;    1,136
688,528;30236,335;   -0,719;    1,955
689,101;31000,210;   -3,992;    1,045
689,675;30605,085;   -0,356;   -0,136
690,249;30006,414;   -0,719;    0,409
690,822;30266,017;    0,280;    0,318
691,396;30395,437;   -0,265;    1,227
691,969;29827,221;    1,280;    0,136
692,543;30265,277;   -0,447;   -1,955
693,116;29897,152;   -0,265;   -1,409
693,690;29793,845;    0,099;    0,500
694,263;30330,811;   -1,083;    2,955
694,836;30430,504;    1,371;    3,591
695,410;29056,379;   -0,265;    1,773
695,983;29533,799;    0,189;    0,591
696,556;29500,129;   -0,447;   -1,045
697,129;29813,185;   -0,356;    1,409
697,703;29489,697;   -1,629;    1,955
698,276;29482,662;    1,462;   -0,773
698,849;29299,901;    1,280;    1,409
699,422;29632,685;   -1,083;    0,591
699,995;29388,105;    0,007;    0,136
700,568;29886,162;   -0,629;    3,045
701,140;29858,491;   -2,811;    1,682
701,713;29579,548;   -0,174;    2,409
702,286;29381,786;   -0,538;    0,864
702,859;29218,116;   -0,902;   -0,591
703,432;28424,172;    0,825;    0,682
704,004;28903,774;    0,462;    0,318
704,577;28816,286;   -0,629;    0,136
705,150;29302,251;    0,189;    2,500
705,722;29060,308;   -0,356;   -3,227
706,295;28919,456;   -0,175;   -0,591
706,867;28777,512;   -0,175;    1,955
707,440;28967,569;   -1,720;   -0,409
708,012;29284,171;    0,462;    0,591
708,584;29160,591;    2,462;    0,227
709,157;29412,648;    1,825;   -0,591
709,729;29098,887;    2,280;    2,045
710,301;29941,125;    0,734;    0,045
710,874;29992,636;   -1,447;   -0,227
711,446;28844,148;    0,371;    0,864
712,018;28704,750;    0,098;    0,500
712,590;28457,534;   -1,993;    1,682
713,162;29023,408;    0,825;    1,318
713,734;29204,556;    1,825;   -2,045
714,306;29104,704;   -1,902;   -0,409
714,878;27805,124;    0,825;    0,864
715,450;28627,544;    0,643;    0,864
716,022;28863,510;    1,552;    1,318
716,593;29032,203;    0,189;    0,591
717,165;28970,714;   -3,175;   -1,227
717,737;28671,953;    0,280;    0,409
718,309;28322,646;    0,280;   -0,045
718,880;28291,066;   -0,539;   -1,409
719,452;28456,214;   -0,175;   -1,591
720,024;28064,270;    0,734;   -0,591
720,595;28624,963;   -2,902;    0,955
721,167;28199,838;    0,370;   -2,045
721,738;27786,349;   -0,812;   -1,045
722,309;27761,861;   -0,993;   -1,227
722,881;27547,826;   -1,357;    0,773
723,452;28116,065;   -2,630;    2,864
724,023;28324,940;   -0,721;    2,682
724,595;28080,724;    0,007;    0,682
725,166;27804,962;    0,007;   -0,409
725,737;27499,201;    1,734;    0,227
726,308;27572,348;   -0,266;    0,318
726,879;27982,769;   -1,630;    1,227
727,450;27850,643;    0,552;   -0,045
728,021;27798,336;    3,097;    0,682
728,592;27587,302;    0,734;    0,500
729,163;27964,450;    0,643;   -0,136
729,734;28016,597;    0,188;   -0,227
730,305;28389,199;    1,734;    0,136
730,876;28682,892;    0,188;    2,955
731,447;28449,313;    2,188;    2,682
732,017;28511,188;    1,097;    1,864
732,588;27962,790;    0,734;    1,227
733,159;28191,119;    0,643;   -1,045
733,729;28001,812;    0,006;    0,409
734,300;27311,323;    0,915;    0,864
734,870;27721,380;    3,461;    0,591
735,441;28263,528;    0,370;   -0,591
736,011;28035,584;    0,643;   -1,591
736,582;27935,005;   -0,812;    0,045
737,152;27364,334;   -1,721;   -2,045
737,722;27844,027;   -0,267;   -0,682
738,293;27596,175;   -1,358;    1,318
738,863;27467,231;    2,461;    2,318
739,433;27263,742;    5,279;    0,318
740,003;27908,708;   -0,994;   -0,682
740,573;27319,765;    2,097;   -1,591
741,143;27253,185;   -1,085;    0,318
741,713;28012,787;    1,188;   -0,500
742,283;27739,571;    0,915;    1,591
742,853;27526,173;    1,915;    1,591
743,423;26889,957;    1,733;    0,045
743,993;27039,378;   -0,358;    1,500
744,563;26411,162;    0,097;   -0,864
745,133;26381,127;   -0,812;   -0,864
745,702;27072,729;   -0,267;    1,773
746,272;26330,059;   -0,176;    0,591
746,842;26035,297;   -1,358;   -0,591
747,411;26424,445;   -0,267;   -0,318
747,981;26609,865;    0,097;    0,500
748,551;26673,104;    2,278;   -1,045
749,120;26556,615;    0,642;   -0,227
749,690;26924,672;   -0,631;    2,409
750,259;27289,092;    1,369;    2,955
750,828;27206,876;    1,551;   -1,955
751,398;27444,751;    1,278;   -0,045
751,967;27009,626;    2,187;    0,409
752,536;27223,046;   -0,813;   -0,227
753,105;27580,103;    0,096;    0,227
753,675;27380,068;    0,096;    1,773
754,244;27335,580;   -0,904;    3,591
754,813;27377,182;    0,551;    1,227
755,382;26945,784;    0,460;    0,955
755,951;27560,204;    1,551;    3,682
756,520;27093,352;   -0,085;    1,864
757,089;27651,590;    0,278;    0,500
757,658;27774,829;    1,733;    1,227
758,227;27763,794;    1,096;    0,318
758,795;28084,669;    1,187;    1,136
759,364;28286,453;   -0,086;   -0,591
759,933;27335,237;   -1,176;   -0,045
760,501;26839,930;    0,733;   -1,318
761,070;27277,896;   -2,813;   -1,409
761,639;27956,953;   -1,904;    1,318
762,207;27397,736;    1,551;   -0,955
762,776;27311,702;    0,369;    0,864
763,344;27245,032;   -0,995;    0,591
763,913;26315,361;   -0,722;    1,409
764,481;27073,236;    1,005;   -0,136
765,049;26844,838;   -1,358;    1,409
765,618;26703,713;   -0,086;    0,318
766,186;26844,315;    0,278;    0,136
766,754;27019,281;    0,005;    1,864
767,322;25989,883;   -1,995;    0,409
767,890;26014,212;   -0,722;   -1,773
768,459;26442,723;   -2,177;   -0,318
769,027;26630,326;    1,641;    3,409
769,595;25565,291;    3,278;    2,591
770,163;25991,803;    3,823;    2,955
770,730;25756,132;    0,732;   -0,136
771,298;25591,007;    0,187;   -1,409
771,866;25640,063;   -1,541;    4,955
772,434;25964,393;   -0,631;   -1,864
773,002;26148,268;    0,005;    0,682
773,569;25775,597;    0,914;    1,682
774,137;25576,017;   -0,268;   -0,045
774,705;26375,620;    0,278;   -0,136
775,272;25900,313;    0,641;    0,682
775,840;25634,187;   -0,177;    2,682
776,407;25204,790;    0,277;    1,955
776,975;24763,574;   -0,632;    0,318
777,542;25806,176;   -1,086;   -0,045
778,110;25646,414;   -1,268;   -0,045
778,677;25316,744;   -2,359;   -0,864
779,244;25045,073;    2,186;    1,045
779,812;25171,130;    1,823;    0,864
780,379;25052,459;    0,005;    1,136
780,946;25282,697;    1,005;   -0,773
781,513;25593,572;   -1,450;    0,318
782,080;24983,356;   -0,086;    2,864
782,647;25717,231;   -0,268;    3,045
783,214;25286,651;   -0,177;    3,864
783,781;24910,890;   -0,723;   -0,682
784,348;24764,765;   -0,632;    1,500
784,915;25218,912;   -3,177;    0,318
785,482;25009,878;    1,368;    2,591
786,049;25398,026;    0,186;   -0,591
786,615;25536,628;    0,277;   -0,955
787,182;25299,775;    0,186;   -0,682
787,749;24939,559;   -2,814;    1,409
788,315;24312,252;   -1,632;   -0,409
788,882;24605,764;    1,550;   -1,227
789,448;25304,547;    1,732;   -0,955
790,015;25303,241;    1,095;    3,227
790,581;24900,570;    1,459;    0,227
791,148;24784,354;    0,641;    1,045
791,714;24978,047;   -0,541;    3,136
792,280;24673,922;    0,186;    1,591
792,847;24191,160;    0,550;    2,500
793,413;24744,853;   -0,269;   -0,318
793,979;24276,819;    3,459;   -1,318
794,545;24387,330;    4,459;    2,682
795,111;23832,296;    2,186;    1,318
795,678;24002,716;    0,731;   -1,682
796,244;23621,318;    3,368;    0,136
796,810;24168,921;    1,731;    0,773
797,375;23917,523;    0,549;   -2,136
797,941;23891,670;   -0,541;    0,591
798,507;24058,545;   -0,451;   -0,955
799,073;23586,420;   -0,360;    0,591
799,639;23693,477;   -2,632;    3,136
800,205;23692,261;    0,095;    2,682
800,770;23261,226;    0,640;    1,773
801,336;23338,010;    1,368;   -0,955
801,901;23095,703;    4,549;    3,136
802,467;23599,851;   -0,542;    2,045
803,033;22957,180;   -0,087;    0,864
803,598;23161,601;    1,913;   -1,045
804,163;23193,112;    1,095;   -0,318
804,729;23169,987;   -0,178;    1,136
805,294;23538,043;    0,822;    2,227
805,859;23301,464;    0,731;   -0,409
806,425;22748,248;    1,186;    2,682
806,990;22432,122;    2,186;    4,318
807,555;22960,452;   -1,451;    2,591
808,120;22823,599;    0,822;   -0,409
808,685;22841,201;    0,185;   -2,500
809,250;22378,258;    0,004;   -0,500
809,815;22685,406;    1,913;    0,682
810,380;23267,099;   -0,269;    1,591
810,945;23783,337;   -1,087;    2,045
811,510;22959,758;    2,094;    1,591
812,075;22660,723;   -0,633;   -1,409
812,640;22669,689;    2,003;    1,409
813,204;22741,564;    0,822;   -0,227
813,769;23220,348;    2,094;   -0,045
814,334;22671,314;    0,458;    0,864
814,898;22740,370;    0,367;    0,591
815,463;22565,609;    1,276;   -0,773
816,027;22535,302;   -0,724;   -2,318
816,592;22589,540;    0,640;   -2,045
817,156;22094,415;    2,094;    1,136
817,721;22042,926;    4,276;    2,318
818,285;21977,710;    2,912;    1,500
818,849;22638,858;   -1,451;    1,682
819,414;22466,551;   -0,269;    2,955
819,978;22002,789;   -1,269;    1,773
820,542;22635,664;    2,003;    0,500
821,106;22338,903;   -0,815;    0,682
821,670;22496,687;   -0,815;    2,591
822,234;22189,016;   -0,270;    1,409
822,798;21543,982;    0,003;    0,500
823,362;21499,311;   -0,633;    4,227
823,926;20828,004;    0,094;    1,136
824,490;21052,879;   -0,997;   -0,682
825,054;21502,390;   -0,088;   -1,136
825,618;21150,902;   -1,542;   -1,500
826,181;21099,504;    0,458;   -1,318
826,745;21009,651;    1,367;   -1,045
827,309;21370,072;    1,185;    1,318
827,872;20688,765;    1,367;    0,955
828,436;21671,458;    1,185;   -0,773
828,999;21741,696;   -0,997;    1,227
829,563;20540,298;   -0,179;    1,136
830,126;20380,900;   -0,179;   -0,591
830,690;20381,684;   -1,997;    2,864
831,253;19874,741;   -0,543;    2,227
831,816;20035,252;   -1,906;    0,500
832,380;19964,036;    0,185;    0,864
832,943;20197,184;   -1,361;   -0,500
833,506;19692,331;    2,639;   -1,227
834,069;20425,661;    3,912;   -0,955
834,632;20494,990;    1,730;    1,318
835,195;20434,774;    1,003;    0,955
835,758;19567,740;   -0,997;    1,955
836,321;19406,887;    0,730;   -1,045
836,884;19527,489;   -0,725;   -0,955
837,447;19543,546;   -2,816;    1,773
838,010;19863,239;    0,366;    3,227
838,573;20149,387;   -1,179;    0,773
839,135;20109,716;   -1,361;   -0,955
839,698;19576,591;    1,275;    0,409
840,261;19053,284;    1,003;   -0,227
840,823;18879,523;   -0,543;    0,864
841,386;19157,216;   -0,452;   -2,409
841,948;19087,545;   -1,361;    1,773
842,511;18806,783;    0,912;    1,682
843,073;18959,931;    1,912;    0,227
843,636;18734,079;   -0,361;   -0,227
844,198;18739,226;    0,911;    0,591
844,760;18829,828;    1,093;    1,955
845,322;18457,703;    0,548;    1,136
845,885;18921,669;    0,730;    0,591
846,447;19364,816;   -1,998;    0,227
847,009;18925,237;    1,911;   -0,682
847,571;19251,748;    0,820;   -2,045
848,133;19383,532;   -1,089;   -1,864
848,695;19184,498;   -0,543;    1,409
849,257;18726,009;   -1,089;   -1,682
849,819;18902,793;   -0,998;   -0,409
850,381;18977,668;   -0,725;   -0,864
850,942;19302,361;    1,093;   -0,591
851,504;19282,872;    1,184;    0,227
852,066;19314,474;    1,275;   -1,591
852,628;18839,531;   -0,180;    1,955
853,189;18372,587;    1,638;    2,682
853,751;18480,917;   -0,907;    1,409
854,312;18261,064;   -0,453;   -1,682
854,874;18783,212;   -2,089;   -0,773
855,435;19314,814;   -0,907;   -1,682
855,997;19481,143;   -1,816;   -0,136
856,558;18780,564;    0,366;    1,773
857,119;18855,439;    0,820;    2,864
857,681;18518,950;    0,002;    0,318
858,242;18592,916;    1,911;   -2,136
858,803;19029,245;    0,456;   -0,773
859,364;19587,302;    0,184;   -4,773
859,925;18907,995;   -2,453;   -0,955
860,486;18794,051;   -0,453;   -0,955
861,047;18518,108;   -0,544;   -1,227
861,608;18348,437;   -1,089;   -0,773
862,169;18453,767;    0,638;   -0,045
862,730;18231,642;    0,456;    1,409
863,291;18483,335;   -0,635;   -0,500
863,852;18853,846;   -0,635;    1,955
864,412;18308,084;   -0,271;   -0,864
864,973;16885,232;   -0,089;    0,500
865,534;16771,561;   -1,726;    0,227
866,094;18226,800;    1,820;    0,227
866,655;17910,584;    1,274;    3,318
867,215;18192,186;    0,274;    0,136
867,776;18011,061;    0,547;   -0,136
868,336;18133,845;   -1,453;    0,136
868,897;17642,538;    2,638;    1,682
869,457;17338,322;    1,365;    0,318
870,017;17571,378;    0,547;   -1,227
870,578;18113,435;   -0,817;    0,773
871,138;17833,492;   -2,089;   -0,955
871,698;17362,457;   -0,817;   -1,318
872,258;17269,969;   -0,453;   -2,864
872,818;17612,571;    2,729;    0,045
873,378;17569,809;    0,638;    1,045
873,938;17099,139;    0,547;    0,500
874,498;17423,559;    0,274;   -1,955
875,058;17380,525;    2,183;    1,773
875,618;17154,672;    1,910;   -2,682
876,177;17103,911;    1,274;    0,136
876,737;16715,331;   -0,090;    1,955
877,297;16753,206;    0,183;    1,955
877,856;16736,081;   -0,362;    0,318
878,416;16673,683;    1,183;   -0,136
878,976;16943,649;   -1,817;    0,409
879,535;17097,796;    0,092;    3,136
880,095;16809,217;   -0,544;    0,045
880,654;16939,091;   -1,090;    1,318
881,213;17078,330;    2,456;    1,500
881,773;16720,932;    2,637;    2,682
882,332;17114,534;    3,365;    5,136
882,891;16917,409;    3,092;    2,136
883,451;17397,920;   -1,272;    1,682
884,010;16798,977;   -2,908;   -0,409
884,569;16909,488;   -0,999;   -0,045
885,128;17039,272;    2,819;   -1,864
885,687;17134,783;    4,455;    0,682
886,246;16823,113;    1,455;    2,136
886,805;16589,806;    2,455;    2,045
887,364;16860,862;   -0,999;   -0,500
887,922;17241,919;   -1,181;    0,045
888,481;16710,430;   -1,545;    0,591
889,040;17009,760;    1,183;    2,136
889,599;17731,998;    2,455;    1,409
890,157;17788,146;    1,455;    2,409
890,716;17462,748;   -0,090;    0,227
891,274;17297,804;    0,092;   -1,136
891,833;17709,498;    1,546;    0,864
892,391;17552,645;   -0,454;    0,500
892,950;17638,611;    1,819;   -0,773
893,508;18002,486;    0,455;   -0,409
894,067;17315,542;    0,637;    0,136
894,625;17222,872;   -0,636;   -1,500
895,183;17473,292;   -0,363;   -0,682
895,741;17362,985;    1,728;   -1,773
896,299;17186,860;   -0,545;   -2,409
896,858;17374,462;    0,819;   -1,591
897,416;17511,155;    2,728;   -1,318
897,974;17261,030;    1,819;    0,318
898,532;17406,905;    6,091;    2,682
899,089;17295,598;    2,091;   -0,682
899,647;17385,473;   -1,454;    1,318
900,205;17082,166;    1,182;    1,045
900,763;17250,950;   -0,454;    0,227
901,321;17270,734;    2,364;   -1,409
901,878;16689,427;   -1,000;   -0,773
902,436;16559,029;   -1,363;    1,318
902,994;16963,449;    4,728;    3,682
903,551;16401,597;    0,728;    0,409
904,109;16780,926;    0,182;   -1,409
904,666;16332,710;    2,455;    1,045
905,224;16200,767;    0,182;   -0,409
905,781;15970,732;    0,727;   -0,318
906,338;16017,607;   -1,363;    1,045
906,895;15951,482;    0,637;    2,045
907,453;15892,630;    1,727;    1,136
908,010;15915,414;   -0,909;    0,409
908,567;15572,470;    1,273;    0,591
909,124;15026,982;    0,364;   -1,500
909,681;15076,947;   -2,909;    0,682
910,238;15232,368;    0,636;   -1,318
910,795;15582,515;   -0,273;   -1,136
911,352;15190,515;   -2,909;   -2,682
911,909;14609,152;   -1,364;   -0,864
912,466;15125,333;   -3,182;    1,500
913,022;14631,970;   -1,636;    0,500
913,579;15018,606;   -0,909;    2,045
914,136;14716,970;    1,636;    0,955
914,692;15064,152;    0,091;   -1,227
915,249;14641,515;    1,455;    0,409
915,806;14884,061;    0,182;    1,955
916,362;14685,788;    1,909;    1,864
916,918;14167,515;    2,000;    1,045
917,475;14161,970;   -1,182;    0,955
918,031;14200,606;    3,364;   -0,045
918,587;13684,242;   -0,909;   -0,318
919,144;13919,424;   -2,273;    0,227
919,700;14208,697;    1,727;    0,773
920,256;13763,333;    0,727;    0,045
920,812;13408,061;   -0,727;   -1,045
921,368;13425,061;   -1,727;   -1,045
921,924;13045,879;    0,182;   -0,136
922,480;12640,061;   -0,545;    1,227
923,036;13256,152;    1,273;    1,955
923,592;13160,606;    0,455;    0,318
924,148;13122,697;    0,455;   -0,955
924,704;12400,515;   -1,364;   -0,409
925,259;12639,970;   -0,273;    0,591
925,815;12433,152;    1,455;    0,500
926,371;11925,788;    2,909;    1,409
926,926;11806,697;    2,091;    0,591
927,482;11440,879;   -1,364;    0,773
928,037;11347,970;    0,909;    2,045
928,593;11629,970;    1,636;    1,045
929,148;11463,424;   -1,818;   -1,500
929,704;10973,515;   -1,455;   -0,500
930,259;11162,333;    0,091;   -0,136
930,814;10237,333;   -0,818;    1,955
931,369; 9897,152;    1,091;   -0,773
931,925; 9753,606;   -0,091;    0,136
932,480; 9664,242;   -2,818;   -2,591
933,035; 9579,515;    0,545;   -0,318
933,590; 9369,333;    0,364;   -1,773
934,145; 8960,242;   -1,364;   -0,318
934,700; 9279,424;    0,455;   -0,591
935,255; 9096,788;   -0,091;    0,045
935,809; 8405,424;    3,182;    0,864
936,364; 7520,152;   -0,455;   -0,136
936,919; 7486,061;    0,455;   -1,773
937,474; 7353,242;    1,455;    0,136
938,028; 7089,879;   -1,636;    1,136
938,583; 6601,242;    1,818;    4,682
939,138; 6850,606;    2,091;    2,136
939,692; 6284,697;    1,636;   -1,136
940,247; 6015,152;   -0,727;   -1,045
940,801; 5555,606;   -0,636;    0,227
941,355; 5455,788;   -0,364;    2,591
941,910; 5126,879;   -0,273;   -2,136
942,464; 5196,879;   -0,818;   -0,318
943,018; 5011,333;    1,000;   -0,227
943,572; 4944,788;    2,545;   -0,682
944,126; 4379,879;    0,091;   -0,409
944,681; 4280,424;    3,091;    0,227
945,235; 4264,424;    1,000;   -0,591
945,789; 4209,242;    0,364;   -1,864
946,342; 4321,152;    0,455;   -0,591
946,896; 4110,515;   -2,273;    0,955
947,450; 3861,970;    1,545;   -0,227
948,004; 4070,061;    1,727;   -0,045
948,558; 4047,788;    0,273;   -0,864
949,111; 3991,515;   -0,273;   -0,318
949,665; 4020,333;    1,636;   -0,682
950,219; 3886,788;   -0,091;   -1,045
950,772; 3969,242;   -1,909;    1,864
951,326; 3873,333;    0,545;   -0,955
951,879; 3966,606;    0,727;   -2,318
952,433; 4009,061;    0,000;    2,227
952,986; 3826,242;    2,909;    0,682
953,539; 3779,879;   -0,273;    0,591
954,093; 3713,242;    0,545;   -1,318
954,646; 3867,242;    0,909;    1,318
955,199; 3669,606;    0,000;   -0,500
955,752; 3559,606;   -0,455;    1,773
956,305; 3499,424;   -0,091;    2,955
956,858; 3669,515;    0,818;   -0,318
957,411; 3846,606;   -0,545;    2,136
957,964; 3674,333;    1,364;    2,136
958,517; 3666,697;   -1,545;    3,136
959,070; 3513,424;   -0,455;    1,955
959,623; 3596,061;    1,091;    1,500
960,176; 3348,152;    1,727;    2,045
960,728; 3324,515;   -2,727;    0,773
961,281; 3382,879;    0,545;    0,500
961,834; 3428,515;   -0,909;    0,864
962,386; 3342,061;    1,727;    1,045
962,939; 3281,242;    0,364;   -0,318
963,491; 3414,061;    0,455;    1,136
964,043; 3283,152;    1,182;    2,409
964,596; 3429,424;   -1,000;    2,227
965,148; 3230,242;   -1,000;    1,773
965,700; 3154,788;    1,091;   -0,227
966,253; 3327,606;   -0,636;    0,318
966,805; 3147,606;   -2,273;    0,773
967,357; 3216,697;    1,091;   -1,500
967,909; 3168,424;    0,455;   -1,227
968,461; 3270,970;    0,545;    3,136
969,013; 3194,879;   -0,182;   -0,864
969,565; 3275,515;   -0,455;   -1,136
970,117; 3340,788;   -0,364;    1,045
970,669; 3173,152;    0,182;   -0,136
971,220; 3031,697;   -0,455;   -1,500
971,772; 2959,606;   -0,636;   -0,318
972,324; 3085,152;    0,091;   -0,500
972,876; 3031,970;    0,818;   -0,045
973,427; 3175,606;    1,909;   -1,045
973,979; 3134,697;   -0,727;   -2,500
974,530; 3173,515;    1,818;    1,318
975,082; 3191,333;   -0,545;    1,682
975,633; 3087,424;    1,091;    1,682
976,184; 3228,606;    0,909;    0,773
976,736; 3015,970;    0,091;    0,227
977,287; 2815,606;   -0,909;   -0,500
977,838; 2998,152;    0,909;   -0,318
978,389; 3042,061;   -1,000;   -0,500
978,940; 2917,515;    0,545;   -0,409
979,491; 2938,242;    0,091;   -0,500
980,042; 2922,152;    0,182;    3,045
980,593; 2951,333;   -2,545;    0,227
981,144; 2998,697;    2,545;   -0,500
981,695; 2956,788;    1,455;    1,500
982,246; 2934,333;   -0,273;    1,045
982,797; 3105,879;   -1,727;    0,682
983,347; 3190,424;    0,364;    0,591
983,898; 3361,970;    3,091;    0,409
984,449; 3172,879;    2,182;    0,773
984,999; 3077,424;    1,455;   -1,136
985,550; 2851,515;    0,182;   -0,318
986,100; 2882,970;   -0,455;   -0,318
986,651; 2925,061;   -0,818;    0,045
987,201; 2906,515;   -1,000;   -0,591
987,751; 3001,697;    0,818;    2,864
988,302; 2996,424;    2,636;    1,500
988,852; 3006,515;    0,455;   -1,136
989,402; 3035,333;    0,091;    0,682
989,952; 2959,152;   -2,182;    0,864
990,502; 3049,242;   -0,091;    0,682
991,052; 3013,788;   -0,727;    0,045
991,602; 2896,697;   -2,909;    1,318
992,152; 2886,424;    0,455;    0,682
992,702; 2878,788;    1,364;   -0,045
993,252; 2803,697;   -3,000;   -0,500
993,802; 2899,879;   -0,273;    1,318
994,352; 3122,242;   -1,545;    1,136
994,901; 3211,970;   -0,182;    3,227
995,451; 3122,152;   -0,182;    0,318
996,000; 3192,242;    1,636;    0,318
996,550; 2921,061;    2,273;    0,227
997,100; 2904,152;    1,273;   -0,045
997,649; 3208,333;    2,182;    0,955
998,198; 2829,424;    1,727;   -1,500
998,748; 3026,242;    1,091;   -2,318
999,297; 2939,788;   -0,818;   -0,409
999,846; 2994,879;    1,000;   -0,773
1000,395; 3042,061;   -0,818;    0,500
1000,945; 3007,606;    1,818;   -0,773
1001,494; 3091,697;    2,364;    0,682
1002,043; 3082,606;    4,636;    0,864
1002,592; 2906,606;   -1,091;    1,955
1003,141; 3060,242;   -0,455;   -0,682
1003,690; 2911,970;    1,727;    0,500
1004,238; 3008,697;    1,455;   -0,045
1004,787; 2631,788;    1,364;    1,227
1005,336; 2868,424;    0,364;    0,682
1005,885; 3022,606;    1,364;   -2,773
1006,433; 3158,515;    0,545;    0,955
1006,982; 3214,424;    0,455;    1,682
1007,531; 3131,606;   -1,818;   -0,227
1008,079; 3052,152;   -2,273;    0,500
1008,627; 3173,152;   -1,455;    0,409
1009,176; 2935,788;    0,000;   -1,955
1009,724; 2981,606;    1,091;    0,864
1010,273; 3065,061;    1,273;    0,500
1010,821; 3149,606;    0,091;    1,409
1011,369; 2871,970;   -1,364;    1,318
1011,917; 2870,606;   -1,364;   -0,591
1012,465; 3162,424;    1,273;   -1,591
1013,013; 3248,515;    2,091;   -1,682
1013,561; 3138,424;    0,455;   -0,773
1014,109; 3201,879;   -1,909;    1,682
1014,657; 3083,242;    0,364;    0,591
1015,205; 3184,970;    1,636;   -0,955
1015,753; 3235,879;   -0,545;   -1,409
1016,301; 3268,515;   -2,636;    3,045
1016,848; 3261,242;   -1,273;    0,409
1017,396; 3314,333;    2,545;    0,045
1017,944; 3431,242;    1,182;    1,864
1018,491; 3196,879;    0,273;    1,409
1019,039; 3345,242;    0,455;    0,591
1019,586; 3222,788;   -1,364;    1,682
1020,134; 3335,424;    0,455;    1,500
1020,681; 3356,242;    0,182;   -1,136
1021,228; 3366,333;    2,909;   -2,227
1021,776; 3207,424;    1,182;   -1,136
1022,323; 3433,061;    0,455;    0,773
1022,870; 3357,970;   -1,000;   -0,045
1023,417; 3260,333;    2,636;    1,864
1023,964; 3399,152;    2,636;    1,227
1024,511; 3230,606;    1,000;    0,773
1025,058; 3018,515;    3,182;   -0,045
1025,605; 3076,697;   -2,273;    3,136
1026,152; 3322,242;    1,727;   -0,591
1026,699; 3024,424;    1,818;    1,318
1027,245; 3190,061;   -0,091;    0,318
1027,792; 3415,242;   -1,000;    1,409
1028,339; 3290,333;    2,364;   -0,045
1028,885; 3135,879;    1,000;   -0,227
1029,432; 3079,515;   -0,091;    0,227
1029,978; 3158,242;   -1,000;   -1,591
1030,525; 3034,515;    1,000;    0,409
1031,071; 3266,697;   -1,364;    1,136
1031,618; 3389,061;    0,364;    1,682
1032,164; 3168,061;   -0,091;    3,045
1032,710; 3220,515;    1,636;   -1,500
1033,256; 3124,152;   -0,636;   -0,136
1033,803; 3110,061;   -0,545;    1,500
1034,349; 2820,242;   -1,364;    0,136
1034,895; 2976,515;    0,000;   -0,318
1035,441; 2967,697;   -0,818;    0,318
1035,987; 2973,697;   -2,364;   -0,682
1036,533; 2962,515;   -1,455;   -0,955
1037,078; 3176,333;    1,455;    1,682
1037,624; 2981,970;    2,455;   -0,955
1038,170; 3017,333;    0,455;   -0,318
1038,716; 2923,061;    1,636;   -0,409
1039,261; 2824,152;   -2,273;   -0,773
1039,807; 2775,606;   -0,091;    3,409
1040,352; 2837,515;   -1,909;   -0,318
1040,898; 2871,788;   -1,545;   -0,682
1041,443; 2798,333;   -1,455;   -2,591
1041,989; 2805,333;    1,091;    1,591
1042,534; 2685,970;   -0,364;    2,591
1043,079; 2791,242;    2,909;    0,955
1043,625; 2600,333;    1,818;    0,500
1044,170; 2635,515;   -1,364;    1,045
1044,715; 2893,788;    2,455;    0,955
1045,260; 2720,061;    2,182;   -0,955
1045,805; 2764,515;    1,182;   -0,591
1046,350; 2673,606;    1,364;   -0,409
1046,895; 2635,515;    2,909;    1,591
1047,440; 2614,697;    5,364;    0,409
1047,985; 2508,879;    2,818;   -0,955
1048,530; 2423,152;    1,545;    1,227
1049,074; 2485,788;    0,000;    0,318
1049,619; 2450,606;   -1,364;    1,955
1050,164; 2256,424;    0,455;    0,227
1050,708; 2302,152;   -0,455;    0,045
1051,253; 2685,879;    1,273;   -2,227
1051,797; 2390,242;    0,818;   -1,318
1052,342; 2385,152;   -1,182;    1,045
1052,886; 2394,697;    0,364;   -1,409
1053,430; 2274,697;   -1,364;    0,136
1053,975; 2276,333;   -0,818;   -0,318
1054,519; 2264,970;   -0,727;    3,227
1055,063; 2286,879;    0,909;    1,318
1055,607; 2154,424;   -0,182;    0,227
1056,151; 2199,152;    2,909;    1,682
1056,695; 2110,242;    2,273;   -1,136
1057,239; 2177,515;   -1,727;   -0,682
1057,783; 2184,152;    0,818;   -1,500
1058,327; 2132,788;    0,000;    1,409
1058,871; 2366,424;   -0,545;    1,318
1059,415; 2075,333;   -0,818;   -0,045
1059,958; 2357,515;    1,455;    2,591
1060,502; 2057,515;   -1,000;   -0,773
1061,046; 1944,788;    0,364;   -0,955
1061,589; 1934,879;   -3,000;   -1,136
1062,133; 1809,879;   -1,273;    1,864
1062,676; 1749,061;    1,182;    0,864
1063,220; 1757,697;    1,091;    0,500
1063,763; 1789,424;    0,909;    1,136
1064,306; 1873,061;   -0,909;    1,864
1064,849; 1751,970;   -0,909;    0,591
1065,393; 1762,606;    2,000;   -1,500
1065,936; 1879,152;    0,182;   -0,409
1066,479; 1755,152;   -1,455;    1,318
1067,022; 1775,970;   -0,273;   -0,227
1067,565; 1669,242;   -0,091;   -1,318
1068,108; 1699,152;    0,727;   -0,591
1068,651; 1666,788;   -0,636;    1,409
1069,194; 1610,424;   -0,455;   -1,682
1069,736; 1615,697;   -1,273;    0,955
1070,279; 1588,152;   -1,364;   -0,500
1070,822; 1644,152;   -2,000;   -0,318
1071,364; 1734,061;   -0,364;    1,318
1071,907; 1550,606;   -0,727;    3,227
1072,450; 1421,061;    0,000;   -0,045
1072,992; 1441,879;   -0,273;    3,136
1073,535; 1591,424;    2,091;    2,136
1074,077; 1382,606;   -0,727;    2,045
1074,619; 1353,242;   -1,364;    0,591
1075,161; 1390,697;   -1,091;    1,500
1075,704; 1581,788;    1,545;    1,227
1076,246; 1363,424;   -0,182;    0,682
1076,788; 1285,788;   -0,364;    1,773
1077,330; 1346,515;    1,273;    2,136
1077,872; 1330,424;    0,909;    0,955
1078,414; 1567,879;    2,727;    0,773
1078,956; 1288,152;    1,273;   -0,227
1079,498; 1567,152;    1,636;    0,318
1080,040; 1264,788;    1,909;   -1,318
1080,581; 1200,424;    1,636;   -0,318
1081,123; 1119,697;    0,091;   -0,773
1081,665; 1164,424;   -1,182;   -0,955
1082,206; 1483,152;    1,364;   -0,500
1082,748; 1328,970;    0,727;    2,045
1083,289; 1201,697;   -2,000;    1,318
1083,831; 1109,697;   -0,545;    0,227
1084,372; 1162,242;    0,000;    0,591
1084,913; 1164,788;    1,091;    0,864
1085,455; 1115,697;   -1,909;   -2,045
1085,996; 1085,697;   -2,273;    0,136
1086,537; 1120,697;   -0,091;    0,864
1087,078; 1146,424;   -0,909;   -2,136
1087,619; 1203,788;   -1,273;    0,227
1088,160; 1110,333;    0,000;    1,318
1088,701; 1100,788;   -1,091;    0,682
1089,242; 1036,879;    1,364;   -2,227
1089,783; 1128,333;   -0,273;    1,409
1090,324; 1103,697;    0,455;    0,682
1090,865;  962,879;    2,727;   -0,409
1091,405;  931,424;    0,727;    2,227
1091,946;  960,697;    0,182;   -0,955
1092,487;  883,788;    0,818;   -1,409
1093,027; 1057,152;   -1,364;   -1,500
1093,568;  918,424;   -0,364;    1,227
1094,108; 1035,606;    0,273;    1,773
1094,649;  955,061;   -1,182;    0,136
1095,189;  893,697;   -0,636;   -0,682
1095,729;  836,606;   -0,091;    0,955
1096,269;  831,333;    0,727;   -0,955
1096,810; 1175,424;   -1,364;    0,500
1097,350;  988,152;    1,364;   -0,773
1097,890;  900,606;    0,364;    1,227
1098,430; 1170,424;    2,364;    2,864
1098,970; 1033,788;    2,182;    1,682
1099,510;  874,697;    0,545;   -2,318
1100,050;  803,788;    1,000;   -1,591
1100,589;  778,333;   -0,727;   -0,318
1101,129;  912,333;    0,818;   -0,955
1101,669; 1065,242;    1,727;    2,136
1102,209;  870,152;   -0,091;    2,227
1102,748;  833,242;    0,000;    0,955
1103,288;  831,061;    1,273;   -1,227
1103,827;  847,879;    3,091;   -2,227
1104,367;  711,515;   -0,091;   -2,409
1104,906;  691,606;    1,364;   -1,136
1105,445;  764,061;    0,636;   -1,136
1105,985;  714,061;   -0,727;    1,500
1106,524;  764,152;   -1,727;   -0,682
1107,063;  737,879;   -2,727;    1,409
1107,602;  695,879;   -1,909;   -1,500
1108,141;  616,606;   -1,909;    1,500
1108,680;  739,970;   -3,455;   -0,591
1109,219;  670,606;   -0,909;   -0,500
1109,758;  670,788;    0,455;    0,682
1110,297;  638,152;    1,000;   -0,682
1110,836;  590,061;   -0,727;    0,955
1111,375;  757,606;   -2,545;    0,409
1111,913;  771,606;   -1,000;    0,773
1112,452;  705,879;   -0,273;    0,136
1112,991;  583,061;    1,091;    1,955
1113,529;  553,606;   -0,818;   -0,045
1114,068;  613,788;   -0,273;    2,955
1114,606;  512,152;   -0,364;   -0,955
1115,144;  682,606;   -1,273;    1,045
1115,683;  610,788;   -0,727;    0,318
1116,221;  653,242;   -0,455;   -0,864
1116,759;  564,879;    0,636;   -0,864
1117,297;  773,970;    0,000;    1,864
1117,836;  580,061;   -2,182;   -1,227
1118,374;  585,515;    0,182;   -0,682
1118,912;  521,424;    0,909;    2,682
1119,450;  521,515;    1,000;    0,864
1119,988;  569,424;    1,545;    2,136
1120,525; 1043,515;    5,091;    3,318
1121,063;  733,333;    1,182;    1,864
1121,601;  536,879;   -0,909;   -1,227
1122,139;  482,242;   -0,727;   -2,045
1122,676;  694,333;   -0,727;    2,773
1123,214;  614,970;   -1,182;    4,409
1123,751;  421,970;    1,727;    2,227
1124,289;  560,697;   -0,091;   -0,409
1124,826;  420,970;    1,727;    0,227
1125,364;  341,788;    1,727;   -0,955
1125,901;  537,333;    1,182;    1,227
1126,438;  657,606;    0,818;    0,955
1126,975;  371,970;   -0,727;   -0,773
1127,513;  443,152;    0,273;    2,136
1128,050;  342,333;    1,636;   -0,682
1128,587;  446,879;    2,000;   -0,227
1129,124;  501,242;    0,091;    1,318
1129,661;  349,333;    0,273;    0,227
1130,198;  531,424;    1,636;    0,773
1130,734;  472,424;    0,182;    1,409
1131,271;  330,788;   -0,909;    0,864
1131,808;  513,333;    2,909;    3,045
1132,345;  374,061;    1,545;    0,318
1132,881;  241,152;   -1,545;   -1,864
1133,418;  389,242;    0,727;   -1,136
1133,954;  322,788;    2,455;   -2,682
1134,491;  407,152;    1,364;   -0,773
1135,027;  289,970;    2,364;    0,864
1135,564;  393,879;    0,273;    2,955
1136,100;  373,333;    0,364;    2,136
1136,636;  259,424;   -1,273;   -1,045
1137,172;  371,788;    0,000;   -1,045
1137,708;  288,515;   -1,364;   -1,045
1138,245;  292,242;    1,273;   -1,227
1138,781;  230,515;    1,091;   -3,318
1139,317;  307,515;    1,273;   -1,409
1139,852;  292,424;    3,091;    0,136
1140,388;  411,152;   -1,182;   -0,409
1140,924;  299,333;   -1,091;   -2,227
1141,460;  224,879;   -1,636;    0,136
1141,996;  145,061;   -1,364;    2,682
1142,531;  210,606;    1,364;    3,318
1143,067;  451,061;    1,182;    1,045
1143,602;  498,697;   -0,091;   -0,318
1144,138;  338,333;   -2,636;    1,045
1144,673;  196,152;   -1,455;    1,409
1145,209;  267,242;   -1,909;   -0,318
1145,744;  183,788;   -0,727;    0,864
1146,279;  329,515;    1,818;   -0,136
1146,815;  236,515;    1,545;   -2,682
1147,350;  282,697;   -1,364;    0,045
1147,885;  191,515;   -0,818;   -1,318
1148,420;  189,061;   -2,273;    0,773
1148,955;  172,606;   -1,727;    1,864
1149,490;  200,242;   -0,909;   -1,591
1150,025;  177,879;    0,455;   -1,773
1150,560;  299,697;    1,091;   -0,955
1151,094;  259,606;    1,455;   -0,591
1151,629;  272,879;    1,636;    0,864
1152,164;  192,242;    1,364;    1,318
1152,698;  153,515;   -0,182;   -0,136
1153,233;  114,152;    0,091;   -0,682
1153,767;  158,879;   -3,000;   -2,318
1154,302;  210,788;   -1,455;    1,773
1154,836;  198,152;   -0,455;   -2,136
1155,371;  259,333;   -1,364;    3,682
1155,905;  214,152;   -0,636;    1,682
1156,439;  173,788;   -0,636;   -0,500
1156,973;  213,061;    0,364;    0,318
1157,507;  147,152;   -0,364;    0,682
1158,042;  176,879;   -0,727;    1,045
1158,576;  226,515;    0,182;    1,773
1159,110;  215,697;   -0,818;    2,409
1159,643;  183,970;    0,636;   -0,045
1160,177;  115,424;   -1,545;    1,500

