
Integration time [ms]:   0,040
Averaging Nr. [scans]: 11
Smoothing Nr. [pixels]: 0
Data measured with spectrometer [name]: 7318044SP
Wave   ;Sample   ;Dark     ;Reference
[nm]   ;[counts] ;[counts] ;[counts] 

186,757;   20,620;   31,551;    1,318
187,357;   63,011;   22,551;    0,955
187,958;   34,721;   15,460;   -1,591
188,558;   78,340;    8,915;   -1,227
189,159;   46,295;    6,733;   -4,500
189,759;   13,169;    7,278;   -3,591
190,360;   13,259;    2,824;   -2,136
190,960;   55,738;    2,915;   -4,136
191,560;   77,608;    3,189;   -6,591
192,161;  342,379;    4,372;   -3,500
192,761;  184,070;    4,010;   -3,227
193,361;  112,125;    1,556;   -3,773
193,962;  163,906;    2,010;   -2,682
194,562;   87,198;    1,189;   -3,955
195,162;  123,825;   -2,448;   -2,227
195,762;  307,427;   -3,176;   -0,045
196,362;  243,560;    1,370;   -2,500
196,963;   98,651;    2,006;   -0,864
197,563;  182,980;    1,551;   -0,955
198,163;  129,498;    0,096;   -0,682
198,763;  138,470;    1,733;   -0,500
199,363;  252,540;    3,096;   -0,500
199,963;  207,197;    0,369;    0,409
200,563;  171,456;    2,823;   -1,409
201,163;  149,725;    3,277;   -0,227
201,763;  253,708;    3,732;    0,318
202,363;  193,344;    1,459;    1,500
202,963;  315,554;    1,459;    1,045
203,563;  424,456;    0,277;    0,500
204,162;  263,470;    2,096;   -1,864
204,762;  245,985;    0,550;    0,591
205,362;  213,985;    3,004;    1,955
205,962;  328,176;    3,096;    1,955
206,562;  328,712;    1,823;    2,318
207,161;  278,446;   -0,087;    0,318
207,761;  448,743;    1,277;    2,409
208,361;  323,023;   -0,268;    1,409
208,960;  434,303;    0,459;    1,500
209,560;  504,722;    1,277;    1,591
210,160;  474,764;    0,550;    1,864
210,759;  437,124;    4,186;    1,227
211,359;  451,139;    1,459;    1,045
211,958;  734,320;    1,277;    2,045
212,558;  818,390;    1,732;    1,864
213,157;  640,072;    1,822;    1,500
213,757; 1108,796;    3,822;   -0,227
214,356;  793,226;    1,277;   -0,409
214,956; 1151,275;    3,095;    0,409
215,555;  748,541;    2,095;    2,136
216,154;  684,209;   -2,723;   -0,591
216,754;  696,565;    0,277;    0,773
217,353;  834,733;   -0,268;   -1,045
217,952;  689,037;   -0,178;    0,318
218,552;  943,405;    1,368;   -0,773
219,151;  829,569;    0,277;    0,955
219,750;  830,608;    0,004;   -0,227
220,349;  970,118;   -0,451;    1,045
220,948; 1032,440;   -1,360;    1,136
221,548; 1072,747;    0,913;    1,227
222,147; 1187,670;   -0,087;   -0,409
222,746; 1481,884;   -0,451;   -0,955
223,345; 1368,447;    0,731;    0,500
223,944; 1374,440;   -0,451;    0,773
224,543; 1565,030;    1,004;   -1,409
225,142; 1669,304;    0,094;    0,136
225,741; 1577,796;   -0,814;    1,045
226,340; 1620,663;   -0,451;   -0,955
226,939; 2097,118;   -0,996;   -0,136
227,538; 2062,363;   -0,360;   -0,773
228,137; 2226,422;   -0,814;    0,864
228,735; 2396,328;   -0,541;    1,227
229,334; 2129,502;   -0,905;   -0,227
229,933; 2525,754;    0,459;    0,591
230,532; 2639,803;    1,186;   -0,409
231,131; 2683,715;    1,732;    0,318
231,729; 2861,646;   -2,450;   -2,318
232,328; 3005,513;   -0,723;   -1,500
232,927; 3107,481;    1,004;   -0,500
233,525; 3251,751;    3,640;    0,045
234,124; 3465,771;    2,368;   -1,591
234,723; 3484,800;    0,913;   -1,045
235,321; 3634,097;    2,277;    0,136
235,920; 3917,649;    1,186;   -1,227
236,518; 4171,401;    3,459;    0,318
237,117; 4372,537;    0,004;   -0,227
237,715; 4559,020;    0,640;   -0,500
238,314; 4618,632;   -0,087;   -2,318
238,912; 4704,300;   -0,723;   -1,409
239,510; 4739,558;    0,459;   -1,227
240,109; 4948,848;    0,004;    3,773
240,707; 4978,198;   -0,996;    1,227
241,305; 5345,981;    0,550;    0,136
241,904; 5595,163;   -0,178;   -2,045
242,502; 5557,537;   -0,632;   -0,227
243,100; 5486,558;   -0,087;   -0,955
243,698; 5747,495;    0,732;    1,682
244,297; 5925,506;   -0,632;    0,682
244,895; 5759,999;   -0,269;   -2,318
245,493; 6120,912;    2,186;   -0,591
246,091; 6159,775;    1,368;   -1,318
246,689; 6168,590;    1,004;    0,591
247,287; 6304,919;    0,822;   -1,136
247,885; 6624,625;   -1,451;    1,227
248,483; 6711,793;    1,822;   -0,500
249,081; 6851,569;    0,185;    1,591
249,679; 7005,678;   -0,178;    1,682
250,277; 7243,782;   -1,723;    0,864
250,875; 7269,198;   -1,087;   -1,045
251,473; 7288,300;   -1,178;    0,500
252,071; 7506,793;    1,459;    1,045
252,669; 7655,076;   -1,814;    0,318
253,267; 7923,468;   -0,087;    0,773
253,864; 7915,464;   -0,360;    0,682
254,462; 7766,069;    1,640;    1,591
255,060; 7715,779;   -0,269;    1,318
255,658; 8027,985;    0,822;   -0,136
256,255; 8480,097;    0,186;   -2,045
256,853; 8351,443;   -0,269;    1,409
257,451; 8353,177;    0,822;    1,864
258,048; 8630,523;    1,822;    1,864
258,646; 8348,793;    1,731;   -1,045
259,243; 8561,625;   -0,087;    2,227
259,841; 8626,684;   -0,814;    0,318
260,438; 8509,052;   -0,087;    0,864
261,036; 9237,450;   -1,905;    1,409
261,633; 9116,992;   -0,087;    2,227
262,231; 8863,551;    2,731;   -0,045
262,828; 8959,516;   -0,905;    1,136
263,425; 9032,971;    0,913;   -0,591
264,023; 9338,779;    0,186;    0,045
264,620; 8842,331;   -0,360;   -0,318
265,217; 9217,807;   -2,087;    3,136
265,815; 9320,926;   -1,905;    2,136
266,412; 9078,177;    0,731;    0,136
267,009; 9119,265;   -1,451;    0,773
267,606; 8998,429;    0,822;   -0,955
268,203; 9000,859;   -0,269;   -0,591
268,801; 9276,195;    1,731;    0,591
269,398; 9577,303;   -0,360;    2,500
269,995; 9536,062;    0,277;    1,591
270,592; 9324,807;   -0,632;   -0,500
271,189; 9533,608;    0,186;    0,409
271,786; 9658,188;   -0,632;    1,227
272,383; 9491,548;   -1,087;    0,227
272,980; 9684,877;    0,277;    0,318
273,577;10192,674;    0,004;    1,227
274,174; 9746,719;    0,822;    2,591
274,771; 9711,985;   -0,814;   -0,773
275,367; 9859,852;    2,277;    1,409
275,964; 9832,230;    0,731;   -0,500
276,561; 9924,632;    1,549;   -1,045
277,158;10175,587;    0,095;   -1,773
277,755;10280,842;    2,185;    0,409
278,351; 9654,607;   -0,451;   -1,500
278,948; 9990,443;   -0,815;    0,045
279,545; 9974,978;   -1,360;    2,318
280,141;10621,618;   -1,723;   -2,045
280,738;10497,614;   -0,451;   -0,136
281,334;10748,849;   -1,633;    0,591
281,931;10116,751;   -0,087;   -1,318
282,528;10239,038;    0,822;   -0,500
283,124;10955,433;   -1,087;   -0,500
283,721;10877,283;   -0,451;    1,409
284,317;10669,272;    0,185;    2,500
284,913;11226,349;   -1,360;    0,591
285,510;11423,440;    0,640;   -0,318
286,106;11435,817;   -2,269;   -0,955
286,703;11047,129;   -0,360;    1,955
287,299;11237,866;   -1,451;   -0,591
287,895;11399,272;    0,822;   -1,045
288,491;11968,849;    0,186;    2,136
289,088;11722,849;   -2,360;    2,409
289,684;11833,167;   -1,723;    1,500
290,280;11822,516;    0,368;    0,682
290,876;11898,842;    1,822;    5,500
291,472;11756,891;    1,276;    2,227
292,068;11847,461;    1,367;    0,227
292,665;11568,412;    2,095;    0,773
293,261;11176,251;    0,276;    2,136
293,857;11566,328;    2,913;    2,136
294,453;11499,387;    3,550;    0,955
295,049;11397,075;   -0,268;    1,955
295,644;11412,506;    0,095;    0,136
296,240;11336,687;   -0,905;   -0,136
296,836;11351,883;   -0,995;    0,318
297,432;11649,942;    1,096;   -0,500
298,028;11680,187;    0,732;    0,773
298,624;12137,803;    1,459;    1,864
299,220;12375,740;    2,368;    0,591
299,815;12056,026;    1,005;   -0,409
300,411;11823,621;    0,914;    1,773
301,007;11842,813;    1,368;    0,227
301,602;11892,858;   -0,541;   -2,318
302,198;12047,687;    0,732;   -0,773
302,794;12386,788;    1,187;   -0,500
303,389;12503,799;   -1,177;    1,045
303,985;12614,323;    0,550;    1,409
304,580;12560,785;    1,459;    1,591
305,176;12505,317;   -3,086;    0,136
305,771;12440,380;   -1,268;   -1,227
306,367;12281,282;    4,095;    0,136
306,962;12590,222;    0,641;    1,500
307,558;12338,341;   -0,450;    0,136
308,153;12271,775;    1,095;   -1,136
308,748;12529,813;   -0,814;    1,682
309,344;12503,041;   -0,632;   -1,318
309,939;12600,586;   -1,905;   -1,318
310,534;12854,631;   -0,086;   -1,682
311,130;12810,334;    0,459;   -2,500
311,725;12479,544;    1,004;   -0,500
312,320;12806,743;    2,459;    0,045
312,915;12658,362;    1,459;   -1,045
313,510;12766,215;    1,550;   -0,500
314,105;13279,645;    1,096;    1,409
314,700;12625,764;   -3,086;   -1,045
315,295;12242,058;   -0,904;    0,045
315,890;11787,942;    1,277;    0,864
316,485;12185,187;   -0,359;   -0,318
317,080;12326,502;   -3,086;    1,591
317,675;12911,292;    2,005;   -0,682
318,270;12299,977;    5,550;    3,318
318,865;12281,246;    3,278;    3,045
319,460;12129,191;   -0,904;    0,591
320,055;12335,183;   -0,541;   -1,227
320,650;11974,589;   -1,995;   -0,591
321,244;12077,746;   -0,177;   -1,409
321,839;13015,684;   -1,541;   -0,227
322,434;12868,198;   -1,086;   -1,591
323,029;12529,026;    1,732;    1,591
323,623;12342,177;    1,550;    0,773
324,218;12085,274;    2,368;    1,409
324,812;11982,974;    1,096;    1,591
325,407;11773,736;   -0,814;    2,045
326,002;11688,712;    0,277;   -0,409
326,596;12045,935;    0,914;    1,318
327,191;12236,240;    0,823;   -1,045
327,785;11792,663;   -0,813;   -0,227
328,379;11998,271;    1,368;    0,136
328,974;11823,121;    0,914;   -3,955
329,568;12020,918;    0,186;   -2,409
330,163;11814,701;    2,096;    1,045
330,757;12164,439;    2,459;    1,591
331,351;11501,887;    0,459;    0,682
331,945;11787,603;    0,914;    1,409
332,540;11409,163;   -1,723;   -0,591
333,134;11553,596;   -1,086;    0,773
333,728;11815,768;    0,005;    0,318
334,322;12127,023;   -1,177;   -0,864
334,916;11417,785;    0,277;    0,955
335,510;11725,638;   -0,450;   -0,136
336,105;11984,240;   -1,086;    1,591
336,699;11696,355;   -1,086;    0,591
337,293;11634,929;   -1,723;    0,318
337,887;11747,593;   -2,723;    1,955
338,481;11851,373;    0,459;    0,591
339,074;12026,691;   -0,359;    2,682
339,668;11859,733;   -1,632;    1,227
340,262;12103,540;    1,732;    3,227
340,856;11598,062;    1,822;   -0,682
341,450;10957,880;    1,004;    1,864
342,044;11830,110;    1,459;    0,136
342,637;11626,303;    0,913;   -2,136
343,231;11526,695;   -2,360;    0,682
343,825;11438,897;   -1,086;   -0,591
344,419;11399,442;   -1,995;    0,500
345,012;11191,170;    2,459;    4,045
345,606;11196,753;    4,641;    1,591
346,199;11028,648;   -1,813;   -0,227
346,793;10590,690;    1,914;    2,045
347,386;10758,393;   -0,813;   -1,136
347,980;10745,043;   -0,268;   -0,045
348,573;10527,683;    2,278;    0,409
349,167;10213,679;    5,278;    4,773
349,760;10557,900;    2,914;    2,682
350,354;10544,130;   -0,813;    1,136
350,947;10271,963;    1,096;    1,682
351,540; 9931,442;   -0,358;   -1,409
352,134; 9879,477;    1,096;    1,136
352,727; 9964,390;   -0,086;    1,136
353,320; 9747,526;    0,005;    0,591
353,913; 9583,305;   -1,995;    1,864
354,507; 9792,868;    0,823;   -1,227
355,100; 9791,393;    0,460;    0,864
355,693; 9026,263;    2,005;    2,409
356,286; 9066,564;    0,823;    2,773
356,879; 9404,452;   -0,722;    1,227
357,472; 9015,131;   -0,904;    1,500
358,065; 9238,316;   -0,722;    2,500
358,658; 9119,540;   -0,540;    2,318
359,251; 8770,001;   -1,631;   -0,591
359,844; 8267,578;   -1,904;   -1,136
360,437; 8440,914;   -2,995;    0,045
361,030; 8718,515;    1,369;   -0,682
361,623; 8300,179;    2,824;    0,318
362,215; 8342,428;   -0,086;    2,045
362,808; 8195,812;   -2,358;   -1,682
363,401; 8382,938;   -2,449;    0,136
363,994; 8121,511;   -0,631;   -1,500
364,586; 8034,168;    0,824;   -1,500
365,179; 8247,319;   -0,449;   -1,136
365,772; 7721,344;   -1,995;    2,045
366,364; 8025,749;    1,915;   -3,227
366,957; 8244,951;    2,279;   -0,045
367,549; 8259,850;    2,188;   -0,864
368,142; 7888,762;    1,825;   -1,500
368,734; 8098,527;    0,734;   -2,136
369,327; 8054,915;    1,643;   -0,500
369,919; 7960,314;   -1,538;    0,409
370,512; 7756,177;   -1,083;   -0,500
371,104; 7518,481;   -0,901;    1,591
371,696; 7695,245;    1,191;   -0,955
372,289; 7790,902;    0,373;    1,136
372,881; 7932,475;   -2,080;    1,318
373,473; 7895,422;   -2,170;    1,136
374,066; 7674,539;   -0,169;    0,500
374,658; 7510,104;    0,378;    1,136
375,250; 7886,798;    0,653;   -1,409
375,842; 7726,118;    0,473;   -0,045
376,434; 7596,406;   -0,435;   -0,409
377,026; 8197,747;    0,204;   -2,500
377,618; 8090,521;   -0,158;   -0,682
378,210; 7909,670;   -0,338;   -1,955
378,802; 7747,081;    0,754;   -0,591
379,394; 7728,199;    1,846;    0,682
379,986; 8308,551;    1,393;   -0,955
380,578; 8410,603;   -0,153;    0,773
381,170; 7729,793;   -0,972;    0,045
381,762; 7694,154;    0,755;    1,409
382,354; 7913,337;   -0,065;   -1,318
382,945; 8025,381;   -2,976;    0,318
383,537; 8177,190;   -2,705;   -1,955
384,129; 8153,849;   -2,160;   -1,136
384,721; 8376,562;   -0,252;    0,955
385,312; 8294,822;   -0,161;   -0,955
385,904; 8392,776;   -2,706;    1,591
386,496; 7749,657;   -0,979;    1,045
387,087; 7923,625;    1,022;    2,500
387,679; 7947,887;   -1,160;    0,045
388,270; 8086,079;    2,840;    2,045
388,862; 8200,257;    1,295;   -0,318
389,453; 8091,131;   -0,887;    1,045
390,045; 8346,645;   -0,705;   -2,682
390,636; 8310,792;    0,204;   -0,591
391,227; 8135,911;   -0,523;   -0,045
391,819; 8234,334;    0,204;    0,773
392,410; 8333,205;    1,022;    0,045
393,001; 8248,122;   -0,979;   -1,591
393,593; 8555,479;    1,930;   -0,045
394,184; 8400,402;    1,385;   -0,409
394,775; 8344,437;    1,839;    2,136
395,366; 8521,733;    1,385;    0,773
395,957; 8528,153;    0,113;    0,136
396,548; 8868,062;   -0,342;    2,682
397,139; 9157,831;   -2,433;    0,591
397,730; 8905,422;   -1,888;    0,955
398,321; 8920,597;   -1,252;    0,955
398,912; 8953,293;   -0,615;    0,136
399,503; 9027,499;   -3,524;   -1,409
400,094; 8480,587;    0,294;    1,682
400,685; 8356,887;   -0,433;    0,045
401,276; 8411,950;    0,930;   -0,955
401,867; 8724,926;   -0,888;    0,773
402,458; 8841,275;   -2,251;   -2,318
403,048; 8834,405;    1,112;    0,591
403,639; 8398,115;    0,840;    0,864
404,230; 8661,444;    2,476;    0,318
404,821; 8604,954;   -0,615;    0,045
405,411; 8719,321;    1,203;   -2,591
406,002; 8338,989;   -1,252;   -1,136
406,592; 8173,713;    2,294;    0,045
407,183; 8463,860;    0,566;   -1,500
407,774; 8391,147;    3,475;   -0,136
408,364; 8734,629;    0,930;    0,409
408,954; 8298,636;    0,384;    1,227
409,545; 8354,353;    1,021;    1,045
410,135; 7901,451;    1,293;    0,500
410,726; 8046,021;    1,838;    0,318
411,316; 8468,318;    0,111;    0,773
411,906; 8108,881;   -0,253;   -0,409
412,497; 7603,692;   -1,070;   -0,045
413,087; 8216,671;   -1,980;   -0,227
413,677; 8638,417;   -0,707;    3,864
414,267; 8473,644;    0,656;    1,409
414,857; 8466,210;   -2,980;    4,227
415,448; 8773,175;    0,839;    0,500
416,038; 8427,497;    0,020;   -0,591
416,628; 8395,861;   -0,889;    0,409
417,218; 7892,696;    0,565;    3,318
417,808; 8175,626;    0,202;   -0,409
418,398; 8645,389;    0,020;    2,682
418,988; 8640,193;    2,020;    0,591
419,578; 8911,588;   -0,707;    1,409
420,168; 9262,979;   -1,343;   -0,955
420,757; 8837,115;   -1,343;   -1,500
421,347; 8494,543;    0,111;   -0,227
421,937; 8667,200;    2,292;    1,409
422,527; 8624,155;    0,838;   -0,773
423,116; 8480,417;   -0,253;   -0,045
423,706; 8787,340;   -1,889;    0,318
424,296; 8772,787;    1,384;    0,682
424,885; 9209,515;   -0,071;   -3,045
425,475; 9495,931;    1,474;   -2,864
426,065; 9377,046;   -0,980;   -0,318
426,654; 9007,435;   -0,435;   -0,318
427,244; 9151,613;    0,020;    1,409
427,833; 8614,952;    1,383;   -0,500
428,423; 9112,456;   -0,526;    1,136
429,012; 9890,550;   -0,344;   -1,136
429,601; 9331,358;   -1,344;    0,136
430,191; 9568,117;    1,292;    4,318
430,780; 9195,067;   -0,344;   -0,409
431,369; 9154,907;    0,746;   -0,045
431,959; 9790,501;   -1,254;    0,500
432,548; 9566,271;   -1,163;   -0,045
433,137; 9705,131;   -1,254;   -1,318
433,726;10246,463;    0,292;    0,500
434,315; 9570,372;   -0,526;    2,409
434,905; 9671,726;   -1,254;    1,409
435,494; 9541,051;    0,746;    0,955
436,083; 9996,449;   -0,981;   -0,955
436,672; 9907,855;    0,110;    0,500
437,261; 9443,991;    0,292;   -1,955
437,850; 9605,743;    1,383;    0,682
438,439; 9618,932;    3,291;    1,955
439,027; 9459,142;    3,655;    1,773
439,616; 9791,516;    2,927;    1,227
440,205; 9666,600;    0,200;   -2,136
440,794; 9762,806;    2,109;   -0,045
441,383;10010,135;   -1,346;   -0,591
441,971; 9864,485;   -2,436;    0,591
442,560; 9735,328;    0,563;   -1,773
443,149; 9479,711;    0,379;   -1,318
443,737; 9618,535;   -0,074;   -2,318
444,326; 9877,520;    0,018;    0,318
444,915; 9963,079;   -1,982;    0,864
445,503;10386,495;   -2,891;   -0,318
446,092; 9616,069;    0,382;    2,136
446,680;10176,576;    0,382;    0,318
447,269;10312,667;   -0,346;   -0,318
447,857;10088,464;    0,018;   -1,773
448,445;10206,884;    0,563;    1,318
449,034;10431,713;   -1,528;   -1,136
449,622;10581,989;   -1,073;    3,500
450,210; 9782,685;    2,017;    2,227
450,799;10352,619;    0,290;   -0,591
451,387;10316,587;    1,381;   -0,591
451,975; 9950,821;    2,654;    0,864
452,563;10042,000;    3,472;    2,318
453,151;10062,010;   -0,528;   -1,227
453,739;10038,213;   -1,347;    0,136
454,328; 9867,046;    2,381;   -2,136
454,916; 9548,042;    2,562;   -0,136
455,504; 9732,203;    1,017;    1,227
456,092; 9921,734;    0,017;   -1,591
456,679; 9924,441;    1,472;    0,682
457,267; 9854,602;    4,017;    1,045
457,855;10015,612;    1,017;    1,409
458,443; 9782,787;   -0,165;    1,682
459,031; 9902,735;    0,108;    2,409
459,619;10352,385;   -1,801;    2,864
460,206;10504,357;    0,835;    2,045
460,794;10567,074;   -2,983;   -0,227
461,382;10820,574;   -0,529;   -0,864
461,970;10387,875;    1,198;    1,864
462,557;10412,899;   -0,711;   -0,682
463,145;10613,102;   -3,165;   -1,682
463,732;10789,396;    2,016;   -1,045
464,320;10732,784;   -0,075;   -3,045
464,907;10392,812;    2,743;   -0,773
465,495;10275,676;    0,743;   -1,227
466,082;10447,987;   -1,984;   -0,045
466,670;10346,910;   -2,529;    1,227
467,257;10727,854;   -1,711;    2,045
467,844;10884,099;   -0,075;    0,045
468,432;10873,690;    0,834;    3,500
469,019;10382,302;    0,925;   -1,773
469,606;10910,760;    0,470;    3,682
470,193;10704,127;   -1,439;    0,227
470,780;10264,903;   -2,075;    0,864
471,368;10615,180;   -1,257;   -0,773
471,955;10414,603;    1,379;   -0,682
472,542;10072,635;    0,652;   -1,136
473,129;10315,683;   -0,166;    0,136
473,716;10061,991;    1,470;    0,591
474,303;10259,816;    0,652;   -0,864
474,890;10550,558;   -1,439;   -0,500
475,477;10547,663;   -1,621;    0,409
476,064;10453,583;    1,106;   -1,591
476,650;10401,673;    0,288;    0,318
477,237;10244,401;   -0,258;    0,955
477,824;10416,271;   -1,076;    0,864
478,411;10427,075;   -1,894;   -0,318
478,997;10664,610;    0,560;   -0,773
479,584;10724,866;    1,196;   -0,409
480,171;11436,642;   -0,440;   -0,773
480,757;11079,041;    2,651;    0,773
481,344;11406,436;    0,469;    0,409
481,931;10920,506;    1,105;    1,045
482,517;11999,387;   -1,258;    0,318
483,104;12629,925;    1,106;    2,864
483,690;12900,845;   -1,804;    0,045
484,276;13196,045;   -0,895;    0,227
484,863;12976,181;    2,469;    1,136
485,449;13562,653;   -0,077;    0,318
486,035;13554,153;   -1,986;   -0,136
486,622;13971,261;   -0,895;    0,045
487,208;13903,006;    1,378;    1,500
487,794;13791,013;    0,741;    0,318
488,380;13863,587;    0,105;   -1,409
488,967;13929,360;   -1,168;   -0,409
489,553;14016,881;   -1,895;   -1,409
490,139;14199,493;    1,559;    0,773
490,725;13547,419;    0,741;   -0,227
491,311;13071,643;    3,287;    3,045
491,897;12415,017;   -0,986;    1,500
492,483;12223,622;    0,105;    1,227
493,069;12050,636;    3,923;    0,864
493,655;12047,370;    1,650;    0,682
494,241;11933,049;    1,377;   -0,955
494,826;12344,241;    0,287;   -1,045
495,412;11818,000;    2,559;   -0,682
495,998;11953,996;   -0,805;   -0,318
496,584;12112,437;    0,377;    1,045
497,169;12084,535;    1,014;   -0,682
497,755;12033,811;    0,650;    1,227
498,341;12625,622;    0,559;    0,318
498,926;12178,101;    1,832;    1,955
499,512;12360,955;    1,286;    2,955
500,097;12528,836;    0,195;   -0,318
500,683;12448,885;   -0,350;    2,136
501,268;12783,651;   -0,169;   -0,955
501,854;12511,389;   -0,169;    1,227
502,439;12457,123;   -0,624;   -1,773
503,024;12685,112;    0,195;    0,500
503,610;12733,406;   -0,078;   -0,682
504,195;12741,567;    0,558;    1,955
504,780;12878,574;    2,922;    1,227
505,366;12693,462;    3,013;    2,864
505,951;12374,270;    0,740;    1,045
506,536;12403,826;   -3,260;   -3,682
507,121;12367,634;    0,285;   -0,318
507,706;12867,371;    2,376;    1,045
508,291;13303,910;    2,649;    1,136
508,876;12763,952;   -0,988;    2,591
509,461;12245,152;   -0,169;   -0,773
510,046;12625,442;    0,194;    0,318
510,631;12902,018;   -0,351;   -0,773
511,216;12567,218;    2,467;   -0,500
511,801;12916,805;   -0,442;    2,591
512,386;13230,015;    0,740;    0,500
512,971;13189,113;   -2,988;    0,955
513,555;12760,470;   -0,897;   -1,500
514,140;13506,980;   -0,442;   -3,136
514,725;13523,243;   -0,715;   -1,136
515,309;13623,494;   -0,533;    0,318
515,894;13100,823;   -0,624;   -2,227
516,479;13514,676;   -0,624;   -0,955
517,063;13381,099;    0,376;    1,227
517,648;13515,204;    1,012;   -1,136
518,232;13144,771;   -0,261;   -1,409
518,817;13530,837;   -0,079;    1,682
519,401;13770,512;    2,194;    0,591
519,985;13247,030;    1,103;    1,136
520,570;13114,397;    0,830;   -1,955
521,154;13375,687;    2,102;    0,591
521,738;13565,331;   -2,352;    2,409
522,323;14138,303;   -0,170;    1,682
522,907;13846,562;    0,466;   -0,136
523,491;13553,936;    0,557;    0,955
524,075;13582,002;    2,284;    0,591
524,659;13681,974;    1,466;    0,591
525,243;13156,201;    1,739;    0,409
525,827;13392,520;    0,648;   -0,045
526,411;14239,883;   -1,989;   -0,136
526,995;14442,069;   -0,352;    1,409
527,579;14073,925;   -0,443;   -1,045
528,163;14365,195;    0,375;   -1,500
528,747;14276,177;    2,466;   -0,773
529,331;14596,919;   -0,080;   -1,409
529,915;14809,961;    1,738;    0,955
530,499;14759,202;   -0,807;    1,227
531,082;14478,737;   -0,534;    1,591
531,666;13889,408;    1,374;    0,773
532,250;14548,244;    1,284;    2,682
532,833;14910,541;    0,920;    2,773
533,417;14773,125;   -1,807;    0,864
534,001;14778,223;    1,647;   -0,318
534,584;15430,510;    0,374;    0,500
535,168;15248,958;    0,465;    1,409
535,751;15370,898;    0,647;    0,045
536,334;14791,020;   -0,898;   -0,409
536,918;15376,859;    0,011;    1,591
537,501;15457,181;   -0,899;    1,318
538,085;15483,115;   -0,444;    1,045
538,668;15645,181;    0,829;    2,409
539,251;15991,066;    1,829;    3,773
539,834;15979,597;    0,101;    0,773
540,418;15928,363;   -1,990;    4,318
541,001;16045,940;   -0,990;    1,773
541,584;16049,801;    2,101;    2,227
542,167;15769,318;    1,374;    2,955
542,750;15886,290;    1,919;   -0,773
543,333;15477,283;    0,555;    2,136
543,916;16282,601;    0,192;    2,500
544,499;16906,605;   -1,354;    0,227
545,082;16887,311;    1,374;    3,591
545,665;17037,951;    1,919;    1,500
546,248;17377,101;    1,010;   -0,318
546,830;16971,234;   -0,445;    1,955
547,413;17453,647;    1,010;   -0,773
547,996;17942,752;    0,555;    0,500
548,579;17704,598;    0,919;    0,955
549,161;17503,396;    1,828;    2,682
549,744;17313,605;   -0,809;    0,409
550,326;17831,703;   -0,809;   -1,136
550,909;17625,721;    2,737;    0,591
551,492;17976,501;   -0,263;    0,227
552,074;17778,599;   -0,173;   -1,318
552,657;18342,116;    2,373;    0,045
553,239;18093,861;   -0,173;   -0,773
553,821;17993,791;   -1,082;    1,045
554,404;17546,172;    1,282;    1,136
554,986;17887,305;    0,464;    1,045
555,568;18528,050;    1,191;   -0,955
556,151;17763,389;    1,191;   -0,227
556,733;17932,651;   -0,264;   -0,864
557,315;18385,218;    0,100;    0,500
557,897;18200,445;    0,554;   -0,500
558,479;18314,211;   -1,991;    1,318
559,061;18480,952;   -0,719;   -0,864
559,643;18819,781;   -0,264;    0,045
560,225;19181,302;    1,645;    2,864
560,807;19195,326;    0,918;    0,318
561,389;18632,861;    0,554;    2,318
561,971;19427,722;    0,463;    2,136
562,553;19277,715;   -1,628;    1,591
563,135;19388,281;   -0,537;    1,136
563,717;18967,791;    3,372;    1,136
564,298;19680,585;    3,645;   -0,045
564,880;19393,159;    0,645;   -1,409
565,462;19588,341;    0,645;    1,318
566,043;20760,348;   -0,446;    2,318
566,625;20331,526;    1,918;    1,227
567,207;20155,589;    1,099;    1,682
567,788;21305,334;   -1,264;    1,500
568,370;22155,935;    1,917;   -0,500
568,951;21976,327;    0,190;    0,227
569,533;22868,530;   -0,628;   -0,500
570,114;23316,683;   -0,446;    0,682
570,695;23836,729;   -0,174;   -1,318
571,277;24359,408;   -0,265;   -1,682
571,858;25081,949;    2,008;   -1,136
572,439;25990,236;    1,554;   -1,045
573,021;26163,726;    2,099;   -2,773
573,602;26644,226;   -1,265;    0,318
574,183;27592,331;   -2,083;    2,227
574,764;27726,289;   -1,629;    0,409
575,345;28257,873;    0,917;   -0,136
575,926;28884,240;   -0,356;    0,136
576,507;28852,222;    1,099;   -0,227
577,088;29925,100;    3,099;    1,682
577,669;30004,044;    0,735;    1,955
578,250;30784,694;    0,644;   -1,045
578,831;31420,146;   -1,356;   -2,227
579,412;31647,111;   -0,810;    0,955
579,993;32530,999;    1,008;    0,227
580,573;32832,852;   -0,629;   -0,955
581,154;31807,352;    0,735;   -0,591
581,735;32703,555;    0,644;    0,773
582,315;32203,918;   -0,629;    2,136
582,896;32467,925;   -0,174;    1,227
583,477;31863,009;    0,189;    1,227
584,057;32082,240;    0,553;    0,955
584,638;32383,726;    2,553;    2,318
585,218;32402,688;   -0,538;    2,682
585,799;32531,782;    0,281;   -0,227
586,379;32468,009;    0,372;    1,591
586,959;31222,485;    0,735;    0,318
587,540;30550,223;   -0,629;    2,227
588,120;30121,898;    1,007;   -0,045
588,700;29102,576;    2,553;    2,136
589,281;29445,334;    0,462;   -0,955
589,861;29388,296;    0,099;   -1,682
590,441;29202,796;    2,371;   -2,682
591,021;28151,177;   -0,265;   -2,591
591,601;28387,834;   -0,537;    0,500
592,181;28431,306;   -0,719;   -0,773
592,761;27701,328;    0,007;    1,409
593,341;27644,359;   -0,901;    0,045
593,921;27619,978;   -0,265;    1,591
594,501;27533,334;   -0,538;    1,318
595,081;27409,275;    0,917;   -0,318
595,661;27732,555;   -1,447;    0,955
596,240;28183,138;   -0,537;    0,136
596,820;27924,649;    0,372;    1,955
597,400;28060,576;    2,008;    0,773
597,980;28282,233;    2,008;    1,045
598,559;28252,838;    2,735;   -0,227
599,139;27975,131;   -0,174;   -1,227
599,718;27859,586;   -0,174;   -0,409
600,298;28158,142;    0,735;    0,682
600,877;28408,152;    2,917;    1,409
601,457;28678,572;    2,281;    1,136
602,036;28567,558;    0,190;    2,045
602,616;28770,502;    0,644;    1,682
603,195;29111,386;   -0,355;    3,500
603,774;28664,649;   -0,901;    2,045
604,354;28556,352;    0,826;   -0,500
604,933;28065,733;    0,463;    1,864
605,512;28130,603;    3,554;    0,591
606,091;28214,058;   -0,537;    3,773
606,671;29035,089;    0,281;    0,773
607,250;28160,369;    1,644;    3,136
607,829;28349,197;    2,372;    3,227
608,408;28197,837;    1,190;    2,591
608,987;27248,183;    1,281;    3,409
609,566;27526,740;   -1,265;   -2,500
610,145;27696,075;   -1,082;    0,682
610,723;28053,393;    4,372;    6,864
611,302;27301,606;   -0,446;    1,682
611,881;26760,998;    5,008;   11,227
612,460;27627,341;    1,645;    3,955
613,039;28026,393;   -0,082;    2,045
613,617;26797,334;    1,736;    4,773
614,196;26984,554;    1,099;    1,227
614,775;27347,173;    1,009;    2,409
615,353;27299,921;    0,736;    0,864
615,932;27032,173;    0,100;    2,409
616,510;27580,987;    0,554;    0,591
617,089;27092,333;    7,100;   17,591
617,667;26849,358;    2,372;    6,136
618,246;26751,075;   -1,537;    1,318
618,824;26930,875;   -3,355;   -0,955
619,402;26481,152;   -2,900;   -1,773
619,981;26957,470;   -0,173;   -1,045
620,559;26763,861;    0,009;    1,682
621,137;26300,760;   -0,718;    1,864
621,715;26344,987;   -1,173;   -0,682
622,293;26289,543;   -0,537;   -0,773
622,871;26717,127;   -0,718;    0,500
623,450;26285,137;    0,373;   -0,864
624,028;26200,344;    0,191;   -0,955
624,606;25862,064;   -1,718;    1,682
625,183;26226,074;   -1,536;   -1,136
625,761;25842,343;    1,009;    1,136
626,339;26136,414;    1,373;    2,591
626,917;26512,634;   -0,172;   -0,045
627,495;26524,494;   -0,354;    1,318
628,073;25968,745;   -0,263;    2,864
628,650;25688,343;    0,100;    2,136
629,228;26123,791;    0,373;    4,409
629,806;25514,805;    2,282;    1,136
630,383;25734,350;    1,464;   -0,318
630,961;25539,746;    2,555;   -0,955
631,539;25311,766;    2,464;    0,227
632,116;24727,746;   11,373;   15,409
632,694;25279,448;    2,555;    6,500
633,271;25562,549;    0,828;    2,682
633,848;25508,235;    1,828;    2,045
634,426;25507,574;   -1,081;    1,773
635,003;24622,143;    1,101;   -0,409
635,580;24936,857;    1,192;    3,682
636,158;25528,014;    3,737;    1,227
636,735;25453,944;    0,555;   -0,500
637,312;25626,584;   -0,809;   -0,682
637,889;25716,161;   -4,354;   -0,682
638,466;25199,381;   -3,990;   -0,409
639,043;25176,038;    2,101;   -1,136
639,620;25468,549;   -2,262;   -0,955
640,197;25783,404;    1,100;    1,682
640,774;25895,367;   -0,172;    1,136
641,351;26348,694;    0,737;    1,136
641,928;25818,384;   -0,627;    1,409
642,505;25485,256;    0,828;   -0,500
643,082;25521,038;   -1,718;    1,227
643,658;24527,273;   -0,718;    1,500
644,235;25323,691;    1,191;    2,500
644,812;25671,381;    1,918;    0,773
645,388;25391,981;   -0,991;    1,409
645,965;25451,671;   -0,809;    1,682
646,542;25504,361;   -1,445;   -0,227
647,118;25508,325;    1,009;   -0,955
647,695;25802,742;   -0,263;    1,136
648,271;25703,614;   -0,536;    0,500
648,848;26038,759;    0,736;    2,227
649,424;25910,359;    0,827;    1,318
650,000;25652,504;   -0,354;   -1,045
650,577;25456,467;   -0,627;   -0,955
651,153;25928,884;   -1,809;    0,955
651,729;26964,756;    1,191;    0,864
652,305;27430,901;    0,645;    2,773
652,881;32483,955;   -0,082;    1,136
653,458;39382,373;    1,100;    0,227
654,034;42715,063;    0,282;    1,591
654,610;43942,663;    0,554;    0,773
655,186;45214,808;    0,645;    3,045
655,762;44783,680;   -0,991;    0,409
656,338;44809,370;    0,100;    0,136
656,913;45815,242;   -0,082;    0,409
657,489;44967,933;    0,827;   -0,318
658,065;44900,623;   -0,173;   -1,591
658,641;45595,586;   -0,900;   -0,864
659,217;44832,367;   -0,991;    0,409
659,792;44200,330;    0,645;   -0,409
660,368;44405,202;   -2,173;   -0,682
660,944;43880,075;   -2,082;    1,227
661,519;38722,856;   -0,628;    0,409
662,095;32835,637;   -1,719;    0,591
662,670;28672,327;    1,281;   -0,136
663,246;27773,200;    1,009;   -0,409
663,821;27144,617;    0,281;    1,682
664,396;26632,308;    0,009;    1,864
664,972;26878,998;    0,009;   -0,500
665,547;27223,870;    1,372;    0,136
666,122;27280,469;   -1,082;    0,318
666,698;27545,978;   -0,173;    0,318
667,273;26858,577;   -0,173;    0,136
667,848;27719,813;    2,372;    1,500
668,423;27563,413;    2,190;    2,318
668,998;28130,739;    2,827;   -0,682
669,573;28628,884;   -3,264;   -1,500
670,148;28431,938;   -1,446;   -0,682
670,723;28308,719;   -1,810;    0,318
671,298;28721,955;    2,372;    1,045
671,873;28836,282;   -0,082;   -0,136
672,448;28790,790;    0,645;    0,136
673,023;29115,117;   -1,992;   -0,227
673,597;29400,898;    0,827;    2,318
674,172;29193,589;   -0,355;    0,318
674,747;28703,097;    0,372;   -1,045
675,321;28476,151;   -0,628;    3,318
675,896;28058,114;    0,645;    1,045
676,471;29079,259;    2,645;    1,591
677,045;28820,768;   -1,264;    0,682
677,620;28910,640;    0,190;    1,136
678,194;29235,785;   -2,628;    1,136
678,769;28773,657;   -1,083;   -0,318
679,343;29039,438;   -0,628;    1,773
679,917;28975,492;   -1,446;    1,955
680,492;29017,455;    0,826;    3,227
681,066;29156,327;    3,372;    0,409
681,640;29165,381;    1,463;   -0,318
682,214;29995,708;    0,735;    0,500
682,788;29471,489;   -1,356;   -0,773
683,363;29469,725;   -1,810;    1,682
683,937;29174,688;   -1,719;   -0,318
684,511;29967,742;    0,463;   -0,591
685,085;29604,342;   -1,356;    0,318
685,659;29336,214;   -2,538;    0,864
686,232;29646,813;   -0,356;   -0,318
686,806;29391,594;   -0,901;    0,409
687,380;29978,467;   -0,174;    0,591
687,954;30152,884;   -1,174;    1,136
688,528;29879,756;   -0,719;    1,955
689,101;30672,719;   -3,992;    1,045
689,675;30253,955;   -0,356;   -0,136
690,249;29637,646;   -0,719;    0,409
690,822;29942,790;    0,280;    0,318
691,396;30089,299;   -0,265;    1,227
691,969;29486,262;    1,280;    0,136
692,543;29912,771;   -0,447;   -1,955
693,116;29594,643;   -0,265;   -1,409
693,690;29452,606;    0,099;    0,500
694,263;30022,023;   -1,083;    2,955
694,836;30023,441;    1,371;    3,591
695,410;28720,768;   -0,265;    1,773
695,983;29176,185;    0,189;    0,591
696,556;29158,148;   -0,447;   -1,045
697,129;29539,384;   -0,356;    1,409
697,703;29159,529;   -1,629;    1,955
698,276;29143,947;    1,462;   -0,773
698,849;28965,183;    1,280;    1,409
699,422;29316,146;   -1,083;    0,591
699,995;29002,109;    0,007;    0,136
700,568;29527,799;   -0,629;    3,045
701,140;29544,671;   -2,811;    1,682
701,713;29240,452;   -0,174;    2,409
702,286;29052,961;   -0,538;    0,864
702,859;28897,924;   -0,902;   -0,591
703,432;28025,069;    0,825;    0,682
704,004;28518,123;    0,462;    0,318
704,577;28457,722;   -0,629;    0,136
705,150;29046,685;    0,189;    2,500
705,722;28812,739;   -0,356;   -3,227
706,295;28576,066;   -0,175;   -0,591
706,867;28442,666;   -0,175;    1,955
707,440;28673,356;   -1,720;   -0,409
708,012;28950,501;    0,462;    0,591
708,584;28890,009;    2,462;    0,227
709,157;29100,245;    1,825;   -0,591
709,729;28769,208;    2,280;    2,045
710,301;29616,535;    0,734;    0,045
710,874;29634,589;   -1,447;   -0,227
711,446;28464,279;    0,371;    0,864
712,018;28373,879;    0,098;    0,500
712,590;28127,023;   -1,993;    1,682
713,162;28674,259;    0,825;    1,318
713,734;28911,313;    1,825;   -2,045
714,306;28775,458;   -1,902;   -0,409
714,878;27491,785;    0,825;    0,864
715,450;28271,748;    0,643;    0,864
716,022;28503,711;    1,552;    1,318
716,593;28659,401;    0,189;    0,591
717,165;28603,092;   -3,175;   -1,227
717,737;28363,418;    0,280;    0,409
718,309;28020,563;    0,280;   -0,045
718,880;27926,981;   -0,539;   -1,409
719,452;28124,308;   -0,175;   -1,591
720,024;27737,362;    0,734;   -0,591
720,595;28319,506;   -2,902;    0,955
721,167;27872,742;    0,370;   -2,045
721,738;27436,342;   -0,812;   -1,045
722,309;27411,577;   -0,993;   -1,227
722,881;27149,813;   -1,357;    0,773
723,452;27791,685;   -2,630;    2,864
724,023;27974,194;   -0,721;    2,682
724,595;27701,066;    0,007;    0,682
725,166;27480,938;    0,007;   -0,409
725,737;27194,538;    1,734;    0,227
726,308;27231,410;   -0,266;    0,318
726,879;27703,100;   -1,630;    1,227
727,450;27488,154;    0,552;   -0,045
728,021;27486,663;    3,097;    0,682
728,592;27316,626;    0,734;    0,500
729,163;27685,952;    0,643;   -0,136
729,734;27670,279;    0,188;   -0,227
730,305;27970,333;    1,734;    0,136
730,876;28331,296;    0,188;    2,955
731,447;28115,532;    2,188;    2,682
732,017;28229,404;    1,097;    1,864
732,588;27685,731;    0,734;    1,227
733,159;27891,239;    0,643;   -1,045
733,729;27621,384;    0,006;    0,409
734,300;26927,620;    0,915;    0,864
734,870;27339,492;    3,461;    0,591
735,441;27897,728;    0,370;   -0,591
736,011;27705,964;    0,643;   -1,591
736,582;27617,381;   -0,812;    0,045
737,152;27071,890;   -1,721;   -2,045
737,722;27542,853;   -0,267;   -0,682
738,293;27213,998;   -1,358;    1,318
738,863;27121,143;    2,461;    2,318
739,433;26919,470;    5,279;    0,318
740,003;27536,796;   -0,994;   -0,682
740,573;26969,668;    2,097;   -1,591
741,143;26911,359;   -1,085;    0,318
741,713;27724,867;    1,188;   -0,500
742,283;27419,103;    0,915;    1,591
742,853;27166,157;    1,915;    1,591
743,423;26588,120;    1,733;    0,045
743,993;26749,629;   -0,358;    1,500
744,563;26109,137;    0,097;   -0,864
745,133;26103,009;   -0,812;   -0,864
745,702;26778,154;   -0,267;    1,773
746,272;25986,299;   -0,176;    0,591
746,842;25757,080;   -1,358;   -0,591
747,411;26167,771;   -0,267;   -0,318
747,981;26321,643;    0,097;    0,500
748,551;26298,151;    2,278;   -1,045
749,120;26249,842;    0,642;   -0,227
749,690;26613,168;   -0,631;    2,409
750,259;26953,768;    1,369;    2,955
750,828;26877,640;    1,551;   -1,955
751,398;27114,149;    1,278;   -0,045
751,967;26683,566;    2,187;    0,409
752,536;26856,984;   -0,813;   -0,227
753,105;27286,947;    0,096;    0,227
753,675;27080,092;    0,096;    1,773
754,244;27049,418;   -0,904;    3,591
754,813;27056,381;    0,551;    1,227
755,382;26627,163;    0,460;    0,955
755,951;27233,399;    1,551;    3,682
756,520;26765,362;   -0,085;    1,864
757,089;27330,688;    0,278;    0,500
757,658;27402,651;    1,733;    1,227
758,227;27438,433;    1,096;    0,318
758,795;27691,396;    1,187;    1,136
759,364;27931,177;   -0,086;   -0,591
759,933;26988,322;   -1,176;   -0,045
760,501;26493,194;    0,733;   -1,318
761,070;26950,793;   -2,813;   -1,409
761,639;27621,756;   -1,904;    1,318
762,207;27006,629;    1,551;   -0,955
762,776;26899,592;    0,369;    0,864
763,344;26912,918;   -0,995;    0,591
763,913;26007,427;   -0,722;    1,409
764,481;26763,572;    1,005;   -0,136
765,049;26498,444;   -1,358;    1,409
765,618;26368,680;   -0,086;    0,318
766,186;26459,643;    0,278;    0,136
766,754;26677,970;    0,005;    1,864
767,322;25646,387;   -1,995;    0,409
767,890;25690,714;   -0,722;   -1,773
768,459;26127,404;   -2,177;   -0,318
769,027;26262,004;    1,641;    3,409
769,595;25189,149;    3,278;    2,591
770,163;25667,112;    3,823;    2,955
770,730;25430,620;    0,732;   -0,136
771,298;25255,583;    0,187;   -1,409
771,866;25297,637;   -1,541;    4,955
772,434;25658,418;   -0,631;   -1,864
773,002;25847,109;    0,005;    0,682
773,569;25510,799;    0,914;    1,682
774,137;25345,035;   -0,268;   -0,045
774,705;26069,271;    0,278;   -0,136
775,272;25618,143;    0,641;    0,682
775,840;25336,015;   -0,177;    2,682
776,407;24892,524;    0,277;    1,955
776,975;24501,850;   -0,632;    0,318
777,542;25472,177;   -1,086;   -0,045
778,110;25343,413;   -1,268;   -0,045
778,677;25010,921;   -2,359;   -0,864
779,244;24796,521;    2,186;    1,045
779,812;24889,575;    1,823;    0,864
780,379;24729,720;    0,005;    1,136
780,946;25013,410;    1,005;   -0,773
781,513;25300,555;   -1,450;    0,318
782,080;24697,791;   -0,086;    2,864
782,647;25447,117;   -0,268;    3,045
783,214;24984,171;   -0,177;    3,864
783,781;24584,407;   -0,723;   -0,682
784,348;24456,552;   -0,632;    1,500
784,915;24948,879;   -3,177;    0,318
785,482;24729,842;    1,368;    2,591
786,049;25104,078;    0,186;   -0,591
786,615;25275,768;    0,277;   -0,955
787,182;25029,458;    0,186;   -0,682
787,749;24681,967;   -2,814;    1,409
788,315;24050,203;   -1,632;   -0,409
788,882;24303,166;    1,550;   -1,227
789,448;25034,765;    1,732;   -0,955
790,015;25033,910;    1,095;    3,227
790,581;24621,509;    1,459;    0,227
791,148;24516,745;    0,641;    1,045
791,714;24685,072;   -0,541;    3,136
792,280;24369,308;    0,186;    1,591
792,847;23923,725;    0,550;    2,500
793,413;24490,234;   -0,269;   -0,318
793,979;24057,560;    3,459;   -1,318
794,545;24142,705;    4,459;    2,682
795,111;23564,941;    2,186;    1,318
795,678;23706,268;    0,731;   -1,682
796,244;23337,504;    3,368;    0,136
796,810;23889,558;    1,731;    0,773
797,375;23617,339;    0,549;   -2,136
797,941;23641,484;   -0,541;    0,591
798,507;23799,083;   -0,451;   -0,955
799,073;23316,228;   -0,360;    0,591
799,639;23366,191;   -2,632;    3,136
800,205;23397,882;    0,095;    2,682
800,770;22942,845;    0,640;    1,773
801,336;23090,626;    1,368;   -0,955
801,901;22808,589;    4,549;    3,136
802,467;23324,007;   -0,542;    2,045
803,033;22684,697;   -0,087;    0,864
803,598;22913,114;    1,913;   -1,045
804,163;22893,987;    1,095;   -0,318
804,729;22802,495;   -0,178;    1,136
805,294;23290,004;    0,822;    2,227
805,859;23051,876;    0,731;   -0,409
806,425;22527,293;    1,186;    2,682
806,990;22153,802;    2,186;    4,318
807,555;22644,583;   -1,451;    2,591
808,120;22591,819;    0,822;   -0,409
808,685;22614,782;    0,185;   -2,500
809,250;22118,563;    0,004;   -0,500
809,815;22422,981;    1,913;    0,682
810,380;22943,853;   -0,269;    1,591
810,945;23547,998;   -1,087;    2,045
811,510;22701,779;    2,094;    1,591
812,075;22419,106;   -0,633;   -1,409
812,640;22414,887;    2,003;    1,409
813,204;22477,032;    0,822;   -0,227
813,769;22941,177;    2,094;   -0,045
814,334;22383,231;    0,458;    0,864
814,898;22441,103;    0,367;    0,591
815,463;22284,884;    1,276;   -0,773
816,027;22266,938;   -0,724;   -2,318
816,592;22292,356;    0,640;   -2,045
817,156;21873,046;    2,094;    1,136
817,721;21766,191;    4,276;    2,318
818,285;21695,427;    2,912;    1,500
818,849;22314,390;   -1,451;    1,682
819,414;22188,080;   -0,269;    2,955
819,978;21772,953;   -1,269;    1,773
820,542;22415,461;    2,003;    0,500
821,106;22079,333;   -0,815;    0,682
821,670;22186,205;   -0,815;    2,591
822,234;21911,441;   -0,270;    1,409
822,798;21311,859;    0,003;    0,500
823,362;21286,640;   -0,633;    4,227
823,926;20574,058;    0,094;    1,136
824,490;20850,657;   -0,997;   -0,682
825,054;21274,620;   -0,088;   -1,136
825,618;20892,129;   -1,542;   -1,500
826,181;20852,546;    0,458;   -1,318
826,745;20746,328;    1,367;   -1,045
827,309;21106,109;    1,185;    1,318
827,872;20505,799;    1,367;    0,955
828,436;21465,489;    1,185;   -0,773
828,999;21492,725;   -0,997;    1,227
829,563;20261,052;   -0,179;    1,136
830,126;20138,288;   -0,179;   -0,591
830,690;20171,433;   -1,997;    2,864
831,253;19674,487;   -0,543;    2,227
831,816;19828,632;   -1,906;    0,500
832,380;19723,140;    0,185;    0,864
832,943;19978,467;   -1,361;   -0,500
833,506;19452,157;    2,639;   -1,227
834,069;20175,484;    3,912;   -0,955
834,632;20261,083;    1,730;    1,318
835,195;20153,865;    1,003;    0,955
835,758;19379,737;   -0,997;    1,955
836,321;19241,972;    0,730;   -1,045
836,884;19315,845;   -0,725;   -0,955
837,447;19313,990;   -2,816;    1,773
838,010;19623,953;    0,366;    3,227
838,573;19944,279;   -1,179;    0,773
839,135;19882,697;   -1,361;   -0,955
839,698;19300,205;    1,275;    0,409
840,261;18818,168;    1,003;   -0,227
840,823;18680,677;   -0,543;    0,864
841,386;18953,640;   -0,452;   -2,409
841,948;18831,149;   -1,361;    1,773
842,511;18563,748;    0,912;    1,682
843,073;18713,711;    1,912;    0,227
843,636;18521,856;   -0,361;   -0,227
844,198;18475,001;    0,911;    0,591
844,760;18617,873;    1,093;    1,955
845,322;18264,291;    0,548;    1,136
845,885;18692,708;    0,730;    0,591
846,447;19114,490;   -1,998;    0,227
847,009;18729,180;    1,911;   -0,682
847,571;19035,325;    0,820;   -2,045
848,133;19195,288;   -1,089;   -1,864
848,695;18921,615;   -0,543;    1,409
849,257;18475,578;   -1,089;   -1,682
849,819;18714,268;   -0,998;   -0,409
850,381;18735,867;   -0,725;   -0,864
850,942;19035,649;    1,093;   -0,591
851,504;19071,884;    1,184;    0,227
852,066;19084,666;    1,275;   -1,591
852,628;18597,356;   -0,180;    1,955
853,189;18127,683;    1,638;    2,682
853,751;18284,373;   -0,907;    1,409
854,312;18082,063;   -0,453;   -1,682
854,874;18618,754;   -2,089;   -0,773
855,435;19103,990;   -0,907;   -1,682
855,997;19268,862;   -1,816;   -0,136
856,558;18550,370;    0,366;    1,773
857,119;18636,333;    0,820;    2,864
857,681;18324,296;    0,002;    0,318
858,242;18390,896;    1,911;   -2,136
858,803;18828,768;    0,456;   -0,773
859,364;19385,276;    0,184;   -4,773
859,925;18695,240;   -2,453;   -0,955
860,486;18577,112;   -0,453;   -0,955
861,047;18321,984;   -0,544;   -1,227
861,608;18130,311;   -1,089;   -0,773
862,169;18269,455;    0,638;   -0,045
862,730;18014,964;    0,456;    1,409
863,291;18263,927;   -0,635;   -0,500
863,852;18667,163;   -0,635;    1,955
864,412;18108,580;   -0,271;   -0,864
864,973;16716,998;   -0,089;    0,500
865,534;16575,597;   -1,726;    0,227
866,094;18078,561;    1,820;    0,227
866,655;17742,887;    1,274;    3,318
867,215;18013,941;    0,274;    0,136
867,776;17820,541;    0,547;   -0,136
868,336;17915,867;   -1,453;    0,136
868,897;17423,376;    2,638;    1,682
869,457;17169,521;    1,365;    0,318
870,017;17375,393;    0,547;   -1,227
870,578;17963,356;   -0,817;    0,773
871,138;17640,955;   -2,089;   -0,955
871,698;17144,009;   -0,817;   -1,318
872,258;17036,427;   -0,453;   -2,864
872,818;17413,572;    2,729;    0,045
873,378;17358,626;    0,638;    1,045
873,938;16902,225;    0,547;    0,500
874,498;17244,825;    0,274;   -1,955
875,058;17150,424;    2,183;    1,773
875,618;16997,024;    1,910;   -2,682
876,177;16959,987;    1,274;    0,136
876,737;16561,950;   -0,090;    1,955
877,297;16586,367;    0,183;    1,955
877,856;16563,240;   -0,362;    0,318
878,416;16503,112;    1,183;   -0,136
878,976;16752,166;   -1,817;    0,409
879,535;16895,947;    0,092;    3,136
880,095;16667,092;   -0,544;    0,045
880,654;16769,691;   -1,090;    1,318
881,213;16869,382;    2,456;    1,500
881,773;16531,436;    2,637;    2,682
882,332;16878,490;    3,365;    5,136
882,891;16725,362;    3,092;    2,136
883,451;17198,507;   -1,272;    1,682
884,010;16615,288;   -2,908;   -0,409
884,569;16717,615;   -0,999;   -0,045
885,128;16872,669;    2,819;   -1,864
885,687;16951,450;    4,455;    0,682
886,246;16646,322;    1,455;    2,136
886,805;16389,103;    2,455;    2,045
887,364;16669,794;   -0,999;   -0,500
887,922;16993,393;   -1,181;    0,045
888,481;16561,174;   -1,545;    0,591
889,040;16814,410;    1,183;    2,136
889,599;17539,100;    2,455;    1,409
890,157;17602,518;    1,455;    2,409
890,716;17240,208;   -0,090;    0,227
891,274;17101,262;    0,092;   -1,136
891,833;17477,771;    1,546;    0,864
892,391;17343,279;   -0,454;    0,500
892,950;17465,788;    1,819;   -0,773
893,508;17832,751;    0,455;   -0,409
894,067;17131,259;    0,637;    0,136
894,625;17013,768;   -0,636;   -1,500
895,183;17259,549;   -0,363;   -0,682
895,741;17167,058;    1,728;   -1,773
896,299;17018,021;   -0,545;   -2,409
896,858;17180,438;    0,819;   -1,591
897,416;17302,674;    2,728;   -1,318
897,974;17055,819;    1,819;    0,318
898,532;17211,873;    6,091;    2,682
899,089;17114,109;    2,091;   -0,682
899,647;17137,981;   -1,454;    1,318
900,205;16907,217;    1,182;    1,045
900,763;17114,816;   -0,454;    0,227
901,321;17105,052;    2,364;   -1,409
901,878;16485,833;   -1,000;   -0,773
902,436;16369,160;   -1,363;    1,318
902,994;16793,396;    4,728;    3,682
903,551;16210,541;    0,728;    0,409
904,109;16594,231;    0,182;   -1,409
904,666;16170,830;    2,455;    1,045
905,224;15984,430;    0,182;   -0,409
905,781;15730,848;    0,727;   -0,318
906,338;15845,902;   -1,363;    1,045
906,895;15774,774;    0,637;    2,045
907,453;15718,282;    1,727;    1,136
908,010;15707,518;   -0,909;    0,409
908,567;15399,117;    1,273;    0,591
909,124;14846,717;    0,364;   -1,500
909,681;14918,771;   -2,909;    0,682
910,238;15086,188;    0,636;   -1,318
910,795;15421,606;   -0,273;   -1,136
911,352;15020,606;   -2,909;   -2,682
911,909;14448,788;   -1,364;   -0,864
912,466;14965,515;   -3,182;    1,500
913,022;14509,242;   -1,636;    0,500
913,579;14878,424;   -0,909;    2,045
914,136;14533,424;    1,636;    0,955
914,692;14918,879;    0,091;   -1,227
915,249;14519,697;    1,455;    0,409
915,806;14769,879;    0,182;    1,955
916,362;14517,788;    1,909;    1,864
916,918;14054,606;    2,000;    1,045
917,475;14023,061;   -1,182;    0,955
918,031;14082,424;    3,364;   -0,045
918,587;13548,788;   -0,909;   -0,318
919,144;13724,606;   -2,273;    0,227
919,700;14053,061;    1,727;    0,773
920,256;13642,152;    0,727;    0,045
920,812;13263,515;   -0,727;   -1,045
921,368;13278,697;   -1,727;   -1,045
921,924;12880,242;    0,182;   -0,136
922,480;12507,879;   -0,545;    1,227
923,036;13140,424;    1,273;    1,955
923,592;13030,970;    0,455;    0,318
924,148;12953,970;    0,455;   -0,955
924,704;12268,061;   -1,364;   -0,409
925,259;12516,606;   -0,273;    0,591
925,815;12291,424;    1,455;    0,500
926,371;11813,242;    2,909;    1,409
926,926;11659,606;    2,091;    0,591
927,482;11344,152;   -1,364;    0,773
928,037;11219,697;    0,909;    2,045
928,593;11505,788;    1,636;    1,045
929,148;11328,333;   -1,818;   -1,500
929,704;10821,424;   -1,455;   -0,500
930,259;11014,152;    0,091;   -0,136
930,814;10098,606;   -0,818;    1,955
931,369; 9795,424;    1,091;   -0,773
931,925; 9677,697;   -0,091;    0,136
932,480; 9570,970;   -2,818;   -2,591
933,035; 9473,697;    0,545;   -0,318
933,590; 9236,152;    0,364;   -1,773
934,145; 8875,515;   -1,364;   -0,318
934,700; 9210,879;    0,455;   -0,591
935,255; 9025,879;   -0,091;    0,045
935,809; 8334,333;    3,182;    0,864
936,364; 7450,424;   -0,455;   -0,136
936,919; 7405,970;    0,455;   -1,773
937,474; 7264,242;    1,455;    0,136
938,028; 7060,061;   -1,636;    1,136
938,583; 6544,970;    1,818;    4,682
939,138; 6794,061;    2,091;    2,136
939,692; 6228,788;    1,636;   -1,136
940,247; 5967,333;   -0,727;   -1,045
940,801; 5505,697;   -0,636;    0,227
941,355; 5385,606;   -0,364;    2,591
941,910; 5038,970;   -0,273;   -2,136
942,464; 5155,515;   -0,818;   -0,318
943,018; 4972,879;    1,000;   -0,227
943,572; 4910,515;    2,545;   -0,682
944,126; 4328,333;    0,091;   -0,409
944,681; 4215,879;    3,091;    0,227
945,235; 4206,152;    1,000;   -0,591
945,789; 4128,879;    0,364;   -1,864
946,342; 4253,424;    0,455;   -0,591
946,896; 4045,788;   -2,273;    0,955
947,450; 3800,152;    1,545;   -0,227
948,004; 4017,242;    1,727;   -0,045
948,558; 4009,424;    0,273;   -0,864
949,111; 3952,333;   -0,273;   -0,318
949,665; 3992,152;    1,636;   -0,682
950,219; 3867,697;   -0,091;   -1,045
950,772; 3928,606;   -1,909;    1,864
951,326; 3823,424;    0,545;   -0,955
951,879; 3926,061;    0,727;   -2,318
952,433; 3962,242;    0,000;    2,227
952,986; 3792,606;    2,909;    0,682
953,539; 3757,606;   -0,273;    0,591
954,093; 3672,333;    0,545;   -1,318
954,646; 3814,242;    0,909;    1,318
955,199; 3637,333;    0,000;   -0,500
955,752; 3510,970;   -0,455;    1,773
956,305; 3483,970;   -0,091;    2,955
956,858; 3661,606;    0,818;   -0,318
957,411; 3798,788;   -0,545;    2,136
957,964; 3636,061;    1,364;    2,136
958,517; 3628,606;   -1,545;    3,136
959,070; 3462,152;   -0,455;    1,955
959,623; 3551,152;    1,091;    1,500
960,176; 3316,333;    1,727;    2,045
960,728; 3285,788;   -2,727;    0,773
961,281; 3336,424;    0,545;    0,500
961,834; 3390,515;   -0,909;    0,864
962,386; 3285,424;    1,727;    1,045
962,939; 3216,515;    0,364;   -0,318
963,491; 3369,970;    0,455;    1,136
964,043; 3215,970;    1,182;    2,409
964,596; 3363,424;   -1,000;    2,227
965,148; 3206,879;   -1,000;    1,773
965,700; 3126,061;    1,091;   -0,227
966,253; 3276,697;   -0,636;    0,318
966,805; 3110,333;   -2,273;    0,773
967,357; 3152,879;    1,091;   -1,500
967,909; 3123,152;    0,455;   -1,227
968,461; 3233,061;    0,545;    3,136
969,013; 3166,242;   -0,182;   -0,864
969,565; 3249,242;   -0,455;   -1,136
970,117; 3310,970;   -0,364;    1,045
970,669; 3121,606;    0,182;   -0,136
971,220; 3015,333;   -0,455;   -1,500
971,772; 2933,515;   -0,636;   -0,318
972,324; 3053,697;    0,091;   -0,500
972,876; 2992,606;    0,818;   -0,045
973,427; 3149,606;    1,909;   -1,045
973,979; 3124,152;   -0,727;   -2,500
974,530; 3135,879;    1,818;    1,318
975,082; 3140,788;   -0,545;    1,682
975,633; 3038,606;    1,091;    1,682
976,184; 3168,970;    0,909;    0,773
976,736; 2978,697;    0,091;    0,227
977,287; 2788,242;   -0,909;   -0,500
977,838; 2949,970;    0,909;   -0,318
978,389; 3024,333;   -1,000;   -0,500
978,940; 2868,424;    0,545;   -0,409
979,491; 2915,242;    0,091;   -0,500
980,042; 2864,061;    0,182;    3,045
980,593; 2928,788;   -2,545;    0,227
981,144; 2962,606;    2,545;   -0,500
981,695; 2929,515;    1,455;    1,500
982,246; 2913,333;   -0,273;    1,045
982,797; 3070,152;   -1,727;    0,682
983,347; 3162,970;    0,364;    0,591
983,898; 3347,061;    3,091;    0,409
984,449; 3156,152;    2,182;    0,773
984,999; 3046,970;    1,455;   -1,136
985,550; 2830,515;    0,182;   -0,318
986,100; 2868,970;   -0,455;   -0,318
986,651; 2902,424;   -0,818;    0,045
987,201; 2885,061;   -1,000;   -0,591
987,751; 2962,061;    0,818;    2,864
988,302; 2948,697;    2,636;    1,500
988,852; 2958,697;    0,455;   -1,136
989,402; 3007,061;    0,091;    0,682
989,952; 2925,879;   -2,182;    0,864
990,502; 3025,697;   -0,091;    0,682
991,052; 2995,152;   -0,727;    0,045
991,602; 2856,333;   -2,909;    1,318
992,152; 2859,788;    0,455;    0,682
992,702; 2847,515;    1,364;   -0,045
993,252; 2767,242;   -3,000;   -0,500
993,802; 2848,515;   -0,273;    1,318
994,352; 3094,606;   -1,545;    1,136
994,901; 3171,515;   -0,182;    3,227
995,451; 3090,242;   -0,182;    0,318
996,000; 3166,606;    1,636;    0,318
996,550; 2891,152;    2,273;    0,227
997,100; 2897,879;    1,273;   -0,045
997,649; 3180,515;    2,182;    0,955
998,198; 2805,424;    1,727;   -1,500
998,748; 3018,515;    1,091;   -2,318
999,297; 2898,061;   -0,818;   -0,409
999,846; 2962,879;    1,000;   -0,773
1000,395; 3017,697;   -0,818;    0,500
1000,945; 2966,697;    1,818;   -0,773
1001,494; 3057,606;    2,364;    0,682
1002,043; 3060,152;    4,636;    0,864
1002,592; 2890,061;   -1,091;    1,955
1003,141; 3039,424;   -0,455;   -0,682
1003,690; 2904,879;    1,727;    0,500
1004,238; 2978,970;    1,455;   -0,045
1004,787; 2615,970;    1,364;    1,227
1005,336; 2873,333;    0,364;    0,682
1005,885; 3003,970;    1,364;   -2,773
1006,433; 3129,788;    0,545;    0,955
1006,982; 3192,788;    0,455;    1,682
1007,531; 3085,152;   -1,818;   -0,227
1008,079; 3032,788;   -2,273;    0,500
1008,627; 3164,152;   -1,455;    0,409
1009,176; 2915,606;    0,000;   -1,955
1009,724; 2962,515;    1,091;    0,864
1010,273; 3020,333;    1,273;    0,500
1010,821; 3132,606;    0,091;    1,409
1011,369; 2874,242;   -1,364;    1,318
1011,917; 2870,061;   -1,364;   -0,591
1012,465; 3138,788;    1,273;   -1,591
1013,013; 3249,061;    2,091;   -1,682
1013,561; 3120,061;    0,455;   -0,773
1014,109; 3183,242;   -1,909;    1,682
1014,657; 3046,333;    0,364;    0,591
1015,205; 3171,424;    1,636;   -0,955
1015,753; 3202,242;   -0,545;   -1,409
1016,301; 3235,697;   -2,636;    3,045
1016,848; 3225,879;   -1,273;    0,409
1017,396; 3275,788;    2,545;    0,045
1017,944; 3393,970;    1,182;    1,864
1018,491; 3147,152;    0,273;    1,409
1019,039; 3329,424;    0,455;    0,591
1019,586; 3230,970;   -1,364;    1,682
1020,134; 3307,788;    0,455;    1,500
1020,681; 3329,879;    0,182;   -1,136
1021,228; 3342,152;    2,909;   -2,227
1021,776; 3185,242;    1,182;   -1,136
1022,323; 3392,697;    0,455;    0,773
1022,870; 3335,970;   -1,000;   -0,045
1023,417; 3227,697;    2,636;    1,864
1023,964; 3359,515;    2,636;    1,227
1024,511; 3195,879;    1,000;    0,773
1025,058; 3006,333;    3,182;   -0,045
1025,605; 3055,242;   -2,273;    3,136
1026,152; 3288,515;    1,727;   -0,591
1026,699; 2995,970;    1,818;    1,318
1027,245; 3167,879;   -0,091;    0,318
1027,792; 3367,697;   -1,000;    1,409
1028,339; 3252,697;    2,364;   -0,045
1028,885; 3107,061;    1,000;   -0,227
1029,432; 3060,152;   -0,091;    0,227
1029,978; 3131,697;   -1,000;   -1,591
1030,525; 3020,606;    1,000;    0,409
1031,071; 3266,152;   -1,364;    1,136
1031,618; 3374,697;    0,364;    1,682
1032,164; 3156,879;   -0,091;    3,045
1032,710; 3193,061;    1,636;   -1,500
1033,256; 3118,424;   -0,636;   -0,136
1033,803; 3078,697;   -0,545;    1,500
1034,349; 2781,879;   -1,364;    0,136
1034,895; 2965,970;    0,000;   -0,318
1035,441; 2944,424;   -0,818;    0,318
1035,987; 2952,697;   -2,364;   -0,682
1036,533; 2939,061;   -1,455;   -0,955
1037,078; 3164,697;    1,455;    1,682
1037,624; 2964,333;    2,455;   -0,955
1038,170; 2983,242;    0,455;   -0,318
1038,716; 2891,061;    1,636;   -0,409
1039,261; 2809,606;   -2,273;   -0,773
1039,807; 2751,152;   -0,091;    3,409
1040,352; 2824,333;   -1,909;   -0,318
1040,898; 2860,424;   -1,545;   -0,682
1041,443; 2768,879;   -1,455;   -2,591
1041,989; 2827,333;    1,091;    1,591
1042,534; 2692,697;   -0,364;    2,591
1043,079; 2793,333;    2,909;    0,955
1043,625; 2584,061;    1,818;    0,500
1044,170; 2619,242;   -1,364;    1,045
1044,715; 2872,061;    2,455;    0,955
1045,260; 2700,697;    2,182;   -0,955
1045,805; 2738,152;    1,182;   -0,591
1046,350; 2660,606;    1,364;   -0,409
1046,895; 2647,515;    2,909;    1,591
1047,440; 2592,970;    5,364;    0,409
1047,985; 2479,970;    2,818;   -0,955
1048,530; 2407,152;    1,545;    1,227
1049,074; 2476,061;    0,000;    0,318
1049,619; 2438,424;   -1,364;    1,955
1050,164; 2247,333;    0,455;    0,227
1050,708; 2303,152;   -0,455;    0,045
1051,253; 2671,333;    1,273;   -2,227
1051,797; 2370,515;    0,818;   -1,318
1052,342; 2368,242;   -1,182;    1,045
1052,886; 2375,152;    0,364;   -1,409
1053,430; 2248,970;   -1,364;    0,136
1053,975; 2275,606;   -0,818;   -0,318
1054,519; 2254,061;   -0,727;    3,227
1055,063; 2274,879;    0,909;    1,318
1055,607; 2170,152;   -0,182;    0,227
1056,151; 2182,333;    2,909;    1,682
1056,695; 2085,242;    2,273;   -1,136
1057,239; 2163,061;   -1,727;   -0,682
1057,783; 2181,879;    0,818;   -1,500
1058,327; 2128,970;    0,000;    1,409
1058,871; 2349,515;   -0,545;    1,318
1059,415; 2066,424;   -0,818;   -0,045
1059,958; 2348,879;    1,455;    2,591
1060,502; 2045,242;   -1,000;   -0,773
1061,046; 1924,424;    0,364;   -0,955
1061,589; 1913,970;   -3,000;   -1,136
1062,133; 1800,515;   -1,273;    1,864
1062,676; 1749,515;    1,182;    0,864
1063,220; 1757,606;    1,091;    0,500
1063,763; 1773,697;    0,909;    1,136
1064,306; 1862,242;   -0,909;    1,864
1064,849; 1738,879;   -0,909;    0,591
1065,393; 1757,242;    2,000;   -1,500
1065,936; 1866,333;    0,182;   -0,409
1066,479; 1743,697;   -1,455;    1,318
1067,022; 1757,242;   -0,273;   -0,227
1067,565; 1678,606;   -0,091;   -1,318
1068,108; 1693,515;    0,727;   -0,591
1068,651; 1657,152;   -0,636;    1,409
1069,194; 1604,879;   -0,455;   -1,682
1069,736; 1601,970;   -1,273;    0,955
1070,279; 1581,788;   -1,364;   -0,500
1070,822; 1644,152;   -2,000;   -0,318
1071,364; 1730,879;   -0,364;    1,318
1071,907; 1533,970;   -0,727;    3,227
1072,450; 1439,242;    0,000;   -0,045
1072,992; 1438,697;   -0,273;    3,136
1073,535; 1589,788;    2,091;    2,136
1074,077; 1379,515;   -0,727;    2,045
1074,619; 1332,970;   -1,364;    0,591
1075,161; 1376,424;   -1,091;    1,500
1075,704; 1578,333;    1,545;    1,227
1076,246; 1356,515;   -0,182;    0,682
1076,788; 1283,697;   -0,364;    1,773
1077,330; 1348,515;    1,273;    2,136
1077,872; 1326,152;    0,909;    0,955
1078,414; 1551,061;    2,727;    0,773
1078,956; 1278,152;    1,273;   -0,227
1079,498; 1551,152;    1,636;    0,318
1080,040; 1251,424;    1,909;   -1,318
1080,581; 1192,879;    1,636;   -0,318
1081,123; 1110,606;    0,091;   -0,773
1081,665; 1154,152;   -1,182;   -0,955
1082,206; 1468,333;    1,364;   -0,500
1082,748; 1329,697;    0,727;    2,045
1083,289; 1203,061;   -2,000;    1,318
1083,831; 1109,606;   -0,545;    0,227
1084,372; 1141,970;    0,000;    0,591
1084,913; 1147,333;    1,091;    0,864
1085,455; 1099,788;   -1,909;   -2,045
1085,996; 1086,788;   -2,273;    0,136
1086,537; 1109,061;   -0,091;    0,864
1087,078; 1130,152;   -0,909;   -2,136
1087,619; 1195,879;   -1,273;    0,227
1088,160; 1102,697;    0,000;    1,318
1088,701; 1076,515;   -1,091;    0,682
1089,242; 1025,606;    1,364;   -2,227
1089,783; 1124,606;   -0,273;    1,409
1090,324; 1091,242;    0,455;    0,682
1090,865;  967,152;    2,727;   -0,409
1091,405;  932,879;    0,727;    2,227
1091,946;  961,061;    0,182;   -0,955
1092,487;  886,242;    0,818;   -1,409
1093,027; 1057,333;   -1,364;   -1,500
1093,568;  913,152;   -0,364;    1,227
1094,108; 1020,606;    0,273;    1,773
1094,649;  952,242;   -1,182;    0,136
1095,189;  887,152;   -0,636;   -0,682
1095,729;  835,061;   -0,091;    0,955
1096,269;  834,061;    0,727;   -0,955
1096,810; 1157,606;   -1,364;    0,500
1097,350;  994,242;    1,364;   -0,773
1097,890;  884,970;    0,364;    1,227
1098,430; 1145,970;    2,364;    2,864
1098,970; 1021,697;    2,182;    1,682
1099,510;  865,333;    0,545;   -2,318
1100,050;  794,515;    1,000;   -1,591
1100,589;  758,879;   -0,727;   -0,318
1101,129;  902,333;    0,818;   -0,955
1101,669; 1060,970;    1,727;    2,136
1102,209;  872,424;   -0,091;    2,227
1102,748;  830,515;    0,000;    0,955
1103,288;  812,788;    1,273;   -1,227
1103,827;  855,242;    3,091;   -2,227
1104,367;  717,061;   -0,091;   -2,409
1104,906;  685,697;    1,364;   -1,136
1105,445;  767,424;    0,636;   -1,136
1105,985;  714,242;   -0,727;    1,500
1106,524;  750,242;   -1,727;   -0,682
1107,063;  732,788;   -2,727;    1,409
1107,602;  698,061;   -1,909;   -1,500
1108,141;  617,152;   -1,909;    1,500
1108,680;  730,424;   -3,455;   -0,591
1109,219;  660,788;   -0,909;   -0,500
1109,758;  657,242;    0,455;    0,682
1110,297;  635,424;    1,000;   -0,682
1110,836;  573,515;   -0,727;    0,955
1111,375;  751,061;   -2,545;    0,409
1111,913;  768,061;   -1,000;    0,773
1112,452;  691,242;   -0,273;    0,136
1112,991;  574,424;    1,091;    1,955
1113,529;  529,515;   -0,818;   -0,045
1114,068;  605,697;   -0,273;    2,955
1114,606;  501,606;   -0,364;   -0,955
1115,144;  675,424;   -1,273;    1,045
1115,683;  609,242;   -0,727;    0,318
1116,221;  659,061;   -0,455;   -0,864
1116,759;  559,970;    0,636;   -0,864
1117,297;  774,333;    0,000;    1,864
1117,836;  568,333;   -2,182;   -1,227
1118,374;  590,879;    0,182;   -0,682
1118,912;  527,152;    0,909;    2,682
1119,450;  517,697;    1,000;    0,864
1119,988;  566,333;    1,545;    2,136
1120,525; 1030,061;    5,091;    3,318
1121,063;  721,697;    1,182;    1,864
1121,601;  519,697;   -0,909;   -1,227
1122,139;  485,697;   -0,727;   -2,045
1122,676;  694,061;   -0,727;    2,773
1123,214;  620,970;   -1,182;    4,409
1123,751;  420,424;    1,727;    2,227
1124,289;  554,879;   -0,091;   -0,409
1124,826;  416,788;    1,727;    0,227
1125,364;  340,970;    1,727;   -0,955
1125,901;  536,697;    1,182;    1,227
1126,438;  648,242;    0,818;    0,955
1126,975;  371,788;   -0,727;   -0,773
1127,513;  448,788;    0,273;    2,136
1128,050;  344,424;    1,636;   -0,682
1128,587;  459,879;    2,000;   -0,227
1129,124;  501,242;    0,091;    1,318
1129,661;  345,879;    0,273;    0,227
1130,198;  533,606;    1,636;    0,773
1130,734;  472,333;    0,182;    1,409
1131,271;  327,788;   -0,909;    0,864
1131,808;  509,424;    2,909;    3,045
1132,345;  373,515;    1,545;    0,318
1132,881;  237,697;   -1,545;   -1,864
1133,418;  391,697;    0,727;   -1,136
1133,954;  326,606;    2,455;   -2,682
1134,491;  401,333;    1,364;   -0,773
1135,027;  286,788;    2,364;    0,864
1135,564;  381,152;    0,273;    2,955
1136,100;  361,788;    0,364;    2,136
1136,636;  257,061;   -1,273;   -1,045
1137,172;  359,152;    0,000;   -1,045
1137,708;  279,788;   -1,364;   -1,045
1138,245;  282,970;    1,273;   -1,227
1138,781;  224,333;    1,091;   -3,318
1139,317;  306,152;    1,273;   -1,409
1139,852;  293,424;    3,091;    0,136
1140,388;  414,515;   -1,182;   -0,409
1140,924;  295,152;   -1,091;   -2,227
1141,460;  228,333;   -1,636;    0,136
1141,996;  162,152;   -1,364;    2,682
1142,531;  212,879;    1,364;    3,318
1143,067;  431,333;    1,182;    1,045
1143,602;  498,788;   -0,091;   -0,318
1144,138;  334,061;   -2,636;    1,045
1144,673;  193,515;   -1,455;    1,409
1145,209;  260,697;   -1,909;   -0,318
1145,744;  181,242;   -0,727;    0,864
1146,279;  327,061;    1,818;   -0,136
1146,815;  234,697;    1,545;   -2,682
1147,350;  281,061;   -1,364;    0,045
1147,885;  194,970;   -0,818;   -1,318
1148,420;  184,606;   -2,273;    0,773
1148,955;  160,606;   -1,727;    1,864
1149,490;  187,788;   -0,909;   -1,591
1150,025;  177,515;    0,455;   -1,773
1150,560;  296,879;    1,091;   -0,955
1151,094;  267,879;    1,455;   -0,591
1151,629;  269,606;    1,636;    0,864
1152,164;  188,061;    1,364;    1,318
1152,698;  141,424;   -0,182;   -0,136
1153,233;  103,788;    0,091;   -0,682
1153,767;  152,788;   -3,000;   -2,318
1154,302;  208,152;   -1,455;    1,773
1154,836;  199,061;   -0,455;   -2,136
1155,371;  260,970;   -1,364;    3,682
1155,905;  208,061;   -0,636;    1,682
1156,439;  178,333;   -0,636;   -0,500
1156,973;  201,424;    0,364;    0,318
1157,507;  131,970;   -0,364;    0,682
1158,042;  157,424;   -0,727;    1,045
1158,576;  230,061;    0,182;    1,773
1159,110;  221,333;   -0,818;    2,409
1159,643;  178,242;    0,636;   -0,045
1160,177;  112,788;   -1,545;    1,500

