
Integration time [ms]:   0,040
Averaging Nr. [scans]: 11
Smoothing Nr. [pixels]: 0
Data measured with spectrometer [name]: 7318044SP
Wave   ;Sample   ;Dark     ;Reference
[nm]   ;[counts] ;[counts] ;[counts] 

186,757;   24,621;   31,551;    1,318
187,357;   67,795;   22,551;    0,955
187,958;   39,964;   15,460;   -1,591
188,558;   82,702;    8,915;   -1,227
189,159;   46,628;    6,733;   -4,500
189,759;    9,228;    7,278;   -3,591
190,360;   24,261;    2,824;   -2,136
190,960;   60,590;    2,915;   -4,136
191,560;   86,787;    3,189;   -6,591
192,161;  352,291;    4,372;   -3,500
192,761;  180,822;    4,010;   -3,227
193,361;  111,580;    1,556;   -3,773
193,962;  172,415;    2,010;   -2,682
194,562;   83,588;    1,189;   -3,955
195,162;  125,108;   -2,448;   -2,227
195,762;  297,788;   -3,176;   -0,045
196,362;  242,482;    1,370;   -2,500
196,963;   88,777;    2,006;   -0,864
197,563;  169,707;    1,551;   -0,955
198,163;  110,452;    0,096;   -0,682
198,763;  128,675;    1,733;   -0,500
199,363;  241,840;    3,096;   -0,500
199,963;  199,085;    0,369;    0,409
200,563;  162,543;    2,823;   -1,409
201,163;  143,924;    3,277;   -0,227
201,763;  248,628;    3,732;    0,318
202,363;  180,457;    1,459;    1,500
202,963;  290,053;    1,459;    1,045
203,563;  400,031;    0,277;    0,500
204,162;  238,323;    2,096;   -1,864
204,762;  234,894;    0,550;    0,591
205,362;  198,689;    3,004;    1,955
205,962;  307,010;    3,096;    1,955
206,562;  293,587;    1,823;    2,318
207,161;  258,551;   -0,087;    0,318
207,761;  421,528;    1,277;    2,409
208,361;  292,242;   -0,268;    1,409
208,960;  401,809;    0,459;    1,500
209,560;  477,454;    1,277;    1,591
210,160;  453,296;    0,550;    1,864
210,759;  406,825;    4,186;    1,227
211,359;  422,799;    1,459;    1,045
211,958;  707,674;    1,277;    2,045
212,558;  791,190;    1,732;    1,864
213,157;  621,071;    1,822;    1,500
213,757; 1072,191;    3,822;   -0,227
214,356;  762,146;    1,277;   -0,409
214,956; 1103,157;    3,095;    0,409
215,555;  704,306;    2,095;    2,136
216,154;  639,975;   -2,723;   -0,591
216,754;  662,056;    0,277;    0,773
217,353;  809,559;   -0,268;   -1,045
217,952;  658,012;   -0,178;    0,318
218,552;  906,380;    1,368;   -0,773
219,151;  800,197;    0,277;    0,955
219,750;  789,171;    0,004;   -0,227
220,349;  918,918;   -0,451;    1,045
220,948;  993,349;   -1,360;    1,136
221,548; 1025,533;    0,913;    1,227
222,147; 1132,905;   -0,087;   -0,409
222,746; 1426,244;   -0,451;   -0,955
223,345; 1304,722;    0,731;    0,500
223,944; 1320,781;   -0,451;    0,773
224,543; 1496,355;    1,004;   -1,409
225,142; 1621,059;    0,094;    0,136
225,741; 1524,055;   -0,814;    1,045
226,340; 1551,202;   -0,451;   -0,955
226,939; 2014,986;   -0,996;   -0,136
227,538; 1972,164;   -0,360;   -0,773
228,137; 2154,825;   -0,814;    0,864
228,735; 2314,184;   -0,541;    1,227
229,334; 2044,447;   -0,905;   -0,227
229,933; 2435,156;    0,459;    0,591
230,532; 2543,371;    1,186;   -0,409
231,131; 2598,456;    1,732;    0,318
231,729; 2768,314;   -2,450;   -2,318
232,328; 2914,268;   -0,723;   -1,500
232,927; 2987,213;    1,004;   -0,500
233,525; 3123,084;    3,640;    0,045
234,124; 3364,794;    2,368;   -1,591
234,723; 3383,014;    0,913;   -1,045
235,321; 3508,423;    2,277;    0,136
235,920; 3790,955;    1,186;   -1,227
236,518; 4054,182;    3,459;    0,318
237,117; 4232,052;    0,004;   -0,227
237,715; 4426,874;    0,640;   -0,500
238,314; 4463,295;   -0,087;   -2,318
238,912; 4571,418;   -0,723;   -1,409
239,510; 4611,489;    0,459;   -1,227
240,109; 4781,934;    0,004;    3,773
240,707; 4855,381;   -0,996;    1,227
241,305; 5235,901;    0,550;    0,136
241,904; 5448,537;   -0,178;   -2,045
242,502; 5440,824;   -0,632;   -0,227
243,100; 5363,046;   -0,087;   -0,955
243,698; 5640,596;    0,732;    1,682
244,297; 5810,361;   -0,632;    0,682
244,895; 5631,686;   -0,269;   -2,318
245,493; 6022,521;    2,186;   -0,591
246,091; 6053,469;    1,368;   -1,318
246,689; 6061,465;    1,004;    0,591
247,287; 6193,155;    0,822;   -1,136
247,885; 6497,979;   -1,451;    1,227
248,483; 6585,846;    1,822;   -0,500
249,081; 6751,038;    0,185;    1,591
249,679; 6886,596;   -0,178;    1,682
250,277; 7158,036;   -1,723;    0,864
250,875; 7181,869;   -1,087;   -1,045
251,473; 7213,452;   -1,178;    0,500
252,071; 7417,664;    1,459;    1,045
252,669; 7543,599;   -1,814;    0,318
253,267; 7828,308;   -0,087;    0,773
253,864; 7826,973;   -0,360;    0,682
254,462; 7676,146;    1,640;    1,591
255,060; 7611,031;   -0,269;    1,318
255,658; 7971,690;    0,822;   -0,136
256,255; 8392,605;    0,186;   -2,045
256,853; 8259,797;   -0,269;    1,409
257,451; 8256,966;    0,822;    1,864
258,048; 8543,396;    1,822;    1,864
258,646; 8283,959;    1,731;   -1,045
259,243; 8493,251;   -0,087;    2,227
259,841; 8559,481;   -0,814;    0,318
260,438; 8390,043;   -0,087;    0,864
261,036; 9158,579;   -1,905;    1,409
261,633; 9051,881;   -0,087;    2,227
262,231; 8777,162;    2,731;   -0,045
262,828; 8860,091;   -0,905;    1,136
263,425; 8951,296;    0,913;   -0,591
264,023; 9255,758;    0,186;    0,045
264,620; 8744,586;   -0,360;   -0,318
265,217; 9127,331;   -2,087;    3,136
265,815; 9227,847;   -1,905;    2,136
266,412; 8970,704;    0,731;    0,136
267,009; 9030,233;   -1,451;    0,773
267,606; 8942,414;    0,822;   -0,955
268,203; 8913,176;   -0,269;   -0,591
268,801; 9206,262;    1,731;    0,591
269,398; 9506,752;   -0,360;    2,500
269,995; 9490,091;    0,277;    1,591
270,592; 9262,660;   -0,632;   -0,500
271,189; 9471,148;    0,186;    0,409
271,786; 9577,605;   -0,632;    1,227
272,383; 9411,861;   -1,087;    0,227
272,980; 9649,938;    0,277;    0,318
273,577;10125,512;    0,004;    1,227
274,174; 9675,745;    0,822;    2,591
274,771; 9658,326;   -0,814;   -0,773
275,367; 9810,416;    2,277;    1,409
275,964; 9777,174;    0,731;   -0,500
276,561; 9848,432;    1,549;   -1,045
277,158;10092,505;    0,095;   -1,773
277,755;10198,402;    2,185;    0,409
278,351; 9586,773;   -0,451;   -1,500
278,948; 9897,820;   -0,815;    0,045
279,545; 9916,885;   -1,360;    2,318
280,141;10586,128;   -1,723;   -2,045
280,738;10470,226;   -0,451;   -0,136
281,334;10696,389;   -1,633;    0,591
281,931;10077,697;   -0,087;   -1,318
282,528;10160,614;    0,822;   -0,500
283,124;10883,601;   -1,087;   -0,500
283,721;10788,133;   -0,451;    1,409
284,317;10577,948;    0,185;    2,500
284,913;11177,656;   -1,360;    0,591
285,510;11410,747;    0,640;   -0,318
286,106;11408,925;   -2,269;   -0,955
286,703;11010,228;   -0,360;    1,955
287,299;11191,754;   -1,451;   -0,591
287,895;11391,255;    0,822;   -1,045
288,491;11975,571;    0,186;    2,136
289,088;11736,037;   -2,360;    2,409
289,684;11798,326;   -1,723;    1,500
290,280;11781,114;    0,368;    0,682
290,876;11901,640;    1,822;    5,500
291,472;11753,901;    1,276;    2,227
292,068;11878,571;    1,367;    0,227
292,665;11565,117;    2,095;    0,773
293,261;11161,885;    0,276;    2,136
293,857;11577,559;    2,913;    2,136
294,453;11499,879;    3,550;    0,955
295,049;11396,678;   -0,268;    1,955
295,644;11450,963;    0,095;    0,136
296,240;11326,758;   -0,905;   -0,136
296,836;11372,198;   -0,995;    0,318
297,432;11635,143;    1,096;   -0,500
298,028;11690,570;    0,732;    0,773
298,624;12116,939;    1,459;    1,864
299,220;12367,682;    2,368;    0,591
299,815;12062,531;    1,005;   -0,409
300,411;11853,769;    0,914;    1,773
301,007;11833,647;    1,368;    0,227
301,602;11869,448;   -0,541;   -2,318
302,198;12074,508;    0,732;   -0,773
302,794;12436,727;    1,187;   -0,500
303,389;12510,105;   -1,177;    1,045
303,985;12599,633;    0,550;    1,409
304,580;12624,722;    1,459;    1,591
305,176;12564,464;   -3,086;    0,136
305,771;12456,994;   -1,268;   -1,227
306,367;12341,541;    4,095;    0,136
306,962;12678,630;    0,641;    1,500
307,558;12381,112;   -0,450;    0,136
308,153;12309,105;    1,095;   -1,136
308,748;12578,317;   -0,814;    1,682
309,344;12550,482;   -0,632;   -1,318
309,939;12640,107;   -1,905;   -1,318
310,534;12892,613;   -0,086;   -1,682
311,130;12847,295;    0,459;   -2,500
311,725;12535,788;    1,004;   -0,500
312,320;12888,153;    2,459;    0,045
312,915;12755,163;    1,459;   -1,045
313,510;12836,552;    1,550;   -0,500
314,105;13309,939;    1,096;    1,409
314,700;12677,886;   -3,086;   -1,045
315,295;12309,722;   -0,904;    0,045
315,890;11880,257;    1,277;    0,864
316,485;12259,616;   -0,359;   -0,318
317,080;12386,094;   -3,086;    1,591
317,675;12984,340;    2,005;   -0,682
318,270;12386,168;    5,550;    3,318
318,865;12387,709;    3,278;    3,045
319,460;12197,325;   -0,904;    0,591
320,055;12422,725;   -0,541;   -1,227
320,650;12092,032;   -1,995;   -0,591
321,244;12129,476;   -0,177;   -1,409
321,839;13058,446;   -1,541;   -0,227
322,434;12984,789;   -1,086;   -1,591
323,029;12615,861;    1,732;    1,591
323,623;12443,317;    1,550;    0,773
324,218;12191,918;    2,368;    1,409
324,812;12085,732;    1,096;    1,591
325,407;11903,053;   -0,814;    2,045
326,002;11811,303;    0,277;   -0,409
326,596;12121,690;    0,914;    1,318
327,191;12323,733;    0,823;   -1,045
327,785;11899,781;   -0,813;   -0,227
328,379;12138,765;    1,368;    0,136
328,974;11919,615;    0,914;   -3,955
329,568;12137,132;    0,186;   -2,409
330,163;11937,357;    2,096;    1,045
330,757;12267,599;    2,459;    1,591
331,351;11612,123;    0,459;    0,682
331,945;11907,267;    0,914;    1,409
332,540;11537,037;   -1,723;   -0,591
333,134;11698,394;   -1,086;    0,773
333,728;11948,823;    0,005;    0,318
334,322;12245,788;   -1,177;   -0,864
334,916;11515,870;    0,277;    0,955
335,510;11872,509;   -0,450;   -0,136
336,105;12133,188;   -1,086;    1,591
336,699;11789,051;   -1,086;    0,591
337,293;11733,738;   -1,723;    0,318
337,887;11895,912;   -2,723;    1,955
338,481;12008,155;    0,459;    0,591
339,074;12156,683;   -0,359;    2,682
339,668;11980,718;   -1,632;    1,227
340,262;12267,795;    1,732;    3,227
340,856;11766,341;    1,822;   -0,682
341,450;11084,989;    1,004;    1,864
342,044;12028,283;    1,459;    0,136
342,637;11762,843;    0,913;   -2,136
343,231;11653,393;   -2,360;    0,682
343,825;11600,501;   -1,086;   -0,591
344,419;11535,933;   -1,995;    0,500
345,012;11325,467;    2,459;    4,045
345,606;11355,770;    4,641;    1,591
346,199;11178,012;   -1,813;   -0,227
346,793;10694,410;    1,914;    2,045
347,386;10879,695;   -0,813;   -1,136
347,980;10880,021;   -0,268;   -0,045
348,573;10665,366;    2,278;    0,409
349,167;10303,339;    5,278;    4,773
349,760;10672,835;    2,914;    2,682
350,354;10661,459;   -0,813;    1,136
350,947;10429,683;    1,096;    1,682
351,540;10060,432;   -0,358;   -1,409
352,134; 9994,230;    1,096;    1,136
352,727;10085,088;   -0,086;    1,136
353,320; 9867,832;    0,005;    0,591
353,913; 9716,438;   -1,995;    1,864
354,507; 9926,462;    0,823;   -1,227
355,100; 9931,979;    0,460;    0,864
355,693; 9179,073;    2,005;    2,409
356,286; 9219,589;    0,823;    2,773
356,879; 9559,754;   -0,722;    1,227
357,472; 9135,618;   -0,904;    1,500
358,065; 9346,055;   -0,722;    2,500
358,658; 9294,840;   -0,540;    2,318
359,251; 8933,849;   -1,631;   -0,591
359,844; 8391,404;   -1,904;   -1,136
360,437; 8554,593;   -2,995;    0,045
361,030; 8855,817;    1,369;   -0,682
361,623; 8428,265;    2,824;    0,318
362,215; 8483,345;   -0,086;    2,045
362,808; 8314,374;   -2,358;   -1,682
363,401; 8493,285;   -2,449;    0,136
363,994; 8250,665;   -0,631;   -1,500
364,586; 8152,921;    0,824;   -1,500
365,179; 8365,229;   -0,449;   -1,136
365,772; 7855,070;   -1,995;    2,045
366,364; 8205,400;    1,915;   -3,227
366,957; 8373,179;    2,279;   -0,045
367,549; 8363,426;    2,188;   -0,864
368,142; 8039,033;    1,825;   -1,500
368,734; 8228,279;    0,734;   -2,136
369,327; 8189,824;    1,643;   -0,500
369,919; 8095,996;   -1,538;    0,409
370,512; 7866,888;   -1,083;   -0,500
371,104; 7649,351;   -0,901;    1,591
371,696; 7812,256;    1,191;   -0,955
372,289; 7935,830;    0,373;    1,136
372,881; 8095,345;   -2,080;    1,318
373,473; 7993,625;   -2,170;    1,136
374,066; 7808,605;   -0,169;    0,500
374,658; 7622,235;    0,378;    1,136
375,250; 7999,100;    0,653;   -1,409
375,842; 7838,007;    0,473;   -0,045
376,434; 7729,314;   -0,435;   -0,409
377,026; 8326,488;    0,204;   -2,500
377,618; 8214,202;   -0,158;   -0,682
378,210; 8056,782;   -0,338;   -1,955
378,802; 7908,985;    0,754;   -0,591
379,394; 7902,114;    1,846;    0,682
379,986; 8451,701;    1,393;   -0,955
380,578; 8593,898;   -0,153;    0,773
381,170; 7911,488;   -0,972;    0,045
381,762; 7838,654;    0,755;    1,409
382,354; 8073,076;   -0,065;   -1,318
382,945; 8182,180;   -2,976;    0,318
383,537; 8337,075;   -2,705;   -1,955
384,129; 8359,310;   -2,160;   -1,136
384,721; 8555,279;   -0,252;    0,955
385,312; 8481,226;   -0,161;   -0,955
385,904; 8556,050;   -2,706;    1,591
386,496; 7923,159;   -0,979;    1,045
387,087; 8070,229;    1,022;    2,500
387,679; 8118,544;   -1,160;    0,045
388,270; 8215,161;    2,840;    2,045
388,862; 8344,724;    1,295;   -0,318
389,453; 8255,858;   -0,887;    1,045
390,045; 8550,462;   -0,705;   -2,682
390,636; 8444,755;    0,204;   -0,591
391,227; 8316,737;   -0,523;   -0,045
391,819; 8422,182;    0,204;    0,773
392,410; 8515,175;    1,022;    0,045
393,001; 8448,003;   -0,979;   -1,591
393,593; 8768,925;    1,930;   -0,045
394,184; 8602,286;    1,385;   -0,409
394,775; 8509,413;    1,839;    2,136
395,366; 8707,753;    1,385;    0,773
395,957; 8731,853;    0,113;    0,136
396,548; 9038,887;   -0,342;    2,682
397,139; 9390,876;   -2,433;    0,591
397,730; 9066,894;   -1,888;    0,955
398,321; 9128,282;   -1,252;    0,955
398,912; 9170,443;   -0,615;    0,136
399,503; 9206,647;   -3,524;   -1,409
400,094; 8667,847;    0,294;    1,682
400,685; 8511,204;   -0,433;    0,045
401,276; 8630,802;    0,930;   -0,955
401,867; 8926,620;   -0,888;    0,773
402,458; 8993,396;   -2,251;   -2,318
403,048; 8992,108;    1,112;    0,591
403,639; 8560,050;    0,840;    0,864
404,230; 8821,059;    2,476;    0,318
404,821; 8755,556;   -0,615;    0,045
405,411; 8889,493;    1,203;   -2,591
406,002; 8464,059;   -1,252;   -1,136
406,592; 8357,452;    2,294;    0,045
407,183; 8661,643;    0,566;   -1,500
407,774; 8594,458;    3,475;   -0,136
408,364; 8907,201;    0,930;    0,409
408,954; 8494,585;    0,384;    1,227
409,545; 8559,389;    1,021;    1,045
410,135; 8097,978;    1,293;    0,500
410,726; 8236,887;    1,838;    0,318
411,316; 8643,955;    0,111;    0,773
411,906; 8283,002;   -0,253;   -0,409
412,497; 7760,310;   -1,070;   -0,045
413,087; 8394,838;   -1,980;   -0,227
413,677; 8810,101;   -0,707;    3,864
414,267; 8649,413;    0,656;    1,409
414,857; 8631,533;   -2,980;    4,227
415,448; 8945,076;    0,839;    0,500
416,038; 8630,768;    0,020;   -0,591
416,628; 8630,177;   -0,889;    0,409
417,218; 8052,667;    0,565;    3,318
417,808; 8349,333;    0,202;   -0,409
418,398; 8804,824;    0,020;    2,682
418,988; 8859,543;    2,020;    0,591
419,578; 9104,916;   -0,707;    1,409
420,168; 9427,738;   -1,343;   -0,955
420,757; 9053,653;   -1,343;   -1,500
421,347; 8717,195;    0,111;   -0,227
421,937; 8865,303;    2,292;    1,409
422,527; 8837,366;    0,838;   -0,773
423,116; 8659,396;   -0,253;   -0,045
423,706; 8967,063;   -1,889;    0,318
424,296; 8939,327;    1,384;    0,682
424,885; 9368,508;   -0,071;   -3,045
425,475; 9677,217;    1,474;   -2,864
426,065; 9609,148;   -0,980;   -0,318
426,654; 9215,500;   -0,435;   -0,318
427,244; 9366,359;    0,020;    1,409
427,833; 8787,053;    1,383;   -0,500
428,423; 9276,688;   -0,526;    1,136
429,012;10073,818;   -0,344;   -1,136
429,601; 9551,554;   -1,344;    0,136
430,191; 9768,733;    1,292;    4,318
430,780; 9426,393;   -0,344;   -0,409
431,369; 9387,195;    0,746;   -0,045
431,959;10000,796;   -1,254;    0,500
432,548; 9769,206;   -1,163;   -0,045
433,137; 9897,446;   -1,254;   -1,318
433,726;10484,221;    0,292;    0,500
434,315; 9794,323;   -0,526;    2,409
434,905; 9873,002;   -1,254;    1,409
435,494; 9764,392;    0,746;    0,955
436,083;10214,940;   -0,981;   -0,955
436,672;10125,089;    0,110;    0,500
437,261; 9670,527;    0,292;   -1,955
437,850; 9807,992;    1,383;    0,682
438,439; 9803,956;    3,291;    1,955
439,027; 9678,995;    3,655;    1,773
439,616;10016,850;    2,927;    1,227
440,205; 9895,545;    0,200;   -2,136
440,794; 9977,602;    2,109;   -0,045
441,383;10260,236;   -1,346;   -0,591
441,971;10104,398;   -2,436;    0,591
442,560; 9945,636;    0,563;   -1,773
443,149; 9679,753;    0,379;   -1,318
443,737; 9857,580;   -0,074;   -2,318
444,326;10119,469;    0,018;    0,318
444,915;10176,477;   -1,982;    0,864
445,503;10605,060;   -2,891;   -0,318
446,092; 9839,099;    0,382;    2,136
446,680;10400,080;    0,382;    0,318
447,269;10568,092;   -0,346;   -0,318
447,857;10311,824;    0,018;   -1,773
448,445;10423,344;    0,563;    1,318
449,034;10630,166;   -1,528;   -1,136
449,622;10786,716;   -1,073;    3,500
450,210; 9989,377;    2,017;    2,227
450,799;10536,866;    0,290;   -0,591
451,387;10502,118;    1,381;   -0,591
451,975;10150,428;    2,654;    0,864
452,563;10234,946;    3,472;    2,318
453,151;10290,177;   -0,528;   -1,227
453,739;10231,706;   -1,347;    0,136
454,328;10041,430;    2,381;   -2,136
454,916; 9764,538;    2,562;   -0,136
455,504; 9954,407;    1,017;    1,227
456,092;10110,558;    0,017;   -1,591
456,679;10112,996;    1,472;    0,682
457,267;10057,001;    4,017;    1,045
457,855;10212,845;    1,017;    1,409
458,443; 9998,688;   -0,165;    1,682
459,031;10131,797;    0,108;    2,409
459,619;10574,521;   -1,801;    2,864
460,206;10725,960;    0,835;    2,045
460,794;10797,786;   -2,983;   -0,227
461,382;11045,326;   -0,529;   -0,864
461,970;10652,444;    1,198;    1,864
462,557;10645,194;   -0,711;   -0,682
463,145;10858,109;   -3,165;   -1,682
463,732;11003,809;    2,016;   -1,045
464,320;10929,865;   -0,075;   -3,045
464,907;10588,063;    2,743;   -0,773
465,495;10452,353;    0,743;   -1,227
466,082;10615,792;   -1,984;   -0,045
466,670;10566,629;   -2,529;    1,227
467,257;10950,950;   -1,711;    2,045
467,844;11102,480;   -0,075;    0,045
468,432;11149,804;    0,834;    3,500
469,019;10615,452;    0,925;   -1,773
469,606;11103,797;    0,470;    3,682
470,193;10930,212;   -1,439;    0,227
470,780;10483,040;   -2,075;    0,864
471,368;10796,250;   -1,257;   -0,773
471,955;10599,934;    1,379;   -0,682
472,542;10267,091;    0,652;   -1,136
473,129;10507,021;   -0,166;    0,136
473,716;10222,592;    1,470;    0,591
474,303;10446,602;    0,652;   -0,864
474,890;10731,133;   -1,439;   -0,500
475,477;10777,981;   -1,621;    0,409
476,064;10689,576;    1,106;   -1,591
476,650;10630,178;    0,288;    0,318
477,237;10433,541;   -0,258;    0,955
477,824;10613,329;   -1,076;    0,864
478,411;10635,219;   -1,894;   -0,318
478,997;10864,239;    0,560;   -0,773
479,584;10921,897;    1,196;   -0,409
480,171;11668,839;   -0,440;   -0,773
480,757;11279,637;    2,651;    0,773
481,344;11594,817;    0,469;    0,409
481,931;11143,993;    1,105;    1,045
482,517;12253,920;   -1,258;    0,318
483,104;12919,229;    1,106;    2,864
483,690;13193,152;   -1,804;    0,045
484,276;13521,472;   -0,895;    0,227
484,863;13248,318;    2,469;    1,136
485,449;13843,104;   -0,077;    0,318
486,035;13858,064;   -1,986;   -0,136
486,622;14304,327;   -0,895;    0,045
487,208;14230,726;    1,378;    1,500
487,794;14033,486;    0,741;    0,318
488,380;14143,524;    0,105;   -1,409
488,967;14224,894;   -1,168;   -0,409
489,553;14267,939;   -1,895;   -1,409
490,139;14464,826;    1,559;    0,773
490,725;13864,123;    0,741;   -0,227
491,311;13353,340;    3,287;    3,045
491,897;12652,718;   -0,986;    1,500
492,483;12477,243;    0,105;    1,227
493,069;12308,978;    3,923;    0,864
493,655;12292,647;    1,650;    0,682
494,241;12167,409;    1,377;   -0,955
494,826;12601,298;    0,287;   -1,045
495,412;12036,785;    2,559;   -0,682
495,998;12174,030;   -0,805;   -0,318
496,584;12356,818;    0,377;    1,045
497,169;12355,657;    1,014;   -0,682
497,755;12296,162;    0,650;    1,227
498,341;12863,016;    0,559;    0,318
498,926;12472,606;    1,832;    1,955
499,512;12625,291;    1,286;    2,955
500,097;12742,128;    0,195;   -0,318
500,683;12692,524;   -0,350;    2,136
501,268;13037,657;   -0,169;   -0,955
501,854;12756,592;   -0,169;    1,227
502,439;12678,908;   -0,624;   -1,773
503,024;12892,507;    0,195;    0,500
503,610;12975,979;   -0,078;   -0,682
504,195;12962,701;    0,558;    1,955
504,780;13056,767;    2,922;    1,227
505,366;12912,920;    3,013;    2,864
505,951;12630,088;    0,740;    1,045
506,536;12618,000;   -3,260;   -3,682
507,121;12606,610;    0,285;   -0,318
507,706;13138,534;    2,376;    1,045
508,291;13536,820;    2,649;    1,136
508,876;13008,025;   -0,988;    2,591
509,461;12465,561;   -0,169;   -0,773
510,046;12884,755;    0,194;    0,318
510,631;13140,855;   -0,351;   -0,773
511,216;12767,982;    2,467;   -0,500
511,801;13135,346;   -0,442;    2,591
512,386;13496,771;    0,740;    0,500
512,971;13400,542;   -2,988;    0,955
513,555;12963,691;   -0,897;   -1,500
514,140;13764,393;   -0,442;   -3,136
514,725;13727,152;   -0,715;   -1,136
515,309;13880,305;   -0,533;    0,318
515,894;13322,359;   -0,624;   -2,227
516,479;13757,043;   -0,624;   -0,955
517,063;13631,364;    0,376;    1,227
517,648;13764,474;    1,012;   -1,136
518,232;13383,924;   -0,261;   -1,409
518,817;13756,265;   -0,079;    1,682
519,401;13976,568;    2,194;    0,591
519,985;13454,711;    1,103;    1,136
520,570;13346,375;    0,830;   -1,955
521,154;13624,683;    2,102;    0,591
521,738;13825,273;   -2,352;    2,409
522,323;14378,109;   -0,170;    1,682
522,907;14108,408;    0,466;   -0,136
523,491;13809,332;    0,557;    0,955
524,075;13824,946;    2,284;    0,591
524,659;13913,350;    1,466;    0,591
525,243;13377,220;    1,739;    0,409
525,827;13604,555;    0,648;   -0,045
526,411;14468,350;   -1,989;   -0,136
526,995;14703,457;   -0,352;    1,409
527,579;14263,090;   -0,443;   -1,045
528,163;14551,653;    0,375;   -1,500
528,747;14504,357;    2,466;   -0,773
529,331;14803,092;   -0,080;   -1,409
529,915;15017,786;    1,738;    0,955
530,499;14957,118;   -0,807;    1,227
531,082;14687,808;   -0,534;    1,591
531,666;14178,083;    1,374;    0,773
532,250;14837,880;    1,284;    2,682
532,833;15168,391;    0,920;    2,773
533,417;15040,705;   -1,807;    0,864
534,001;14998,283;    1,647;   -0,318
534,584;15724,962;    0,374;    0,500
535,168;15526,770;    0,465;    1,409
535,751;15619,756;    0,647;    0,045
536,334;15029,527;   -0,898;   -0,409
536,918;15595,908;    0,011;    1,591
537,501;15758,339;   -0,899;    1,318
538,085;15742,191;   -0,444;    1,045
538,668;15918,896;    0,829;    2,409
539,251;16257,965;    1,829;    3,773
539,834;16238,854;    0,101;    0,773
540,418;16187,476;   -1,990;    4,318
541,001;16284,678;   -0,990;    1,773
541,584;16282,600;    2,101;    2,227
542,167;16007,527;    1,374;    2,955
542,750;16164,420;    1,919;   -0,773
543,333;15765,183;    0,555;    2,136
543,916;16551,473;    0,192;    2,500
544,499;17154,398;   -1,354;    0,227
545,082;17172,563;    1,374;    3,591
545,665;17297,102;    1,919;    1,500
546,248;17656,365;    1,010;   -0,318
546,830;17320,491;   -0,445;    1,955
547,413;17741,752;    1,010;   -0,773
547,996;18258,692;    0,555;    0,500
548,579;18068,560;    0,919;    0,955
549,161;17875,179;    1,828;    2,682
549,744;17599,956;   -0,809;    0,409
550,326;18107,329;   -0,809;   -1,136
550,909;17895,183;    2,737;    0,591
551,492;18322,664;   -0,263;    0,227
552,074;18076,980;   -0,173;   -1,318
552,657;18652,590;    2,373;    0,045
553,239;18393,886;   -0,173;   -0,773
553,821;18279,972;   -1,082;    1,045
554,404;17820,735;    1,282;    1,136
554,986;18210,429;    0,464;    1,045
555,568;18797,635;    1,191;   -0,955
556,151;18033,612;    1,191;   -0,227
556,733;18226,768;   -0,264;   -0,864
557,315;18717,286;    0,100;    0,500
557,897;18519,235;    0,554;   -0,500
558,479;18620,731;   -1,991;    1,318
559,061;18732,875;   -0,719;   -0,864
559,643;19100,685;   -0,264;    0,045
560,225;19466,435;    1,645;    2,864
560,807;19522,958;    0,918;    0,318
561,389;18949,137;    0,554;    2,318
561,971;19780,774;    0,463;    2,136
562,553;19576,276;   -1,628;    1,591
563,135;19694,293;   -0,537;    1,136
563,717;19291,347;    3,372;    1,136
564,298;20045,336;    3,645;   -0,045
564,880;19770,512;    0,645;   -1,409
565,462;19981,784;    0,645;    1,318
566,043;21145,385;   -0,446;    2,318
566,625;20656,471;    1,918;    1,227
567,207;20540,739;    1,099;    1,682
567,788;21707,672;   -1,264;    1,500
568,370;22534,670;    1,917;   -0,500
568,951;22394,492;    0,190;    0,227
569,533;23234,283;   -0,628;   -0,500
570,114;23733,460;   -0,446;    0,682
570,695;24300,920;   -0,174;   -1,318
571,277;24872,705;   -0,265;   -1,682
571,858;25588,325;    2,008;   -1,136
572,439;26499,413;    1,554;   -1,045
573,021;26702,791;    2,099;   -2,773
573,602;27226,092;   -1,265;    0,318
574,183;28195,577;   -2,083;    2,227
574,764;28294,167;   -1,629;    0,409
575,345;28893,038;    0,917;   -0,136
575,926;29510,554;   -0,356;    0,136
576,507;29439,087;    1,099;   -0,227
577,088;30604,691;    3,099;    1,682
577,669;30645,569;    0,735;    1,955
578,250;31425,304;    0,644;   -1,045
578,831;32159,163;   -1,356;   -2,227
579,412;32370,729;   -0,810;    0,955
579,993;33231,893;    1,008;    0,227
580,573;33536,748;   -0,629;   -0,955
581,154;32547,969;    0,735;   -0,591
581,735;33433,169;    0,644;    0,773
582,315;32940,078;   -0,629;    2,136
582,896;33176,167;   -0,174;    1,227
583,477;32542,737;    0,189;    1,227
584,057;32782,497;    0,553;    0,955
584,638;33108,802;    2,553;    2,318
585,218;33093,488;   -0,538;    2,682
585,799;33255,481;    0,281;   -0,227
586,379;33226,328;    0,372;    1,591
586,959;31885,459;    0,735;    0,318
587,540;31133,871;   -0,629;    2,227
588,120;30678,402;    1,007;   -0,045
588,700;29625,505;    2,553;    2,136
589,281;29992,320;    0,462;   -0,955
589,861;29987,745;    0,099;   -1,682
590,441;29784,876;    2,371;   -2,682
591,021;28679,525;   -0,265;   -2,591
591,601;28926,781;   -0,537;    0,500
592,181;28894,520;   -0,719;   -0,773
592,761;28204,175;    0,007;    1,409
593,341;28122,513;   -0,901;    0,045
593,921;28161,023;   -0,265;    1,591
594,501;28032,127;   -0,538;    1,318
595,081;27866,318;    0,917;   -0,318
595,661;28231,885;   -1,447;    0,955
596,240;28777,994;   -0,537;    0,136
596,820;28461,935;    0,372;    1,955
597,400;28630,902;    2,008;    0,773
597,980;28813,079;    2,008;    1,045
598,559;28731,797;    2,735;   -0,227
599,139;28456,735;   -0,174;   -1,227
599,718;28402,917;   -0,174;   -0,409
600,298;28699,192;    0,735;    0,682
600,877;28939,638;    2,917;    1,409
601,457;29164,124;    2,281;    1,136
602,036;29070,594;    0,190;    2,045
602,616;29284,983;    0,644;    1,682
603,195;29665,574;   -0,355;    3,500
603,774;29229,844;   -0,901;    2,045
604,354;29080,549;    0,826;   -0,500
604,933;28499,493;    0,463;    1,864
605,512;28662,804;    3,554;    0,591
606,091;28684,327;   -0,537;    3,773
606,671;29564,915;    0,281;    0,773
607,250;28708,743;    1,644;    3,136
607,829;28887,360;    2,372;    3,227
608,408;28734,922;    1,190;    2,591
608,987;27755,590;    1,281;    3,409
609,566;28057,435;   -1,265;   -2,500
610,145;28180,396;   -1,082;    0,682
610,723;28540,265;    4,372;    6,864
611,302;27821,093;   -0,446;    1,682
611,881;27316,040;    5,008;   11,227
612,460;28138,477;    1,645;    3,955
613,039;28570,504;   -0,082;    2,045
613,617;27261,047;    1,736;    4,773
614,196;27458,782;    1,099;    1,227
614,775;27810,281;    1,009;    2,409
615,353;27752,287;    0,736;    0,864
615,932;27506,451;    0,100;    2,409
616,510;28046,458;    0,554;    0,591
617,089;27548,888;    7,100;   17,591
617,667;27293,365;    2,372;    6,136
618,246;27150,884;   -1,537;    1,318
618,824;27280,054;   -3,355;   -0,955
619,402;26855,058;   -2,900;   -1,773
619,981;27354,178;   -0,173;   -1,045
620,559;27165,921;    0,009;    1,682
621,137;26694,645;   -0,718;    1,864
621,715;26735,696;   -1,173;   -0,682
622,293;26671,154;   -0,537;   -0,773
622,871;27102,468;   -0,718;    0,500
623,450;26693,721;    0,373;   -0,864
624,028;26554,220;    0,191;   -0,955
624,606;26245,108;   -1,718;    1,682
625,183;26640,009;   -1,536;   -1,136
625,761;26231,823;    1,009;    1,136
626,339;26562,555;    1,373;    2,591
626,917;26902,085;   -0,172;   -0,045
627,495;26884,404;   -0,354;    1,318
628,073;26367,546;   -0,263;    2,864
628,650;26074,993;    0,100;    2,136
629,228;26512,370;    0,373;    4,409
629,806;25899,548;    2,282;    1,136
630,383;26164,707;    1,464;   -0,318
630,961;25971,671;    2,555;   -0,955
631,539;25670,302;    2,464;    0,227
632,116;25065,398;   11,373;   15,409
632,694;25673,262;    2,555;    6,500
633,271;25973,776;    0,828;    2,682
633,848;25924,662;    1,828;    2,045
634,426;25872,515;   -1,081;    1,773
635,003;24949,218;    1,101;   -0,409
635,580;25326,290;    1,192;    3,682
636,158;25902,393;    3,737;    1,227
636,735;25840,536;    0,555;   -0,500
637,312;26000,200;   -0,809;   -0,682
637,889;26120,731;   -4,354;   -0,682
638,466;25547,079;   -3,990;   -0,409
639,043;25569,154;    2,101;   -1,136
639,620;25890,117;   -2,262;   -0,955
640,197;26233,825;    1,100;    1,682
640,774;26273,427;   -0,172;    1,136
641,351;26736,576;    0,737;    1,136
641,928;26183,542;   -0,627;    1,409
642,505;25836,145;    0,828;   -0,500
643,082;25900,020;   -1,718;    1,227
643,658;24894,077;   -0,718;    1,500
644,235;25647,498;    1,191;    2,500
644,812;26013,192;    1,918;    0,773
645,388;25731,613;   -0,991;    1,409
645,965;25841,852;   -0,809;    1,682
646,542;25933,545;   -1,445;   -0,227
647,118;25938,603;    1,009;   -0,955
647,695;26204,842;   -0,263;    1,136
648,271;26043,899;   -0,536;    0,500
648,848;26456,956;    0,736;    2,227
649,424;26279,923;    0,827;    1,318
650,000;26064,798;   -0,354;   -1,045
650,577;25841,310;   -0,627;   -0,955
651,153;26279,549;   -1,809;    0,955
651,729;27305,333;    1,191;    0,864
652,305;27990,118;    0,645;    2,773
652,881;33482,721;   -0,082;    1,136
653,458;40548,869;    1,100;    0,227
654,034;43889,017;    0,282;    1,591
654,610;45055,347;    0,554;    0,773
655,186;46231,768;    0,645;    3,045
655,762;45874,370;   -0,991;    0,409
656,338;45924,428;    0,100;    0,136
656,913;46860,030;   -0,082;    0,409
657,489;45994,542;    0,827;   -0,318
658,065;45935,145;   -0,173;   -1,591
658,641;46630,748;   -0,900;   -0,864
659,217;45912,532;   -0,991;    0,409
659,792;45300,680;    0,645;   -0,409
660,368;45432,647;   -2,173;   -0,682
660,944;44657,249;   -2,082;    1,227
661,519;39182,307;   -0,628;    0,409
662,095;33134,364;   -1,719;    0,591
662,670;29022,512;    1,281;   -0,136
663,246;28128,569;    1,009;   -0,409
663,821;27569,536;    0,281;    1,682
664,396;27070,684;    0,009;    1,864
664,972;27338,923;    0,009;   -0,500
665,547;27660,616;    1,372;    0,136
666,122;27726,310;   -1,082;    0,318
666,698;27996,731;   -0,173;    0,318
667,273;27323,788;   -0,173;    0,136
667,848;28109,664;    2,372;    1,500
668,423;27921,539;    2,190;    2,318
668,998;28481,233;    2,827;   -0,682
669,573;29067,744;   -3,264;   -1,500
670,148;28904,165;   -1,446;   -0,682
670,723;28676,677;   -1,810;    0,318
671,298;29090,098;    2,372;    1,045
671,873;29270,701;   -0,082;   -0,136
672,448;29217,940;    0,645;    0,136
673,023;29506,270;   -1,992;   -0,227
673,597;29818,418;    0,827;    2,318
674,172;29608,566;   -0,355;    0,318
674,747;29136,987;    0,372;   -1,045
675,321;28915,317;   -0,628;    3,318
675,896;28438,192;    0,645;    1,045
676,471;29462,431;    2,645;    1,591
677,045;29289,216;   -1,264;    0,682
677,620;29306,273;    0,190;    1,136
678,194;29580,058;   -2,628;    1,136
678,769;29196,842;   -1,083;   -0,318
679,343;29452,445;   -0,628;    1,773
679,917;29335,775;   -1,446;    1,955
680,492;29408,014;    0,826;    3,227
681,066;29542,253;    3,372;    0,409
681,640;29595,947;    1,463;   -0,318
682,214;30441,095;    0,735;    0,500
682,788;29966,061;   -1,356;   -0,773
683,363;29877,664;   -1,810;    1,682
683,937;29580,448;   -1,719;   -0,318
684,511;30337,505;    0,463;   -0,591
685,085;30034,381;   -1,356;    0,318
685,659;29750,438;   -2,538;    0,864
686,232;30086,404;   -0,356;   -0,318
686,806;29773,371;   -0,901;    0,409
687,380;30424,155;   -0,174;    0,591
687,954;30615,213;   -1,174;    1,136
688,528;30281,543;   -0,719;    1,955
689,101;31104,873;   -3,992;    1,045
689,675;30729,021;   -0,356;   -0,136
690,249;30043,805;   -0,719;    0,409
690,822;30357,590;    0,280;    0,318
691,396;30453,829;   -0,265;    1,227
691,969;29937,431;    1,280;    0,136
692,543;30397,034;   -0,447;   -1,955
693,116;30034,455;   -0,265;   -1,409
693,690;29881,512;    0,099;    0,500
694,263;30487,660;   -1,083;    2,955
694,836;30567,172;    1,371;    3,591
695,410;29133,320;   -0,265;    1,773
695,983;29659,832;    0,189;    0,591
696,556;29621,617;   -0,447;   -1,045
697,129;29984,310;   -0,356;    1,409
697,703;29632,913;   -1,629;    1,955
698,276;29518,152;    1,462;   -0,773
698,849;29396,664;    1,280;    1,409
699,422;29729,267;   -1,083;    0,591
699,995;29454,142;    0,007;    0,136
700,568;29946,199;   -0,629;    3,045
701,140;29989,984;   -2,811;    1,682
701,713;29700,314;   -0,174;    2,409
702,286;29407,098;   -0,538;    0,864
702,859;29309,792;   -0,902;   -0,591
703,432;28498,304;    0,825;    0,682
704,004;28962,088;    0,462;    0,318
704,577;28844,600;   -0,629;    0,136
705,150;29439,839;    0,189;    2,500
705,722;29167,533;   -0,356;   -3,227
706,295;28956,772;   -0,175;   -0,591
706,867;28846,193;   -0,175;    1,955
707,440;29079,432;   -1,720;   -0,409
708,012;29348,216;    0,462;    0,591
708,584;29307,546;    2,462;    0,227
709,157;29506,422;    1,825;   -0,591
709,729;29165,570;    2,280;    2,045
710,301;30016,263;    0,734;    0,045
710,874;30015,502;   -1,447;   -0,227
711,446;28859,742;    0,371;    0,864
712,018;28744,890;    0,098;    0,500
712,590;28507,038;   -1,993;    1,682
713,162;29027,095;    0,825;    1,318
713,734;29293,516;    1,825;   -2,045
714,306;29160,210;   -1,902;   -0,409
714,878;27852,903;    0,825;    0,864
715,450;28703,506;    0,643;    0,864
716,022;28884,018;    1,552;    1,318
716,593;29038,257;    0,189;    0,591
717,165;28982,587;   -3,175;   -1,227
717,737;28727,462;    0,280;    0,409
718,309;28370,065;    0,280;   -0,045
718,880;28378,122;   -0,539;   -1,409
719,452;28579,452;   -0,175;   -1,591
720,024;28149,873;    0,734;   -0,591
720,595;28683,930;   -2,902;    0,955
721,167;28316,987;    0,370;   -2,045
721,738;27860,681;   -0,812;   -1,045
722,309;27828,011;   -0,993;   -1,227
722,881;27628,432;   -1,357;    0,773
723,452;28233,671;   -2,630;    2,864
724,023;28436,910;   -0,721;    2,682
724,595;28172,967;    0,007;    0,682
725,166;27916,934;    0,007;   -0,409
725,737;27613,900;    1,734;    0,227
726,308;27660,503;   -0,266;    0,318
726,879;28095,924;   -1,630;    1,227
727,450;27984,253;    0,552;   -0,045
728,021;27898,038;    3,097;    0,682
728,592;27697,368;    0,734;    0,500
729,163;28076,698;    0,643;   -0,136
729,734;28113,119;    0,188;   -0,227
730,305;28435,449;    1,734;    0,136
730,876;28751,597;    0,188;    2,955
731,447;28518,109;    2,188;    2,682
732,017;28634,621;    1,097;    1,864
732,588;28101,951;    0,734;    1,227
733,159;28256,644;    0,643;   -1,045
733,729;28059,065;    0,006;    0,409
734,300;27322,395;    0,915;    0,864
734,870;27731,452;    3,461;    0,591
735,441;28327,782;    0,370;   -0,591
736,011;28084,839;    0,643;   -1,591
736,582;28062,624;   -0,812;    0,045
737,152;27472,227;   -1,721;   -2,045
737,722;27901,284;   -0,267;   -0,682
738,293;27612,705;   -1,358;    1,318
738,863;27548,944;    2,461;    2,318
739,433;27362,547;    5,279;    0,318
740,003;27972,786;   -0,994;   -0,682
740,573;27404,207;    2,097;   -1,591
741,143;27400,446;   -1,085;    0,318
741,713;28118,412;    1,188;   -0,500
742,283;27809,378;    0,915;    1,591
742,853;27578,526;    1,915;    1,591
743,423;27007,493;    1,733;    0,045
743,993;27162,186;   -0,358;    1,500
744,563;26544,062;    0,097;   -0,864
745,133;26487,392;   -0,812;   -0,864
745,702;27145,904;   -0,267;    1,773
746,272;26335,324;   -0,176;    0,591
746,842;26134,654;   -1,358;   -0,591
747,411;26562,803;   -0,267;   -0,318
747,981;26707,496;    0,097;    0,500
748,551;26757,463;    2,278;   -1,045
749,120;26617,429;    0,642;   -0,227
749,690;27040,577;   -0,631;    2,409
750,259;27350,634;    1,369;    2,955
750,828;27275,692;    1,551;   -1,955
751,398;27529,112;    1,278;   -0,045
751,967;27120,897;    2,187;    0,409
752,536;27291,954;   -0,813;   -0,227
753,105;27671,739;    0,096;    0,227
753,675;27516,978;    0,096;    1,773
754,244;27402,217;   -0,904;    3,591
754,813;27409,638;    0,551;    1,227
755,382;27044,604;    0,460;    0,955
755,951;27620,025;    1,551;    3,682
756,520;27125,900;   -0,085;    1,864
757,089;27723,139;    0,278;    0,500
757,658;27876,833;    1,733;    1,227
758,227;27871,890;    1,096;    0,318
758,795;28165,857;    1,187;    1,136
759,364;28352,914;   -0,086;   -0,591
759,933;27335,426;   -1,176;   -0,045
760,501;26842,392;    0,733;   -1,318
761,070;27318,904;   -2,813;   -1,409
761,639;28058,234;   -1,904;    1,318
762,207;27446,836;    1,551;   -0,955
762,776;27371,076;    0,369;    0,864
763,344;27339,315;   -0,995;    0,591
763,913;26379,099;   -0,722;    1,409
764,481;27191,702;    1,005;   -0,136
765,049;26863,668;   -1,358;    1,409
765,618;26786,089;   -0,086;    0,318
766,186;26856,874;    0,278;    0,136
766,754;27067,203;    0,005;    1,864
767,322;25995,806;   -1,995;    0,409
767,890;26058,500;   -0,722;   -1,773
768,459;26485,466;   -2,177;   -0,318
769,027;26690,160;    1,641;    3,409
769,595;25625,217;    3,278;    2,591
770,163;26035,729;    3,823;    2,955
770,730;25765,513;    0,732;   -0,136
771,298;25604,843;    0,187;   -1,409
771,866;25710,173;   -1,541;    4,955
772,434;26062,503;   -0,631;   -1,864
773,002;26245,560;    0,005;    0,682
773,569;25877,436;    0,914;    1,682
774,137;25666,766;   -0,268;   -0,045
774,705;26442,187;    0,278;   -0,136
775,272;25950,335;    0,641;    0,682
775,840;25725,392;   -0,177;    2,682
776,407;25302,086;    0,277;    1,955
776,975;24865,961;   -0,632;    0,318
777,542;25802,291;   -1,086;   -0,045
778,110;25694,439;   -1,268;   -0,045
778,677;25384,133;   -2,359;   -0,864
779,244;25116,099;    2,186;    1,045
779,812;25229,793;    1,823;    0,864
780,379;25079,032;    0,005;    1,136
780,946;25372,816;    1,005;   -0,773
781,513;25646,237;   -1,450;    0,318
782,080;25000,658;   -0,086;    2,864
782,647;25772,534;   -0,268;    3,045
783,214;25374,045;   -0,177;    3,864
783,781;25009,739;   -0,723;   -0,682
784,348;24803,160;   -0,632;    1,500
784,915;25293,944;   -3,177;    0,318
785,482;25089,456;    1,368;    2,591
786,049;25480,877;    0,186;   -0,591
786,615;25639,025;    0,277;   -0,955
787,182;25303,173;    0,186;   -0,682
787,749;25015,231;   -2,814;    1,409
788,315;24399,106;   -1,632;   -0,409
788,882;24613,709;    1,550;   -1,227
789,448;25367,766;    1,732;   -0,955
790,015;25354,278;    1,095;    3,227
790,581;24942,608;    1,459;    0,227
791,148;24865,756;    0,641;    1,045
791,714;25025,359;   -0,541;    3,136
792,280;24688,870;    0,186;    1,591
792,847;24270,110;    0,550;    2,500
793,413;24815,803;   -0,269;   -0,318
793,979;24384,042;    3,459;   -1,318
794,545;24500,281;    4,459;    2,682
795,111;23903,793;    2,186;    1,318
795,678;24079,123;    0,731;   -1,682
796,244;23712,544;    3,368;    0,136
796,810;24230,147;    1,731;    0,773
797,375;23996,840;    0,549;   -2,136
797,941;24037,625;   -0,541;    0,591
798,507;24164,682;   -0,451;   -0,955
799,073;23685,467;   -0,360;    0,591
799,639;23714,160;   -2,632;    3,136
800,205;23781,581;    0,095;    2,682
800,770;23302,366;    0,640;    1,773
801,336;23380,514;    1,368;   -0,955
801,901;23128,026;    4,549;    3,136
802,467;23700,537;   -0,542;    2,045
803,033;23012,049;   -0,087;    0,864
803,598;23185,925;    1,913;   -1,045
804,163;23203,618;    1,095;   -0,318
804,729;23213,857;   -0,178;    1,136
805,294;23611,278;    0,822;    2,227
805,859;23407,244;    0,731;   -0,409
806,425;22861,483;    1,186;    2,682
806,990;22525,086;    2,186;    4,318
807,555;23037,598;   -1,451;    2,591
808,120;22906,201;    0,822;   -0,409
808,685;22939,349;    0,185;   -2,500
809,250;22409,679;    0,004;   -0,500
809,815;22731,372;    1,913;    0,682
810,380;23325,521;   -0,269;    1,591
810,945;23876,487;   -1,087;    2,045
811,510;22966,726;    2,094;    1,591
812,075;22678,510;   -0,633;   -1,409
812,640;22722,386;    2,003;    1,409
813,204;22805,261;    0,822;   -0,227
813,769;23292,682;    2,094;   -0,045
814,334;22700,830;    0,458;    0,864
814,898;22728,433;    0,367;    0,591
815,463;22559,127;    1,276;   -0,773
816,027;22573,729;   -0,724;   -2,318
816,592;22666,968;    0,640;   -2,045
817,156;22212,026;    2,094;    1,136
817,721;22049,447;    4,276;    2,318
818,285;21972,049;    2,912;    1,500
818,849;22660,197;   -1,451;    1,682
819,414;22521,255;   -0,269;    2,955
819,978;22061,039;   -1,269;    1,773
820,542;22720,551;    2,003;    0,500
821,106;22350,790;   -0,815;    0,682
821,670;22495,938;   -0,815;    2,591
822,234;22229,450;   -0,270;    1,409
822,798;21561,871;    0,003;    0,500
823,362;21546,201;   -0,633;    4,227
823,926;20906,622;    0,094;    1,136
824,490;21155,497;   -0,997;   -0,682
825,054;21581,736;   -0,088;   -1,136
825,618;21211,430;   -1,542;   -1,500
826,181;21148,396;    0,458;   -1,318
826,745;21030,272;    1,367;   -1,045
827,309;21441,238;    1,185;    1,318
827,872;20755,659;    1,367;    0,955
828,436;21753,534;    1,185;   -0,773
828,999;21744,592;   -0,997;    1,227
829,563;20537,103;   -0,179;    1,136
830,126;20403,706;   -0,179;   -0,591
830,690;20435,854;   -1,997;    2,864
831,253;19914,821;   -0,543;    2,227
831,816;20063,878;   -1,906;    0,500
832,380;20016,844;    0,185;    0,864
832,943;20267,174;   -1,361;   -0,500
833,506;19699,595;    2,639;   -1,227
834,069;20496,289;    3,912;   -0,955
834,632;20550,982;    1,730;    1,318
835,195;20418,585;    1,003;    0,955
835,758;19606,188;   -0,997;    1,955
836,321;19499,518;    0,730;   -1,045
836,884;19573,666;   -0,725;   -0,955
837,447;19593,541;   -2,816;    1,773
838,010;19887,144;    0,366;    3,227
838,573;20161,747;   -1,179;    0,773
839,135;20122,076;   -1,361;   -0,955
839,698;19633,406;    1,275;    0,409
840,261;19137,827;    1,003;   -0,227
840,823;18956,612;   -0,543;    0,864
841,386;19238,124;   -0,452;   -2,409
841,948;19114,999;   -1,361;    1,773
842,511;18844,147;    0,912;    1,682
843,073;18999,750;    1,912;    0,227
843,636;18793,716;   -0,361;   -0,227
844,198;18771,228;    0,911;    0,591
844,760;18905,922;    1,093;    1,955
845,322;18510,524;    0,548;    1,136
845,885;18935,127;    0,730;    0,591
846,447;19395,275;   -1,998;    0,227
847,009;18983,605;    1,911;   -0,682
847,571;19274,662;    0,820;   -2,045
848,133;19405,447;   -1,089;   -1,864
848,695;19230,595;   -0,543;    1,409
849,257;18754,561;   -1,089;   -1,682
849,819;18962,528;   -0,998;   -0,409
850,381;18958,858;   -0,725;   -0,864
850,942;19351,460;    1,093;   -0,591
851,504;19355,518;    1,184;    0,227
852,066;19346,393;    1,275;   -1,591
852,628;18826,360;   -0,180;    1,955
853,189;18384,053;    1,638;    2,682
853,751;18520,929;   -0,907;    1,409
854,312;18331,259;   -0,453;   -1,682
854,874;18841,316;   -2,089;   -0,773
855,435;19374,009;   -0,907;   -1,682
855,997;19524,885;   -1,816;   -0,136
856,558;18810,669;    0,366;    1,773
857,119;18911,272;    0,820;    2,864
857,681;18587,238;    0,002;    0,318
858,242;18644,659;    1,911;   -2,136
858,803;19072,989;    0,456;   -0,773
859,364;19635,046;    0,184;   -4,773
859,925;18973,286;   -2,453;   -0,955
860,486;18878,343;   -0,453;   -0,955
861,047;18573,400;   -0,544;   -1,227
861,608;18392,003;   -1,089;   -0,773
862,169;18515,515;    0,638;   -0,045
862,730;18281,935;    0,456;    1,409
863,291;18525,811;   -0,635;   -0,500
863,852;18921,050;   -0,635;    1,955
864,412;18372,834;   -0,271;   -0,864
864,973;16965,346;   -0,089;    0,500
865,534;16862,403;   -1,726;    0,227
866,094;18366,370;    1,820;    0,227
866,655;17991,336;    1,274;    3,318
867,215;18299,212;    0,274;    0,136
867,776;18106,723;    0,547;   -0,136
868,336;18256,053;   -1,453;    0,136
868,897;17715,929;    2,638;    1,682
869,457;17429,077;    1,365;    0,318
870,017;17623,861;    0,547;   -1,227
870,578;18193,919;   -0,817;    0,773
871,138;17841,612;   -2,089;   -0,955
871,698;17394,579;   -0,817;   -1,318
872,258;17277,454;   -0,453;   -2,864
872,818;17681,784;    2,729;    0,045
873,378;17601,387;    0,638;    1,045
873,938;17106,353;    0,547;    0,500
874,498;17454,865;    0,274;   -1,955
875,058;17370,922;    2,183;    1,773
875,618;17248,070;    1,910;   -2,682
876,177;17128,400;    1,274;    0,136
876,737;16759,730;   -0,090;    1,955
877,297;16838,242;    0,183;    1,955
877,856;16830,390;   -0,362;    0,318
878,416;16755,629;    1,183;   -0,136
878,976;16972,232;   -1,817;    0,409
879,535;17145,835;    0,092;    3,136
880,095;16836,528;   -0,544;    0,045
880,654;16998,767;   -1,090;    1,318
881,213;17109,825;    2,456;    1,500
881,773;16714,427;    2,637;    2,682
882,332;17101,121;    3,365;    5,136
882,891;16930,269;    3,092;    2,136
883,451;17403,054;   -1,272;    1,682
884,010;16807,202;   -2,908;   -0,409
884,569;16917,077;   -0,999;   -0,045
885,128;17080,953;    2,819;   -1,864
885,687;17214,828;    4,455;    0,682
886,246;16864,431;    1,455;    2,136
886,805;16612,124;    2,455;    2,045
887,364;16871,091;   -0,999;   -0,500
887,922;17251,693;   -1,181;    0,045
888,481;16790,660;   -1,545;    0,591
889,040;17099,717;    1,183;    2,136
889,599;17752,956;    2,455;    1,409
890,157;17842,013;    1,455;    2,409
890,716;17519,980;   -0,090;    0,227
891,274;17308,400;    0,092;   -1,136
891,833;17741,458;    1,546;    0,864
892,391;17661,697;   -0,454;    0,500
892,950;17708,481;    1,819;   -0,773
893,508;18065,902;    0,455;   -0,409
894,067;17369,778;    0,637;    0,136
894,625;17292,926;   -0,636;   -1,500
895,183;17533,619;   -0,363;   -0,682
895,741;17445,313;    1,728;   -1,773
896,299;17269,097;   -0,545;   -2,409
896,858;17430,337;    0,819;   -1,591
897,416;17563,212;    2,728;   -1,318
897,974;17262,451;    1,819;    0,318
898,532;17501,145;    6,091;    2,682
899,089;17380,747;    2,091;   -0,682
899,647;17408,168;   -1,454;    1,318
900,205;17128,407;    1,182;    1,045
900,763;17302,828;   -0,454;    0,227
901,321;17325,340;    2,364;   -1,409
901,878;16728,579;   -1,000;   -0,773
902,436;16583,182;   -1,363;    1,318
902,994;17000,330;    4,728;    3,682
903,551;16470,842;    0,728;    0,409
904,109;16833,990;    0,182;   -1,409
904,666;16389,138;    2,455;    1,045
905,224;16243,559;    0,182;   -0,409
905,781;15999,343;    0,727;   -0,318
906,338;16080,582;   -1,363;    1,045
906,895;15988,276;    0,637;    2,045
907,453;15940,242;    1,727;    1,136
908,010;15963,027;   -0,909;    0,409
908,567;15617,448;    1,273;    0,591
909,124;15079,596;    0,364;   -1,500
909,681;15169,017;   -2,909;    0,682
910,238;15297,983;    0,636;   -1,318
910,795;15618,859;   -0,273;   -1,136
911,352;15228,313;   -2,909;   -2,682
911,909;14653,313;   -1,364;   -0,864
912,466;15201,768;   -3,182;    1,500
913,022;14709,495;   -1,636;    0,500
913,579;15093,586;   -0,909;    2,045
914,136;14782,222;    1,636;    0,955
914,692;15090,495;    0,091;   -1,227
915,249;14702,949;    1,455;    0,409
915,806;14905,404;    0,182;    1,955
916,362;14702,768;    1,909;    1,864
916,918;14229,949;    2,000;    1,045
917,475;14195,677;   -1,182;    0,955
918,031;14267,222;    3,364;   -0,045
918,587;13692,222;   -0,909;   -0,318
919,144;13949,313;   -2,273;    0,227
919,700;14255,859;    1,727;    0,773
920,256;13789,131;    0,727;    0,045
920,812;13415,040;   -0,727;   -1,045
921,368;13410,677;   -1,727;   -1,045
921,924;13048,131;    0,182;   -0,136
922,480;12687,222;   -0,545;    1,227
923,036;13289,222;    1,273;    1,955
923,592;13197,949;    0,455;    0,318
924,148;13108,404;    0,455;   -0,955
924,704;12406,586;   -1,364;   -0,409
925,259;12656,859;   -0,273;    0,591
925,815;12430,131;    1,455;    0,500
926,371;11983,949;    2,909;    1,409
926,926;11831,949;    2,091;    0,591
927,482;11454,586;   -1,364;    0,773
928,037;11361,495;    0,909;    2,045
928,593;11677,313;    1,636;    1,045
929,148;11482,949;   -1,818;   -1,500
929,704;10984,495;   -1,455;   -0,500
930,259;11211,040;    0,091;   -0,136
930,814;10253,859;   -0,818;    1,955
931,369; 9920,859;    1,091;   -0,773
931,925; 9788,404;   -0,091;    0,136
932,480; 9715,586;   -2,818;   -2,591
933,035; 9609,859;    0,545;   -0,318
933,590; 9346,495;    0,364;   -1,773
934,145; 8961,313;   -1,364;   -0,318
934,700; 9287,677;    0,455;   -0,591
935,255; 9096,586;   -0,091;    0,045
935,809; 8422,949;    3,182;    0,864
936,364; 7544,495;   -0,455;   -0,136
936,919; 7515,222;    0,455;   -1,773
937,474; 7383,768;    1,455;    0,136
938,028; 7140,586;   -1,636;    1,136
938,583; 6631,677;    1,818;    4,682
939,138; 6862,404;    2,091;    2,136
939,692; 6315,404;    1,636;   -1,136
940,247; 6028,222;   -0,727;   -1,045
940,801; 5575,495;   -0,636;    0,227
941,355; 5455,859;   -0,364;    2,591
941,910; 5091,222;   -0,273;   -2,136
942,464; 5226,040;   -0,818;   -0,318
943,018; 5023,404;    1,000;   -0,227
943,572; 4959,131;    2,545;   -0,682
944,126; 4410,404;    0,091;   -0,409
944,681; 4291,677;    3,091;    0,227
945,235; 4260,222;    1,000;   -0,591
945,789; 4202,768;    0,364;   -1,864
946,342; 4328,768;    0,455;   -0,591
946,896; 4105,313;   -2,273;    0,955
947,450; 3856,677;    1,545;   -0,227
948,004; 4044,131;    1,727;   -0,045
948,558; 4067,677;    0,273;   -0,864
949,111; 3989,586;   -0,273;   -0,318
949,665; 4022,040;    1,636;   -0,682
950,219; 3904,949;   -0,091;   -1,045
950,772; 3974,677;   -1,909;    1,864
951,326; 3856,404;    0,545;   -0,955
951,879; 3992,949;    0,727;   -2,318
952,433; 4013,677;    0,000;    2,227
952,986; 3835,404;    2,909;    0,682
953,539; 3791,222;   -0,273;    0,591
954,093; 3723,859;    0,545;   -1,318
954,646; 3863,949;    0,909;    1,318
955,199; 3669,495;    0,000;   -0,500
955,752; 3563,495;   -0,455;    1,773
956,305; 3518,404;   -0,091;    2,955
956,858; 3694,495;    0,818;   -0,318
957,411; 3854,495;   -0,545;    2,136
957,964; 3684,404;    1,364;    2,136
958,517; 3664,222;   -1,545;    3,136
959,070; 3501,768;   -0,455;    1,955
959,623; 3590,313;    1,091;    1,500
960,176; 3335,768;    1,727;    2,045
960,728; 3315,859;   -2,727;    0,773
961,281; 3376,404;    0,545;    0,500
961,834; 3437,949;   -0,909;    0,864
962,386; 3340,040;    1,727;    1,045
962,939; 3271,404;    0,364;   -0,318
963,491; 3391,313;    0,455;    1,136
964,043; 3264,222;    1,182;    2,409
964,596; 3401,768;   -1,000;    2,227
965,148; 3249,495;   -1,000;    1,773
965,700; 3166,040;    1,091;   -0,227
966,253; 3307,495;   -0,636;    0,318
966,805; 3136,495;   -2,273;    0,773
967,357; 3183,586;    1,091;   -1,500
967,909; 3159,768;    0,455;   -1,227
968,461; 3275,949;    0,545;    3,136
969,013; 3198,949;   -0,182;   -0,864
969,565; 3279,131;   -0,455;   -1,136
970,117; 3355,768;   -0,364;    1,045
970,669; 3164,040;    0,182;   -0,136
971,220; 3038,404;   -0,455;   -1,500
971,772; 2980,313;   -0,636;   -0,318
972,324; 3087,404;    0,091;   -0,500
972,876; 3020,586;    0,818;   -0,045
973,427; 3179,495;    1,909;   -1,045
973,979; 3148,586;   -0,727;   -2,500
974,530; 3164,313;    1,818;    1,318
975,082; 3177,495;   -0,545;    1,682
975,633; 3060,768;    1,091;    1,682
976,184; 3203,222;    0,909;    0,773
976,736; 3002,677;    0,091;    0,227
977,287; 2789,495;   -0,909;   -0,500
977,838; 2973,222;    0,909;   -0,318
978,389; 3051,859;   -1,000;   -0,500
978,940; 2908,586;    0,545;   -0,409
979,491; 2942,495;    0,091;   -0,500
980,042; 2899,586;    0,182;    3,045
980,593; 2960,131;   -2,545;    0,227
981,144; 3023,313;    2,545;   -0,500
981,695; 2963,859;    1,455;    1,500
982,246; 2935,586;   -0,273;    1,045
982,797; 3097,859;   -1,727;    0,682
983,347; 3199,586;    0,364;    0,591
983,898; 3385,131;    3,091;    0,409
984,449; 3182,131;    2,182;    0,773
984,999; 3101,677;    1,455;   -1,136
985,550; 2876,404;    0,182;   -0,318
986,100; 2889,131;   -0,455;   -0,318
986,651; 2916,949;   -0,818;    0,045
987,201; 2909,949;   -1,000;   -0,591
987,751; 3000,859;    0,818;    2,864
988,302; 2990,222;    2,636;    1,500
988,852; 3008,768;    0,455;   -1,136
989,402; 3049,586;    0,091;    0,682
989,952; 2964,131;   -2,182;    0,864
990,502; 3078,131;   -0,091;    0,682
991,052; 3033,586;   -0,727;    0,045
991,602; 2900,768;   -2,909;    1,318
992,152; 2884,495;    0,455;    0,682
992,702; 2875,131;    1,364;   -0,045
993,252; 2786,404;   -3,000;   -0,500
993,802; 2898,859;   -0,273;    1,318
994,352; 3134,495;   -1,545;    1,136
994,901; 3216,404;   -0,182;    3,227
995,451; 3113,404;   -0,182;    0,318
996,000; 3207,677;    1,636;    0,318
996,550; 2922,404;    2,273;    0,227
997,100; 2917,222;    1,273;   -0,045
997,649; 3207,677;    2,182;    0,955
998,198; 2831,949;    1,727;   -1,500
998,748; 3039,859;    1,091;   -2,318
999,297; 2936,404;   -0,818;   -0,409
999,846; 2986,313;    1,000;   -0,773
1000,395; 3049,586;   -0,818;    0,500
1000,945; 3007,859;    1,818;   -0,773
1001,494; 3093,859;    2,364;    0,682
1002,043; 3082,677;    4,636;    0,864
1002,592; 2920,586;   -1,091;    1,955
1003,141; 3074,859;   -0,455;   -0,682
1003,690; 2922,495;    1,727;    0,500
1004,238; 3002,586;    1,455;   -0,045
1004,787; 2637,586;    1,364;    1,227
1005,336; 2885,768;    0,364;    0,682
1005,885; 3037,859;    1,364;   -2,773
1006,433; 3171,313;    0,545;    0,955
1006,982; 3215,768;    0,455;    1,682
1007,531; 3122,404;   -1,818;   -0,227
1008,079; 3071,859;   -2,273;    0,500
1008,627; 3198,677;   -1,455;    0,409
1009,176; 2946,677;    0,000;   -1,955
1009,724; 2987,859;    1,091;    0,864
1010,273; 3043,859;    1,273;    0,500
1010,821; 3139,404;    0,091;    1,409
1011,369; 2885,586;   -1,364;    1,318
1011,917; 2868,222;   -1,364;   -0,591
1012,465; 3155,495;    1,273;   -1,591
1013,013; 3269,313;    2,091;   -1,682
1013,561; 3142,404;    0,455;   -0,773
1014,109; 3198,222;   -1,909;    1,682
1014,657; 3070,222;    0,364;    0,591
1015,205; 3197,495;    1,636;   -0,955
1015,753; 3216,404;   -0,545;   -1,409
1016,301; 3272,586;   -2,636;    3,045
1016,848; 3273,859;   -1,273;    0,409
1017,396; 3306,949;    2,545;    0,045
1017,944; 3446,859;    1,182;    1,864
1018,491; 3198,222;    0,273;    1,409
1019,039; 3341,859;    0,455;    0,591
1019,586; 3255,677;   -1,364;    1,682
1020,134; 3333,222;    0,455;    1,500
1020,681; 3389,768;    0,182;   -1,136
1021,228; 3360,768;    2,909;   -2,227
1021,776; 3186,131;    1,182;   -1,136
1022,323; 3429,040;    0,455;    0,773
1022,870; 3338,495;   -1,000;   -0,045
1023,417; 3250,404;    2,636;    1,864
1023,964; 3392,495;    2,636;    1,227
1024,511; 3230,222;    1,000;    0,773
1025,058; 3042,586;    3,182;   -0,045
1025,605; 3089,313;   -2,273;    3,136
1026,152; 3311,313;    1,727;   -0,591
1026,699; 3038,768;    1,818;    1,318
1027,245; 3191,768;   -0,091;    0,318
1027,792; 3397,404;   -1,000;    1,409
1028,339; 3313,313;    2,364;   -0,045
1028,885; 3152,677;    1,000;   -0,227
1029,432; 3080,677;   -0,091;    0,227
1029,978; 3158,677;   -1,000;   -1,591
1030,525; 3060,495;    1,000;    0,409
1031,071; 3273,768;   -1,364;    1,136
1031,618; 3392,404;    0,364;    1,682
1032,164; 3169,313;   -0,091;    3,045
1032,710; 3232,404;    1,636;   -1,500
1033,256; 3139,131;   -0,636;   -0,136
1033,803; 3133,586;   -0,545;    1,500
1034,349; 2831,131;   -1,364;    0,136
1034,895; 2966,495;    0,000;   -0,318
1035,441; 2963,222;   -0,818;    0,318
1035,987; 2958,131;   -2,364;   -0,682
1036,533; 2963,768;   -1,455;   -0,955
1037,078; 3174,859;    1,455;    1,682
1037,624; 2980,222;    2,455;   -0,955
1038,170; 3028,131;    0,455;   -0,318
1038,716; 2930,040;    1,636;   -0,409
1039,261; 2838,222;   -2,273;   -0,773
1039,807; 2767,949;   -0,091;    3,409
1040,352; 2840,859;   -1,909;   -0,318
1040,898; 2895,677;   -1,545;   -0,682
1041,443; 2788,586;   -1,455;   -2,591
1041,989; 2817,131;    1,091;    1,591
1042,534; 2675,586;   -0,364;    2,591
1043,079; 2803,677;    2,909;    0,955
1043,625; 2610,040;    1,818;    0,500
1044,170; 2647,404;   -1,364;    1,045
1044,715; 2903,949;    2,455;    0,955
1045,260; 2718,677;    2,182;   -0,955
1045,805; 2753,404;    1,182;   -0,591
1046,350; 2674,768;    1,364;   -0,409
1046,895; 2636,586;    2,909;    1,591
1047,440; 2617,404;    5,364;    0,409
1047,985; 2509,586;    2,818;   -0,955
1048,530; 2418,586;    1,545;    1,227
1049,074; 2478,859;    0,000;    0,318
1049,619; 2449,495;   -1,364;    1,955
1050,164; 2266,677;    0,455;    0,227
1050,708; 2308,677;   -0,455;    0,045
1051,253; 2690,586;    1,273;   -2,227
1051,797; 2381,404;    0,818;   -1,318
1052,342; 2390,495;   -1,182;    1,045
1052,886; 2407,040;    0,364;   -1,409
1053,430; 2273,040;   -1,364;    0,136
1053,975; 2281,949;   -0,818;   -0,318
1054,519; 2274,404;   -0,727;    3,227
1055,063; 2305,949;    0,909;    1,318
1055,607; 2177,949;   -0,182;    0,227
1056,151; 2196,677;    2,909;    1,682
1056,695; 2107,768;    2,273;   -1,136
1057,239; 2170,313;   -1,727;   -0,682
1057,783; 2181,949;    0,818;   -1,500
1058,327; 2125,495;    0,000;    1,409
1058,871; 2372,949;   -0,545;    1,318
1059,415; 2074,586;   -0,818;   -0,045
1059,958; 2334,768;    1,455;    2,591
1060,502; 2056,313;   -1,000;   -0,773
1061,046; 1956,495;    0,364;   -0,955
1061,589; 1945,313;   -3,000;   -1,136
1062,133; 1817,949;   -1,273;    1,864
1062,676; 1761,495;    1,182;    0,864
1063,220; 1766,586;    1,091;    0,500
1063,763; 1797,677;    0,909;    1,136
1064,306; 1867,677;   -0,909;    1,864
1064,849; 1757,222;   -0,909;    0,591
1065,393; 1760,586;    2,000;   -1,500
1065,936; 1866,949;    0,182;   -0,409
1066,479; 1756,313;   -1,455;    1,318
1067,022; 1778,586;   -0,273;   -0,227
1067,565; 1669,768;   -0,091;   -1,318
1068,108; 1701,404;    0,727;   -0,591
1068,651; 1666,495;   -0,636;    1,409
1069,194; 1607,768;   -0,455;   -1,682
1069,736; 1608,586;   -1,273;    0,955
1070,279; 1587,586;   -1,364;   -0,500
1070,822; 1647,131;   -2,000;   -0,318
1071,364; 1737,313;   -0,364;    1,318
1071,907; 1553,495;   -0,727;    3,227
1072,450; 1434,222;    0,000;   -0,045
1072,992; 1437,040;   -0,273;    3,136
1073,535; 1591,040;    2,091;    2,136
1074,077; 1373,586;   -0,727;    2,045
1074,619; 1351,677;   -1,364;    0,591
1075,161; 1392,677;   -1,091;    1,500
1075,704; 1572,586;    1,545;    1,227
1076,246; 1350,040;   -0,182;    0,682
1076,788; 1292,131;   -0,364;    1,773
1077,330; 1355,859;    1,273;    2,136
1077,872; 1314,495;    0,909;    0,955
1078,414; 1548,131;    2,727;    0,773
1078,956; 1287,222;    1,273;   -0,227
1079,498; 1562,313;    1,636;    0,318
1080,040; 1254,495;    1,909;   -1,318
1080,581; 1182,222;    1,636;   -0,318
1081,123; 1117,313;    0,091;   -0,773
1081,665; 1170,495;   -1,182;   -0,955
1082,206; 1474,586;    1,364;   -0,500
1082,748; 1325,222;    0,727;    2,045
1083,289; 1200,404;   -2,000;    1,318
1083,831; 1110,859;   -0,545;    0,227
1084,372; 1150,131;    0,000;    0,591
1084,913; 1165,404;    1,091;    0,864
1085,455; 1121,949;   -1,909;   -2,045
1085,996; 1091,586;   -2,273;    0,136
1086,537; 1111,677;   -0,091;    0,864
1087,078; 1140,768;   -0,909;   -2,136
1087,619; 1186,222;   -1,273;    0,227
1088,160; 1105,495;    0,000;    1,318
1088,701; 1086,040;   -1,091;    0,682
1089,242; 1023,677;    1,364;   -2,227
1089,783; 1143,495;   -0,273;    1,409
1090,324; 1098,040;    0,455;    0,682
1090,865;  961,040;    2,727;   -0,409
1091,405;  922,131;    0,727;    2,227
1091,946;  965,768;    0,182;   -0,955
1092,487;  893,495;    0,818;   -1,409
1093,027; 1066,222;   -1,364;   -1,500
1093,568;  916,040;   -0,364;    1,227
1094,108; 1024,131;    0,273;    1,773
1094,649;  951,495;   -1,182;    0,136
1095,189;  891,586;   -0,636;   -0,682
1095,729;  848,404;   -0,091;    0,955
1096,269;  843,222;    0,727;   -0,955
1096,810; 1162,131;   -1,364;    0,500
1097,350;  988,040;    1,364;   -0,773
1097,890;  896,768;    0,364;    1,227
1098,430; 1160,040;    2,364;    2,864
1098,970; 1024,949;    2,182;    1,682
1099,510;  877,404;    0,545;   -2,318
1100,050;  798,040;    1,000;   -1,591
1100,589;  766,131;   -0,727;   -0,318
1101,129;  905,586;    0,818;   -0,955
1101,669; 1054,586;    1,727;    2,136
1102,209;  867,768;   -0,091;    2,227
1102,748;  831,404;    0,000;    0,955
1103,288;  822,949;    1,273;   -1,227
1103,827;  852,677;    3,091;   -2,227
1104,367;  723,677;   -0,091;   -2,409
1104,906;  681,131;    1,364;   -1,136
1105,445;  768,222;    0,636;   -1,136
1105,985;  713,586;   -0,727;    1,500
1106,524;  763,495;   -1,727;   -0,682
1107,063;  730,222;   -2,727;    1,409
1107,602;  701,677;   -1,909;   -1,500
1108,141;  625,131;   -1,909;    1,500
1108,680;  732,222;   -3,455;   -0,591
1109,219;  661,131;   -0,909;   -0,500
1109,758;  668,404;    0,455;    0,682
1110,297;  637,768;    1,000;   -0,682
1110,836;  581,949;   -0,727;    0,955
1111,375;  754,313;   -2,545;    0,409
1111,913;  763,313;   -1,000;    0,773
1112,452;  693,313;   -0,273;    0,136
1112,991;  574,768;    1,091;    1,955
1113,529;  534,313;   -0,818;   -0,045
1114,068;  611,222;   -0,273;    2,955
1114,606;  506,768;   -0,364;   -0,955
1115,144;  681,859;   -1,273;    1,045
1115,683;  617,131;   -0,727;    0,318
1116,221;  664,859;   -0,455;   -0,864
1116,759;  564,495;    0,636;   -0,864
1117,297;  772,495;    0,000;    1,864
1117,836;  571,313;   -2,182;   -1,227
1118,374;  585,495;    0,182;   -0,682
1118,912;  528,768;    0,909;    2,682
1119,450;  507,222;    1,000;    0,864
1119,988;  567,404;    1,545;    2,136
1120,525; 1034,586;    5,091;    3,318
1121,063;  732,949;    1,182;    1,864
1121,601;  537,859;   -0,909;   -1,227
1122,139;  487,404;   -0,727;   -2,045
1122,676;  684,040;   -0,727;    2,773
1123,214;  608,404;   -1,182;    4,409
1123,751;  420,040;    1,727;    2,227
1124,289;  564,040;   -0,091;   -0,409
1124,826;  425,222;    1,727;    0,227
1125,364;  349,040;    1,727;   -0,955
1125,901;  543,040;    1,182;    1,227
1126,438;  660,040;    0,818;    0,955
1126,975;  381,313;   -0,727;   -0,773
1127,513;  454,131;    0,273;    2,136
1128,050;  358,859;    1,636;   -0,682
1128,587;  457,040;    2,000;   -0,227
1129,124;  492,040;    0,091;    1,318
1129,661;  357,313;    0,273;    0,227
1130,198;  532,313;    1,636;    0,773
1130,734;  468,677;    0,182;    1,409
1131,271;  327,859;   -0,909;    0,864
1131,808;  501,677;    2,909;    3,045
1132,345;  382,677;    1,545;    0,318
1132,881;  246,131;   -1,545;   -1,864
1133,418;  389,313;    0,727;   -1,136
1133,954;  316,040;    2,455;   -2,682
1134,491;  396,768;    1,364;   -0,773
1135,027;  298,040;    2,364;    0,864
1135,564;  389,859;    0,273;    2,955
1136,100;  367,677;    0,364;    2,136
1136,636;  253,131;   -1,273;   -1,045
1137,172;  356,859;    0,000;   -1,045
1137,708;  275,495;   -1,364;   -1,045
1138,245;  277,586;    1,273;   -1,227
1138,781;  230,768;    1,091;   -3,318
1139,317;  301,949;    1,273;   -1,409
1139,852;  287,586;    3,091;    0,136
1140,388;  417,677;   -1,182;   -0,409
1140,924;  287,404;   -1,091;   -2,227
1141,460;  226,131;   -1,636;    0,136
1141,996;  157,222;   -1,364;    2,682
1142,531;  215,495;    1,364;    3,318
1143,067;  429,677;    1,182;    1,045
1143,602;  498,768;   -0,091;   -0,318
1144,138;  328,495;   -2,636;    1,045
1144,673;  186,949;   -1,455;    1,409
1145,209;  267,859;   -1,909;   -0,318
1145,744;  178,040;   -0,727;    0,864
1146,279;  332,949;    1,818;   -0,136
1146,815;  243,586;    1,545;   -2,682
1147,350;  283,586;   -1,364;    0,045
1147,885;  190,859;   -0,818;   -1,318
1148,420;  179,677;   -2,273;    0,773
1148,955;  162,495;   -1,727;    1,864
1149,490;  195,586;   -0,909;   -1,591
1150,025;  184,859;    0,455;   -1,773
1150,560;  289,586;    1,091;   -0,955
1151,094;  256,040;    1,455;   -0,591
1151,629;  271,859;    1,636;    0,864
1152,164;  185,040;    1,364;    1,318
1152,698;  142,949;   -0,182;   -0,136
1153,233;   97,222;    0,091;   -0,682
1153,767;  151,949;   -3,000;   -2,318
1154,302;  206,404;   -1,455;    1,773
1154,836;  198,313;   -0,455;   -2,136
1155,371;  259,313;   -1,364;    3,682
1155,905;  206,859;   -0,636;    1,682
1156,439;  178,404;   -0,636;   -0,500
1156,973;  210,677;    0,364;    0,318
1157,507;  138,768;   -0,364;    0,682
1158,042;  170,768;   -0,727;    1,045
1158,576;  229,495;    0,182;    1,773
1159,110;  213,040;   -0,818;    2,409
1159,643;  180,586;    0,636;   -0,045
1160,177;  111,313;   -1,545;    1,500

