
Integration time [ms]:   0,040
Averaging Nr. [scans]: 11
Smoothing Nr. [pixels]: 0
Data measured with spectrometer [name]: 7318044SP
Wave   ;Sample   ;Dark     ;Reference
[nm]   ;[counts] ;[counts] ;[counts] 

186,757;   25,529;   31,551;    1,318
187,357;   65,193;   22,551;    0,955
187,958;   35,812;   15,460;   -1,591
188,558;   83,613;    8,915;   -1,227
189,159;   51,204;    6,733;   -4,500
189,759;   13,805;    7,278;   -3,591
190,360;   16,805;    2,824;   -2,136
190,960;   54,465;    2,915;   -4,136
191,560;   82,880;    3,189;   -6,591
192,161;  340,924;    4,372;   -3,500
192,761;  176,615;    4,010;   -3,227
193,361;  119,944;    1,556;   -3,773
193,962;  165,724;    2,010;   -2,682
194,562;   83,471;    1,189;   -3,955
195,162;  125,916;   -2,448;   -2,227
195,762;  297,245;   -3,176;   -0,045
196,362;  236,015;    1,370;   -2,500
196,963;   94,287;    2,006;   -0,864
197,563;  177,889;    1,551;   -0,955
198,163;  113,316;    0,096;   -0,682
198,763;  134,652;    1,733;   -0,500
199,363;  259,176;    3,096;   -0,500
199,963;  216,834;    0,369;    0,409
200,563;  182,638;    2,823;   -1,409
201,163;  158,089;    3,277;   -0,227
201,763;  255,344;    3,732;    0,318
202,363;  193,072;    1,459;    1,500
202,963;  314,282;    1,459;    1,045
203,563;  426,456;    0,277;    0,500
204,162;  265,652;    2,096;   -1,864
204,762;  251,894;    0,550;    0,591
205,362;  212,803;    3,004;    1,955
205,962;  319,995;    3,096;    1,955
206,562;  316,621;    1,823;    2,318
207,161;  280,174;   -0,087;    0,318
207,761;  453,561;    1,277;    2,409
208,361;  328,386;   -0,268;    1,409
208,960;  432,121;    0,459;    1,500
209,560;  505,722;    1,277;    1,591
210,160;  484,219;    0,550;    1,864
210,759;  436,033;    4,186;    1,227
211,359;  446,684;    1,459;    1,045
211,958;  736,411;    1,277;    2,045
212,558;  820,572;    1,732;    1,864
213,157;  654,436;    1,822;    1,500
213,757; 1125,523;    3,822;   -0,227
214,356;  799,044;    1,277;   -0,409
214,956; 1142,093;    3,095;    0,409
215,555;  746,995;    2,095;    2,136
216,154;  693,209;   -2,723;   -0,591
216,754;  697,838;    0,277;    0,773
217,353;  847,915;   -0,268;   -1,045
217,952;  706,674;   -0,178;    0,318
218,552;  953,132;    1,368;   -0,773
219,151;  840,205;    0,277;    0,955
219,750;  837,790;    0,004;   -0,227
220,349;  980,572;   -0,451;    1,045
220,948; 1042,894;   -1,360;    1,136
221,548; 1071,929;    0,913;    1,227
222,147; 1188,852;   -0,087;   -0,409
222,746; 1489,338;   -0,451;   -0,955
223,345; 1367,265;    0,731;    0,500
223,944; 1376,985;   -0,451;    0,773
224,543; 1571,030;    1,004;   -1,409
225,142; 1667,667;    0,094;    0,136
225,741; 1580,614;   -0,814;    1,045
226,340; 1614,754;   -0,451;   -0,955
226,939; 2107,391;   -0,996;   -0,136
227,538; 2077,090;   -0,360;   -0,773
228,137; 2226,422;   -0,814;    0,864
228,735; 2408,873;   -0,541;    1,227
229,334; 2140,411;   -0,905;   -0,227
229,933; 2533,027;    0,459;    0,591
230,532; 2638,985;    1,186;   -0,409
231,131; 2687,806;    1,732;    0,318
231,729; 2884,464;   -2,450;   -2,318
232,328; 3017,331;   -0,723;   -1,500
232,927; 3094,390;    1,004;   -0,500
233,525; 3249,842;    3,640;    0,045
234,124; 3460,317;    2,368;   -1,591
234,723; 3480,436;    0,913;   -1,045
235,321; 3636,460;    2,277;    0,136
235,920; 3902,013;    1,186;   -1,227
236,518; 4166,674;    3,459;    0,318
237,117; 4379,083;    0,004;   -0,227
237,715; 4569,020;    0,640;   -0,500
238,314; 4599,541;   -0,087;   -2,318
238,912; 4710,300;   -0,723;   -1,409
239,510; 4742,558;    0,459;   -1,227
240,109; 4925,212;    0,004;    3,773
240,707; 4966,198;   -0,996;    1,227
241,305; 5357,436;    0,550;    0,136
241,904; 5609,708;   -0,178;   -2,045
242,502; 5564,901;   -0,632;   -0,227
243,100; 5476,467;   -0,087;   -0,955
243,698; 5752,404;    0,732;    1,682
244,297; 5956,051;   -0,632;    0,682
244,895; 5765,181;   -0,269;   -2,318
245,493; 6140,912;    2,186;   -0,591
246,091; 6176,593;    1,368;   -1,318
246,689; 6150,044;    1,004;    0,591
247,287; 6324,191;    0,822;   -1,136
247,885; 6591,261;   -1,451;    1,227
248,483; 6673,702;    1,822;   -0,500
249,081; 6809,660;    0,185;    1,591
249,679; 7007,132;   -0,178;    1,682
250,277; 7281,419;   -1,723;    0,864
250,875; 7258,744;   -1,087;   -1,045
251,473; 7276,936;   -1,178;    0,500
252,071; 7501,702;    1,459;    1,045
252,669; 7635,712;   -1,814;    0,318
253,267; 7928,104;   -0,087;    0,773
253,864; 7896,555;   -0,360;    0,682
254,462; 7735,796;    1,640;    1,591
255,060; 7710,961;   -0,269;    1,318
255,658; 8035,803;    0,822;   -0,136
256,255; 8468,460;    0,186;   -2,045
256,853; 8342,170;   -0,269;    1,409
257,451; 8346,632;    0,822;    1,864
258,048; 8607,342;    1,822;    1,864
258,646; 8369,156;    1,731;   -1,045
259,243; 8555,716;   -0,087;    2,227
259,841; 8625,139;   -0,814;    0,318
260,438; 8523,142;   -0,087;    0,864
261,036; 9235,359;   -1,905;    1,409
261,633; 9092,719;   -0,087;    2,227
262,231; 8828,461;    2,731;   -0,045
262,828; 8899,244;   -0,905;    1,136
263,425; 9006,426;    0,913;   -0,591
264,023; 9294,961;    0,186;    0,045
264,620; 8830,149;   -0,360;   -0,318
265,217; 9187,170;   -2,087;    3,136
265,815; 9253,380;   -1,905;    2,136
266,412; 9060,541;    0,731;    0,136
267,009; 9134,356;   -1,451;    0,773
267,606; 8965,793;    0,822;   -0,955
268,203; 8949,041;   -0,269;   -0,591
268,801; 9264,377;    1,731;    0,591
269,398; 9576,576;   -0,360;    2,500
269,995; 9539,153;    0,277;    1,591
270,592; 9321,170;   -0,632;   -0,500
271,189; 9513,789;    0,186;    0,409
271,786; 9633,370;   -0,632;    1,227
272,383; 9476,184;   -1,087;    0,227
272,980; 9674,604;    0,277;    0,318
273,577;10127,037;    0,004;    1,227
274,174; 9728,810;    0,822;    2,591
274,771; 9688,531;   -0,814;   -0,773
275,367; 9851,670;    2,277;    1,409
275,964; 9811,957;    0,731;   -0,500
276,561; 9889,996;    1,549;   -1,045
277,158;10117,768;    0,095;   -1,773
277,755;10255,115;    2,185;    0,409
278,351; 9629,789;   -0,451;   -1,500
278,948; 9983,989;   -0,815;    0,045
279,545; 9958,069;   -1,360;    2,318
280,141;10645,800;   -1,723;   -2,045
280,738;10499,796;   -0,451;   -0,136
281,334;10750,303;   -1,633;    0,591
281,931;10135,660;   -0,087;   -1,318
282,528;10201,947;    0,822;   -0,500
283,124;10919,433;   -1,087;   -0,500
283,721;10875,737;   -0,451;    1,409
284,317;10660,363;    0,185;    2,500
284,913;11172,076;   -1,360;    0,591
285,510;11376,985;    0,640;   -0,318
286,106;11400,817;   -2,269;   -0,955
286,703;11018,856;   -0,360;    1,955
287,299;11221,412;   -1,451;   -0,591
287,895;11441,090;    0,822;   -1,045
288,491;12019,667;    0,186;    2,136
289,088;11705,303;   -2,360;    2,409
289,684;11785,258;   -1,723;    1,500
290,280;11813,698;    0,368;    0,682
290,876;11913,296;    1,822;    5,500
291,472;11796,073;    1,276;    2,227
292,068;11874,097;    1,367;    0,227
292,665;11577,957;    2,095;    0,773
293,261;11172,887;    0,276;    2,136
293,857;11588,509;    2,913;    2,136
294,453;11538,023;    3,550;    0,955
295,049;11403,803;   -0,268;    1,955
295,644;11412,142;    0,095;    0,136
296,240;11342,596;   -0,905;   -0,136
296,836;11375,792;   -0,995;    0,318
297,432;11651,670;    1,096;   -0,500
298,028;11674,551;    0,732;    0,773
298,624;12118,166;    1,459;    1,864
299,220;12348,103;    2,368;    0,591
299,815;12036,481;    1,005;   -0,409
300,411;11819,166;    0,914;    1,773
301,007;11805,176;    1,368;    0,227
301,602;11851,222;   -0,541;   -2,318
302,198;12068,232;    0,732;   -0,773
302,794;12357,788;    1,187;   -0,500
303,389;12498,254;   -1,177;    1,045
303,985;12592,051;    0,550;    1,409
304,580;12531,058;    1,459;    1,591
305,176;12484,589;   -3,086;    0,136
305,771;12431,652;   -1,268;   -1,227
306,367;12314,918;    4,095;    0,136
306,962;12658,949;    0,641;    1,500
307,558;12383,159;   -0,450;    0,136
308,153;12288,775;    1,095;   -1,136
308,748;12476,268;   -0,814;    1,682
309,344;12457,677;   -0,632;   -1,318
309,939;12549,404;   -1,905;   -1,318
310,534;12803,359;   -0,086;   -1,682
311,130;12751,425;    0,459;   -2,500
311,725;12488,089;    1,004;   -0,500
312,320;12831,561;    2,459;    0,045
312,915;12642,726;    1,459;   -1,045
313,510;12775,852;    1,550;   -0,500
314,105;13276,645;    1,096;    1,409
314,700;12646,673;   -3,086;   -1,045
315,295;12262,603;   -0,904;    0,045
315,890;11817,761;    1,277;    0,864
316,485;12207,187;   -0,359;   -0,318
317,080;12316,138;   -3,086;    1,591
317,675;12852,292;    2,005;   -0,682
318,270;12317,523;    5,550;    3,318
318,865;12306,610;    3,278;    3,045
319,460;12142,554;   -0,904;    0,591
320,055;12343,183;   -0,541;   -1,227
320,650;11995,134;   -1,995;   -0,591
321,244;12061,565;   -0,177;   -1,409
321,839;13017,956;   -1,541;   -0,227
322,434;12899,198;   -1,086;   -1,591
323,029;12505,481;    1,732;    1,591
323,623;12336,177;    1,550;    0,773
324,218;12113,638;    2,368;    1,409
324,812;11979,792;    1,096;    1,591
325,407;11789,100;   -0,814;    2,045
326,002;11700,348;    0,277;   -0,409
326,596;12013,935;    0,914;    1,318
327,191;12236,149;    0,823;   -1,045
327,785;11785,208;   -0,813;   -0,227
328,379;11968,362;    1,368;    0,136
328,974;11787,393;    0,914;   -3,955
329,568;11976,827;    0,186;   -2,409
330,163;11824,701;    2,096;    1,045
330,757;12181,075;    2,459;    1,591
331,351;11482,250;    0,459;    0,682
331,945;11807,512;    0,914;    1,409
332,540;11389,981;   -1,723;   -0,591
333,134;11563,233;   -1,086;    0,773
333,728;11820,222;    0,005;    0,318
334,322;12123,205;   -1,177;   -0,864
334,916;11382,967;    0,277;    0,955
335,510;11732,547;   -0,450;   -0,136
336,105;11971,603;   -1,086;    1,591
336,699;11679,719;   -1,086;    0,591
337,293;11637,201;   -1,723;    0,318
337,887;11788,502;   -2,723;    1,955
338,481;11875,100;    0,459;    0,591
339,074;12011,691;   -0,359;    2,682
339,668;11847,733;   -1,632;    1,227
340,262;12116,450;    1,732;    3,227
340,856;11603,334;    1,822;   -0,682
341,450;10933,153;    1,004;    1,864
342,044;11819,838;    1,459;    0,136
342,637;11631,666;    0,913;   -2,136
343,231;11503,604;   -2,360;    0,682
343,825;11448,988;   -1,086;   -0,591
344,419;11403,170;   -1,995;    0,500
345,012;11186,806;    2,459;    4,045
345,606;11192,390;    4,641;    1,591
346,199;11037,194;   -1,813;   -0,227
346,793;10569,509;    1,914;    2,045
347,386;10741,030;   -0,813;   -1,136
347,980;10749,589;   -0,268;   -0,045
348,573;10526,229;    2,278;    0,409
349,167;10197,225;    5,278;    4,773
349,760;10560,354;    2,914;    2,682
350,354;10536,857;   -0,813;    1,136
350,947;10281,872;    1,096;    1,682
351,540; 9926,532;   -0,358;   -1,409
352,134; 9868,295;    1,096;    1,136
352,727; 9944,390;   -0,086;    1,136
353,320; 9731,162;    0,005;    0,591
353,913; 9567,487;   -1,995;    1,864
354,507; 9787,868;    0,823;   -1,227
355,100; 9774,575;    0,460;    0,864
355,693; 9023,536;    2,005;    2,409
356,286; 9053,746;    0,823;    2,773
356,879; 9416,725;   -0,722;    1,227
357,472; 8997,040;   -0,904;    1,500
358,065; 9215,770;   -0,722;    2,500
358,658; 9103,631;   -0,540;    2,318
359,251; 8763,819;   -1,631;   -0,591
359,844; 8252,942;   -1,904;   -1,136
360,437; 8438,550;   -2,995;    0,045
361,030; 8695,061;    1,369;   -0,682
361,623; 8303,452;    2,824;    0,318
362,215; 8345,155;   -0,086;    2,045
362,808; 8175,267;   -2,358;   -1,682
363,401; 8354,665;   -2,449;    0,136
363,994; 8065,602;   -0,631;   -1,500
364,586; 7995,623;    0,824;   -1,500
365,179; 8226,591;   -0,449;   -1,136
365,772; 7712,253;   -1,995;    2,045
366,364; 8067,840;    1,915;   -3,227
366,957; 8223,224;    2,279;   -0,045
367,549; 8227,122;    2,188;   -0,864
368,142; 7892,126;    1,825;   -1,500
368,734; 8084,346;    0,734;   -2,136
369,327; 8037,825;    1,643;   -0,500
369,919; 7939,950;   -1,538;    0,409
370,512; 7757,450;   -1,083;   -0,500
371,104; 7537,662;   -0,901;    1,591
371,696; 7715,609;    1,191;   -0,955
372,289; 7816,539;    0,373;    1,136
372,881; 7925,111;   -2,080;    1,318
373,473; 7821,240;   -2,170;    1,136
374,066; 7650,812;   -0,169;    0,500
374,658; 7513,740;    0,378;    1,136
375,250; 7843,343;    0,653;   -1,409
375,842; 7705,572;    0,473;   -0,045
376,434; 7591,224;   -0,435;   -0,409
377,026; 8165,474;    0,204;   -2,500
377,618; 8054,612;   -0,158;   -0,682
378,210; 7908,033;   -0,338;   -1,955
378,802; 7743,626;    0,754;   -0,591
379,394; 7712,835;    1,846;    0,682
379,986; 8297,551;    1,393;   -0,955
380,578; 8403,331;   -0,153;    0,773
381,170; 7762,793;   -0,972;    0,045
381,762; 7715,700;    0,755;    1,409
382,354; 7926,246;   -0,065;   -1,318
382,945; 8022,108;   -2,976;    0,318
383,537; 8161,463;   -2,705;   -1,955
384,129; 8167,940;   -2,160;   -1,136
384,721; 8348,653;   -0,252;    0,955
385,312; 8281,276;   -0,161;   -0,955
385,904; 8408,594;   -2,706;    1,591
386,496; 7764,293;   -0,979;    1,045
387,087; 7890,807;    1,022;    2,500
387,679; 7930,250;   -1,160;    0,045
388,270; 8069,806;    2,840;    2,045
388,862; 8175,075;    1,295;   -0,318
389,453; 8074,859;   -0,887;    1,045
390,045; 8357,282;   -0,705;   -2,682
390,636; 8284,156;    0,204;   -0,591
391,227; 8123,184;   -0,523;   -0,045
391,819; 8232,153;    0,204;    0,773
392,410; 8353,842;    1,022;    0,045
393,001; 8288,576;   -0,979;   -1,591
393,593; 8580,479;    1,930;   -0,045
394,184; 8428,856;    1,385;   -0,409
394,775; 8314,800;    1,839;    2,136
395,366; 8517,097;    1,385;    0,773
395,957; 8525,153;    0,113;    0,136
396,548; 8842,153;   -0,342;    2,682
397,139; 9173,558;   -2,433;    0,591
397,730; 8860,877;   -1,888;    0,955
398,321; 8912,779;   -1,252;    0,955
398,912; 9001,384;   -0,615;    0,136
399,503; 9058,590;   -3,524;   -1,409
400,094; 8486,314;    0,294;    1,682
400,685; 8311,342;   -0,433;    0,045
401,276; 8411,041;    0,930;   -0,955
401,867; 8724,744;   -0,888;    0,773
402,458; 8811,275;   -2,251;   -2,318
403,048; 8776,314;    1,112;    0,591
403,639; 8424,206;    0,840;    0,864
404,230; 8629,534;    2,476;    0,318
404,821; 8568,409;   -0,615;    0,045
405,411; 8686,503;    1,203;   -2,591
406,002; 8314,262;   -1,252;   -1,136
406,592; 8160,622;    2,294;    0,045
407,183; 8470,951;    0,566;   -1,500
407,774; 8402,510;    3,475;   -0,136
408,364; 8733,902;    0,930;    0,409
408,954; 8314,454;    0,384;    1,227
409,545; 8345,898;    1,021;    1,045
410,135; 7865,451;    1,293;    0,500
410,726; 8053,203;    1,838;    0,318
411,316; 8453,227;    0,111;    0,773
411,906; 8091,427;   -0,253;   -0,409
412,497; 7578,783;   -1,070;   -0,045
413,087; 8213,490;   -1,980;   -0,227
413,677; 8625,326;   -0,707;    3,864
414,267; 8456,735;    0,656;    1,409
414,857; 8487,028;   -2,980;    4,227
415,448; 8764,720;    0,839;    0,500
416,038; 8437,133;    0,020;   -0,591
416,628; 8424,042;   -0,889;    0,409
417,218; 7877,060;    0,565;    3,318
417,808; 8155,990;    0,202;   -0,409
418,398; 8632,571;    0,020;    2,682
418,988; 8628,829;    2,020;    0,591
419,578; 8889,406;   -0,707;    1,409
420,168; 9223,616;   -1,343;   -0,955
420,757; 8829,115;   -1,343;   -1,500
421,347; 8467,270;    0,111;   -0,227
421,937; 8653,382;    2,292;    1,409
422,527; 8641,246;    0,838;   -0,773
423,116; 8432,689;   -0,253;   -0,045
423,706; 8742,794;   -1,889;    0,318
424,296; 8720,878;    1,384;    0,682
424,885; 9164,424;   -0,071;   -3,045
425,475; 9451,476;    1,474;   -2,864
426,065; 9319,410;   -0,980;   -0,318
426,654; 8970,526;   -0,435;   -0,318
427,244; 9133,976;    0,020;    1,409
427,833; 8555,225;    1,383;   -0,500
428,423; 9044,456;   -0,526;    1,136
429,012; 9799,096;   -0,344;   -1,136
429,601; 9319,722;   -1,344;    0,136
430,191; 9517,662;    1,292;    4,318
430,780; 9180,340;   -0,344;   -0,409
431,369; 9086,271;    0,746;   -0,045
431,959; 9730,229;   -1,254;    0,500
432,548; 9515,180;   -1,163;   -0,045
433,137; 9641,858;   -1,254;   -1,318
433,726;10198,281;    0,292;    0,500
434,315; 9503,099;   -0,526;    2,409
434,905; 9614,453;   -1,254;    1,409
435,494; 9480,869;    0,746;    0,955
436,083; 9982,994;   -0,981;   -0,955
436,672; 9855,764;    0,110;    0,500
437,261; 9434,628;    0,292;   -1,955
437,850; 9549,107;    1,383;    0,682
438,439; 9555,023;    3,291;    1,955
439,027; 9374,415;    3,655;    1,773
439,616; 9728,334;    2,927;    1,227
440,205; 9561,418;    0,200;   -2,136
440,794; 9710,806;    2,109;   -0,045
441,383; 9986,499;   -1,346;   -0,591
441,971; 9811,394;   -2,436;    0,591
442,560; 9669,146;    0,563;   -1,773
443,149; 9405,257;    0,379;   -1,318
443,737; 9540,353;   -0,074;   -2,318
444,326; 9813,156;    0,018;    0,318
444,915; 9866,625;   -1,982;    0,864
445,503;10297,950;   -2,891;   -0,318
446,092; 9536,160;    0,382;    2,136
446,680;10090,031;    0,382;    0,318
447,269;10278,303;   -0,346;   -0,318
447,857;10017,101;    0,018;   -1,773
448,445;10099,702;    0,563;    1,318
449,034;10319,440;   -1,528;   -1,136
449,622;10472,171;   -1,073;    3,500
450,210; 9683,412;    2,017;    2,227
450,799;10277,073;    0,290;   -0,591
451,387;10185,951;    1,381;   -0,591
451,975; 9824,094;    2,654;    0,864
452,563; 9935,727;    3,472;    2,318
453,151; 9960,829;   -0,528;   -1,227
453,739; 9916,213;   -1,347;    0,136
454,328; 9746,046;    2,381;   -2,136
454,916; 9443,133;    2,562;   -0,136
455,504; 9613,112;    1,017;    1,227
456,092; 9767,371;    0,017;   -1,591
456,679; 9811,986;    1,472;    0,682
457,267; 9765,329;    4,017;    1,045
457,855; 9907,158;    1,017;    1,409
458,443; 9646,151;   -0,165;    1,682
459,031; 9765,371;    0,108;    2,409
459,619;10252,112;   -1,801;    2,864
460,206;10367,721;    0,835;    2,045
460,794;10453,801;   -2,983;   -0,227
461,382;10682,756;   -0,529;   -0,864
461,970;10273,602;    1,198;    1,864
462,557;10308,808;   -0,711;   -0,682
463,145;10499,102;   -3,165;   -1,682
463,732;10617,669;    2,016;   -1,045
464,320;10546,148;   -0,075;   -3,045
464,907;10238,267;    2,743;   -0,773
465,495;10103,403;    0,743;   -1,227
466,082;10303,623;   -1,984;   -0,045
466,670;10224,092;   -2,529;    1,227
467,257;10588,218;   -1,711;    2,045
467,844;10757,281;   -0,075;    0,045
468,432;10822,235;    0,834;    3,500
469,019;10283,211;    0,925;   -1,773
469,606;10763,396;    0,470;    3,682
470,193;10567,673;   -1,439;    0,227
470,780;10141,176;   -2,075;    0,864
471,368;10477,089;   -1,257;   -0,773
471,955;10275,966;    1,379;   -0,682
472,542; 9914,907;    0,652;   -1,136
473,129;10135,501;   -0,166;    0,136
473,716; 9871,173;    1,470;    0,591
474,303;10111,180;    0,652;   -0,864
474,890;10389,285;   -1,439;   -0,500
475,477;10389,299;   -1,621;    0,409
476,064;10263,764;    1,106;   -1,591
476,650;10241,310;    0,288;    0,318
477,237;10064,582;   -0,258;    0,955
477,824;10262,089;   -1,076;    0,864
478,411;10292,894;   -1,894;   -0,318
478,997;10463,247;    0,560;   -0,773
479,584;10493,321;    1,196;   -0,409
480,171;11240,188;   -0,440;   -0,773
480,757;10882,405;    2,651;    0,773
481,344;11214,163;    0,469;    0,409
481,931;10691,052;    1,105;    1,045
482,517;11761,569;   -1,258;    0,318
483,104;12407,380;    1,106;    2,864
483,690;12630,936;   -1,804;    0,045
484,276;12951,681;   -0,895;    0,227
484,863;12687,726;    2,469;    1,136
485,449;13302,017;   -0,077;    0,318
486,035;13278,880;   -1,986;   -0,136
486,622;13702,716;   -0,895;    0,045
487,208;13632,915;    1,378;    1,500
487,794;13476,741;    0,741;    0,318
488,380;13553,587;    0,105;   -1,409
488,967;13629,905;   -1,168;   -0,409
489,553;13712,608;   -1,895;   -1,409
490,139;13919,493;    1,559;    0,773
490,725;13270,692;    0,741;   -0,227
491,311;12782,097;    3,287;    3,045
491,897;12147,017;   -0,986;    1,500
492,483;11981,713;    0,105;    1,227
493,069;11814,636;    3,923;    0,864
493,655;11806,098;    1,650;    0,682
494,241;11704,867;    1,377;   -0,955
494,826;12126,332;    0,287;   -1,045
495,412;11565,090;    2,559;   -0,682
495,998;11740,724;   -0,805;   -0,318
496,584;11886,437;    0,377;    1,045
497,169;11885,808;    1,014;   -0,682
497,755;11840,175;    0,650;    1,227
498,341;12410,895;    0,559;    0,318
498,926;12015,374;    1,832;    1,955
499,512;12174,228;    1,286;    2,955
500,097;12334,200;    0,195;   -0,318
500,683;12301,521;   -0,350;    2,136
501,268;12669,287;   -0,169;   -0,955
501,854;12347,752;   -0,169;    1,227
502,439;12294,032;   -0,624;   -1,773
503,024;12527,021;    0,195;    0,500
503,610;12602,861;   -0,078;   -0,682
504,195;12610,294;    0,558;    1,955
504,780;12734,756;    2,922;    1,227
505,366;12577,371;    3,013;    2,864
505,951;12280,997;    0,740;    1,045
506,536;12322,190;   -3,260;   -3,682
507,121;12310,543;    0,285;   -0,318
507,706;12828,644;    2,376;    1,045
508,291;13248,637;    2,649;    1,136
508,876;12730,134;   -0,988;    2,591
509,461;12164,606;   -0,169;   -0,773
510,046;12575,533;    0,194;    0,318
510,631;12840,200;   -0,351;   -0,773
511,216;12489,582;    2,467;   -0,500
511,801;12858,260;   -0,442;    2,591
512,386;13236,197;    0,740;    0,500
512,971;13132,659;   -2,988;    0,955
513,555;12703,561;   -0,897;   -1,500
514,140;13487,798;   -0,442;   -3,136
514,725;13501,425;   -0,715;   -1,136
515,309;13633,858;   -0,533;    0,318
515,894;13074,732;   -0,624;   -2,227
516,479;13545,767;   -0,624;   -0,955
517,063;13376,099;    0,376;    1,227
517,648;13529,477;    1,012;   -1,136
518,232;13152,135;   -0,261;   -1,409
518,817;13506,928;   -0,079;    1,682
519,401;13747,603;    2,194;    0,591
519,985;13243,939;    1,103;    1,136
520,570;13084,397;    0,830;   -1,955
521,154;13392,142;    2,102;    0,591
521,738;13590,604;   -2,352;    2,409
522,323;14110,484;   -0,170;    1,682
522,907;13878,652;    0,466;   -0,136
523,491;13604,754;    0,557;    0,955
524,075;13565,548;    2,284;    0,591
524,659;13666,974;    1,466;    0,591
525,243;13154,929;    1,739;    0,409
525,827;13393,792;    0,648;   -0,045
526,411;14237,520;   -1,989;   -0,136
526,995;14454,796;   -0,352;    1,409
527,579;14082,016;   -0,443;   -1,045
528,163;14379,831;    0,375;   -1,500
528,747;14291,177;    2,466;   -0,773
529,331;14580,373;   -0,080;   -1,409
529,915;14768,142;    1,738;    0,955
530,499;14770,020;   -0,807;    1,227
531,082;14460,464;   -0,534;    1,591
531,666;13879,227;    1,374;    0,773
532,250;14594,244;    1,284;    2,682
532,833;14937,450;    0,920;    2,773
533,417;14778,852;   -1,807;    0,864
534,001;14775,860;    1,647;   -0,318
534,584;15453,783;    0,374;    0,500
535,168;15282,958;    0,465;    1,409
535,751;15356,352;    0,647;    0,045
536,334;14785,929;   -0,898;   -0,409
536,918;15359,496;    0,011;    1,591
537,501;15471,727;   -0,899;    1,318
538,085;15491,842;   -0,444;    1,045
538,668;15685,545;    0,829;    2,409
539,251;15973,884;    1,829;    3,773
539,834;15978,325;    0,101;    0,773
540,418;15976,363;   -1,990;    4,318
541,001;16051,213;   -0,990;    1,773
541,584;16025,164;    2,101;    2,227
542,167;15754,863;    1,374;    2,955
542,750;15913,017;    1,919;   -0,773
543,333;15518,101;    0,555;    2,136
543,916;16275,056;    0,192;    2,500
544,499;16843,332;   -1,354;    0,227
545,082;16864,493;    1,374;    3,591
545,665;17030,496;    1,919;    1,500
546,248;17383,101;    1,010;   -0,318
546,830;17020,143;   -0,445;    1,955
547,413;17450,829;    1,010;   -0,773
547,996;17961,116;    0,555;    0,500
548,579;17759,598;    0,919;    0,955
549,161;17557,214;    1,828;    2,682
549,744;17314,242;   -0,809;    0,409
550,326;17837,976;   -0,809;   -1,136
550,909;17669,903;    2,737;    0,591
551,492;18019,046;   -0,263;    0,227
552,074;17824,144;   -0,173;   -1,318
552,657;18358,298;    2,373;    0,045
553,239;18077,770;   -0,173;   -0,773
553,821;18019,518;   -1,082;    1,045
554,404;17565,081;    1,282;    1,136
554,986;17934,487;    0,464;    1,045
555,568;18552,232;    1,191;   -0,955
556,151;17771,298;    1,191;   -0,227
556,733;17919,924;   -0,264;   -0,864
557,315;18405,309;    0,100;    0,500
557,897;18225,536;    0,554;   -0,500
558,479;18317,484;   -1,991;    1,318
559,061;18454,407;   -0,719;   -0,864
559,643;18810,599;   -0,264;    0,045
560,225;19162,756;    1,645;    2,864
560,807;19171,963;    0,918;    0,318
561,389;18647,589;    0,554;    2,318
561,971;19453,540;    0,463;    2,136
562,553;19218,806;   -1,628;    1,591
563,135;19386,826;   -0,537;    1,136
563,717;18995,337;    3,372;    1,136
564,298;19725,040;    3,645;   -0,045
564,880;19460,614;    0,645;   -1,409
565,462;19631,523;    0,645;    1,318
566,043;20766,802;   -0,446;    2,318
566,625;20293,162;    1,918;    1,227
567,207;20176,862;    1,099;    1,682
567,788;21361,334;   -1,264;    1,500
568,370;22182,390;    1,917;   -0,500
568,951;21980,781;    0,190;    0,227
569,533;22828,439;   -0,628;   -0,500
570,114;23329,956;   -0,446;    0,682
570,695;23821,093;   -0,174;   -1,318
571,277;24353,044;   -0,265;   -1,682
571,858;25069,949;    2,008;   -1,136
572,439;26055,327;    1,554;   -1,045
573,021;26245,453;    2,099;   -2,773
573,602;26712,862;   -1,265;    0,318
574,183;27611,876;   -2,083;    2,227
574,764;27740,562;   -1,629;    0,409
575,345;28296,418;    0,917;   -0,136
575,926;28873,876;   -0,356;    0,136
576,507;28826,768;    1,099;   -0,227
577,088;29999,736;    3,099;    1,682
577,669;30017,044;    0,735;    1,955
578,250;30805,240;    0,644;   -1,045
578,831;31427,055;   -1,356;   -2,227
579,412;31664,747;   -0,810;    0,955
579,993;32557,817;    1,008;    0,227
580,573;32873,306;   -0,629;   -0,955
581,154;31881,988;    0,735;   -0,591
581,735;32771,827;    0,644;    0,773
582,315;32262,646;   -0,629;    2,136
582,896;32484,380;   -0,174;    1,227
583,477;31867,191;    0,189;    1,227
584,057;32130,149;    0,553;    0,955
584,638;32443,544;    2,553;    2,318
585,218;32414,597;   -0,538;    2,682
585,799;32575,964;    0,281;   -0,227
586,379;32524,645;    0,372;    1,591
586,959;31264,848;    0,735;    0,318
587,540;30518,859;   -0,629;    2,227
588,120;30134,261;    1,007;   -0,045
588,700;29154,758;    2,553;    2,136
589,281;29466,607;    0,462;   -0,955
589,861;29431,387;    0,099;   -1,682
590,441;29201,160;    2,371;   -2,682
591,021;28172,541;   -0,265;   -2,591
591,601;28397,016;   -0,537;    0,500
592,181;28397,215;   -0,719;   -0,773
592,761;27642,782;    0,007;    1,409
593,341;27603,904;   -0,901;    0,045
593,921;27611,705;   -0,265;    1,591
594,501;27513,607;   -0,538;    1,318
595,081;27356,002;    0,917;   -0,318
595,661;27763,009;   -1,447;    0,955
596,240;28222,775;   -0,537;    0,136
596,820;27952,831;    0,372;    1,955
597,400;28077,576;    2,008;    0,773
597,980;28305,596;    2,008;    1,045
598,559;28300,110;    2,735;   -0,227
599,139;28006,131;   -0,174;   -1,227
599,718;27877,131;   -0,174;   -0,409
600,298;28128,778;    0,735;    0,682
600,877;28410,243;    2,917;    1,409
601,457;28682,026;    2,281;    1,136
602,036;28578,194;    0,190;    2,045
602,616;28819,775;    0,644;    1,682
603,195;29205,477;   -0,355;    3,500
603,774;28728,831;   -0,901;    2,045
604,354;28559,897;    0,826;   -0,500
604,933;28023,733;    0,463;    1,864
605,512;28118,421;    3,554;    0,591
606,091;28214,512;   -0,537;    3,773
606,671;29027,726;    0,281;    0,773
607,250;28157,187;    1,644;    3,136
607,829;28393,470;    2,372;    3,227
608,408;28185,928;    1,190;    2,591
608,987;27227,638;    1,281;    3,409
609,566;27536,467;   -1,265;   -2,500
610,145;27643,439;   -1,082;    0,682
610,723;28008,393;    4,372;    6,864
611,302;27335,424;   -0,446;    1,682
611,881;26809,725;    5,008;   11,227
612,460;27677,432;    1,645;    3,955
613,039;28074,847;   -0,082;    2,045
613,617;26790,879;    1,736;    4,773
614,196;26993,190;    1,099;    1,227
614,775;27309,264;    1,009;    2,409
615,353;27292,103;    0,736;    0,864
615,932;27002,536;    0,100;    2,409
616,510;27561,715;    0,554;    0,591
617,089;27111,333;    7,100;   17,591
617,667;26855,722;    2,372;    6,136
618,246;26729,620;   -1,537;    1,318
618,824;26911,875;   -3,355;   -0,955
619,402;26474,970;   -2,900;   -1,773
619,981;26990,106;   -0,173;   -1,045
620,559;26780,770;    0,009;    1,682
621,137;26276,396;   -0,718;    1,864
621,715;26316,987;   -1,173;   -0,682
622,293;26248,907;   -0,537;   -0,773
622,871;26685,218;   -0,718;    0,500
623,450;26314,592;    0,373;   -0,864
624,028;26242,980;    0,191;   -0,955
624,606;25835,246;   -1,718;    1,682
625,183;26237,620;   -1,536;   -1,136
625,761;25842,162;    1,009;    1,136
626,339;26113,504;    1,373;    2,591
626,917;26498,997;   -0,172;   -0,045
627,495;26531,948;   -0,354;    1,318
628,073;25967,836;   -0,263;    2,864
628,650;25648,798;    0,100;    2,136
629,228;26064,337;    0,373;    4,409
629,806;25496,714;    2,282;    1,136
630,383;25800,259;    1,464;   -0,318
630,961;25559,927;    2,555;   -0,955
631,539;25322,766;    2,464;    0,227
632,116;24727,655;   11,373;   15,409
632,694;25301,357;    2,555;    6,500
633,271;25572,277;    0,828;    2,682
633,848;25488,689;    1,828;    2,045
634,426;25487,483;   -1,081;    1,773
635,003;24631,416;    1,101;   -0,409
635,580;24949,038;    1,192;    3,682
636,158;25487,651;    3,737;    1,227
636,735;25473,399;    0,555;   -0,500
637,312;25656,039;   -0,809;   -0,682
637,889;25719,979;   -4,354;   -0,682
638,466;25208,472;   -3,990;   -0,409
639,043;25217,675;    2,101;   -1,136
639,620;25522,730;   -2,262;   -0,955
640,197;25850,313;    1,100;    1,682
640,774;25903,276;   -0,172;    1,136
641,351;26370,694;    0,737;    1,136
641,928;25823,111;   -0,627;    1,409
642,505;25443,165;    0,828;   -0,500
643,082;25561,310;   -1,718;    1,227
643,658;24543,546;   -0,718;    1,500
644,235;25330,691;    1,191;    2,500
644,812;25667,381;    1,918;    0,773
645,388;25398,344;   -0,991;    1,409
645,965;25462,126;   -0,809;    1,682
646,542;25537,089;   -1,445;   -0,227
647,118;25508,415;    1,009;   -0,955
647,695;25812,833;   -0,263;    1,136
648,271;25724,069;   -0,536;    0,500
648,848;26038,123;    0,736;    2,227
649,424;25870,268;    0,827;    1,318
650,000;25598,413;   -0,354;   -1,045
650,577;25465,739;   -0,627;   -0,955
651,153;25918,066;   -1,809;    0,955
651,729;26961,120;    1,191;    0,864
652,305;27483,265;    0,645;    2,773
652,881;32595,046;   -0,082;    1,136
653,458;39470,555;    1,100;    0,227
654,034;42852,518;    0,282;    1,591
654,610;44065,572;    0,554;    0,773
655,186;45321,080;    0,645;    3,045
655,762;44863,043;   -0,991;    0,409
656,338;44831,825;    0,100;    0,136
656,913;45774,879;   -0,082;    0,409
657,489;45013,114;    0,827;   -0,318
658,065;44931,441;   -0,173;   -1,591
658,641;45641,495;   -0,900;   -0,864
659,217;44849,640;   -0,991;    0,409
659,792;44277,421;    0,645;   -0,409
660,368;44401,566;   -2,173;   -0,682
660,944;43842,802;   -2,082;    1,227
661,519;38659,310;   -0,628;    0,409
662,095;32737,183;   -1,719;    0,591
662,670;28630,873;    1,281;   -0,136
663,246;27775,109;    1,009;   -0,409
663,821;27174,344;    0,281;    1,682
664,396;26631,671;    0,009;    1,864
664,972;26886,180;    0,009;   -0,500
665,547;27225,779;    1,372;    0,136
666,122;27315,379;   -1,082;    0,318
666,698;27607,523;   -0,173;    0,318
667,273;26892,486;   -0,173;    0,136
667,848;27734,086;    2,372;    1,500
668,423;27595,504;    2,190;    2,318
668,998;28154,012;    2,827;   -0,682
669,573;28656,702;   -3,264;   -1,500
670,148;28450,484;   -1,446;   -0,682
670,723;28238,901;   -1,810;    0,318
671,298;28639,773;    2,372;    1,045
671,873;28813,736;   -0,082;   -0,136
672,448;28748,700;    0,645;    0,136
673,023;29106,663;   -1,992;   -0,227
673,597;29444,262;    0,827;    2,318
674,172;29196,134;   -0,355;    0,318
674,747;28633,006;    0,372;   -1,045
675,321;28449,697;   -0,628;    3,318
675,896;28061,023;    0,645;    1,045
676,471;29079,168;    2,645;    1,591
677,045;28841,859;   -1,264;    0,682
677,620;28885,367;    0,190;    1,136
678,194;29197,694;   -2,628;    1,136
678,769;28766,202;   -1,083;   -0,318
679,343;29017,802;   -0,628;    1,773
679,917;28904,401;   -1,446;    1,955
680,492;28945,546;    0,826;    3,227
681,066;29119,055;    3,372;    0,409
681,640;29165,290;    1,463;   -0,318
682,214;30022,617;    0,735;    0,500
682,788;29533,035;   -1,356;   -0,773
683,363;29470,180;   -1,810;    1,682
683,937;29221,688;   -1,719;   -0,318
684,511;29923,560;    0,463;   -0,591
685,085;29583,069;   -1,356;    0,318
685,659;29279,123;   -2,538;    0,864
686,232;29621,904;   -0,356;   -0,318
686,806;29308,685;   -0,901;    0,409
687,380;29966,739;   -0,174;    0,591
687,954;30192,884;   -1,174;    1,136
688,528;29911,029;   -0,719;    1,955
689,101;30697,629;   -3,992;    1,045
689,675;30294,955;   -0,356;   -0,136
690,249;29661,009;   -0,719;    0,409
690,822;29926,700;    0,280;    0,318
691,396;30032,663;   -0,265;    1,227
691,969;29545,080;    1,280;    0,136
692,543;29922,407;   -0,447;   -1,955
693,116;29580,370;   -0,265;   -1,409
693,690;29484,788;    0,099;    0,500
694,263;30027,751;   -1,083;    2,955
694,836;30069,805;    1,371;    3,591
695,410;28730,495;   -0,265;    1,773
695,983;29183,367;    0,189;    0,591
696,556;29136,512;   -0,447;   -1,045
697,129;29545,112;   -0,356;    1,409
697,703;29180,529;   -1,629;    1,955
698,276;29204,310;    1,462;   -0,773
698,849;29017,001;    1,280;    1,409
699,422;29371,237;   -1,083;    0,591
699,995;29068,836;    0,007;    0,136
700,568;29527,435;   -0,629;    3,045
701,140;29567,489;   -2,811;    1,682
701,713;29306,271;   -0,174;    2,409
702,286;29039,325;   -0,538;    0,864
702,859;28904,833;   -0,902;   -0,591
703,432;28077,978;    0,825;    0,682
704,004;28567,668;    0,462;    0,318
704,577;28471,995;   -0,629;    0,136
705,150;29018,231;    0,189;    2,500
705,722;28805,830;   -0,356;   -3,227
706,295;28623,066;   -0,175;   -0,591
706,867;28478,666;   -0,175;    1,955
707,440;28658,901;   -1,720;   -0,409
708,012;28948,228;    0,462;    0,591
708,584;28851,827;    2,462;    0,227
709,157;29093,518;    1,825;   -0,591
709,729;28726,844;    2,280;    2,045
710,301;29598,717;    0,734;    0,045
710,874;29593,498;   -1,447;   -0,227
711,446;28470,734;    0,371;    0,864
712,018;28342,697;    0,098;    0,500
712,590;28089,478;   -1,993;    1,682
713,162;28667,805;    0,825;    1,318
713,734;28867,768;    1,825;   -2,045
714,306;28765,822;   -1,902;   -0,409
714,878;27494,876;    0,825;    0,864
715,450;28332,839;    0,643;    0,864
716,022;28500,711;    1,552;    1,318
716,593;28689,856;    0,189;    0,591
717,165;28617,819;   -3,175;   -1,227
717,737;28360,237;    0,280;    0,409
718,309;27972,381;    0,280;   -0,045
718,880;27974,981;   -0,539;   -1,409
719,452;28171,853;   -0,175;   -1,591
720,024;27793,543;    0,734;   -0,591
720,595;28377,143;   -2,902;    0,955
721,167;27897,833;    0,370;   -2,045
721,738;27446,523;   -0,812;   -1,045
722,309;27455,759;   -0,993;   -1,227
722,881;27227,813;   -1,357;    0,773
723,452;27868,322;   -2,630;    2,864
724,023;27978,012;   -0,721;    2,682
724,595;27734,884;    0,007;    0,682
725,166;27484,484;    0,007;   -0,409
725,737;27175,447;    1,734;    0,227
726,308;27181,864;   -0,266;    0,318
726,879;27679,464;   -1,630;    1,227
727,450;27559,063;    0,552;   -0,045
728,021;27539,935;    3,097;    0,682
728,592;27317,717;    0,734;    0,500
729,163;27643,862;    0,643;   -0,136
729,734;27679,734;    0,188;   -0,227
730,305;28011,879;    1,734;    0,136
730,876;28349,569;    0,188;    2,955
731,447;28090,350;    2,188;    2,682
732,017;28195,950;    1,097;    1,864
732,588;27675,095;    0,734;    1,227
733,159;27892,239;    0,643;   -1,045
733,729;27668,021;    0,006;    0,409
734,300;26950,529;    0,915;    0,864
734,870;27363,674;    3,461;    0,591
735,441;27911,910;    0,370;   -0,591
736,011;27719,327;    0,643;   -1,591
736,582;27692,109;   -0,812;    0,045
737,152;27094,981;   -1,721;   -2,045
737,722;27523,308;   -0,267;   -0,682
738,293;27259,180;   -1,358;    1,318
738,863;27142,870;    2,461;    2,318
739,433;26952,560;    5,279;    0,318
740,003;27547,796;   -0,994;   -0,682
740,573;26971,577;    2,097;   -1,591
741,143;26928,722;   -1,085;    0,318
741,713;27713,413;    1,188;   -0,500
742,283;27420,194;    0,915;    1,591
742,853;27181,248;    1,915;    1,591
743,423;26621,575;    1,733;    0,045
743,993;26725,629;   -0,358;    1,500
744,563;26137,410;    0,097;   -0,864
745,133;26126,646;   -0,812;   -0,864
745,702;26778,609;   -0,267;    1,773
746,272;25995,845;   -0,176;    0,591
746,842;25735,808;   -1,358;   -0,591
747,411;26169,043;   -0,267;   -0,318
747,981;26318,279;    0,097;    0,500
748,551;26335,879;    2,278;   -1,045
749,120;26229,296;    0,642;   -0,227
749,690;26685,350;   -0,631;    2,409
750,259;26984,222;    1,369;    2,955
750,828;26897,913;    1,551;   -1,955
751,398;27151,603;    1,278;   -0,045
751,967;26736,930;    2,187;    0,409
752,536;26873,711;   -0,813;   -0,227
753,105;27301,856;    0,096;    0,227
753,675;27083,728;    0,096;    1,773
754,244;27007,782;   -0,904;    3,591
754,813;27048,018;    0,551;    1,227
755,382;26653,799;    0,460;    0,955
755,951;27210,580;    1,551;    3,682
756,520;26774,543;   -0,085;    1,864
757,089;27319,506;    0,278;    0,500
757,658;27469,924;    1,733;    1,227
758,227;27438,614;    1,096;    0,318
758,795;27715,941;    1,187;    1,136
759,364;27989,631;   -0,086;   -0,591
759,933;26972,504;   -1,176;   -0,045
760,501;26461,921;    0,733;   -1,318
761,070;26940,066;   -2,813;   -1,409
761,639;27613,938;   -1,904;    1,318
762,207;26986,810;    1,551;   -0,955
762,776;26972,683;    0,369;    0,864
763,344;26978,464;   -0,995;    0,591
763,913;25999,609;   -0,722;    1,409
764,481;26739,754;    1,005;   -0,136
765,049;26477,899;   -1,358;    1,409
765,618;26367,680;   -0,086;    0,318
766,186;26413,916;    0,278;    0,136
766,754;26632,788;    0,005;    1,864
767,322;25673,569;   -1,995;    0,409
767,890;25709,714;   -0,722;   -1,773
768,459;26117,404;   -2,177;   -0,318
769,027;26280,549;    1,641;    3,409
769,595;25217,967;    3,278;    2,591
770,163;25675,566;    3,823;    2,955
770,730;25426,893;    0,732;   -0,136
771,298;25252,674;    0,187;   -1,409
771,866;25296,637;   -1,541;    4,955
772,434;25646,782;   -0,631;   -1,864
773,002;25852,654;    0,005;    0,682
773,569;25482,345;    0,914;    1,682
774,137;25314,217;   -0,268;   -0,045
774,705;26079,725;    0,278;   -0,136
775,272;25629,416;    0,641;    0,682
775,840;25334,379;   -0,177;    2,682
776,407;24872,342;    0,277;    1,955
776,975;24496,487;   -0,632;    0,318
777,542;25444,722;   -1,086;   -0,045
778,110;25300,776;   -1,268;   -0,045
778,677;24987,830;   -2,359;   -0,864
779,244;24739,430;    2,186;    1,045
779,812;24896,484;    1,823;    0,864
780,379;24764,992;    0,005;    1,136
780,946;24971,592;    1,005;   -0,773
781,513;25278,464;   -1,450;    0,318
782,080;24681,154;   -0,086;    2,864
782,647;25444,754;   -0,268;    3,045
783,214;25013,808;   -0,177;    3,864
783,781;24669,953;   -0,723;   -0,682
784,348;24525,552;   -0,632;    1,500
784,915;24966,515;   -3,177;    0,318
785,482;24711,660;    1,368;    2,591
786,049;25106,441;    0,186;   -0,591
786,615;25215,495;    0,277;   -0,955
787,182;24960,276;    0,186;   -0,682
787,749;24673,967;   -2,814;    1,409
788,315;23998,748;   -1,632;   -0,409
788,882;24318,802;    1,550;   -1,227
789,448;25005,674;    1,732;   -0,955
790,015;25007,092;    1,095;    3,227
790,581;24600,237;    1,459;    0,227
791,148;24494,382;    0,641;    1,045
791,714;24702,345;   -0,541;    3,136
792,280;24329,489;    0,186;    1,591
792,847;23911,362;    0,550;    2,500
793,413;24514,597;   -0,269;   -0,318
793,979;24049,924;    3,459;   -1,318
794,545;24106,978;    4,459;    2,682
795,111;23564,396;    2,186;    1,318
795,678;23733,904;    0,731;   -1,682
796,244;23375,140;    3,368;    0,136
796,810;23900,285;    1,731;    0,773
797,375;23622,612;    0,549;   -2,136
797,941;23626,484;   -0,541;    0,591
798,507;23800,538;   -0,451;   -0,955
799,073;23336,046;   -0,360;    0,591
799,639;23386,100;   -2,632;    3,136
800,205;23431,791;    0,095;    2,682
800,770;22927,754;    0,640;    1,773
801,336;23052,171;    1,368;   -0,955
801,901;22788,407;    4,549;    3,136
802,467;23326,825;   -0,542;    2,045
803,033;22649,333;   -0,087;    0,864
803,598;22837,114;    1,913;   -1,045
804,163;22884,805;    1,095;   -0,318
804,729;22827,768;   -0,178;    1,136
805,294;23314,276;    0,822;    2,227
805,859;23036,330;    0,731;   -0,409
806,425;22531,112;    1,186;    2,682
806,990;22177,166;    2,186;    4,318
807,555;22689,310;   -1,451;    2,591
808,120;22566,637;    0,822;   -0,409
808,685;22600,328;    0,185;   -2,500
809,250;22094,745;    0,004;   -0,500
809,815;22405,072;    1,913;    0,682
810,380;22941,217;   -0,269;    1,591
810,945;23505,634;   -1,087;    2,045
811,510;22627,597;    2,094;    1,591
812,075;22358,288;   -0,633;   -1,409
812,640;22447,160;    2,003;    1,409
813,204;22480,487;    0,822;   -0,227
813,769;22948,541;    2,094;   -0,045
814,334;22349,231;    0,458;    0,864
814,898;22418,103;    0,367;    0,591
815,463;22257,612;    1,276;   -0,773
816,027;22250,484;   -0,724;   -2,318
816,592;22330,901;    0,640;   -2,045
817,156;21845,683;    2,094;    1,136
817,721;21719,282;    4,276;    2,318
818,285;21643,427;    2,912;    1,500
818,849;22303,845;   -1,451;    1,682
819,414;22199,899;   -0,269;    2,955
819,978;21766,316;   -1,269;    1,773
820,542;22381,461;    2,003;    0,500
821,106;22033,061;   -0,815;    0,682
821,670;22232,024;   -0,815;    2,591
822,234;21938,259;   -0,270;    1,409
822,798;21315,313;    0,003;    0,500
823,362;21244,367;   -0,633;    4,227
823,926;20589,603;    0,094;    1,136
824,490;20836,384;   -0,997;   -0,682
825,054;21266,529;   -0,088;   -1,136
825,618;20872,856;   -1,542;   -1,500
826,181;20876,728;    0,458;   -1,318
826,745;20776,782;    1,367;   -1,045
827,309;21099,745;    1,185;    1,318
827,872;20420,981;    1,367;    0,955
828,436;21444,762;    1,185;   -0,773
828,999;21484,634;   -0,997;    1,227
829,563;20298,688;   -0,179;    1,136
830,126;20097,106;   -0,179;   -0,591
830,690;20168,342;   -1,997;    2,864
831,253;19672,123;   -0,543;    2,227
831,816;19801,086;   -1,906;    0,500
832,380;19724,867;    0,185;    0,864
832,943;19959,285;   -1,361;   -0,500
833,506;19434,703;    2,639;   -1,227
834,069;20232,938;    3,912;   -0,955
834,632;20257,265;    1,730;    1,318
835,195;20145,592;    1,003;    0,955
835,758;19308,009;   -0,997;    1,955
836,321;19200,518;    0,730;   -1,045
836,884;19321,481;   -0,725;   -0,955
837,447;19363,990;   -2,816;    1,773
838,010;19628,316;    0,366;    3,227
838,573;19933,825;   -1,179;    0,773
839,135;19877,697;   -1,361;   -0,955
839,698;19316,024;    1,275;    0,409
840,261;18850,350;    1,003;   -0,227
840,823;18707,677;   -0,543;    0,864
841,386;18968,913;   -0,452;   -2,409
841,948;18910,876;   -1,361;    1,773
842,511;18612,566;    0,912;    1,682
843,073;18784,075;    1,912;    0,227
843,636;18539,129;   -0,361;   -0,227
844,198;18505,455;    0,911;    0,591
844,760;18605,237;    1,093;    1,955
845,322;18228,654;    0,548;    1,136
845,885;18695,981;    0,730;    0,591
846,447;19139,853;   -1,998;    0,227
847,009;18726,634;    1,911;   -0,682
847,571;19048,688;    0,820;   -2,045
848,133;19132,288;   -1,089;   -1,864
848,695;18911,160;   -0,543;    1,409
849,257;18468,032;   -1,089;   -1,682
849,819;18653,177;   -0,998;   -0,409
850,381;18712,413;   -0,725;   -0,864
850,942;19097,012;    1,093;   -0,591
851,504;19071,157;    1,184;    0,227
852,066;19112,484;    1,275;   -1,591
852,628;18596,356;   -0,180;    1,955
853,189;18139,046;    1,638;    2,682
853,751;18267,282;   -0,907;    1,409
854,312;18086,063;   -0,453;   -1,682
854,874;18570,663;   -2,089;   -0,773
855,435;19075,535;   -0,907;   -1,682
855,997;19235,680;   -1,816;   -0,136
856,558;18539,734;    0,366;    1,773
857,119;18641,151;    0,820;    2,864
857,681;18348,387;    0,002;    0,318
858,242;18377,896;    1,911;   -2,136
858,803;18862,222;    0,456;   -0,773
859,364;19412,549;    0,184;   -4,773
859,925;18720,694;   -2,453;   -0,955
860,486;18543,021;   -0,453;   -0,955
861,047;18264,347;   -0,544;   -1,227
861,608;18105,492;   -1,089;   -0,773
862,169;18243,728;    0,638;   -0,045
862,730;18047,146;    0,456;    1,409
863,291;18320,927;   -0,635;   -0,500
863,852;18650,981;   -0,635;    1,955
864,412;18100,399;   -0,271;   -0,864
864,973;16711,634;   -0,089;    0,500
865,534;16556,143;   -1,726;    0,227
866,094;18059,651;    1,820;    0,227
866,655;17709,342;    1,274;    3,318
867,215;17950,305;    0,274;    0,136
867,776;17817,904;    0,547;   -0,136
868,336;17922,049;   -1,453;    0,136
868,897;17443,012;    2,638;    1,682
869,457;17164,794;    1,365;    0,318
870,017;17381,302;    0,547;   -1,227
870,578;17890,629;   -0,817;    0,773
871,138;17580,410;   -2,089;   -0,955
871,698;17143,737;   -0,817;   -1,318
872,258;17065,791;   -0,453;   -2,864
872,818;17428,754;    2,729;    0,045
873,378;17378,990;    0,638;    1,045
873,938;16878,498;    0,547;    0,500
874,498;17219,279;    0,274;   -1,955
875,058;17140,333;    2,183;    1,773
875,618;17005,024;    1,910;   -2,682
876,177;16906,805;    1,274;    0,136
876,737;16535,132;   -0,090;    1,955
877,297;16555,640;    0,183;    1,955
877,856;16530,512;   -0,362;    0,318
878,416;16503,748;    1,183;   -0,136
878,976;16748,711;   -1,817;    0,409
879,535;16934,765;    0,092;    3,136
880,095;16629,455;   -0,544;    0,045
880,654;16780,782;   -1,090;    1,318
881,213;16898,654;    2,456;    1,500
881,773;16540,890;    2,637;    2,682
882,332;16892,399;    3,365;    5,136
882,891;16714,725;    3,092;    2,136
883,451;17192,143;   -1,272;    1,682
884,010;16581,015;   -2,908;   -0,409
884,569;16724,069;   -0,999;   -0,045
885,128;16837,396;    2,819;   -1,864
885,687;16942,359;    4,455;    0,682
886,246;16630,504;    1,455;    2,136
886,805;16418,649;    2,455;    2,045
887,364;16664,066;   -0,999;   -0,500
887,922;16998,938;   -1,181;    0,045
888,481;16547,720;   -1,545;    0,591
889,040;16830,410;    1,183;    2,136
889,599;17530,100;    2,455;    1,409
890,157;17597,973;    1,455;    2,409
890,716;17256,754;   -0,090;    0,227
891,274;17026,171;    0,092;   -1,136
891,833;17502,953;    1,546;    0,864
892,391;17382,007;   -0,454;    0,500
892,950;17425,970;    1,819;   -0,773
893,508;17791,296;    0,455;   -0,409
894,067;17142,078;    0,637;    0,136
894,625;17049,404;   -0,636;   -1,500
895,183;17311,549;   -0,363;   -0,682
895,741;17179,512;    1,728;   -1,773
896,299;16991,294;   -0,545;   -2,409
896,858;17168,529;    0,819;   -1,591
897,416;17306,674;    2,728;   -1,318
897,974;17047,274;    1,819;    0,318
898,532;17253,328;    6,091;    2,682
899,089;17094,291;    2,091;   -0,682
899,647;17155,527;   -1,454;    1,318
900,205;16915,580;    1,182;    1,045
900,763;17096,089;   -0,454;    0,227
901,321;17045,688;    2,364;   -1,409
901,878;16532,197;   -1,000;   -0,773
902,436;16392,978;   -1,363;    1,318
902,994;16797,578;    4,728;    3,682
903,551;16233,086;    0,728;    0,409
904,109;16604,867;    0,182;   -1,409
904,666;16195,376;    2,455;    1,045
905,224;16002,339;    0,182;   -0,409
905,781;15752,938;    0,727;   -0,318
906,338;15803,992;   -1,363;    1,045
906,895;15752,410;    0,637;    2,045
907,453;15684,282;    1,727;    1,136
908,010;15762,336;   -0,909;    0,409
908,567;15408,299;    1,273;    0,591
909,124;14868,990;    0,364;   -1,500
909,681;14947,862;   -2,909;    0,682
910,238;15091,552;    0,636;   -1,318
910,795;15388,970;   -0,273;   -1,136
911,352;15009,424;   -2,909;   -2,682
911,909;14466,333;   -1,364;   -0,864
912,466;14966,606;   -3,182;    1,500
913,022;14492,970;   -1,636;    0,500
913,579;14869,606;   -0,909;    2,045
914,136;14560,606;    1,636;    0,955
914,692;14910,061;    0,091;   -1,227
915,249;14488,515;    1,455;    0,409
915,806;14744,424;    0,182;    1,955
916,362;14524,606;    1,909;    1,864
916,918;14068,788;    2,000;    1,045
917,475;14019,788;   -1,182;    0,955
918,031;14106,697;    3,364;   -0,045
918,587;13541,424;   -0,909;   -0,318
919,144;13729,697;   -2,273;    0,227
919,700;14084,424;    1,727;    0,773
920,256;13623,424;    0,727;    0,045
920,812;13245,879;   -0,727;   -1,045
921,368;13261,970;   -1,727;   -1,045
921,924;12889,970;    0,182;   -0,136
922,480;12486,515;   -0,545;    1,227
923,036;13105,788;    1,273;    1,955
923,592;13058,242;    0,455;    0,318
924,148;12944,333;    0,455;   -0,955
924,704;12245,333;   -1,364;   -0,409
925,259;12517,061;   -0,273;    0,591
925,815;12279,242;    1,455;    0,500
926,371;11792,970;    2,909;    1,409
926,926;11732,333;    2,091;    0,591
927,482;11337,788;   -1,364;    0,773
928,037;11209,424;    0,909;    2,045
928,593;11544,333;    1,636;    1,045
929,148;11339,152;   -1,818;   -1,500
929,704;10835,970;   -1,455;   -0,500
930,259;11050,333;    0,091;   -0,136
930,814;10126,788;   -0,818;    1,955
931,369; 9793,515;    1,091;   -0,773
931,925; 9665,242;   -0,091;    0,136
932,480; 9560,606;   -2,818;   -2,591
933,035; 9484,515;    0,545;   -0,318
933,590; 9276,788;    0,364;   -1,773
934,145; 8898,333;   -1,364;   -0,318
934,700; 9210,061;    0,455;   -0,591
935,255; 9014,606;   -0,091;    0,045
935,809; 8301,152;    3,182;    0,864
936,364; 7444,061;   -0,455;   -0,136
936,919; 7408,788;    0,455;   -1,773
937,474; 7283,697;    1,455;    0,136
938,028; 7050,061;   -1,636;    1,136
938,583; 6534,970;    1,818;    4,682
939,138; 6788,424;    2,091;    2,136
939,692; 6246,606;    1,636;   -1,136
940,247; 5951,788;   -0,727;   -1,045
940,801; 5511,061;   -0,636;    0,227
941,355; 5412,606;   -0,364;    2,591
941,910; 5042,606;   -0,273;   -2,136
942,464; 5144,242;   -0,818;   -0,318
943,018; 4944,879;    1,000;   -0,227
943,572; 4911,697;    2,545;   -0,682
944,126; 4350,788;    0,091;   -0,409
944,681; 4245,152;    3,091;    0,227
945,235; 4219,333;    1,000;   -0,591
945,789; 4162,152;    0,364;   -1,864
946,342; 4252,333;    0,455;   -0,591
946,896; 4071,424;   -2,273;    0,955
947,450; 3798,333;    1,545;   -0,227
948,004; 4013,061;    1,727;   -0,045
948,558; 4005,697;    0,273;   -0,864
949,111; 3950,970;   -0,273;   -0,318
949,665; 3994,424;    1,636;   -0,682
950,219; 3854,879;   -0,091;   -1,045
950,772; 3921,424;   -1,909;    1,864
951,326; 3810,697;    0,545;   -0,955
951,879; 3935,515;    0,727;   -2,318
952,433; 3931,697;    0,000;    2,227
952,986; 3773,606;    2,909;    0,682
953,539; 3753,788;   -0,273;    0,591
954,093; 3683,152;    0,545;   -1,318
954,646; 3821,970;    0,909;    1,318
955,199; 3630,879;    0,000;   -0,500
955,752; 3523,424;   -0,455;    1,773
956,305; 3473,788;   -0,091;    2,955
956,858; 3633,606;    0,818;   -0,318
957,411; 3794,970;   -0,545;    2,136
957,964; 3641,242;    1,364;    2,136
958,517; 3628,515;   -1,545;    3,136
959,070; 3453,242;   -0,455;    1,955
959,623; 3553,606;    1,091;    1,500
960,176; 3307,606;    1,727;    2,045
960,728; 3287,697;   -2,727;    0,773
961,281; 3347,515;    0,545;    0,500
961,834; 3401,061;   -0,909;    0,864
962,386; 3293,515;    1,727;    1,045
962,939; 3230,970;    0,364;   -0,318
963,491; 3375,152;    0,455;    1,136
964,043; 3246,152;    1,182;    2,409
964,596; 3391,152;   -1,000;    2,227
965,148; 3222,970;   -1,000;    1,773
965,700; 3118,333;    1,091;   -0,227
966,253; 3301,424;   -0,636;    0,318
966,805; 3112,879;   -2,273;    0,773
967,357; 3175,697;    1,091;   -1,500
967,909; 3148,697;    0,455;   -1,227
968,461; 3235,333;    0,545;    3,136
969,013; 3154,970;   -0,182;   -0,864
969,565; 3235,788;   -0,455;   -1,136
970,117; 3312,879;   -0,364;    1,045
970,669; 3130,970;    0,182;   -0,136
971,220; 2992,788;   -0,455;   -1,500
971,772; 2929,970;   -0,636;   -0,318
972,324; 3059,152;    0,091;   -0,500
972,876; 2989,788;    0,818;   -0,045
973,427; 3144,061;    1,909;   -1,045
973,979; 3096,242;   -0,727;   -2,500
974,530; 3118,970;    1,818;    1,318
975,082; 3126,879;   -0,545;    1,682
975,633; 3030,606;    1,091;    1,682
976,184; 3179,515;    0,909;    0,773
976,736; 2965,152;    0,091;    0,227
977,287; 2768,061;   -0,909;   -0,500
977,838; 2958,152;    0,909;   -0,318
978,389; 3017,788;   -1,000;   -0,500
978,940; 2874,788;    0,545;   -0,409
979,491; 2900,788;    0,091;   -0,500
980,042; 2858,606;    0,182;    3,045
980,593; 2921,515;   -2,545;    0,227
981,144; 2976,242;    2,545;   -0,500
981,695; 2940,333;    1,455;    1,500
982,246; 2895,333;   -0,273;    1,045
982,797; 3052,788;   -1,727;    0,682
983,347; 3173,061;    0,364;    0,591
983,898; 3339,152;    3,091;    0,409
984,449; 3162,061;    2,182;    0,773
984,999; 3064,424;    1,455;   -1,136
985,550; 2839,515;    0,182;   -0,318
986,100; 2875,970;   -0,455;   -0,318
986,651; 2902,697;   -0,818;    0,045
987,201; 2878,242;   -1,000;   -0,591
987,751; 2953,242;    0,818;    2,864
988,302; 2937,061;    2,636;    1,500
988,852; 2989,424;    0,455;   -1,136
989,402; 3024,697;    0,091;    0,682
989,952; 2935,424;   -2,182;    0,864
990,502; 3022,424;   -0,091;    0,682
991,052; 2973,424;   -0,727;    0,045
991,602; 2837,333;   -2,909;    1,318
992,152; 2844,333;    0,455;    0,682
992,702; 2827,061;    1,364;   -0,045
993,252; 2767,061;   -3,000;   -0,500
993,802; 2868,242;   -0,273;    1,318
994,352; 3078,333;   -1,545;    1,136
994,901; 3165,152;   -0,182;    3,227
995,451; 3076,970;   -0,182;    0,318
996,000; 3171,879;    1,636;    0,318
996,550; 2886,970;    2,273;    0,227
997,100; 2874,879;    1,273;   -0,045
997,649; 3166,152;    2,182;    0,955
998,198; 2804,697;    1,727;   -1,500
998,748; 3003,515;    1,091;   -2,318
999,297; 2891,970;   -0,818;   -0,409
999,846; 2962,970;    1,000;   -0,773
1000,395; 3012,515;   -0,818;    0,500
1000,945; 2975,970;    1,818;   -0,773
1001,494; 3075,515;    2,364;    0,682
1002,043; 3053,606;    4,636;    0,864
1002,592; 2882,606;   -1,091;    1,955
1003,141; 3016,879;   -0,455;   -0,682
1003,690; 2883,424;    1,727;    0,500
1004,238; 2986,606;    1,455;   -0,045
1004,787; 2612,788;    1,364;    1,227
1005,336; 2866,061;    0,364;    0,682
1005,885; 3001,515;    1,364;   -2,773
1006,433; 3120,242;    0,545;    0,955
1006,982; 3182,424;    0,455;    1,682
1007,531; 3092,788;   -1,818;   -0,227
1008,079; 3041,333;   -2,273;    0,500
1008,627; 3173,333;   -1,455;    0,409
1009,176; 2918,788;    0,000;   -1,955
1009,724; 2960,788;    1,091;    0,864
1010,273; 3015,061;    1,273;    0,500
1010,821; 3117,515;    0,091;    1,409
1011,369; 2852,242;   -1,364;    1,318
1011,917; 2836,515;   -1,364;   -0,591
1012,465; 3124,424;    1,273;   -1,591
1013,013; 3232,242;    2,091;   -1,682
1013,561; 3125,970;    0,455;   -0,773
1014,109; 3184,606;   -1,909;    1,682
1014,657; 3037,970;    0,364;    0,591
1015,205; 3157,697;    1,636;   -0,955
1015,753; 3203,242;   -0,545;   -1,409
1016,301; 3250,061;   -2,636;    3,045
1016,848; 3247,333;   -1,273;    0,409
1017,396; 3292,333;    2,545;    0,045
1017,944; 3414,970;    1,182;    1,864
1018,491; 3168,788;    0,273;    1,409
1019,039; 3310,061;    0,455;    0,591
1019,586; 3195,333;   -1,364;    1,682
1020,134; 3301,333;    0,455;    1,500
1020,681; 3337,061;    0,182;   -1,136
1021,228; 3345,879;    2,909;   -2,227
1021,776; 3154,152;    1,182;   -1,136
1022,323; 3384,333;    0,455;    0,773
1022,870; 3323,970;   -1,000;   -0,045
1023,417; 3220,061;    2,636;    1,864
1023,964; 3370,061;    2,636;    1,227
1024,511; 3200,424;    1,000;    0,773
1025,058; 3010,515;    3,182;   -0,045
1025,605; 3044,152;   -2,273;    3,136
1026,152; 3287,333;    1,727;   -0,591
1026,699; 3007,242;    1,818;    1,318
1027,245; 3166,697;   -0,091;    0,318
1027,792; 3366,879;   -1,000;    1,409
1028,339; 3267,788;    2,364;   -0,045
1028,885; 3107,697;    1,000;   -0,227
1029,432; 3032,879;   -0,091;    0,227
1029,978; 3122,242;   -1,000;   -1,591
1030,525; 3017,515;    1,000;    0,409
1031,071; 3240,242;   -1,364;    1,136
1031,618; 3359,333;    0,364;    1,682
1032,164; 3150,879;   -0,091;    3,045
1032,710; 3202,879;    1,636;   -1,500
1033,256; 3129,515;   -0,636;   -0,136
1033,803; 3091,515;   -0,545;    1,500
1034,349; 2803,697;   -1,364;    0,136
1034,895; 2956,242;    0,000;   -0,318
1035,441; 2935,879;   -0,818;    0,318
1035,987; 2957,515;   -2,364;   -0,682
1036,533; 2953,424;   -1,455;   -0,955
1037,078; 3157,970;    1,455;    1,682
1037,624; 2969,697;    2,455;   -0,955
1038,170; 2998,879;    0,455;   -0,318
1038,716; 2899,970;    1,636;   -0,409
1039,261; 2800,515;   -2,273;   -0,773
1039,807; 2744,242;   -0,091;    3,409
1040,352; 2816,606;   -1,909;   -0,318
1040,898; 2867,697;   -1,545;   -0,682
1041,443; 2764,606;   -1,455;   -2,591
1041,989; 2798,970;    1,091;    1,591
1042,534; 2664,333;   -0,364;    2,591
1043,079; 2766,697;    2,909;    0,955
1043,625; 2585,970;    1,818;    0,500
1044,170; 2641,788;   -1,364;    1,045
1044,715; 2885,970;    2,455;    0,955
1045,260; 2692,879;    2,182;   -0,955
1045,805; 2737,788;    1,182;   -0,591
1046,350; 2661,788;    1,364;   -0,409
1046,895; 2642,606;    2,909;    1,591
1047,440; 2590,970;    5,364;    0,409
1047,985; 2480,242;    2,818;   -0,955
1048,530; 2400,606;    1,545;    1,227
1049,074; 2477,606;    0,000;    0,318
1049,619; 2444,788;   -1,364;    1,955
1050,164; 2240,515;    0,455;    0,227
1050,708; 2294,879;   -0,455;    0,045
1051,253; 2663,333;    1,273;   -2,227
1051,797; 2375,152;    0,818;   -1,318
1052,342; 2366,879;   -1,182;    1,045
1052,886; 2380,788;    0,364;   -1,409
1053,430; 2265,061;   -1,364;    0,136
1053,975; 2270,424;   -0,818;   -0,318
1054,519; 2254,515;   -0,727;    3,227
1055,063; 2271,333;    0,909;    1,318
1055,607; 2142,152;   -0,182;    0,227
1056,151; 2187,242;    2,909;    1,682
1056,695; 2083,606;    2,273;   -1,136
1057,239; 2158,788;   -1,727;   -0,682
1057,783; 2178,788;    0,818;   -1,500
1058,327; 2125,970;    0,000;    1,409
1058,871; 2361,333;   -0,545;    1,318
1059,415; 2055,515;   -0,818;   -0,045
1059,958; 2332,152;    1,455;    2,591
1060,502; 2051,515;   -1,000;   -0,773
1061,046; 1950,970;    0,364;   -0,955
1061,589; 1932,515;   -3,000;   -1,136
1062,133; 1803,788;   -1,273;    1,864
1062,676; 1754,879;    1,182;    0,864
1063,220; 1751,333;    1,091;    0,500
1063,763; 1784,970;    0,909;    1,136
1064,306; 1875,061;   -0,909;    1,864
1064,849; 1751,970;   -0,909;    0,591
1065,393; 1752,242;    2,000;   -1,500
1065,936; 1866,152;    0,182;   -0,409
1066,479; 1743,970;   -1,455;    1,318
1067,022; 1759,333;   -0,273;   -0,227
1067,565; 1668,333;   -0,091;   -1,318
1068,108; 1698,152;    0,727;   -0,591
1068,651; 1661,606;   -0,636;    1,409
1069,194; 1597,061;   -0,455;   -1,682
1069,736; 1595,879;   -1,273;    0,955
1070,279; 1569,333;   -1,364;   -0,500
1070,822; 1638,879;   -2,000;   -0,318
1071,364; 1733,061;   -0,364;    1,318
1071,907; 1541,333;   -0,727;    3,227
1072,450; 1433,424;    0,000;   -0,045
1072,992; 1437,424;   -0,273;    3,136
1073,535; 1589,242;    2,091;    2,136
1074,077; 1372,424;   -0,727;    2,045
1074,619; 1332,152;   -1,364;    0,591
1075,161; 1369,970;   -1,091;    1,500
1075,704; 1552,970;    1,545;    1,227
1076,246; 1352,970;   -0,182;    0,682
1076,788; 1274,606;   -0,364;    1,773
1077,330; 1345,788;    1,273;    2,136
1077,872; 1323,879;    0,909;    0,955
1078,414; 1558,061;    2,727;    0,773
1078,956; 1285,697;    1,273;   -0,227
1079,498; 1546,242;    1,636;    0,318
1080,040; 1255,333;    1,909;   -1,318
1080,581; 1195,970;    1,636;   -0,318
1081,123; 1119,333;    0,091;   -0,773
1081,665; 1176,152;   -1,182;   -0,955
1082,206; 1461,697;    1,364;   -0,500
1082,748; 1318,970;    0,727;    2,045
1083,289; 1200,061;   -2,000;    1,318
1083,831; 1101,333;   -0,545;    0,227
1084,372; 1149,788;    0,000;    0,591
1084,913; 1146,061;    1,091;    0,864
1085,455; 1109,970;   -1,909;   -2,045
1085,996; 1088,152;   -2,273;    0,136
1086,537; 1101,515;   -0,091;    0,864
1087,078; 1127,515;   -0,909;   -2,136
1087,619; 1183,242;   -1,273;    0,227
1088,160; 1096,242;    0,000;    1,318
1088,701; 1091,424;   -1,091;    0,682
1089,242; 1029,061;    1,364;   -2,227
1089,783; 1133,424;   -0,273;    1,409
1090,324; 1098,788;    0,455;    0,682
1090,865;  972,152;    2,727;   -0,409
1091,405;  923,152;    0,727;    2,227
1091,946;  960,606;    0,182;   -0,955
1092,487;  879,333;    0,818;   -1,409
1093,027; 1057,061;   -1,364;   -1,500
1093,568;  917,242;   -0,364;    1,227
1094,108; 1023,879;    0,273;    1,773
1094,649;  961,424;   -1,182;    0,136
1095,189;  883,970;   -0,636;   -0,682
1095,729;  840,515;   -0,091;    0,955
1096,269;  827,788;    0,727;   -0,955
1096,810; 1151,879;   -1,364;    0,500
1097,350;  987,424;    1,364;   -0,773
1097,890;  893,152;    0,364;    1,227
1098,430; 1144,606;    2,364;    2,864
1098,970; 1027,788;    2,182;    1,682
1099,510;  868,152;    0,545;   -2,318
1100,050;  794,879;    1,000;   -1,591
1100,589;  765,061;   -0,727;   -0,318
1101,129;  896,242;    0,818;   -0,955
1101,669; 1064,152;    1,727;    2,136
1102,209;  877,424;   -0,091;    2,227
1102,748;  820,333;    0,000;    0,955
1103,288;  820,061;    1,273;   -1,227
1103,827;  841,697;    3,091;   -2,227
1104,367;  714,879;   -0,091;   -2,409
1104,906;  684,788;    1,364;   -1,136
1105,445;  754,152;    0,636;   -1,136
1105,985;  702,061;   -0,727;    1,500
1106,524;  747,152;   -1,727;   -0,682
1107,063;  723,515;   -2,727;    1,409
1107,602;  701,242;   -1,909;   -1,500
1108,141;  620,424;   -1,909;    1,500
1108,680;  728,242;   -3,455;   -0,591
1109,219;  667,697;   -0,909;   -0,500
1109,758;  655,061;    0,455;    0,682
1110,297;  624,061;    1,000;   -0,682
1110,836;  583,879;   -0,727;    0,955
1111,375;  748,424;   -2,545;    0,409
1111,913;  759,152;   -1,000;    0,773
1112,452;  695,333;   -0,273;    0,136
1112,991;  573,697;    1,091;    1,955
1113,529;  535,970;   -0,818;   -0,045
1114,068;  614,333;   -0,273;    2,955
1114,606;  503,970;   -0,364;   -0,955
1115,144;  680,788;   -1,273;    1,045
1115,683;  614,606;   -0,727;    0,318
1116,221;  652,697;   -0,455;   -0,864
1116,759;  560,970;    0,636;   -0,864
1117,297;  775,606;    0,000;    1,864
1117,836;  560,697;   -2,182;   -1,227
1118,374;  578,970;    0,182;   -0,682
1118,912;  518,424;    0,909;    2,682
1119,450;  513,879;    1,000;    0,864
1119,988;  566,333;    1,545;    2,136
1120,525; 1033,788;    5,091;    3,318
1121,063;  719,879;    1,182;    1,864
1121,601;  533,788;   -0,909;   -1,227
1122,139;  480,242;   -0,727;   -2,045
1122,676;  682,333;   -0,727;    2,773
1123,214;  615,697;   -1,182;    4,409
1123,751;  415,242;    1,727;    2,227
1124,289;  560,970;   -0,091;   -0,409
1124,826;  420,606;    1,727;    0,227
1125,364;  341,515;    1,727;   -0,955
1125,901;  538,424;    1,182;    1,227
1126,438;  661,879;    0,818;    0,955
1126,975;  374,788;   -0,727;   -0,773
1127,513;  453,970;    0,273;    2,136
1128,050;  352,242;    1,636;   -0,682
1128,587;  457,424;    2,000;   -0,227
1129,124;  491,606;    0,091;    1,318
1129,661;  349,697;    0,273;    0,227
1130,198;  527,515;    1,636;    0,773
1130,734;  469,879;    0,182;    1,409
1131,271;  326,788;   -0,909;    0,864
1131,808;  499,515;    2,909;    3,045
1132,345;  366,061;    1,545;    0,318
1132,881;  238,061;   -1,545;   -1,864
1133,418;  387,152;    0,727;   -1,136
1133,954;  318,424;    2,455;   -2,682
1134,491;  397,879;    1,364;   -0,773
1135,027;  295,970;    2,364;    0,864
1135,564;  384,788;    0,273;    2,955
1136,100;  372,424;    0,364;    2,136
1136,636;  265,061;   -1,273;   -1,045
1137,172;  357,242;    0,000;   -1,045
1137,708;  279,697;   -1,364;   -1,045
1138,245;  281,879;    1,273;   -1,227
1138,781;  221,606;    1,091;   -3,318
1139,317;  302,061;    1,273;   -1,409
1139,852;  291,515;    3,091;    0,136
1140,388;  410,970;   -1,182;   -0,409
1140,924;  291,061;   -1,091;   -2,227
1141,460;  228,970;   -1,636;    0,136
1141,996;  163,515;   -1,364;    2,682
1142,531;  205,606;    1,364;    3,318
1143,067;  437,515;    1,182;    1,045
1143,602;  494,970;   -0,091;   -0,318
1144,138;  340,697;   -2,636;    1,045
1144,673;  190,242;   -1,455;    1,409
1145,209;  265,697;   -1,909;   -0,318
1145,744;  183,879;   -0,727;    0,864
1146,279;  327,879;    1,818;   -0,136
1146,815;  242,061;    1,545;   -2,682
1147,350;  277,697;   -1,364;    0,045
1147,885;  188,242;   -0,818;   -1,318
1148,420;  182,152;   -2,273;    0,773
1148,955;  166,515;   -1,727;    1,864
1149,490;  199,606;   -0,909;   -1,591
1150,025;  173,333;    0,455;   -1,773
1150,560;  296,061;    1,091;   -0,955
1151,094;  261,152;    1,455;   -0,591
1151,629;  263,606;    1,636;    0,864
1152,164;  188,333;    1,364;    1,318
1152,698;  143,061;   -0,182;   -0,136
1153,233;  100,879;    0,091;   -0,682
1153,767;  148,788;   -3,000;   -2,318
1154,302;  203,061;   -1,455;    1,773
1154,836;  203,424;   -0,455;   -2,136
1155,371;  254,606;   -1,364;    3,682
1155,905;  212,424;   -0,636;    1,682
1156,439;  175,788;   -0,636;   -0,500
1156,973;  206,424;    0,364;    0,318
1157,507;  142,515;   -0,364;    0,682
1158,042;  174,970;   -0,727;    1,045
1158,576;  223,879;    0,182;    1,773
1159,110;  217,788;   -0,818;    2,409
1159,643;  186,788;    0,636;   -0,045
1160,177;  116,515;   -1,545;    1,500

