
Integration time [ms]:   0,040
Averaging Nr. [scans]: 11
Smoothing Nr. [pixels]: 0
Data measured with spectrometer [name]: 7318044SP
Wave   ;Sample   ;Dark     ;Reference
[nm]   ;[counts] ;[counts] ;[counts] 

186,757;    8,955;   31,551;    1,318
187,357;   30,174;   22,551;    0,955
187,958;   13,610;   15,460;   -1,591
188,558;   44,403;    8,915;   -1,227
189,159;   19,729;    6,733;   -4,500
189,759;   -8,305;    7,278;   -3,591
190,360;   -8,017;    2,824;   -2,136
190,960;   22,024;    2,915;   -4,136
191,560;   33,566;    3,189;   -6,591
192,161;  250,048;    4,372;   -3,500
192,761;  102,627;    4,010;   -3,227
193,361;   43,235;    1,556;   -3,773
193,962;   88,339;    2,010;   -2,682
194,562;   15,810;    1,189;   -3,955
195,162;   23,572;   -2,448;   -2,227
195,762;  143,698;   -3,176;   -0,045
196,362;   93,735;    1,370;   -2,500
196,963;   -3,907;    2,006;   -0,864
197,563;   52,406;    1,551;   -0,955
198,163;    7,638;    0,096;   -0,682
198,763;   10,798;    1,733;   -0,500
199,363;   64,685;    3,096;   -0,500
199,963;   36,877;    0,369;    0,409
200,563;   21,222;    2,823;   -1,409
201,163;    2,121;    3,277;   -0,227
201,763;   35,196;    3,732;    0,318
202,363;    4,375;    1,459;    1,500
202,963;   39,397;    1,459;    1,045
203,563;   89,121;    0,277;    0,500
204,162;   25,861;    2,096;   -1,864
204,762;   12,451;    0,550;    0,591
205,362;   -6,180;    3,004;    1,955
205,962;   16,300;    3,096;    1,955
206,562;   10,005;    1,823;    2,318
207,161;    6,090;   -0,087;    0,318
207,761;   77,764;    1,277;    2,409
208,361;    8,231;   -0,268;    1,409
208,960;   34,598;    0,459;    1,500
209,560;   20,278;    1,277;    1,591
210,160;   37,325;    0,550;    1,864
210,759;   17,598;    4,186;    1,227
211,359;    9,598;    1,459;    1,045
211,958;  105,425;    1,277;    2,045
212,558;  112,225;    1,732;    1,864
213,157;   38,811;    1,822;    1,500
213,757;  184,889;    3,822;   -0,227
214,356;   65,598;    1,277;   -0,409
214,956;  167,021;    3,095;    0,409
215,555;   49,542;    2,095;    2,136
216,154;    4,755;   -2,723;   -0,591
216,754;    6,748;    0,277;    0,773
217,353;   24,015;   -0,268;   -1,045
217,952;  -17,606;   -0,178;    0,318
218,552;   45,761;    1,368;   -0,773
219,151;   12,739;    0,277;    0,955
219,750;   -1,139;    0,004;   -0,227
220,349;   -5,800;   -0,451;    1,045
220,948;   60,426;   -1,360;    1,136
221,548;    5,924;    0,913;    1,227
222,147;    7,940;   -0,087;   -0,409
222,746;   90,871;   -0,451;   -0,955
223,345;   36,523;    0,731;    0,500
223,944;   28,068;   -0,451;    0,773
224,543;   33,755;    1,004;   -1,409
225,142;   23,282;    0,094;    0,136
225,741;   30,695;   -0,814;    1,045
226,340;   24,015;   -0,451;   -0,955
226,939;   70,024;   -0,996;   -0,136
227,538;    8,990;   -0,360;   -0,773
228,137;   78,513;   -0,814;    0,864
228,735;   40,783;   -0,541;    1,227
229,334;  -16,405;   -0,905;   -0,227
229,933;   80,209;    0,459;    0,591
230,532;   70,353;    1,186;   -0,409
231,131;  121,087;    1,732;    0,318
231,729;   52,557;   -2,450;   -2,318
232,328;   11,516;   -0,723;   -1,500
232,927;   24,037;    1,004;   -0,500
233,525;   16,018;    3,640;    0,045
234,124;   38,413;    2,368;   -1,591
234,723;   -0,198;    0,913;   -1,045
235,321;   -4,816;    2,277;    0,136
235,920;    4,924;    1,186;   -1,227
236,518;   73,579;    3,459;    0,318
237,117;    9,078;    0,004;   -0,227
237,715;   25,930;    0,640;   -0,500
238,314;   24,181;   -0,087;   -2,318
238,912;   79,303;   -0,723;   -1,409
239,510;   41,745;    0,459;   -1,227
240,109;   96,861;    0,004;    3,773
240,707;   70,936;   -0,996;    1,227
241,305;    1,717;    0,550;    0,136
241,904;   36,626;   -0,178;   -2,045
242,502;   95,090;   -0,632;   -0,227
243,100;   44,651;   -0,087;   -0,955
243,698;    0,958;    0,732;    1,682
244,297;   25,507;   -0,632;    0,682
244,895;   19,632;   -0,269;   -2,318
245,493;   94,269;    2,186;   -0,591
246,091;  102,861;    1,368;   -1,318
246,689;   47,676;    1,004;    0,591
247,287;   44,278;    0,822;   -1,136
247,885;   31,068;   -1,451;    1,227
248,483;   14,062;    1,822;   -0,500
249,081;   53,551;    0,185;    1,591
249,679;   60,115;   -0,178;    1,682
250,277;    9,864;   -1,723;    0,864
250,875;   46,473;   -1,087;   -1,045
251,473;   13,567;   -1,178;    0,500
252,071;   62,244;    1,459;    1,045
252,669;   21,523;   -1,814;    0,318
253,267;    3,357;   -0,087;    0,773
253,864;   18,824;   -0,360;    0,682
254,462;   81,604;    1,640;    1,591
255,060;   11,498;   -0,269;    1,318
255,658;    2,705;    0,822;   -0,136
256,255;   14,639;    0,186;   -2,045
256,853;   40,886;   -0,269;    1,409
257,451;   15,444;    0,822;    1,864
258,048;  188,883;    1,822;    1,864
258,646;   76,147;    1,731;   -1,045
259,243;  108,614;   -0,087;    2,227
259,841;   57,222;   -0,814;    0,318
260,438;    8,858;   -0,087;    0,864
261,036;   47,178;   -1,905;    1,409
261,633;    8,711;   -0,087;    2,227
262,231;  -10,364;    2,731;   -0,045
262,828;  -24,117;   -0,905;    1,136
263,425;   -2,032;    0,913;   -0,591
264,023;    5,770;    0,186;    0,045
264,620;   50,595;   -0,360;   -0,318
265,217;  101,799;   -2,087;    3,136
265,815;   22,908;   -1,905;    2,136
266,412;   56,259;    0,731;    0,136
267,009;   41,714;   -1,451;    0,773
267,606;   72,510;    0,822;   -0,955
268,203;   28,676;   -0,269;   -0,591
268,801;   24,824;    1,731;    0,591
269,398;   -3,618;   -0,360;    2,500
269,995;   37,065;    0,277;    1,591
270,592;   17,535;   -0,632;   -0,500
271,189;  -10,496;    0,186;    0,409
271,786;  -13,816;   -0,632;    1,227
272,383;   59,639;   -1,087;    0,227
272,980;   13,053;    0,277;    0,318
273,577;   -9,502;    0,004;    1,227
274,174;   -4,095;    0,822;    2,591
274,771;   49,796;   -0,814;   -0,773
275,367;  210,404;    2,277;    1,409
275,964;   96,868;    0,731;   -0,500
276,561;   21,259;    1,549;   -1,045
277,158;  -11,703;    0,095;   -1,773
277,755;   82,097;    2,185;    0,409
278,351;   45,962;   -0,451;   -1,500
278,948;   55,335;   -0,815;    0,045
279,545;   34,328;   -1,360;    2,318
280,141;   84,523;   -1,723;   -2,045
280,738;   93,153;   -0,451;   -0,136
281,334;   27,654;   -1,633;    0,591
281,931;   13,272;   -0,087;   -1,318
282,528;   54,197;    0,822;   -0,500
283,124;   78,150;   -1,087;   -0,500
283,721;   76,896;   -0,451;    1,409
284,317;   25,974;    0,185;    2,500
284,913;   87,962;   -1,360;    0,591
285,510;  147,962;    0,640;   -0,318
286,106;   89,162;   -2,269;   -0,955
286,703;   39,203;   -0,360;    1,955
287,299;   15,585;   -1,451;   -0,591
287,895;   13,172;    0,822;   -1,045
288,491;    4,473;    0,186;    2,136
289,088;   35,924;   -2,360;    2,409
289,684;   45,159;   -1,723;    1,500
290,280;  110,422;    0,368;    0,682
290,876;   85,833;    1,822;    5,500
291,472;   57,692;    1,276;    2,227
292,068;   64,169;    1,367;    0,227
292,665;   26,404;    2,095;    0,773
293,261;   -2,035;    0,276;    2,136
293,857;   65,598;    2,913;    2,136
294,453;   28,024;    3,550;    0,955
295,049;  108,369;   -0,268;    1,955
295,644;   53,516;    0,095;    0,136
296,240;    1,159;   -0,905;   -0,136
296,836;   39,181;   -0,995;    0,318
297,432;   72,156;    1,096;   -0,500
298,028;   77,582;    0,732;    0,773
298,624;   39,827;    1,459;    1,864
299,220;   29,131;    2,368;    0,591
299,815;   26,140;    1,005;   -0,409
300,411;   62,914;    0,914;    1,773
301,007;   92,300;    1,368;    0,227
301,602;   21,247;   -0,541;   -2,318
302,198;   83,632;    0,732;   -0,773
302,794;   37,454;    1,187;   -0,500
303,389;   -1,992;   -1,177;    1,045
303,985;   12,896;    0,550;    1,409
304,580;   68,541;    1,459;    1,591
305,176;   19,519;   -3,086;    0,136
305,771;  -28,694;   -1,268;   -1,227
306,367;  143,297;    4,095;    0,136
306,962;   49,701;    0,641;    1,500
307,558;   73,184;   -0,450;    0,136
308,153;   55,886;    1,095;   -1,136
308,748;    0,382;   -0,814;    1,682
309,344;  137,783;   -0,632;   -1,318
309,939;  123,695;   -1,905;   -1,318
310,534;   23,830;   -0,086;   -1,682
311,130;   17,356;    0,459;   -2,500
311,725;    5,472;    1,004;   -0,500
312,320;   21,313;    2,459;    0,045
312,915;   51,197;    1,459;   -1,045
313,510;  141,689;    1,550;   -0,500
314,105;   30,949;    1,096;    1,409
314,700;   -5,117;   -3,086;   -1,045
315,295;   19,905;   -0,904;    0,045
315,890;    7,877;    1,277;    0,864
316,485;   40,115;   -0,359;   -0,318
317,080;    4,162;   -3,086;    1,591
317,675;  131,588;    2,005;   -0,682
318,270;  237,284;    5,550;    3,318
318,865;  161,463;    3,278;    3,045
319,460;   94,670;   -0,904;    0,591
320,055;   23,131;   -0,541;   -1,227
320,650;   24,902;   -1,995;   -0,591
321,244;   20,783;   -0,177;   -1,409
321,839;   14,802;   -1,541;   -0,227
322,434;   34,494;   -1,086;   -1,591
323,029;    9,877;    1,732;    1,591
323,623;    1,382;    1,550;    0,773
324,218;   96,764;    2,368;    1,409
324,812;   59,729;    1,096;    1,591
325,407;   49,215;   -0,814;    2,045
326,002;  119,645;    0,277;   -0,409
326,596;   86,328;    0,914;    1,318
327,191;   15,266;    0,823;   -1,045
327,785;   25,237;   -0,813;   -0,227
328,379;    7,479;    1,368;    0,136
328,974;   26,601;    0,914;   -3,955
329,568;   45,218;    0,186;   -2,409
330,163;   87,460;    2,096;    1,045
330,757;   21,639;    2,459;    1,591
331,351;   -6,001;    0,459;    0,682
331,945;    0,087;    0,914;    1,409
332,540;   38,457;   -1,723;   -0,591
333,134;   33,159;   -1,086;    0,773
333,728;   45,789;    0,005;    0,318
334,322;    1,413;   -1,177;   -0,864
334,916;    6,344;    0,277;    0,955
335,510;   68,933;   -0,450;   -0,136
336,105;   51,993;   -1,086;    1,591
336,699;    5,557;   -1,086;    0,591
337,293;   27,397;   -1,723;    0,318
337,887;    4,071;   -2,723;    1,955
338,481;   57,394;    0,459;    0,591
339,074;  102,432;   -0,359;    2,682
339,668;   84,112;   -1,632;    1,227
340,262;  352,830;    1,732;    3,227
340,856;  149,526;    1,822;   -0,682
341,450;   29,795;    1,004;    1,864
342,044;   52,579;    1,459;    0,136
342,637;   86,861;    0,913;   -2,136
343,231;   38,871;   -2,360;    0,682
343,825;   25,372;   -1,086;   -0,591
344,419;   31,833;   -1,995;    0,500
345,012;  274,472;    2,459;    4,045
345,606;  178,604;    4,641;    1,591
346,199;   39,504;   -1,813;   -0,227
346,793;   79,729;    1,914;    2,045
347,386;   17,604;   -0,813;   -1,136
347,980;  -16,186;   -0,268;   -0,045
348,573;   14,278;    2,278;    0,409
349,167;  196,917;    5,278;    4,773
349,760;   92,955;    2,914;    2,682
350,354;   73,384;   -0,813;    1,136
350,947;   86,572;    1,096;    1,682
351,540;   45,143;   -0,358;   -1,409
352,134;   -2,559;    1,096;    1,136
352,727;    0,980;   -0,086;    1,136
353,320;    7,488;    0,005;    0,591
353,913;  -24,462;   -1,995;    1,864
354,507;   68,190;    0,823;   -1,227
355,100;   16,080;    0,460;    0,864
355,693;  243,964;    2,005;    2,409
356,286;  105,983;    0,823;    2,773
356,879;   31,143;   -0,722;    1,227
357,472;   48,093;   -0,904;    1,500
358,065;   50,739;   -0,722;    2,500
358,658;  -10,769;   -0,540;    2,318
359,251;  -15,127;   -1,631;   -0,591
359,844;   70,638;   -1,904;   -1,136
360,437;   92,964;   -2,995;    0,045
361,030;   18,115;    1,369;   -0,682
361,623;   32,971;    2,824;    0,318
362,215;  146,851;   -0,086;    2,045
362,808;   56,598;   -2,358;   -1,682
363,401;   21,005;   -2,449;    0,136
363,994;  139,400;   -0,631;   -1,500
364,586;   38,522;    0,824;   -1,500
365,179;   13,315;   -0,449;   -1,136
365,772;  -26,866;   -1,995;    2,045
366,364;   25,560;    1,915;   -3,227
366,957;   33,415;    2,279;   -0,045
367,549;   21,955;    2,188;   -0,864
368,142;   40,422;    1,825;   -1,500
368,734;    6,842;    0,734;   -2,136
369,327;  -20,036;    1,643;   -0,500
369,919;    3,102;   -1,538;    0,409
370,512;   13,528;   -1,083;   -0,500
371,104;  207,408;   -0,901;    1,591
371,696;  219,574;    1,191;   -0,955
372,289;  113,164;    0,373;    1,136
372,881;   78,596;   -2,080;    1,318
373,473;    4,395;   -2,170;    1,136
374,066;   75,031;   -0,169;    0,500
374,658;   54,952;    0,378;    1,136
375,250;   -0,456;    0,653;   -1,409
375,842;   37,136;    0,473;   -0,045
376,434;   -7,322;   -0,435;   -0,409
377,026;  -28,702;    0,204;   -2,500
377,618;   20,802;   -0,158;   -0,682
378,210;  -49,967;   -0,338;   -1,955
378,802;  -63,133;    0,754;   -0,591
379,394;  318,851;    1,846;    0,682
379,986;   69,148;    1,393;   -0,955
380,578;  -22,335;   -0,153;    0,773
381,170;  232,455;   -0,972;    0,045
381,762;  132,042;    0,755;    1,409
382,354;  100,886;   -0,065;   -1,318
382,945;   28,952;   -2,976;    0,318
383,537;  -14,132;   -2,705;   -1,955
384,129;  -25,169;   -2,160;   -1,136
384,721;   96,433;   -0,252;    0,955
385,312;   34,496;   -0,161;   -0,955
385,904;  107,097;   -2,706;    1,591
386,496;   44,172;   -0,979;    1,045
387,087;  164,254;    1,022;    2,500
387,679;   92,890;   -1,160;    0,045
388,270;   67,091;    2,840;    2,045
388,862;   38,263;    1,295;   -0,318
389,453;   28,686;   -0,887;    1,045
390,045;   35,473;   -0,705;   -2,682
390,636;  -66,643;    0,204;   -0,591
391,227;   -2,082;   -0,523;   -0,045
391,819;  -32,483;    0,204;    0,773
392,410;  204,652;    1,022;    0,045
393,001;   31,179;   -0,979;   -1,591
393,593;   84,257;    1,930;   -0,045
394,184;  127,276;    1,385;   -0,409
394,775;   23,038;    1,839;    2,136
395,366;  -61,925;    1,385;    0,773
395,957;  101,690;    0,113;    0,136
396,548;    5,589;   -0,342;    2,682
397,139;  116,827;   -2,433;    0,591
397,730;   40,038;   -1,888;    0,955
398,321;   39,295;   -1,252;    0,955
398,912;   -4,558;   -0,615;    0,136
399,503;  -12,533;   -3,524;   -1,409
400,094;   36,003;    0,294;    1,682
400,685;   26,859;   -0,433;    0,045
401,276;  -18,257;    0,930;   -0,955
401,867;  -42,470;   -0,888;    0,773
402,458;  -81,840;   -2,251;   -2,318
403,048;   60,552;    1,112;    0,591
403,639;    9,364;    0,840;    0,864
404,230;  105,499;    2,476;    0,318
404,821;  152,104;   -0,615;    0,045
405,411;   63,282;    1,203;   -2,591
406,002;  -14,411;   -1,252;   -1,136
406,592;  200,668;    2,294;    0,045
407,183;   69,439;    0,566;   -1,500
407,774;   51,822;    3,475;   -0,136
408,364;    5,762;    0,930;    0,409
408,954;  121,129;    0,384;    1,227
409,545;  120,756;    1,021;    1,045
410,135;   82,753;    1,293;    0,500
410,726;   30,395;    1,838;    0,318
411,316;  210,978;    0,111;    0,773
411,906;   61,806;   -0,253;   -0,409
412,497;   66,812;   -1,070;   -0,045
413,087;    8,154;   -1,980;   -0,227
413,677;  -48,210;   -0,707;    3,864
414,267;  -54,072;    0,656;    1,409
414,857;  -70,144;   -2,980;    4,227
415,448;  -74,981;    0,839;    0,500
416,038;  -36,661;    0,020;   -0,591
416,628;    5,145;   -0,889;    0,409
417,218;   46,884;    0,565;    3,318
417,808;  201,267;    0,202;   -0,409
418,398;   87,120;    0,020;    2,682
418,988;  -27,623;    2,020;    0,591
419,578;   63,505;   -0,707;    1,409
420,168;  -10,824;   -1,343;   -0,955
420,757;  134,323;   -1,343;   -1,500
421,347;   34,991;    0,111;   -0,227
421,937;    3,013;    2,292;    1,409
422,527;  136,599;    0,838;   -0,773
423,116;  271,057;   -0,253;   -0,045
423,706;   -0,388;   -1,889;    0,318
424,296;  -36,122;    1,384;    0,682
424,885;   79,605;   -0,071;   -3,045
425,475;   48,925;    1,474;   -2,864
426,065;  -53,322;   -0,980;   -0,318
426,654;  -64,677;   -0,435;   -0,318
427,244;  183,060;    0,020;    1,409
427,833;  158,856;    1,383;   -0,500
428,423;   32,985;   -0,526;    1,136
429,012;   28,342;   -0,344;   -1,136
429,601;  161,054;   -1,344;    0,136
430,191;   44,004;    1,292;    4,318
430,780;  -45,949;   -0,344;   -0,409
431,369;  136,512;    0,746;   -0,045
431,959;   26,831;   -1,254;    0,500
432,548;  -32,582;   -1,163;   -0,045
433,137;  -84,181;   -1,254;   -1,318
433,726;  -14,846;    0,292;    0,500
434,315;   11,060;   -0,526;    2,409
434,905;  112,035;   -1,254;    1,409
435,494;  101,186;    0,746;    0,955
436,083;  -29,952;   -0,981;   -0,955
436,672;   69,540;    0,110;    0,500
437,261;   15,850;    0,292;   -1,955
437,850;  247,151;    1,383;    0,682
438,439;  293,963;    3,291;    1,955
439,027;  401,261;    3,655;    1,773
439,616;  327,901;    2,927;    1,227
440,205;  110,355;    0,200;   -2,136
440,794;   58,553;    2,109;   -0,045
441,383;   -5,491;   -1,346;   -0,591
441,971;  -36,867;   -2,436;    0,591
442,560;  -18,033;    0,563;   -1,773
443,149; -106,936;    0,379;   -1,318
443,737;  -66,309;   -0,074;   -2,318
444,326;  -38,024;    0,018;    0,318
444,915;   12,355;   -1,982;    0,864
445,503;   17,684;   -2,891;   -0,318
446,092;  261,710;    0,382;    2,136
446,680;  200,029;    0,382;    0,318
447,269;  100,299;   -0,346;   -0,318
447,857;   92,725;    0,018;   -1,773
448,445;   52,233;    0,563;    1,318
449,034;  -17,845;   -1,528;   -1,136
449,622;   -4,842;   -1,073;    3,500
450,210;  267,566;    2,017;    2,227
450,799;  184,678;    0,290;   -0,591
451,387;  150,826;    1,381;   -0,591
451,975;  128,609;    2,654;    0,864
452,563;  203,703;    3,472;    2,318
453,151;   31,249;   -0,528;   -1,227
453,739;   68,801;   -1,347;    0,136
454,328;  180,910;    2,381;   -2,136
454,916;  119,447;    2,562;   -0,136
455,504;  139,340;    1,017;    1,227
456,092;   24,331;    0,017;   -1,591
456,679;  -14,237;    1,472;    0,682
457,267;  392,371;    4,017;    1,045
457,855;   81,105;    1,017;    1,409
458,443;  -56,911;   -0,165;    1,682
459,031;   98,860;    0,108;    2,409
459,619;   60,152;   -1,801;    2,864
460,206;  -32,243;    0,835;    2,045
460,794;  -33,077;   -2,983;   -0,227
461,382;   15,776;   -0,529;   -0,864
461,970;    9,259;    1,198;    1,864
462,557;  -59,080;   -0,711;   -0,682
463,145;   64,036;   -3,165;   -1,682
463,732;  302,773;    2,016;   -1,045
464,320;   84,879;   -0,075;   -3,045
464,907;  216,365;    2,743;   -0,773
465,495;  132,939;    0,743;   -1,227
466,082;   56,174;   -1,984;   -0,045
466,670;   75,096;   -2,529;    1,227
467,257;  -34,146;   -1,711;    2,045
467,844;   79,823;   -0,075;    0,045
468,432;   49,412;    0,834;    3,500
469,019;   10,560;    0,925;   -1,773
469,606;   95,478;    0,470;    3,682
470,193;  133,742;   -1,439;    0,227
470,780;   80,983;   -2,075;    0,864
471,368;    9,434;   -1,257;   -0,773
471,955;  109,043;    1,379;   -0,682
472,542;   67,701;    0,652;   -1,136
473,129;  -43,879;   -0,166;    0,136
473,716;  -32,296;    1,470;    0,591
474,303;   10,074;    0,652;   -0,864
474,890;    7,162;   -1,439;   -0,500
475,477;  103,717;   -1,621;    0,409
476,064;   19,444;    1,106;   -1,591
476,650;  139,726;    0,288;    0,318
477,237;   49,635;   -0,258;    0,955
477,824;   28,322;   -1,076;    0,864
478,411;  -64,054;   -1,894;   -0,318
478,997;  -66,437;    0,560;   -0,773
479,584; -116,465;    1,196;   -0,409
480,171;   68,316;   -0,440;   -0,773
480,757;  114,795;    2,651;    0,773
481,344;    9,745;    0,469;    0,409
481,931;  -78,669;    1,105;    1,045
482,517;   49,679;   -1,258;    0,318
483,104;  128,686;    1,106;    2,864
483,690;   -9,032;   -1,804;    0,045
484,276;  -25,750;   -0,895;    0,227
484,863;  182,209;    2,469;    1,136
485,449;   32,579;   -0,077;    0,318
486,035;  -10,741;   -1,986;   -0,136
486,622;   88,375;   -0,895;    0,045
487,208;    2,206;    1,378;    1,500
487,794;  -84,703;    0,741;    0,318
488,380;  -80,223;    0,105;   -1,409
488,967;  -71,010;   -1,168;   -0,409
489,553;  -56,665;   -1,895;   -1,409
490,139;   32,855;    1,559;    0,773
490,725;  -49,129;    0,741;   -0,227
491,311;    3,642;    3,287;    3,045
491,897;  -21,258;   -0,986;    1,500
492,483;   -7,201;    0,105;    1,227
493,069;  408,905;    3,923;    0,864
493,655;  131,087;    1,650;    0,682
494,241;    8,404;    1,377;   -0,955
494,826;   16,513;    0,287;   -1,045
495,412;   78,817;    2,559;   -0,682
495,998;  -10,477;   -0,805;   -0,318
496,584;   48,786;    0,377;    1,045
497,169;   66,971;    1,014;   -0,682
497,755;    0,962;    0,650;    1,227
498,341;  132,150;    0,559;    0,318
498,926;  247,350;    1,832;    1,955
499,512;   -7,643;    1,286;    2,955
500,097;    3,250;    0,195;   -0,318
500,683;   28,758;   -0,350;    2,136
501,268;  -31,750;   -0,169;   -0,955
501,854;    2,802;   -0,169;    1,227
502,439;   -9,656;   -0,624;   -1,773
503,024;    5,705;    0,195;    0,500
503,610;   26,909;   -0,078;   -0,682
504,195;  -21,116;    0,558;    1,955
504,780;   67,445;    2,922;    1,227
505,366;  147,608;    3,013;    2,864
505,951;   77,028;    0,740;    1,045
506,536;    0,859;   -3,260;   -3,682
507,121;   49,034;    0,285;   -0,318
507,706;   16,316;    2,376;    1,045
508,291;  -35,514;    2,649;    1,136
508,876;  -36,129;   -0,988;    2,591
509,461;    8,260;   -0,169;   -0,773
510,046;   40,642;    0,194;    0,318
510,631;   50,316;   -0,351;   -0,773
511,216;  -23,671;    2,467;   -0,500
511,801;   29,382;   -0,442;    2,591
512,386;   49,674;    0,740;    0,500
512,971;   54,216;   -2,988;    0,955
513,555;   81,216;   -0,897;   -1,500
514,140;   44,269;   -0,442;   -3,136
514,725;  163,884;   -0,715;   -1,136
515,309;   74,047;   -0,533;    0,318
515,894;   -4,442;   -0,624;   -2,227
516,479;   25,862;   -0,624;   -0,955
517,063;   26,834;    0,376;    1,227
517,648;  -20,154;    1,012;   -1,136
518,232;  -42,151;   -0,261;   -1,409
518,817;   36,461;   -0,079;    1,682
519,401;  133,411;    2,194;    0,591
519,985;  111,295;    1,103;    1,136
520,570;    4,928;    0,830;   -1,955
521,154;   81,213;    2,102;    0,591
521,738;  220,028;   -2,352;    2,409
522,323;   90,285;   -0,170;    1,682
522,907;  111,624;    0,466;   -0,136
523,491;   48,451;    0,557;    0,955
524,075;   42,699;    2,284;    0,591
524,659;  258,859;    1,466;    0,591
525,243;  243,085;    1,739;    0,409
525,827;  229,125;    0,648;   -0,045
526,411;  285,586;   -1,989;   -0,136
526,995;  485,223;   -0,352;    1,409
527,579;  642,702;   -0,443;   -1,045
528,163;  649,238;    0,375;   -1,500
528,747;  934,586;    2,466;   -0,773
529,331;  970,057;   -0,080;   -1,409
529,915;  881,912;    1,738;    0,955
530,499; 1196,608;   -0,807;    1,227
531,082; 1517,242;   -0,534;    1,591
531,666; 1740,806;    1,374;    0,773
532,250; 1955,107;    1,284;    2,682
532,833; 2396,032;    0,920;    2,773
533,417; 2501,069;   -1,807;    0,864
534,001; 2808,615;    1,647;   -0,318
534,584; 3378,803;    0,374;    0,500
535,168; 3586,615;    0,465;    1,409
535,751; 4141,113;    0,647;    0,045
536,334; 4095,960;   -0,898;   -0,409
536,918; 4828,981;    0,011;    1,591
537,501; 5226,480;   -0,899;    1,318
538,085; 5656,047;   -0,444;    1,045
538,668; 6085,113;    0,829;    2,409
539,251; 6793,724;    1,829;    3,773
539,834; 7196,166;    0,101;    0,773
540,418; 7567,286;   -1,990;    4,318
541,001; 7958,956;   -0,990;    1,773
541,584; 8276,163;    2,101;    2,227
542,167; 8350,420;    1,374;    2,955
542,750; 8709,571;    1,919;   -0,773
543,333; 8660,098;    0,555;    2,136
543,916; 9637,787;    0,192;    2,500
544,499;10310,151;   -1,354;    0,227
545,082;10595,038;    1,374;    3,591
545,665;10945,772;    1,919;    1,500
546,248;11435,098;    1,010;   -0,318
546,830;11399,778;   -0,445;    1,955
547,413;11996,728;    1,010;   -0,773
547,996;12627,737;    0,555;    0,500
548,579;12563,123;    0,919;    0,955
549,161;12619,555;    1,828;    2,682
549,744;12547,214;   -0,809;    0,409
550,326;13180,129;   -0,809;   -1,136
550,909;13213,596;    2,737;    0,591
551,492;13706,747;   -0,263;    0,227
552,074;13622,744;   -0,173;   -1,318
552,657;14285,261;    2,373;    0,045
553,239;14198,277;   -0,173;   -0,773
553,821;14224,214;   -1,082;    1,045
554,404;13862,408;    1,282;    1,136
554,986;14308,810;    0,464;    1,045
555,568;14971,552;    1,191;   -0,955
556,151;14379,527;    1,191;   -0,227
556,733;14641,794;   -0,264;   -0,864
557,315;15114,894;    0,100;    0,500
557,897;14963,032;    0,554;   -0,500
558,479;15158,161;   -1,991;    1,318
559,061;15398,164;   -0,719;   -0,864
559,643;15763,907;   -0,264;    0,045
560,225;16123,985;    1,645;    2,864
560,807;16198,907;    0,918;    0,318
561,389;15771,349;    0,554;    2,318
561,971;16570,741;    0,463;    2,136
562,553;16437,653;   -1,628;    1,591
563,135;16651,675;   -0,537;    1,136
563,717;16322,731;    3,372;    1,136
564,298;16974,339;    3,645;   -0,045
564,880;16793,716;    0,645;   -1,409
565,462;16960,534;    0,645;    1,318
566,043;18071,189;   -0,446;    2,318
566,625;17716,004;    1,918;    1,227
567,207;17618,333;    1,099;    1,682
567,788;18711,804;   -1,264;    1,500
568,370;19539,487;    1,917;   -0,500
568,951;19389,158;    0,190;    0,227
569,533;20202,713;   -0,628;   -0,500
570,114;20677,158;   -0,446;    0,682
570,695;21199,007;   -0,174;   -1,318
571,277;21676,863;   -0,265;   -1,682
571,858;22378,318;    2,008;   -1,136
572,439;23206,064;    1,554;   -1,045
573,021;23418,898;    2,099;   -2,773
573,602;23913,948;   -1,265;    0,318
574,183;24833,594;   -2,083;    2,227
574,764;24993,280;   -1,629;    0,409
575,345;25528,042;    0,917;   -0,136
575,926;26081,600;   -0,356;    0,136
576,507;26006,127;    1,099;   -0,227
577,088;27194,822;    3,099;    1,682
577,669;27237,033;    0,735;    1,955
578,250;28049,775;    0,644;   -1,045
578,831;28676,305;   -1,356;   -2,227
579,412;28912,826;   -0,810;    0,955
579,993;29722,440;    1,008;    0,227
580,573;30101,565;   -0,629;   -0,955
581,154;29100,522;    0,735;   -0,591
581,735;30056,725;    0,644;    0,773
582,315;29598,998;   -0,629;    2,136
582,896;29887,371;   -0,174;    1,227
583,477;29348,446;    0,189;    1,227
584,057;29611,318;    0,553;    0,955
584,638;29971,440;    2,553;    2,318
585,218;29982,766;   -0,538;    2,682
585,799;30151,681;    0,281;   -0,227
586,379;30150,368;    0,372;    1,591
586,959;28909,111;    0,735;    0,318
587,540;28315,475;   -0,629;    2,227
588,120;27949,957;    1,007;   -0,045
588,700;27027,371;    2,553;    2,136
589,281;27424,775;    0,462;   -0,955
589,861;27387,553;    0,099;   -1,682
590,441;27217,418;    2,371;   -2,682
591,021;26253,073;   -0,265;   -2,591
591,601;26507,105;   -0,537;    0,500
592,181;26506,487;   -0,719;   -0,773
592,761;25854,393;    0,007;    1,409
593,341;25836,167;   -0,901;    0,045
593,921;25868,246;   -0,265;    1,591
594,501;25787,960;   -0,538;    1,318
595,081;25628,089;    0,917;   -0,318
595,661;26018,456;   -1,447;    0,955
596,240;26557,136;   -0,537;    0,136
596,820;26289,471;    0,372;    1,955
597,400;26406,296;    2,008;    0,773
597,980;26631,415;    2,008;    1,045
598,559;26691,468;    2,735;   -0,227
599,139;26424,396;   -0,174;   -1,227
599,718;26366,487;   -0,174;   -0,409
600,298;26646,681;    0,735;    0,682
600,877;26897,061;    2,917;    1,409
601,457;27143,760;    2,281;    1,136
602,036;27089,283;    0,190;    2,045
602,616;27323,684;    0,644;    1,682
603,195;27731,211;   -0,355;    3,500
603,774;27298,380;   -0,901;    2,045
604,354;27097,992;    0,826;   -0,500
604,933;26683,641;    0,463;    1,864
605,512;26813,606;    3,554;    0,591
606,091;26841,612;   -0,537;    3,773
606,671;27635,641;    0,281;    0,773
607,250;26795,647;    1,644;    3,136
607,829;27088,847;    2,372;    3,227
608,408;26980,938;    1,190;    2,591
608,987;26018,114;    1,281;    3,409
609,566;26319,550;   -1,265;   -2,500
610,145;26443,822;   -1,082;    0,682
610,723;26831,139;    4,372;    6,864
611,302;26118,722;   -0,446;    1,682
611,881;25713,929;    5,008;   11,227
612,460;26493,816;    1,645;    3,955
613,039;26926,239;   -0,082;    2,045
613,617;25698,982;    1,736;    4,773
614,196;25894,029;    1,099;    1,227
614,775;26274,565;    1,009;    2,409
615,353;26248,590;    0,736;    0,864
615,932;26026,477;    0,100;    2,409
616,510;26530,198;    0,554;    0,591
617,089;26052,001;    7,100;   17,591
617,667;25866,117;    2,372;    6,136
618,246;25723,111;   -1,537;    1,318
618,824;25908,274;   -3,355;   -0,955
619,402;25495,277;   -2,900;   -1,773
619,981;26018,690;   -0,173;   -1,045
620,559;25856,722;    0,009;    1,682
621,137;25356,709;   -0,718;    1,864
621,715;25418,390;   -1,173;   -0,682
622,293;25375,948;   -0,537;   -0,773
622,871;25825,258;   -0,718;    0,500
623,450;25449,004;    0,373;   -0,864
624,028;25354,205;    0,191;   -0,955
624,606;24985,929;   -1,718;    1,682
625,183;25422,944;   -1,536;   -1,136
625,761;25008,578;    1,009;    1,136
626,339;25314,368;    1,373;    2,591
626,917;25716,603;   -0,172;   -0,045
627,495;25756,734;   -0,354;    1,318
628,073;25175,628;   -0,263;    2,864
628,650;24874,490;    0,100;    2,136
629,228;25378,114;    0,373;    4,409
629,806;24798,041;    2,282;    1,136
630,383;25022,320;    1,464;   -0,318
630,961;24832,618;    2,555;   -0,955
631,539;24609,646;    2,464;    0,227
632,116;23996,618;   11,373;   15,409
632,694;24582,690;    2,555;    6,500
633,271;24866,985;    0,828;    2,682
633,848;24864,574;    1,828;    2,045
634,426;24832,104;   -1,081;    1,773
635,003;23969,051;    1,101;   -0,409
635,580;24297,493;    1,192;    3,682
636,158;24846,640;    3,737;    1,227
636,735;24871,380;    0,555;   -0,500
637,312;25061,195;   -0,809;   -0,682
637,889;25135,784;   -4,354;   -0,682
638,466;24589,019;   -3,990;   -0,409
639,043;24620,051;    2,101;   -1,136
639,620;24935,471;   -2,262;   -0,955
640,197;25272,200;    1,100;    1,682
640,774;25374,162;   -0,172;    1,136
641,351;25785,306;    0,737;    1,136
641,928;25241,632;   -0,627;    1,409
642,505;24903,776;    0,828;   -0,500
643,082;24951,011;   -1,718;    1,227
643,658;23993,700;   -0,718;    1,500
644,235;24788,935;    1,191;    2,500
644,812;25101,261;    1,918;    0,773
645,388;24806,314;   -0,991;    1,409
645,965;24936,731;   -0,809;    1,682
646,542;25021,602;   -1,445;   -0,227
647,118;25025,473;    1,009;   -0,955
647,695;25292,981;   -0,263;    1,136
648,271;25196,488;   -0,536;    0,500
648,848;25504,905;    0,736;    2,227
649,424;25399,322;    0,827;    1,318
650,000;25149,920;   -0,354;   -1,045
650,577;24994,610;   -0,627;   -0,955
651,153;25474,117;   -1,809;    0,955
651,729;26470,988;    1,191;    0,864
652,305;27024,405;    0,645;    2,773
652,881;32144,004;   -0,082;    1,136
653,458;38744,511;    1,100;    0,227
654,034;42050,928;    0,282;    1,591
654,610;43195,527;    0,554;    0,773
655,186;44366,034;    0,645;    3,045
655,762;44013,542;   -0,991;    0,409
656,338;44064,413;    0,100;    0,136
656,913;44969,011;   -0,082;    0,409
657,489;44137,610;    0,827;   -0,318
658,065;44159,572;   -0,173;   -1,591
658,641;44741,080;   -0,900;   -0,864
659,217;44044,133;   -0,991;    0,409
659,792;43475,277;    0,645;   -0,409
660,368;43653,966;   -2,173;   -0,682
660,944;43005,747;   -2,082;    1,227
661,519;37877,254;   -0,628;    0,409
662,095;32169,944;   -1,719;    0,591
662,670;28193,088;    1,281;   -0,136
663,246;27350,141;    1,009;   -0,409
663,821;26761,921;    0,281;    1,682
664,396;26293,338;    0,009;    1,864
664,972;26552,663;    0,009;   -0,500
665,547;26885,353;    1,372;    0,136
666,122;26918,497;   -1,082;    0,318
666,698;27220,732;   -0,173;    0,318
667,273;26600,512;   -0,173;    0,136
667,848;27356,656;    2,372;    1,500
668,423;27191,891;    2,190;    2,318
668,998;27792,762;    2,827;   -0,682
669,573;28362,452;   -3,264;   -1,500
670,148;28160,414;   -1,446;   -0,682
670,723;27943,012;   -1,810;    0,318
671,298;28347,611;    2,372;    1,045
671,873;28478,391;   -0,082;   -0,136
672,448;28427,808;    0,645;    0,136
673,023;28713,952;   -1,992;   -0,227
673,597;29098,732;    0,827;    2,318
674,172;28875,058;   -0,355;    0,318
674,747;28333,747;    0,372;   -1,045
675,321;28143,164;   -0,628;    3,318
675,896;27736,399;    0,645;    1,045
676,471;28746,725;    2,645;    1,591
677,045;28484,596;   -1,264;    0,682
677,620;28556,376;    0,190;    1,136
678,194;28846,611;   -2,628;    1,136
678,769;28457,119;   -1,083;   -0,318
679,343;28778,354;   -0,628;    1,773
679,917;28618,043;   -1,446;    1,955
680,492;28715,460;    0,826;    3,227
681,066;28869,240;    3,372;    0,409
681,640;28892,657;    1,463;   -0,318
682,214;29701,528;    0,735;    0,500
682,788;29240,945;   -1,356;   -0,773
683,363;29186,543;   -1,810;    1,682
683,937;28849,869;   -1,719;   -0,318
684,511;29568,286;    0,463;   -0,591
685,085;29316,248;   -1,356;    0,318
685,659;29050,937;   -2,538;    0,864
686,232;29342,354;   -0,356;   -0,318
686,806;29065,589;   -0,901;    0,409
687,380;29697,369;   -0,174;    0,591
687,954;29907,422;   -1,174;    1,136
688,528;29597,021;   -0,719;    1,955
689,101;30380,528;   -3,992;    1,045
689,675;29985,490;   -0,356;   -0,136
690,249;29376,816;   -0,719;    0,409
690,822;29700,960;    0,280;    0,318
691,396;29800,832;   -0,265;    1,227
691,969;29273,248;    1,280;    0,136
692,543;29678,119;   -0,447;   -1,955
693,116;29319,082;   -0,265;   -1,409
693,690;29184,226;    0,099;    0,500
694,263;29754,824;   -1,083;    2,955
694,836;29825,514;    1,371;    3,591
695,410;28477,930;   -0,265;    1,773
695,983;28878,438;    0,189;    0,591
696,556;28888,309;   -0,447;   -1,045
697,129;29238,908;   -0,356;    1,409
697,703;28958,506;   -1,629;    1,955
698,276;28888,014;    1,462;   -0,773
698,849;28737,976;    1,280;    1,409
699,422;29108,211;   -1,083;    0,591
699,995;28822,809;    0,007;    0,136
700,568;29329,499;   -0,629;    3,045
701,140;29355,006;   -2,811;    1,682
701,713;29106,423;   -0,174;    2,409
702,286;28812,749;   -0,538;    0,864
702,859;28678,256;   -0,902;   -0,591
703,432;27801,037;    0,825;    0,682
704,004;28348,181;    0,462;    0,318
704,577;28247,234;   -0,629;    0,136
705,150;28822,923;    0,189;    2,500
705,722;28580,249;   -0,356;   -3,227
706,295;28362,757;   -0,175;   -0,591
706,867;28238,264;   -0,175;    1,955
707,440;28499,408;   -1,720;   -0,409
708,012;28750,098;    0,462;    0,591
708,584;28661,514;    2,462;    0,227
709,157;28886,931;    1,825;   -0,591
709,729;28494,711;    2,280;    2,045
710,301;29354,946;    0,734;    0,045
710,874;29423,090;   -1,447;   -0,227
711,446;28280,870;    0,371;    0,864
712,018;28199,651;    0,098;    0,500
712,590;27924,886;   -1,993;    1,682
713,162;28418,484;    0,825;    1,318
713,734;28703,992;    1,825;   -2,045
714,306;28597,136;   -1,902;   -0,409
714,878;27300,280;    0,825;    0,864
715,450;28124,696;    0,643;    0,864
716,022;28348,386;    1,552;    1,318
716,593;28498,893;    0,189;    0,591
717,165;28444,401;   -3,175;   -1,227
717,737;28177,636;    0,280;    0,409
718,309;27855,234;    0,280;   -0,045
718,880;27769,378;   -0,539;   -1,409
719,452;27899,977;   -0,175;   -1,591
720,024;27533,303;    0,734;   -0,591
720,595;28128,538;   -2,902;    0,955
721,167;27726,772;    0,370;   -2,045
721,738;27211,916;   -0,812;   -1,045
722,309;27274,515;   -0,993;   -1,227
722,881;26974,204;   -1,357;    0,773
723,452;27629,985;   -2,630;    2,864
724,023;27791,583;   -0,721;    2,682
724,595;27538,727;    0,007;    0,682
725,166;27263,598;    0,007;   -0,409
725,737;26993,015;    1,734;    0,227
726,308;27054,886;   -0,266;    0,318
726,879;27487,667;   -1,630;    1,227
727,450;27384,174;    0,552;   -0,045
728,021;27345,864;    3,097;    0,682
728,592;27122,462;    0,734;    0,500
729,163;27474,061;    0,643;   -0,136
729,734;27503,841;    0,188;   -0,227
730,305;27847,712;    1,734;    0,136
730,876;28130,038;    0,188;    2,955
731,447;27925,091;    2,188;    2,682
732,017;28011,326;    1,097;    1,864
732,588;27456,834;    0,734;    1,227
733,159;27653,160;    0,643;   -1,045
733,729;27470,394;    0,006;    0,409
734,300;26769,902;    0,915;    0,864
734,870;27140,228;    3,461;    0,591
735,441;27722,917;    0,370;   -0,591
736,011;27402,607;    0,643;   -1,591
736,582;27386,932;   -0,812;    0,045
737,152;26846,440;   -1,721;   -2,045
737,722;27333,039;   -0,267;   -0,682
738,293;27035,637;   -1,358;    1,318
738,863;26967,781;    2,461;    2,318
739,433;26784,016;    5,279;    0,318
740,003;27386,796;   -0,994;   -0,682
740,573;26836,667;    2,097;   -1,591
741,143;26768,630;   -1,085;    0,318
741,713;27589,228;    1,188;   -0,500
742,283;27271,463;    0,915;    1,591
742,853;27032,516;    1,915;    1,591
743,423;26484,387;    1,733;    0,045
743,993;26599,895;   -0,358;    1,500
744,563;25968,948;    0,097;   -0,864
745,133;25955,183;   -0,812;   -0,864
745,702;26618,781;   -0,267;    1,773
746,272;25861,380;   -0,176;    0,591
746,842;25649,978;   -1,358;   -0,591
747,411;26014,213;   -0,267;   -0,318
747,981;26202,994;    0,097;    0,500
748,551;26291,865;    2,278;   -1,045
749,120;26151,736;    0,642;   -0,227
749,690;26527,153;   -0,631;    2,409
750,259;26862,115;    1,369;    2,955
750,828;26771,350;    1,551;   -1,955
751,398;27050,857;    1,278;   -0,045
751,967;26585,820;    2,187;    0,409
752,536;26733,964;   -0,813;   -0,227
753,105;27173,653;    0,096;    0,227
753,675;26984,252;    0,096;    1,773
754,244;26879,759;   -0,904;    3,591
754,813;26918,903;    0,551;    1,227
755,382;26493,683;    0,460;    0,955
755,951;27112,918;    1,551;    3,682
756,520;26580,608;   -0,085;    1,864
757,089;27164,388;    0,278;    0,500
757,658;27315,168;    1,733;    1,227
758,227;27309,585;    1,096;    0,318
758,795;27590,002;    1,187;    1,136
759,364;27847,691;   -0,086;   -0,591
759,933;26802,562;   -1,176;   -0,045
760,501;26296,706;    0,733;   -1,318
761,070;26789,396;   -2,813;   -1,409
761,639;27506,903;   -1,904;    1,318
762,207;26916,593;    1,551;   -0,955
762,776;26876,555;    0,369;    0,864
763,344;26811,608;   -0,995;    0,591
763,913;25839,207;   -0,722;    1,409
764,481;26609,351;    1,005;   -0,136
765,049;26407,495;   -1,358;    1,409
765,618;26238,002;   -0,086;    0,318
766,186;26325,419;    0,278;    0,136
766,754;26587,472;    0,005;    1,864
767,322;25592,343;   -1,995;    0,409
767,890;25616,033;   -0,722;   -1,773
768,459;26009,995;   -2,177;   -0,318
769,027;26228,684;    1,641;    3,409
769,595;25152,101;    3,278;    2,591
770,163;25648,608;    3,823;    2,955
770,730;25339,207;    0,732;   -0,136
771,298;25159,078;    0,187;   -1,409
771,866;25280,586;   -1,541;    4,955
772,434;25576,184;   -0,631;   -1,864
773,002;25754,692;    0,005;    0,682
773,569;25431,654;    0,914;    1,682
774,137;25247,253;   -0,268;   -0,045
774,705;26008,760;    0,278;   -0,136
775,272;25523,268;    0,641;    0,682
775,840;25207,321;   -0,177;    2,682
776,407;24792,829;    0,277;    1,955
776,975;24416,609;   -0,632;    0,318
777,542;25386,844;   -1,086;   -0,045
778,110;25199,624;   -1,268;   -0,045
778,677;24863,586;   -2,359;   -0,864
779,244;24652,639;    2,186;    1,045
779,812;24787,420;    1,823;    0,864
780,379;24601,109;    0,005;    1,136
780,946;24839,708;    1,005;   -0,773
781,513;25210,033;   -1,450;    0,318
782,080;24589,723;   -0,086;    2,864
782,647;25322,230;   -0,268;    3,045
783,214;24943,011;   -0,177;    3,864
783,781;24559,064;   -0,723;   -0,682
784,348;24405,117;   -0,632;    1,500
784,915;24887,170;   -3,177;    0,318
785,482;24641,677;    1,368;    2,591
786,049;25079,731;    0,186;   -0,591
786,615;25177,056;    0,277;   -0,955
787,182;24882,109;    0,186;   -0,682
787,749;24586,617;   -2,814;    1,409
788,315;23927,125;   -1,632;   -0,409
788,882;24257,814;    1,550;   -1,227
789,448;24913,776;    1,732;   -0,955
790,015;24913,647;    1,095;    3,227
790,581;24523,519;    1,459;    0,227
791,148;24427,663;    0,641;    1,045
791,714;24584,898;   -0,541;    3,136
792,280;24286,405;    0,186;    1,591
792,847;23868,640;    0,550;    2,500
793,413;24428,329;   -0,269;   -0,318
793,979;23972,201;    3,459;   -1,318
794,545;24081,163;    4,459;    2,682
795,111;23483,216;    2,186;    1,318
795,678;23631,451;    0,731;   -1,682
796,244;23300,867;    3,368;    0,136
796,810;23840,193;    1,731;    0,773
797,375;23562,337;    0,549;   -2,136
797,941;23541,390;   -0,541;    0,591
798,507;23704,443;   -0,451;   -0,955
799,073;23206,860;   -0,360;    0,591
799,639;23267,095;   -2,632;    3,136
800,205;23336,966;    0,095;    2,682
800,770;22887,019;    0,640;    1,773
801,336;23006,345;    1,368;   -0,955
801,901;22740,762;    4,549;    3,136
802,467;23273,178;   -0,542;    2,045
803,033;22568,504;   -0,087;    0,864
803,598;22825,557;    1,913;   -1,045
804,163;22827,428;    1,095;   -0,318
804,729;22781,663;   -0,178;    1,136
805,294;23190,989;    0,822;    2,227
805,859;22979,042;    0,731;   -0,409
806,425;22447,368;    1,186;    2,682
806,990;22134,330;    2,186;    4,318
807,555;22595,111;   -1,451;    2,591
808,120;22485,618;    0,822;   -0,409
808,685;22536,944;    0,185;   -2,500
809,250;22061,361;    0,004;   -0,500
809,815;22327,959;    1,913;    0,682
810,380;22889,285;   -0,269;    1,591
810,945;23457,429;   -1,087;    2,045
811,510;22644,300;    2,094;    1,591
812,075;22316,262;   -0,633;   -1,409
812,640;22353,679;    2,003;    1,409
813,204;22402,459;    0,822;   -0,227
813,769;22883,240;    2,094;   -0,045
814,334;22301,565;    0,458;    0,864
814,898;22354,982;    0,367;    0,591
815,463;22194,762;    1,276;   -0,773
816,027;22198,088;   -0,724;   -2,318
816,592;22257,232;    0,640;   -2,045
817,156;21784,467;    2,094;    1,136
817,721;21709,157;    4,276;    2,318
818,285;21609,300;    2,912;    1,500
818,849;22305,535;   -1,451;    1,682
819,414;22200,498;   -0,269;    2,955
819,978;21773,187;   -1,269;    1,773
820,542;22337,785;    2,003;    0,500
821,106;22031,020;   -0,815;    0,682
821,670;22191,346;   -0,815;    2,591
822,234;21882,399;   -0,270;    1,409
822,798;21204,361;    0,003;    0,500
823,362;21190,869;   -0,633;    4,227
823,926;20568,922;    0,094;    1,136
824,490;20766,702;   -0,997;   -0,682
825,054;21205,846;   -0,088;   -1,136
825,618;20831,536;   -1,542;   -1,500
826,181;20792,043;    0,458;   -1,318
826,745;20687,642;    1,367;   -1,045
827,309;21046,513;    1,185;    1,318
827,872;20393,203;    1,367;    0,955
828,436;21374,165;    1,185;   -0,773
828,999;21422,127;   -0,997;    1,227
829,563;20226,180;   -0,179;    1,136
830,126;20037,687;   -0,179;   -0,591
830,690;20063,559;   -1,997;    2,864
831,253;19605,248;   -0,543;    2,227
831,816;19751,483;   -1,906;    0,500
832,380;19716,445;    0,185;    0,864
832,943;19962,771;   -1,361;   -0,500
833,506;19409,915;    2,639;   -1,227
834,069;20201,695;    3,912;   -0,955
834,632;20264,021;    1,730;    1,318
835,195;20131,983;    1,003;    0,955
835,758;19323,036;   -0,997;    1,955
836,321;19197,180;    0,730;   -1,045
836,884;19277,324;   -0,725;   -0,955
837,447;19302,650;   -2,816;    1,773
838,010;19579,885;    0,366;    3,227
838,573;19875,756;   -1,179;    0,773
839,135;19819,446;   -1,361;   -0,955
839,698;19317,771;    1,275;    0,409
840,261;18831,915;    1,003;   -0,227
840,823;18631,423;   -0,543;    0,864
841,386;18944,931;   -0,452;   -2,409
841,948;18825,984;   -1,361;    1,773
842,511;18556,673;    0,912;    1,682
843,073;18718,362;    1,912;    0,227
843,636;18473,325;   -0,361;   -0,227
844,198;18483,832;    0,911;    0,591
844,760;18589,794;    1,093;    1,955
845,322;18246,393;    0,548;    1,136
845,885;18655,264;    0,730;    0,591
846,447;19059,863;   -1,998;    0,227
847,009;18677,825;    1,911;   -0,682
847,571;18990,423;    0,820;   -2,045
848,133;19104,476;   -1,089;   -1,864
848,695;18896,984;   -0,543;    1,409
849,257;18452,492;   -1,089;   -1,682
849,819;18656,272;   -0,998;   -0,409
850,381;18698,598;   -0,725;   -0,864
850,942;19055,105;    1,093;   -0,591
851,504;19030,795;    1,184;    0,227
852,066;19064,121;    1,275;   -1,591
852,628;18588,628;   -0,180;    1,955
853,189;18135,954;    1,638;    2,682
853,751;18247,189;   -0,907;    1,409
854,312;18078,787;   -0,453;   -1,682
854,874;18558,568;   -2,089;   -0,773
855,435;19047,439;   -0,907;   -1,682
855,997;19265,401;   -1,816;   -0,136
856,558;18543,727;    0,366;    1,773
857,119;18654,416;    0,820;    2,864
857,681;18278,833;    0,002;    0,318
858,242;18346,159;    1,911;   -2,136
858,803;18759,666;    0,456;   -0,773
859,364;19342,174;    0,184;   -4,773
859,925;18681,591;   -2,453;   -0,955
860,486;18564,462;   -0,453;   -0,955
861,047;18302,060;   -0,544;   -1,227
861,608;18097,386;   -1,089;   -0,773
862,169;18252,530;    0,638;   -0,045
862,730;18011,038;    0,456;    1,409
863,291;18289,545;   -0,635;   -0,500
863,852;18667,053;   -0,635;    1,955
864,412;18083,379;   -0,271;   -0,864
864,973;16660,977;   -0,089;    0,500
865,534;16563,212;   -1,726;    0,227
866,094;18056,629;    1,820;    0,227
866,655;17725,682;    1,274;    3,318
867,215;17991,553;    0,274;    0,136
867,776;17795,061;    0,547;   -0,136
868,336;17913,841;   -1,453;    0,136
868,897;17437,531;    2,638;    1,682
869,457;17148,402;    1,365;    0,318
870,017;17341,818;    0,547;   -1,227
870,578;17857,053;   -0,817;    0,773
871,138;17583,197;   -2,089;   -0,955
871,698;17121,614;   -0,817;   -1,318
872,258;16990,303;   -0,453;   -2,864
872,818;17358,447;    2,729;    0,045
873,378;17316,773;    0,638;    1,045
873,938;16843,735;    0,547;    0,500
874,498;17213,788;    0,274;   -1,955
875,058;17121,387;    2,183;    1,773
875,618;16952,985;    1,910;   -2,682
876,177;16860,038;    1,274;    0,136
876,737;16473,546;   -0,090;    1,955
877,297;16547,326;    0,183;    1,955
877,856;16560,652;   -0,362;    0,318
878,416;16475,251;    1,183;   -0,136
878,976;16717,940;   -1,817;    0,409
879,535;16862,448;    0,092;    3,136
880,095;16566,955;   -0,544;    0,045
880,654;16720,008;   -1,090;    1,318
881,213;16851,789;    2,456;    1,500
881,773;16470,387;    2,637;    2,682
882,332;16859,986;    3,365;    5,136
882,891;16715,312;    3,092;    2,136
883,451;17163,728;   -1,272;    1,682
884,010;16562,054;   -2,908;   -0,409
884,569;16718,562;   -0,999;   -0,045
885,128;16889,251;    2,819;   -1,864
885,687;16938,213;    4,455;    0,682
886,246;16631,903;    1,455;    2,136
886,805;16386,138;    2,455;    2,045
887,364;16679,191;   -0,999;   -0,500
887,922;17049,607;   -1,181;    0,045
888,481;16517,297;   -1,545;    0,591
889,040;16837,532;    1,183;    2,136
889,599;17506,948;    2,455;    1,409
890,157;17554,638;    1,455;    2,409
890,716;17230,600;   -0,090;    0,227
891,274;17023,471;    0,092;   -1,136
891,833;17441,070;    1,546;    0,864
892,391;17335,850;   -0,454;    0,500
892,950;17427,903;    1,819;   -0,773
893,508;17766,865;    0,455;   -0,409
894,067;17058,373;    0,637;    0,136
894,625;16978,880;   -0,636;   -1,500
895,183;17227,024;   -0,363;   -0,682
895,741;17107,441;    1,728;   -1,773
896,299;16971,767;   -0,545;   -2,409
896,858;17141,002;    0,819;   -1,591
897,416;17333,418;    2,728;   -1,318
897,974;17012,562;    1,819;    0,318
898,532;17190,797;    6,091;    2,682
899,089;17110,669;    2,091;   -0,682
899,647;17109,903;   -1,454;    1,318
900,205;16841,866;    1,182;    1,045
900,763;16989,828;   -0,454;    0,227
901,321;16983,063;    2,364;   -1,409
901,878;16431,661;   -1,000;   -0,773
902,436;16364,805;   -1,363;    1,318
902,994;16727,767;    4,728;    3,682
903,551;16143,820;    0,728;    0,409
904,109;16542,055;    0,182;   -1,409
904,666;16125,199;    2,455;    1,045
905,224;15937,070;    0,182;   -0,409
905,781;15725,942;    0,727;   -0,318
906,338;15758,722;   -1,363;    1,045
906,895;15722,775;    0,637;    2,045
907,453;15661,555;    1,727;    1,136
908,010;15697,881;   -0,909;    0,409
908,567;15367,752;    1,273;    0,591
909,124;14824,169;    0,364;   -1,500
909,681;14919,586;   -2,909;    0,682
910,238;15081,093;    0,636;   -1,318
910,795;15365,510;   -0,273;   -1,136
911,352;14929,328;   -2,909;   -2,682
911,909;14401,237;   -1,364;   -0,864
912,466;14945,965;   -3,182;    1,500
913,022;14464,874;   -1,636;    0,500
913,579;14839,056;   -0,909;    2,045
914,136;14517,510;    1,636;    0,955
914,692;14834,965;    0,091;   -1,227
915,249;14459,056;    1,455;    0,409
915,806;14684,146;    0,182;    1,955
916,362;14425,146;    1,909;    1,864
916,918;14023,237;    2,000;    1,045
917,475;14008,510;   -1,182;    0,955
918,031;14055,146;    3,364;   -0,045
918,587;13487,056;   -0,909;   -0,318
919,144;13740,237;   -2,273;    0,227
919,700;14044,328;    1,727;    0,773
920,256;13584,965;    0,727;    0,045
920,812;13227,510;   -0,727;   -1,045
921,368;13243,146;   -1,727;   -1,045
921,924;12885,692;    0,182;   -0,136
922,480;12474,601;   -0,545;    1,227
923,036;13082,056;    1,273;    1,955
923,592;13015,783;    0,455;    0,318
924,148;12949,146;    0,455;   -0,955
924,704;12278,146;   -1,364;   -0,409
925,259;12498,328;   -0,273;    0,591
925,815;12273,965;    1,455;    0,500
926,371;11783,601;    2,909;    1,409
926,926;11693,328;    2,091;    0,591
927,482;11336,510;   -1,364;    0,773
928,037;11216,965;    0,909;    2,045
928,593;11504,419;    1,636;    1,045
929,148;11299,965;   -1,818;   -1,500
929,704;10820,510;   -1,455;   -0,500
930,259;11033,874;    0,091;   -0,136
930,814;10124,874;   -0,818;    1,955
931,369; 9793,874;    1,091;   -0,773
931,925; 9644,510;   -0,091;    0,136
932,480; 9580,874;   -2,818;   -2,591
933,035; 9461,965;    0,545;   -0,318
933,590; 9228,419;    0,364;   -1,773
934,145; 8851,783;   -1,364;   -0,318
934,700; 9186,601;    0,455;   -0,591
935,255; 8994,237;   -0,091;    0,045
935,809; 8296,601;    3,182;    0,864
936,364; 7439,237;   -0,455;   -0,136
936,919; 7390,601;    0,455;   -1,773
937,474; 7282,601;    1,455;    0,136
938,028; 7031,783;   -1,636;    1,136
938,583; 6507,056;    1,818;    4,682
939,138; 6762,692;    2,091;    2,136
939,692; 6211,692;    1,636;   -1,136
940,247; 5948,783;   -0,727;   -1,045
940,801; 5496,146;   -0,636;    0,227
941,355; 5369,146;   -0,364;    2,591
941,910; 5012,874;   -0,273;   -2,136
942,464; 5151,601;   -0,818;   -0,318
943,018; 4941,965;    1,000;   -0,227
943,572; 4867,056;    2,545;   -0,682
944,126; 4304,874;    0,091;   -0,409
944,681; 4213,146;    3,091;    0,227
945,235; 4177,146;    1,000;   -0,591
945,789; 4121,692;    0,364;   -1,864
946,342; 4263,965;    0,455;   -0,591
946,896; 4051,146;   -2,273;    0,955
947,450; 3785,874;    1,545;   -0,227
948,004; 4010,965;    1,727;   -0,045
948,558; 4004,419;    0,273;   -0,864
949,111; 3937,783;   -0,273;   -0,318
949,665; 3961,601;    1,636;   -0,682
950,219; 3852,056;   -0,091;   -1,045
950,772; 3931,874;   -1,909;    1,864
951,326; 3837,874;    0,545;   -0,955
951,879; 3921,510;    0,727;   -2,318
952,433; 3954,510;    0,000;    2,227
952,986; 3781,692;    2,909;    0,682
953,539; 3735,965;   -0,273;    0,591
954,093; 3655,237;    0,545;   -1,318
954,646; 3807,056;    0,909;    1,318
955,199; 3609,237;    0,000;   -0,500
955,752; 3496,056;   -0,455;    1,773
956,305; 3459,146;   -0,091;    2,955
956,858; 3642,692;    0,818;   -0,318
957,411; 3793,601;   -0,545;    2,136
957,964; 3635,510;    1,364;    2,136
958,517; 3629,510;   -1,545;    3,136
959,070; 3453,601;   -0,455;    1,955
959,623; 3551,237;    1,091;    1,500
960,176; 3294,874;    1,727;    2,045
960,728; 3277,510;   -2,727;    0,773
961,281; 3343,692;    0,545;    0,500
961,834; 3366,692;   -0,909;    0,864
962,386; 3282,692;    1,727;    1,045
962,939; 3220,874;    0,364;   -0,318
963,491; 3366,419;    0,455;    1,136
964,043; 3214,783;    1,182;    2,409
964,596; 3359,510;   -1,000;    2,227
965,148; 3176,328;   -1,000;    1,773
965,700; 3099,419;    1,091;   -0,227
966,253; 3262,783;   -0,636;    0,318
966,805; 3095,510;   -2,273;    0,773
967,357; 3151,510;    1,091;   -1,500
967,909; 3118,783;    0,455;   -1,227
968,461; 3212,328;    0,545;    3,136
969,013; 3131,965;   -0,182;   -0,864
969,565; 3225,783;   -0,455;   -1,136
970,117; 3291,965;   -0,364;    1,045
970,669; 3133,601;    0,182;   -0,136
971,220; 2979,328;   -0,455;   -1,500
971,772; 2930,783;   -0,636;   -0,318
972,324; 3065,328;    0,091;   -0,500
972,876; 2999,510;    0,818;   -0,045
973,427; 3151,419;    1,909;   -1,045
973,979; 3110,328;   -0,727;   -2,500
974,530; 3131,328;    1,818;    1,318
975,082; 3127,601;   -0,545;    1,682
975,633; 3012,419;    1,091;    1,682
976,184; 3161,510;    0,909;    0,773
976,736; 2957,328;    0,091;    0,227
977,287; 2774,601;   -0,909;   -0,500
977,838; 2943,874;    0,909;   -0,318
978,389; 3001,328;   -1,000;   -0,500
978,940; 2868,510;    0,545;   -0,409
979,491; 2895,692;    0,091;   -0,500
980,042; 2876,510;    0,182;    3,045
980,593; 2920,783;   -2,545;    0,227
981,144; 2966,510;    2,545;   -0,500
981,695; 2925,783;    1,455;    1,500
982,246; 2890,510;   -0,273;    1,045
982,797; 3047,237;   -1,727;    0,682
983,347; 3172,692;    0,364;    0,591
983,898; 3333,510;    3,091;    0,409
984,449; 3161,419;    2,182;    0,773
984,999; 3031,419;    1,455;   -1,136
985,550; 2814,510;    0,182;   -0,318
986,100; 2849,783;   -0,455;   -0,318
986,651; 2876,965;   -0,818;    0,045
987,201; 2872,601;   -1,000;   -0,591
987,751; 2941,510;    0,818;    2,864
988,302; 2935,146;    2,636;    1,500
988,852; 2955,510;    0,455;   -1,136
989,402; 3007,965;    0,091;    0,682
989,952; 2945,146;   -2,182;    0,864
990,502; 3027,601;   -0,091;    0,682
991,052; 2974,874;   -0,727;    0,045
991,602; 2849,419;   -2,909;    1,318
992,152; 2851,783;    0,455;    0,682
992,702; 2839,237;    1,364;   -0,045
993,252; 2766,328;   -3,000;   -0,500
993,802; 2858,783;   -0,273;    1,318
994,352; 3078,237;   -1,545;    1,136
994,901; 3158,328;   -0,182;    3,227
995,451; 3071,783;   -0,182;    0,318
996,000; 3176,510;    1,636;    0,318
996,550; 2883,601;    2,273;    0,227
997,100; 2870,419;    1,273;   -0,045
997,649; 3154,965;    2,182;    0,955
998,198; 2797,601;    1,727;   -1,500
998,748; 3006,783;    1,091;   -2,318
999,297; 2906,146;   -0,818;   -0,409
999,846; 2960,965;    1,000;   -0,773
1000,395; 2992,601;   -0,818;    0,500
1000,945; 2956,601;    1,818;   -0,773
1001,494; 3051,056;    2,364;    0,682
1002,043; 3052,237;    4,636;    0,864
1002,592; 2878,237;   -1,091;    1,955
1003,141; 3043,419;   -0,455;   -0,682
1003,690; 2892,965;    1,727;    0,500
1004,238; 2982,056;    1,455;   -0,045
1004,787; 2611,874;    1,364;    1,227
1005,336; 2857,328;    0,364;    0,682
1005,885; 2992,783;    1,364;   -2,773
1006,433; 3108,056;    0,545;    0,955
1006,982; 3186,510;    0,455;    1,682
1007,531; 3083,601;   -1,818;   -0,227
1008,079; 3051,237;   -2,273;    0,500
1008,627; 3161,237;   -1,455;    0,409
1009,176; 2908,965;    0,000;   -1,955
1009,724; 2952,146;    1,091;    0,864
1010,273; 3014,056;    1,273;    0,500
1010,821; 3109,692;    0,091;    1,409
1011,369; 2846,328;   -1,364;    1,318
1011,917; 2833,783;   -1,364;   -0,591
1012,465; 3121,783;    1,273;   -1,591
1013,013; 3215,601;    2,091;   -1,682
1013,561; 3101,328;    0,455;   -0,773
1014,109; 3162,146;   -1,909;    1,682
1014,657; 3050,601;    0,364;    0,591
1015,205; 3142,783;    1,636;   -0,955
1015,753; 3181,146;   -0,545;   -1,409
1016,301; 3225,965;   -2,636;    3,045
1016,848; 3206,419;   -1,273;    0,409
1017,396; 3270,965;    2,545;    0,045
1017,944; 3418,056;    1,182;    1,864
1018,491; 3152,692;    0,273;    1,409
1019,039; 3306,237;    0,455;    0,591
1019,586; 3228,783;   -1,364;    1,682
1020,134; 3302,328;    0,455;    1,500
1020,681; 3335,419;    0,182;   -1,136
1021,228; 3324,146;    2,909;   -2,227
1021,776; 3152,056;    1,182;   -1,136
1022,323; 3393,328;    0,455;    0,773
1022,870; 3336,056;   -1,000;   -0,045
1023,417; 3235,965;    2,636;    1,864
1023,964; 3348,692;    2,636;    1,227
1024,511; 3172,328;    1,000;    0,773
1025,058; 2991,692;    3,182;   -0,045
1025,605; 3036,510;   -2,273;    3,136
1026,152; 3272,328;    1,727;   -0,591
1026,699; 2993,601;    1,818;    1,318
1027,245; 3150,419;   -0,091;    0,318
1027,792; 3355,874;   -1,000;    1,409
1028,339; 3252,419;    2,364;   -0,045
1028,885; 3104,692;    1,000;   -0,227
1029,432; 3047,056;   -0,091;    0,227
1029,978; 3106,874;   -1,000;   -1,591
1030,525; 3009,783;    1,000;    0,409
1031,071; 3239,146;   -1,364;    1,136
1031,618; 3346,965;    0,364;    1,682
1032,164; 3133,601;   -0,091;    3,045
1032,710; 3187,419;    1,636;   -1,500
1033,256; 3098,601;   -0,636;   -0,136
1033,803; 3070,328;   -0,545;    1,500
1034,349; 2793,328;   -1,364;    0,136
1034,895; 2944,601;    0,000;   -0,318
1035,441; 2921,510;   -0,818;    0,318
1035,987; 2927,874;   -2,364;   -0,682
1036,533; 2939,510;   -1,455;   -0,955
1037,078; 3143,874;    1,455;    1,682
1037,624; 2945,419;    2,455;   -0,955
1038,170; 2992,692;    0,455;   -0,318
1038,716; 2900,419;    1,636;   -0,409
1039,261; 2801,510;   -2,273;   -0,773
1039,807; 2748,419;   -0,091;    3,409
1040,352; 2812,874;   -1,909;   -0,318
1040,898; 2858,510;   -1,545;   -0,682
1041,443; 2763,419;   -1,455;   -2,591
1041,989; 2787,510;    1,091;    1,591
1042,534; 2668,419;   -0,364;    2,591
1043,079; 2762,328;    2,909;    0,955
1043,625; 2568,237;    1,818;    0,500
1044,170; 2622,237;   -1,364;    1,045
1044,715; 2877,237;    2,455;    0,955
1045,260; 2701,237;    2,182;   -0,955
1045,805; 2728,146;    1,182;   -0,591
1046,350; 2645,874;    1,364;   -0,409
1046,895; 2618,601;    2,909;    1,591
1047,440; 2587,056;    5,364;    0,409
1047,985; 2480,874;    2,818;   -0,955
1048,530; 2393,783;    1,545;    1,227
1049,074; 2460,510;    0,000;    0,318
1049,619; 2431,601;   -1,364;    1,955
1050,164; 2238,601;    0,455;    0,227
1050,708; 2283,237;   -0,455;    0,045
1051,253; 2666,419;    1,273;   -2,227
1051,797; 2364,146;    0,818;   -1,318
1052,342; 2359,237;   -1,182;    1,045
1052,886; 2360,419;    0,364;   -1,409
1053,430; 2247,874;   -1,364;    0,136
1053,975; 2266,692;   -0,818;   -0,318
1054,519; 2257,601;   -0,727;    3,227
1055,063; 2269,056;    0,909;    1,318
1055,607; 2153,056;   -0,182;    0,227
1056,151; 2177,419;    2,909;    1,682
1056,695; 2079,419;    2,273;   -1,136
1057,239; 2142,328;   -1,727;   -0,682
1057,783; 2162,328;    0,818;   -1,500
1058,327; 2113,056;    0,000;    1,409
1058,871; 2349,056;   -0,545;    1,318
1059,415; 2059,328;   -0,818;   -0,045
1059,958; 2327,328;    1,455;    2,591
1060,502; 2037,874;   -1,000;   -0,773
1061,046; 1935,601;    0,364;   -0,955
1061,589; 1901,965;   -3,000;   -1,136
1062,133; 1792,874;   -1,273;    1,864
1062,676; 1726,874;    1,182;    0,864
1063,220; 1734,965;    1,091;    0,500
1063,763; 1773,692;    0,909;    1,136
1064,306; 1841,419;   -0,909;    1,864
1064,849; 1749,692;   -0,909;    0,591
1065,393; 1747,237;    2,000;   -1,500
1065,936; 1865,874;    0,182;   -0,409
1066,479; 1735,146;   -1,455;    1,318
1067,022; 1748,328;   -0,273;   -0,227
1067,565; 1660,692;   -0,091;   -1,318
1068,108; 1689,237;    0,727;   -0,591
1068,651; 1648,783;   -0,636;    1,409
1069,194; 1588,692;   -0,455;   -1,682
1069,736; 1593,237;   -1,273;    0,955
1070,279; 1565,419;   -1,364;   -0,500
1070,822; 1633,419;   -2,000;   -0,318
1071,364; 1730,874;   -0,364;    1,318
1071,907; 1544,237;   -0,727;    3,227
1072,450; 1416,056;    0,000;   -0,045
1072,992; 1424,328;   -0,273;    3,136
1073,535; 1581,146;    2,091;    2,136
1074,077; 1360,237;   -0,727;    2,045
1074,619; 1322,601;   -1,364;    0,591
1075,161; 1365,237;   -1,091;    1,500
1075,704; 1559,510;    1,545;    1,227
1076,246; 1347,783;   -0,182;    0,682
1076,788; 1260,056;   -0,364;    1,773
1077,330; 1346,510;    1,273;    2,136
1077,872; 1306,874;    0,909;    0,955
1078,414; 1555,874;    2,727;    0,773
1078,956; 1280,783;    1,273;   -0,227
1079,498; 1547,146;    1,636;    0,318
1080,040; 1248,328;    1,909;   -1,318
1080,581; 1186,328;    1,636;   -0,318
1081,123; 1100,419;    0,091;   -0,773
1081,665; 1156,237;   -1,182;   -0,955
1082,206; 1476,874;    1,364;   -0,500
1082,748; 1320,419;    0,727;    2,045
1083,289; 1189,874;   -2,000;    1,318
1083,831; 1098,692;   -0,545;    0,227
1084,372; 1145,237;    0,000;    0,591
1084,913; 1148,783;    1,091;    0,864
1085,455; 1113,965;   -1,909;   -2,045
1085,996; 1092,874;   -2,273;    0,136
1086,537; 1108,965;   -0,091;    0,864
1087,078; 1131,601;   -0,909;   -2,136
1087,619; 1186,328;   -1,273;    0,227
1088,160; 1093,146;    0,000;    1,318
1088,701; 1077,146;   -1,091;    0,682
1089,242; 1021,056;    1,364;   -2,227
1089,783; 1122,874;   -0,273;    1,409
1090,324; 1084,146;    0,455;    0,682
1090,865;  967,146;    2,727;   -0,409
1091,405;  931,237;    0,727;    2,227
1091,946;  954,146;    0,182;   -0,955
1092,487;  875,510;    0,818;   -1,409
1093,027; 1056,056;   -1,364;   -1,500
1093,568;  903,601;   -0,364;    1,227
1094,108; 1019,146;    0,273;    1,773
1094,649;  944,510;   -1,182;    0,136
1095,189;  881,601;   -0,636;   -0,682
1095,729;  828,783;   -0,091;    0,955
1096,269;  826,056;    0,727;   -0,955
1096,810; 1155,601;   -1,364;    0,500
1097,350;  981,874;    1,364;   -0,773
1097,890;  872,965;    0,364;    1,227
1098,430; 1150,146;    2,364;    2,864
1098,970; 1016,056;    2,182;    1,682
1099,510;  863,692;    0,545;   -2,318
1100,050;  795,237;    1,000;   -1,591
1100,589;  759,783;   -0,727;   -0,318
1101,129;  900,146;    0,818;   -0,955
1101,669; 1065,783;    1,727;    2,136
1102,209;  869,965;   -0,091;    2,227
1102,748;  828,510;    0,000;    0,955
1103,288;  808,965;    1,273;   -1,227
1103,827;  840,056;    3,091;   -2,227
1104,367;  710,237;   -0,091;   -2,409
1104,906;  681,419;    1,364;   -1,136
1105,445;  754,419;    0,636;   -1,136
1105,985;  711,692;   -0,727;    1,500
1106,524;  766,328;   -1,727;   -0,682
1107,063;  727,056;   -2,727;    1,409
1107,602;  681,965;   -1,909;   -1,500
1108,141;  611,056;   -1,909;    1,500
1108,680;  731,146;   -3,455;   -0,591
1109,219;  663,783;   -0,909;   -0,500
1109,758;  660,146;    0,455;    0,682
1110,297;  629,783;    1,000;   -0,682
1110,836;  574,328;   -0,727;    0,955
1111,375;  754,237;   -2,545;    0,409
1111,913;  763,328;   -1,000;    0,773
1112,452;  691,237;   -0,273;    0,136
1112,991;  571,874;    1,091;    1,955
1113,529;  523,146;   -0,818;   -0,045
1114,068;  601,510;   -0,273;    2,955
1114,606;  498,237;   -0,364;   -0,955
1115,144;  679,510;   -1,273;    1,045
1115,683;  603,965;   -0,727;    0,318
1116,221;  655,419;   -0,455;   -0,864
1116,759;  568,056;    0,636;   -0,864
1117,297;  768,510;    0,000;    1,864
1117,836;  560,692;   -2,182;   -1,227
1118,374;  578,328;    0,182;   -0,682
1118,912;  511,237;    0,909;    2,682
1119,450;  506,783;    1,000;    0,864
1119,988;  569,692;    1,545;    2,136
1120,525; 1029,056;    5,091;    3,318
1121,063;  725,146;    1,182;    1,864
1121,601;  531,965;   -0,909;   -1,227
1122,139;  483,874;   -0,727;   -2,045
1122,676;  686,783;   -0,727;    2,773
1123,214;  611,237;   -1,182;    4,409
1123,751;  423,056;    1,727;    2,227
1124,289;  551,874;   -0,091;   -0,409
1124,826;  418,692;    1,727;    0,227
1125,364;  333,237;    1,727;   -0,955
1125,901;  535,601;    1,182;    1,227
1126,438;  659,510;    0,818;    0,955
1126,975;  372,328;   -0,727;   -0,773
1127,513;  443,783;    0,273;    2,136
1128,050;  341,328;    1,636;   -0,682
1128,587;  456,328;    2,000;   -0,227
1129,124;  507,056;    0,091;    1,318
1129,661;  358,965;    0,273;    0,227
1130,198;  538,510;    1,636;    0,773
1130,734;  472,601;    0,182;    1,409
1131,271;  320,874;   -0,909;    0,864
1131,808;  500,783;    2,909;    3,045
1132,345;  371,601;    1,545;    0,318
1132,881;  229,328;   -1,545;   -1,864
1133,418;  383,965;    0,727;   -1,136
1133,954;  316,146;    2,455;   -2,682
1134,491;  405,419;    1,364;   -0,773
1135,027;  296,328;    2,364;    0,864
1135,564;  389,146;    0,273;    2,955
1136,100;  358,874;    0,364;    2,136
1136,636;  247,601;   -1,273;   -1,045
1137,172;  361,874;    0,000;   -1,045
1137,708;  280,510;   -1,364;   -1,045
1138,245;  276,328;    1,273;   -1,227
1138,781;  215,692;    1,091;   -3,318
1139,317;  298,510;    1,273;   -1,409
1139,852;  289,146;    3,091;    0,136
1140,388;  414,328;   -1,182;   -0,409
1140,924;  289,783;   -1,091;   -2,227
1141,460;  215,965;   -1,636;    0,136
1141,996;  159,056;   -1,364;    2,682
1142,531;  218,510;    1,364;    3,318
1143,067;  428,692;    1,182;    1,045
1143,602;  497,692;   -0,091;   -0,318
1144,138;  335,783;   -2,636;    1,045
1144,673;  188,601;   -1,455;    1,409
1145,209;  263,601;   -1,909;   -0,318
1145,744;  186,965;   -0,727;    0,864
1146,279;  317,510;    1,818;   -0,136
1146,815;  231,510;    1,545;   -2,682
1147,350;  280,601;   -1,364;    0,045
1147,885;  187,601;   -0,818;   -1,318
1148,420;  187,601;   -2,273;    0,773
1148,955;  160,874;   -1,727;    1,864
1149,490;  198,601;   -0,909;   -1,591
1150,025;  175,601;    0,455;   -1,773
1150,560;  292,510;    1,091;   -0,955
1151,094;  264,056;    1,455;   -0,591
1151,629;  265,783;    1,636;    0,864
1152,164;  185,874;    1,364;    1,318
1152,698;  147,419;   -0,182;   -0,136
1153,233;  100,783;    0,091;   -0,682
1153,767;  140,601;   -3,000;   -2,318
1154,302;  203,510;   -1,455;    1,773
1154,836;  202,237;   -0,455;   -2,136
1155,371;  261,510;   -1,364;    3,682
1155,905;  207,237;   -0,636;    1,682
1156,439;  179,783;   -0,636;   -0,500
1156,973;  206,783;    0,364;    0,318
1157,507;  140,056;   -0,364;    0,682
1158,042;  168,056;   -0,727;    1,045
1158,576;  223,510;    0,182;    1,773
1159,110;  210,056;   -0,818;    2,409
1159,643;  172,783;    0,636;   -0,045
1160,177;  105,510;   -1,545;    1,500

