
Integration time [ms]:   0,040
Averaging Nr. [scans]: 11
Smoothing Nr. [pixels]: 0
Data measured with spectrometer [name]: 7318044SP
Wave   ;Sample   ;Dark     ;Reference
[nm]   ;[counts] ;[counts] ;[counts] 

186,757;   21,816;   31,551;    1,318
187,357;   53,940;   22,551;    0,955
187,958;   28,377;   15,460;   -1,591
188,558;   76,446;    8,915;   -1,227
189,159;   47,859;    6,733;   -4,500
189,759;   11,007;    7,278;   -3,591
190,360;   11,743;    2,824;   -2,136
190,960;   53,140;    2,915;   -4,136
191,560;   74,575;    3,189;   -6,591
192,161;  312,570;    4,372;   -3,500
192,761;  154,028;    4,010;   -3,227
193,361;   90,633;    1,556;   -3,773
193,962;  141,118;    2,010;   -2,682
194,562;   50,994;    1,189;   -3,955
195,162;   81,867;   -2,448;   -2,227
195,762;  249,366;   -3,176;   -0,045
196,362;  193,587;    1,370;   -2,500
196,963;   63,311;    2,006;   -0,864
197,563;  137,086;    1,551;   -0,955
198,163;   71,869;    0,096;   -0,682
198,763;   87,844;    1,733;   -0,500
199,363;  189,095;    3,096;   -0,500
199,963;  152,565;    0,369;    0,409
200,563;  129,639;    2,823;   -1,409
201,163;  109,632;    3,277;   -0,227
201,763;  186,525;    3,732;    0,318
202,363;  120,887;    1,459;    1,500
202,963;  225,366;    1,459;    1,045
203,563;  320,815;    0,277;    0,500
204,162;  181,829;    2,096;   -1,864
204,762;  170,516;    0,550;    0,591
205,362;  130,065;    3,004;    1,955
205,962;  224,265;    3,096;    1,955
206,562;  229,248;    1,823;    2,318
207,161;  192,975;   -0,087;    0,318
207,761;  357,734;    1,277;    2,409
208,361;  232,017;   -0,268;    1,409
208,960;  323,840;    0,459;    1,500
209,560;  373,162;    1,277;    1,591
210,160;  369,116;    0,550;    1,864
210,759;  325,024;    4,186;    1,227
211,359;  322,575;    1,459;    1,045
211,958;  569,490;    1,277;    2,045
212,558;  646,742;    1,732;    1,864
213,157;  488,331;    1,822;    1,500
213,757;  901,140;    3,822;   -0,227
214,356;  614,392;    1,277;   -0,409
214,956;  930,628;    3,095;    0,409
215,555;  557,157;    2,095;    2,136
216,154;  498,370;   -2,723;   -0,591
216,754;  519,091;    0,277;    0,773
217,353;  618,536;   -0,268;   -1,045
217,952;  481,195;   -0,178;    0,318
218,552;  707,744;    1,368;   -0,773
219,151;  588,633;    0,277;    0,955
219,750;  583,304;    0,004;   -0,227
220,349;  641,456;   -0,451;    1,045
220,948;  770,593;   -1,360;    1,136
221,548;  720,996;    0,913;    1,227
222,147;  828,466;   -0,087;   -0,409
222,746; 1101,583;   -0,451;   -0,955
223,345;  956,236;    0,731;    0,500
223,944;  950,233;   -0,451;    0,773
224,543; 1074,826;    1,004;   -1,409
225,142; 1183,543;    0,094;    0,136
225,741; 1067,679;   -0,814;    1,045
226,340; 1060,000;   -0,451;   -0,955
226,939; 1452,096;   -0,996;   -0,136
227,538; 1282,064;   -0,360;   -0,773
228,137; 1464,311;   -0,814;    0,864
228,735; 1473,035;   -0,541;    1,227
229,334; 1249,846;   -0,905;   -0,227
229,933; 1618,097;    0,459;    0,591
230,532; 1713,876;    1,186;   -0,409
231,131; 1773,790;    1,732;    0,318
231,729; 1763,717;   -2,450;   -2,318
232,328; 1730,040;   -0,723;   -1,500
232,927; 1728,557;    1,004;   -0,500
233,525; 1777,727;    3,640;    0,045
234,124; 1931,390;    2,368;   -1,591
234,723; 1889,507;    0,913;   -1,045
235,321; 1951,256;    2,277;    0,136
235,920; 2092,357;    1,186;   -1,227
236,518; 2325,287;    3,459;    0,318
237,117; 2321,514;    0,004;   -0,227
237,715; 2420,182;    0,640;   -0,500
238,314; 2462,340;   -0,087;   -2,318
238,912; 2643,736;   -0,723;   -1,409
239,510; 2590,450;    0,459;   -1,227
240,109; 2753,289;    0,004;    3,773
240,707; 2759,911;   -0,996;    1,227
241,305; 2949,147;    0,550;    0,136
241,904; 3159,329;   -0,178;   -2,045
242,502; 3205,703;   -0,632;   -0,227
243,100; 3146,812;   -0,087;   -0,955
243,698; 3364,389;    0,732;    1,682
244,297; 3524,940;   -0,632;    0,682
244,895; 3478,068;   -0,269;   -2,318
245,493; 3804,978;    2,186;   -0,591
246,091; 3821,843;    1,368;   -1,318
246,689; 3819,385;    1,004;    0,591
247,287; 3982,078;    0,822;   -1,136
247,885; 4277,871;   -1,451;    1,227
248,483; 4402,225;    1,822;   -0,500
249,081; 4524,629;    0,185;    1,591
249,679; 4713,647;   -0,178;    1,682
250,277; 4943,029;   -1,723;    0,864
250,875; 4980,815;   -1,087;   -1,045
251,473; 5034,458;   -1,178;    0,500
252,071; 5271,316;    1,459;    1,045
252,669; 5419,506;   -1,814;    0,318
253,267; 5606,981;   -0,087;    0,773
253,864; 5591,441;   -0,360;    0,682
254,462; 5576,679;    1,640;    1,591
255,060; 5502,844;   -0,269;    1,318
255,658; 5797,960;    0,822;   -0,136
256,255; 6226,347;    0,186;   -2,045
256,853; 6118,416;   -0,269;    1,409
257,451; 6122,335;    0,822;    1,864
258,048; 6442,773;    1,822;    1,864
258,646; 6187,039;    1,731;   -1,045
259,243; 6394,143;   -0,087;    2,227
259,841; 6452,114;   -0,814;    0,318
260,438; 6361,752;   -0,087;    0,864
261,036; 6995,521;   -1,905;    1,409
261,633; 6921,785;   -0,087;    2,227
262,231; 6708,254;    2,731;   -0,045
262,828; 6814,225;   -0,905;    1,136
263,425; 6860,403;    0,913;   -0,591
264,023; 7148,026;    0,186;    0,045
264,620; 6753,760;   -0,360;   -0,318
265,217; 7100,963;   -2,087;    3,136
265,815; 7179,804;   -1,905;    2,136
266,412; 7038,788;    0,731;    0,136
267,009; 7090,150;   -1,451;    0,773
267,606; 7042,312;    0,822;   -0,955
268,203; 6997,292;   -0,269;   -0,591
268,801; 7271,806;    1,731;    0,591
269,398; 7533,639;   -0,360;    2,500
269,995; 7522,043;    0,277;    1,591
270,592; 7306,605;   -0,632;   -0,500
271,189; 7477,125;    0,186;    0,409
271,786; 7606,438;   -0,632;    1,227
272,383; 7482,800;   -1,087;    0,227
272,980; 7626,580;    0,277;    0,318
273,577; 8051,293;    0,004;    1,227
274,174; 7612,155;    0,822;    2,591
274,771; 7637,233;   -0,814;   -0,773
275,367; 7793,017;    2,277;    1,409
275,964; 7746,119;    0,731;   -0,500
276,561; 7820,788;    1,549;   -1,045
277,158; 8006,284;    0,095;   -1,773
277,755; 8160,993;    2,185;    0,409
278,351; 7590,854;   -0,451;   -1,500
278,948; 7907,413;   -0,815;    0,045
279,545; 7871,768;   -1,360;    2,318
280,141; 8505,049;   -1,723;   -2,045
280,738; 8391,317;   -0,451;   -0,136
281,334; 8570,094;   -1,633;    0,591
281,931; 7997,717;   -0,087;   -1,318
282,528; 8109,550;    0,822;   -0,500
283,124; 8813,224;   -1,087;   -0,500
283,721; 8719,067;   -0,451;    1,409
284,317; 8544,874;    0,185;    2,500
284,913; 9094,224;   -1,360;    0,591
285,510; 9310,315;    0,640;   -0,318
286,106; 9353,968;   -2,269;   -0,955
286,703; 8976,644;   -0,360;    1,955
287,299; 9174,296;   -1,451;   -0,591
287,895; 9398,246;    0,822;   -1,045
288,491; 9928,185;    0,186;    2,136
289,088; 9723,910;   -2,360;    2,409
289,684; 9816,051;   -1,723;    1,500
290,280; 9937,767;    0,368;    0,682
290,876;10024,998;    1,822;    5,500
291,472; 9918,133;    1,276;    2,227
292,068;10052,247;    1,367;    0,227
292,665; 9806,659;    2,095;    0,773
293,261; 9455,405;    0,276;    2,136
293,857; 9888,033;    2,913;    2,136
294,453; 9852,640;    3,550;    0,955
295,049; 9776,339;   -0,268;    1,955
295,644; 9811,218;    0,095;    0,136
296,240; 9775,767;   -0,905;   -0,136
296,836; 9859,695;   -0,995;    0,318
297,432;10179,212;    1,096;   -0,500
298,028;10261,457;    0,732;    0,773
298,624;10678,432;    1,459;    1,864
299,220;10918,644;    2,368;    0,591
299,815;10628,564;    1,005;   -0,409
300,411;10442,430;    0,914;    1,773
301,007;10470,902;    1,368;    0,227
301,602;10514,306;   -0,541;   -2,318
302,198;10734,778;    0,732;   -0,773
302,794;11084,330;    1,187;   -0,500
303,389;11135,521;   -1,177;    1,045
303,985;11277,863;    0,550;    1,409
304,580;11264,235;    1,459;    1,591
305,176;11220,944;   -3,086;    0,136
305,771;11148,278;   -1,268;   -1,227
306,367;11020,724;    4,095;    0,136
306,962;11352,034;    0,641;    1,500
307,558;11046,334;   -0,450;    0,136
308,153;10991,038;    1,095;   -1,136
308,748;11193,533;   -0,814;    1,682
309,344;11154,847;   -0,632;   -1,318
309,939;11279,939;   -1,905;   -1,318
310,534;11513,529;   -0,086;   -1,682
311,130;11418,962;    0,459;   -2,500
311,725;11134,807;    1,004;   -0,500
312,320;11454,372;    2,459;    0,045
312,915;11310,078;    1,459;   -1,045
313,510;11367,114;    1,550;   -0,500
314,105;11824,824;    1,096;    1,409
314,700;11215,850;   -3,086;   -1,045
315,295;10858,235;   -0,904;    0,045
315,890;10437,300;    1,277;    0,864
316,485;10793,723;   -0,359;   -0,318
317,080;10843,131;   -3,086;    1,591
317,675;11394,194;    2,005;   -0,682
318,270;10870,612;    5,550;    3,318
318,865;10813,154;    3,278;    3,045
319,460;10663,639;   -0,904;    0,591
320,055;10856,366;   -0,541;   -1,227
320,650;10503,864;   -1,995;   -0,591
321,244;10562,564;   -0,177;   -1,409
321,839;11443,769;   -1,541;   -0,227
322,434;11346,191;   -1,086;   -1,591
323,029;10978,842;    1,732;    1,591
323,623;10820,351;    1,550;    0,773
324,218;10611,364;    2,368;    1,409
324,812;10510,242;    1,096;    1,591
325,407;10307,093;   -0,814;    2,045
326,002;10213,977;    0,277;   -0,409
326,596;10516,931;    0,914;    1,318
327,191;10733,961;    0,823;   -1,045
327,785;10335,204;   -0,813;   -0,227
328,379;10601,629;    1,368;    0,136
328,974;10400,933;    0,914;   -3,955
329,568;10635,458;    0,186;   -2,409
330,163;10481,698;    2,096;    1,045
330,757;10830,247;    2,459;    1,591
331,351;10197,424;    0,459;    0,682
331,945;10535,508;    0,914;    1,409
332,540;10173,336;   -1,723;   -0,591
333,134;10351,040;   -1,086;    0,773
333,728;10602,214;    0,005;    0,318
334,322;10941,381;   -1,177;   -0,864
334,916;10247,408;    0,277;    0,955
335,510;10625,630;   -0,450;   -0,136
336,105;10918,870;   -1,086;    1,591
336,699;10631,709;   -1,086;    0,591
337,293;10575,371;   -1,723;    0,318
337,887;10714,949;   -2,723;    1,955
338,481;10885,819;    0,459;    0,591
339,074;11080,678;   -0,359;    2,682
339,668;10899,903;   -1,632;    1,227
340,262;11200,711;    1,732;    3,227
340,856;10724,319;    1,822;   -0,682
341,450;10119,227;    1,004;    1,864
342,044;10991,098;    1,459;    0,136
342,637;10795,199;    0,913;   -2,136
343,231;10680,762;   -2,360;    0,682
343,825;10656,433;   -1,086;   -0,591
344,419;10645,528;   -1,995;    0,500
345,012;10492,802;    2,459;    4,045
345,606;10507,933;    4,641;    1,591
346,199;10334,012;   -1,813;   -0,227
346,793; 9915,964;    1,914;    2,045
347,386;10087,480;   -0,813;   -1,136
347,980;10082,411;   -0,268;   -0,045
348,573; 9897,781;    2,278;    0,409
349,167; 9620,145;    5,278;    4,773
349,760; 9953,456;    2,914;    2,682
350,354; 9926,605;   -0,813;    1,136
350,947; 9695,978;    1,096;    1,682
351,540; 9362,094;   -0,358;   -1,409
352,134; 9305,033;    1,096;    1,136
352,727; 9388,576;   -0,086;    1,136
353,320; 9184,262;    0,005;    0,591
353,913; 9028,314;   -1,995;    1,864
354,507; 9258,694;    0,823;   -1,227
355,100; 9213,219;    0,460;    0,864
355,693; 8515,188;    2,005;    2,409
356,286; 8556,029;    0,823;    2,773
356,879; 8872,371;   -0,722;    1,227
357,472; 8457,776;   -0,904;    1,500
358,065; 8676,692;   -0,722;    2,500
358,658; 8620,914;   -0,540;    2,318
359,251; 8275,920;   -1,631;   -0,591
359,844; 7751,501;   -1,904;   -1,136
360,437; 7949,922;   -2,995;    0,045
361,030; 8202,162;    1,369;   -0,682
361,623; 7768,195;    2,824;    0,318
362,215; 7853,805;   -0,086;    2,045
362,808; 7644,097;   -2,358;   -1,682
363,401; 7828,319;   -2,449;    0,136
363,994; 7606,531;   -0,631;   -1,500
364,586; 7517,557;    0,824;   -1,500
365,179; 7705,984;   -0,449;   -1,136
365,772; 7195,904;   -1,995;    2,045
366,364; 7509,594;    1,915;   -3,227
366,957; 7694,624;    2,279;   -0,045
367,549; 7713,888;    2,188;   -0,864
368,142; 7382,442;    1,825;   -1,500
368,734; 7570,400;    0,734;   -2,136
369,327; 7502,610;    1,643;   -0,500
369,919; 7414,015;   -1,538;    0,409
370,512; 7196,797;   -1,083;   -0,500
371,104; 7003,846;   -0,901;    1,591
371,696; 7179,450;    1,191;   -0,955
372,289; 7247,029;    0,373;    1,136
372,881; 7394,716;   -2,080;    1,318
373,473; 7302,773;   -2,170;    1,136
374,066; 7101,291;   -0,169;    0,500
374,658; 6977,357;    0,378;    1,136
375,250; 7306,642;    0,653;   -1,409
375,842; 7153,649;    0,473;   -0,045
376,434; 7042,341;   -0,435;   -0,409
377,026; 7573,919;    0,204;   -2,500
377,618; 7462,201;   -0,158;   -0,682
378,210; 7318,578;   -0,338;   -1,955
378,802; 7165,840;    0,754;   -0,591
379,394; 7169,167;    1,846;    0,682
379,986; 7711,994;    1,393;   -0,955
380,578; 7771,507;   -0,153;    0,773
381,170; 7154,131;   -0,972;    0,045
381,762; 7107,465;    0,755;    1,409
382,354; 7304,338;   -0,065;   -1,318
382,945; 7395,070;   -2,976;    0,318
383,537; 7537,474;   -2,705;   -1,955
384,129; 7533,371;   -2,160;   -1,136
384,721; 7717,255;   -0,252;    0,955
385,312; 7650,051;   -0,161;   -0,955
385,904; 7739,830;   -2,706;    1,591
386,496; 7159,718;   -0,979;    1,045
387,087; 7294,881;    1,022;    2,500
387,679; 7323,967;   -1,160;    0,045
388,270; 7434,527;    2,840;    2,045
388,862; 7539,884;    1,295;   -0,318
389,453; 7419,488;   -0,887;    1,045
390,045; 7711,547;   -0,705;   -2,682
390,636; 7630,790;    0,204;   -0,591
391,227; 7493,448;   -0,523;   -0,045
391,819; 7590,504;    0,204;    0,773
392,410; 7689,915;    1,022;    0,045
393,001; 7615,999;   -0,979;   -1,591
393,593; 7899,807;    1,930;   -0,045
394,184; 7756,187;    1,385;   -0,409
394,775; 7665,495;    1,839;    2,136
395,366; 7865,072;    1,385;    0,773
395,957; 7841,408;    0,113;    0,136
396,548; 8151,039;   -0,342;    2,682
397,139; 8450,453;   -2,433;    0,591
397,730; 8185,034;   -1,888;    0,955
398,321; 8231,295;   -1,252;    0,955
398,912; 8274,898;   -0,615;    0,136
399,503; 8333,468;   -3,524;   -1,409
400,094; 7809,644;    0,294;    1,682
400,685; 7678,586;   -0,433;    0,045
401,276; 7762,650;    0,930;   -0,955
401,867; 8018,077;   -0,888;    0,773
402,458; 8083,067;   -2,251;   -2,318
403,048; 8076,918;    1,112;    0,591
403,639; 7670,361;    0,840;    0,864
404,230; 7949,320;    2,476;    0,318
404,821; 7898,105;   -0,615;    0,045
405,411; 7996,014;    1,203;   -2,591
406,002; 7604,865;   -1,252;   -1,136
406,592; 7469,766;    2,294;    0,045
407,183; 7758,542;    0,566;   -1,500
407,774; 7649,923;    3,475;   -0,136
408,364; 7974,407;    0,930;    0,409
408,954; 7574,321;    0,384;    1,227
409,545; 7604,038;    1,021;    1,045
410,135; 7119,403;    1,293;    0,500
410,726; 7308,327;    1,838;    0,318
411,316; 7675,540;    0,111;    0,773
411,906; 7317,099;   -0,253;   -0,409
412,497; 6813,826;   -1,070;   -0,045
413,087; 7391,987;   -1,980;   -0,227
413,677; 7753,995;   -0,707;    3,864
414,267; 7560,859;    0,656;    1,409
414,857; 7568,788;   -2,980;    4,227
415,448; 7798,307;    0,839;    0,500
416,038; 7454,719;    0,020;   -0,591
416,628; 7421,712;   -0,889;    0,409
417,218; 6925,545;    0,565;    3,318
417,808; 7171,746;    0,202;   -0,409
418,398; 7565,418;    0,020;    2,682
418,988; 7573,312;    2,020;    0,591
419,578; 7769,528;   -0,707;    1,409
420,168; 8069,014;   -1,343;   -0,955
420,757; 7668,702;   -1,343;   -1,500
421,347; 7311,112;    0,111;   -0,227
421,937; 7436,315;    2,292;    1,409
422,527; 7385,540;    0,838;   -0,773
423,116; 7199,264;   -0,253;   -0,045
423,706; 7456,184;   -1,889;    0,318
424,296; 7399,178;    1,384;    0,682
424,885; 7788,450;   -0,071;   -3,045
425,475; 8009,591;    1,474;   -2,864
426,065; 7859,797;   -0,980;   -0,318
426,654; 7513,723;   -0,435;   -0,318
427,244; 7657,181;    0,020;    1,409
427,833; 7108,521;    1,383;   -0,500
428,423; 7481,382;   -0,526;    1,136
429,012; 8138,926;   -0,344;   -1,136
429,601; 7643,458;   -1,344;    0,136
430,191; 7820,676;    1,292;    4,318
430,780; 7475,267;   -0,344;   -0,409
431,369; 7386,007;    0,746;   -0,045
431,959; 7922,055;   -1,254;    0,500
432,548; 7694,005;   -1,163;   -0,045
433,137; 7746,499;   -1,254;   -1,318
433,726; 8206,015;    0,292;    0,500
434,315; 7611,195;   -0,526;    2,409
434,905; 7663,267;   -1,254;    1,409
435,494; 7520,233;    0,746;    0,955
436,083; 7909,545;   -0,981;   -0,955
436,672; 7765,221;    0,110;    0,500
437,261; 7363,535;    0,292;   -1,955
437,850; 7424,925;    1,383;    0,682
438,439; 7374,380;    3,291;    1,955
439,027; 7214,770;    3,655;    1,773
439,616; 7448,049;    2,927;    1,227
440,205; 7232,318;    0,200;   -2,136
440,794; 7201,065;    2,109;   -0,045
441,383; 7386,571;   -1,346;   -0,591
441,971; 7174,012;   -2,436;    0,591
442,560; 6998,941;    0,563;   -1,773
443,149; 6724,902;    0,379;   -1,318
443,737; 6795,314;   -0,074;   -2,318
444,326; 6992,496;    0,018;    0,318
444,915; 6962,420;   -1,982;    0,864
445,503; 7229,475;   -2,891;   -0,318
446,092; 6578,592;    0,382;    2,136
446,680; 6998,823;    0,382;    0,318
447,269; 7068,458;   -0,346;   -0,318
447,857; 6804,797;    0,018;   -1,773
448,445; 6812,124;    0,563;    1,318
449,034; 6936,136;   -1,528;   -1,136
449,622; 6977,593;   -1,073;    3,500
450,210; 6389,281;    2,017;    2,227
450,799; 6781,122;    0,290;   -0,591
451,387; 6658,180;    1,381;   -0,591
451,975; 6353,053;    2,654;    0,864
452,563; 6424,689;    3,472;    2,318
453,151; 6338,057;   -0,528;   -1,227
453,739; 6205,798;   -1,347;    0,136
454,328; 6083,723;    2,381;   -2,136
454,916; 5839,444;    2,562;   -0,136
455,504; 5911,971;    1,017;    1,227
456,092; 5992,414;    0,017;   -1,591
456,679; 5893,756;    1,472;    0,682
457,267; 6003,368;    4,017;    1,045
457,855; 5947,103;    1,017;    1,409
458,443; 5618,728;   -0,165;    1,682
459,031; 5795,769;    0,108;    2,409
459,619; 6080,331;   -1,801;    2,864
460,206; 6047,847;    0,835;    2,045
460,794; 6108,197;   -2,983;   -0,227
461,382; 6241,237;   -0,529;   -0,864
461,970; 5881,810;    1,198;    1,864
462,557; 5888,108;   -0,711;   -0,682
463,145; 6027,676;   -3,165;   -1,682
463,732; 6099,418;    2,016;   -1,045
464,320; 5918,074;   -0,075;   -3,045
464,907; 5717,468;    2,743;   -0,773
465,495; 5580,867;    0,743;   -1,227
466,082; 5600,005;   -1,984;   -0,045
466,670; 5471,382;   -2,529;    1,227
467,257; 5761,597;   -1,711;    2,045
467,844; 5887,112;   -0,075;    0,045
468,432; 5869,248;    0,834;    3,500
469,019; 5457,945;    0,925;   -1,773
469,606; 5751,043;    0,470;    3,682
470,193; 5621,221;   -1,439;    0,227
470,780; 5317,276;   -2,075;    0,864
471,368; 5455,003;   -1,257;   -0,773
471,955; 5268,337;    1,379;   -0,682
472,542; 4958,727;    0,652;   -1,136
473,129; 5011,416;   -0,166;    0,136
473,716; 4793,543;    1,470;    0,591
474,303; 4833,186;    0,652;   -0,864
474,890; 4950,282;   -1,439;   -0,500
475,477; 4988,748;   -1,621;    0,409
476,064; 4824,843;    1,106;   -1,591
476,650; 4658,394;    0,288;    0,318
477,237; 4501,848;   -0,258;    0,955
477,824; 4529,627;   -1,076;    0,864
478,411; 4380,341;   -1,894;   -0,318
478,997; 4446,781;    0,560;   -0,773
479,584; 4371,303;    1,196;   -0,409
480,171; 4800,172;   -0,440;   -0,773
480,757; 4590,747;    2,651;    0,773
481,344; 4553,420;    0,469;    0,409
481,931; 4102,292;    1,105;    1,045
482,517; 4626,453;   -1,258;    0,318
483,104; 4786,908;    1,106;    2,864
483,690; 4741,554;   -1,804;    0,045
484,276; 4740,385;   -0,895;    0,227
484,863; 4641,342;    2,469;    1,136
485,449; 4778,899;   -0,077;    0,318
486,035; 4651,762;   -1,986;   -0,136
486,622; 4916,601;   -0,895;    0,045
487,208; 4756,434;    1,378;    1,500
487,794; 4614,710;    0,741;    0,318
488,380; 4675,282;    0,105;   -1,409
488,967; 4658,502;   -1,168;   -0,409
489,553; 4717,753;   -1,895;   -1,409
490,139; 4852,910;    1,559;    0,773
490,725; 4572,017;    0,741;   -0,227
491,311; 4391,515;    3,287;    3,045
491,897; 4095,616;   -0,986;    1,500
492,483; 4171,310;    0,105;    1,227
493,069; 4616,507;    3,923;    0,864
493,655; 4363,873;    1,650;    0,682
494,241; 4333,735;    1,377;   -0,955
494,826; 4615,204;    0,287;   -1,045
495,412; 4373,599;    2,559;   -0,682
495,998; 4562,949;   -0,805;   -0,318
496,584; 4653,756;    0,377;    1,045
497,169; 4712,488;    1,014;   -0,682
497,755; 4822,848;    0,650;    1,227
498,341; 5463,848;    0,559;    0,318
498,926; 5361,870;    1,832;    1,955
499,512; 5570,525;    1,286;    2,955
500,097; 5681,050;    0,195;   -0,318
500,683; 5852,010;   -0,350;    2,136
501,268; 6370,866;   -0,169;   -0,955
501,854; 6403,056;   -0,169;    1,227
502,439; 6536,058;   -0,624;   -1,773
503,024; 6846,506;    0,195;    0,500
503,610; 7162,345;   -0,078;   -0,682
504,195; 7371,504;    0,558;    1,955
504,780; 7727,607;    2,922;    1,227
505,366; 7874,132;    3,013;    2,864
505,951; 7869,472;    0,740;    1,045
506,536; 8121,847;   -3,260;   -3,682
507,121; 8319,839;    0,285;   -0,318
507,706; 8969,667;    2,376;    1,045
508,291; 9533,021;    2,649;    1,136
508,876; 9285,143;   -0,988;    2,591
509,461; 9081,619;   -0,169;   -0,773
510,046; 9645,183;    0,194;    0,318
510,631;10078,127;   -0,351;   -0,773
511,216; 9962,596;    2,467;   -0,500
511,801;10511,371;   -0,442;    2,591
512,386;10938,849;    0,740;    0,500
512,971;11047,850;   -2,988;    0,955
513,555;10795,574;   -0,897;   -1,500
514,140;11713,538;   -0,442;   -3,136
514,725;11825,885;   -0,715;   -1,136
515,309;12066,229;   -0,533;    0,318
515,894;11684,103;   -0,624;   -2,227
516,479;12236,681;   -0,624;   -0,955
517,063;12188,743;    0,376;    1,227
517,648;12419,029;    1,012;   -1,136
518,232;12193,040;   -0,261;   -1,409
518,817;12591,924;   -0,079;    1,682
519,401;12875,509;    2,194;    0,591
519,985;12445,210;    1,103;    1,136
520,570;12396,301;    0,830;   -1,955
521,154;12762,407;    2,102;    0,591
521,738;13006,044;   -2,352;    2,409
522,323;13584,296;   -0,170;    1,682
522,907;13351,912;    0,466;   -0,136
523,491;13115,467;    0,557;    0,955
524,075;13168,534;    2,284;    0,591
524,659;13315,963;    1,466;    0,591
525,243;12797,190;    1,739;    0,409
525,827;13072,324;    0,648;   -0,045
526,411;13940,327;   -1,989;   -0,136
526,995;14142,056;   -0,352;    1,409
527,579;13813,451;   -0,443;   -1,045
528,163;14135,535;    0,375;   -1,500
528,747;14033,700;    2,466;   -0,773
529,331;14357,715;   -0,080;   -1,409
529,915;14586,936;    1,738;    0,955
530,499;14546,541;   -0,807;    1,227
531,082;14276,899;   -0,534;    1,591
531,666;13701,834;    1,374;    0,773
532,250;14418,857;    1,284;    2,682
532,833;14787,331;    0,920;    2,773
533,417;14599,915;   -1,807;    0,864
534,001;14603,918;    1,647;   -0,318
534,584;15329,473;    0,374;    0,500
535,168;15146,830;    0,465;    1,409
535,751;15213,687;    0,647;    0,045
536,334;14697,898;   -0,898;   -0,409
536,918;15283,101;    0,011;    1,591
537,501;15380,784;   -0,899;    1,318
538,085;15372,807;   -0,444;    1,045
538,668;15564,691;    0,829;    2,409
539,251;15900,485;    1,829;    3,773
539,834;15884,199;    0,101;    0,773
540,418;15854,050;   -1,990;    4,318
541,001;15986,628;   -0,990;    1,773
541,584;15965,025;    2,101;    2,227
542,167;15653,185;    1,374;    2,955
542,750;15806,792;    1,919;   -0,773
543,333;15423,051;    0,555;    2,136
543,916;16170,374;    0,192;    2,500
544,499;16788,193;   -1,354;    0,227
545,082;16803,172;    1,374;    3,591
545,665;16947,995;    1,919;    1,500
546,248;17283,233;    1,010;   -0,318
546,830;16953,185;   -0,445;    1,955
547,413;17364,502;    1,010;   -0,773
547,996;17891,059;    0,555;    0,500
548,579;17699,356;    0,919;    0,955
549,161;17506,517;    1,828;    2,682
549,744;17242,632;   -0,809;    0,409
550,326;17740,548;   -0,809;   -1,136
550,909;17565,108;    2,737;    0,591
551,492;17929,892;   -0,263;    0,227
552,074;17733,257;   -0,173;   -1,318
552,657;18309,956;    2,373;    0,045
553,239;18031,245;   -0,173;   -0,773
553,821;17970,816;   -1,082;    1,045
554,404;17475,467;    1,282;    1,136
554,986;17860,961;    0,464;    1,045
555,568;18450,341;    1,191;   -0,955
556,151;17677,407;    1,191;   -0,227
556,733;17876,217;   -0,264;   -0,864
557,315;18318,414;    0,100;    0,500
557,897;18154,369;    0,554;   -0,500
558,479;18241,407;   -1,991;    1,318
559,061;18410,324;   -0,719;   -0,864
559,643;18756,519;   -0,264;    0,045
560,225;19123,501;    1,645;    2,864
560,807;19113,701;    0,918;    0,318
561,389;18594,598;    0,554;    2,318
561,971;19411,178;    0,463;    2,136
562,553;19177,268;   -1,628;    1,591
563,135;19334,744;   -0,537;    1,136
563,717;18890,255;    3,372;    1,136
564,298;19639,501;    3,645;   -0,045
564,880;19370,248;    0,645;   -1,409
565,462;19593,429;    0,645;    1,318
566,043;20753,988;   -0,446;    2,318
566,625;20268,803;    1,918;    1,227
567,207;20112,226;    1,099;    1,682
567,788;21253,970;   -1,264;    1,500
568,370;22062,839;    1,917;   -0,500
568,951;21920,962;    0,190;    0,227
569,533;22812,613;   -0,628;   -0,500
570,114;23262,868;   -0,446;    0,682
570,695;23806,269;   -0,174;   -1,318
571,277;24308,672;   -0,265;   -1,682
571,858;25046,580;    2,008;   -1,136
572,439;25948,414;    1,554;   -1,045
573,021;26095,530;    2,099;   -2,773
573,602;26607,396;   -1,265;    0,318
574,183;27580,135;   -2,083;    2,227
574,764;27682,730;   -1,629;    0,409
575,345;28225,311;    0,917;   -0,136
575,926;28826,593;   -0,356;    0,136
576,507;28738,938;    1,099;   -0,227
577,088;29876,725;    3,099;    1,682
577,669;29926,120;    0,735;    1,955
578,250;30744,953;    0,644;   -1,045
578,831;31427,034;   -1,356;   -2,227
579,412;31615,459;   -0,810;    0,955
579,993;32490,528;    1,008;    0,227
580,573;32789,017;   -0,629;   -0,955
581,154;31766,791;    0,735;   -0,591
581,735;32642,267;    0,644;    0,773
582,315;32171,540;   -0,629;    2,136
582,896;32440,821;   -0,174;    1,227
583,477;31857,900;    0,189;    1,227
584,057;32025,587;    0,553;    0,955
584,638;32396,710;    2,553;    2,318
585,218;32416,581;   -0,538;    2,682
585,799;32507,495;    0,281;   -0,227
586,379;32399,816;    0,372;    1,591
586,959;31161,197;    0,735;    0,318
587,540;30496,657;   -0,629;    2,227
588,120;30025,144;    1,007;   -0,045
588,700;28998,736;    2,553;    2,136
589,281;29400,136;    0,462;   -0,955
589,861;29338,187;    0,099;   -1,682
590,441;29187,688;    2,371;   -2,682
591,021;28125,797;   -0,265;   -2,591
591,601;28328,097;   -0,537;    0,500
592,181;28340,024;   -0,719;   -0,773
592,761;27631,486;    0,007;    1,409
593,341;27470,617;   -0,901;    0,045
593,921;27542,875;   -0,265;    1,591
594,501;27434,865;   -0,538;    1,318
595,081;27323,809;    0,917;   -0,318
595,661;27678,814;   -1,447;    0,955
596,240;28217,037;   -0,537;    0,136
596,820;27863,733;    0,372;    1,955
597,400;28055,199;    2,008;    0,773
597,980;28213,951;    2,008;    1,045
598,559;28169,098;    2,735;   -0,227
599,139;27874,845;   -0,174;   -1,227
599,718;27818,845;   -0,174;   -0,409
600,298;28095,766;    0,735;    0,682
600,877;28348,689;    2,917;    1,409
601,457;28547,021;    2,281;    1,136
602,036;28493,639;    0,190;    2,045
602,616;28715,312;    0,644;    1,682
603,195;29057,745;   -0,355;    3,500
603,774;28646,552;   -0,901;    2,045
604,354;28504,527;    0,826;   -0,500
604,933;27964,814;    0,463;    1,864
605,512;28100,596;    3,554;    0,591
606,091;28172,600;   -0,537;    3,773
606,671;28976,447;    0,281;    0,773
607,250;28111,727;    1,644;    3,136
607,829;28333,560;    2,372;    3,227
608,408;28149,562;    1,190;    2,591
608,987;27140,278;    1,281;    3,409
609,566;27408,817;   -1,265;   -2,500
610,145;27568,168;   -1,082;    0,682
610,723;28041,031;    4,372;    6,864
611,302;27301,157;   -0,446;    1,682
611,881;26779,638;    5,008;   11,227
612,460;27584,162;    1,645;    3,955
613,039;28035,127;   -0,082;    2,045
613,617;26755,877;    1,736;    4,773
614,196;26919,466;    1,099;    1,227
614,775;27284,998;    1,009;    2,409
615,353;27201,658;    0,736;    0,864
615,932;26973,727;    0,100;    2,409
616,510;27563,541;    0,554;    0,591
617,089;27098,615;    7,100;   17,591
617,667;26818,640;    2,372;    6,136
618,246;26642,450;   -1,537;    1,318
618,824;26846,068;   -3,355;   -0,955
619,402;26374,526;   -2,900;   -1,773
619,981;26889,574;   -0,173;   -1,045
620,559;26721,331;    0,009;    1,682
621,137;26244,047;   -0,718;    1,864
621,715;26268,091;   -1,173;   -0,682
622,293;26207,921;   -0,537;   -0,773
622,871;26678,323;   -0,718;    0,500
623,450;26187,883;    0,373;   -0,864
624,028;26100,359;    0,191;   -0,955
624,606;25779,536;   -1,718;    1,682
625,183;26151,913;   -1,536;   -1,136
625,761;25810,273;    1,009;    1,136
626,339;26131,430;    1,373;    2,591
626,917;26440,113;   -0,172;   -0,045
627,495;26467,154;   -0,354;    1,318
628,073;25934,409;   -0,263;    2,864
628,650;25610,911;    0,100;    2,136
629,228;26092,992;    0,373;    4,409
629,806;25434,827;    2,282;    1,136
630,383;25738,740;    1,464;   -0,318
630,961;25500,586;    2,555;   -0,955
631,539;25267,611;    2,464;    0,227
632,116;24670,949;   11,373;   15,409
632,694;25176,201;    2,555;    6,500
633,271;25459,036;    0,828;    2,682
633,848;25435,900;    1,828;    2,045
634,426;25428,244;   -1,081;    1,773
635,003;24536,549;    1,101;   -0,409
635,580;24907,808;    1,192;    3,682
636,158;25482,505;    3,737;    1,227
636,735;25430,067;    0,555;   -0,500
637,312;25595,249;   -0,809;   -0,682
637,889;25652,105;   -4,354;   -0,682
638,466;25103,425;   -3,990;   -0,409
639,043;25115,088;    2,101;   -1,136
639,620;25439,871;   -2,262;   -0,955
640,197;25783,980;    1,100;    1,682
640,774;25867,033;   -0,172;    1,136
641,351;26294,632;    0,737;    1,136
641,928;25727,140;   -0,627;    1,409
642,505;25379,921;    0,828;   -0,500
643,082;25491,156;   -1,718;    1,227
643,658;24472,028;   -0,718;    1,500
644,235;25236,626;    1,191;    2,500
644,812;25561,953;    1,918;    0,773
645,388;25299,370;   -0,991;    1,409
645,965;25457,696;   -0,809;    1,682
646,542;25498,113;   -1,445;   -0,227
647,118;25479,894;    1,009;   -0,955
647,695;25723,311;   -0,263;    1,136
648,271;25630,637;   -0,536;    0,500
648,848;25977,145;    0,736;    2,227
649,424;25848,017;    0,827;    1,318
650,000;25625,979;   -0,354;   -1,045
650,577;25391,487;   -0,627;   -0,955
651,153;25868,359;   -1,809;    0,955
651,729;26867,049;    1,191;    0,864
652,305;27401,557;    0,645;    2,773
652,881;32573,156;   -0,082;    1,136
653,458;39454,209;    1,100;    0,227
654,034;42774,353;    0,282;    1,591
654,610;43972,771;    0,554;    0,773
655,186;45211,915;    0,645;    3,045
655,762;44828,787;   -0,991;    0,409
656,338;44805,567;    0,100;    0,136
656,913;45676,712;   -0,082;    0,409
657,489;44914,765;    0,827;   -0,318
658,065;44820,273;   -0,173;   -1,591
658,641;45487,145;   -0,900;   -0,864
659,217;44793,835;   -0,991;    0,409
659,792;44154,524;    0,645;   -0,409
660,368;44371,578;   -2,173;   -0,682
660,944;43753,995;   -2,082;    1,227
661,519;38528,685;   -0,628;    0,409
662,095;32664,284;   -1,719;    0,591
662,670;28555,610;    1,281;   -0,136
663,246;27682,300;    1,009;   -0,409
663,821;27147,080;    0,281;    1,682
664,396;26655,588;    0,009;    1,864
664,972;26882,551;    0,009;   -0,500
665,547;27212,514;    1,372;    0,136
666,122;27266,840;   -1,082;    0,318
666,698;27527,439;   -0,173;    0,318
667,273;26854,310;   -0,173;    0,136
667,848;27658,273;    2,372;    1,500
668,423;27432,690;    2,190;    2,318
668,998;28034,925;    2,827;   -0,682
669,573;28636,797;   -3,264;   -1,500
670,148;28422,305;   -1,446;   -0,682
670,723;28204,086;   -1,810;    0,318
671,298;28612,685;    2,372;    1,045
671,873;28756,920;   -0,082;   -0,136
672,448;28696,064;    0,645;    0,136
673,023;28998,209;   -1,992;   -0,227
673,597;29352,807;    0,827;    2,318
674,172;29111,043;   -0,355;    0,318
674,747;28598,369;    0,372;   -1,045
675,321;28414,877;   -0,628;    3,318
675,896;27977,749;    0,645;    1,045
676,471;29081,075;    2,645;    1,591
677,045;28765,219;   -1,264;    0,682
677,620;28810,545;    0,190;    1,136
678,194;29136,962;   -2,628;    1,136
678,769;28716,925;   -1,083;   -0,318
679,343;28974,524;   -0,628;    1,773
679,917;28843,396;   -1,446;    1,955
680,492;28897,994;    0,826;    3,227
681,066;29083,775;    3,372;    0,409
681,640;29152,010;    1,463;   -0,318
682,214;29986,337;    0,735;    0,500
682,788;29499,117;   -1,356;   -0,773
683,363;29423,625;   -1,810;    1,682
683,937;29101,952;   -1,719;   -0,318
684,511;29866,732;    0,463;   -0,591
685,085;29557,149;   -1,356;    0,318
685,659;29245,476;   -2,538;    0,864
686,232;29614,893;   -0,356;   -0,318
686,806;29350,128;   -0,901;    0,409
687,380;29951,272;   -0,174;    0,591
687,954;30153,780;   -1,174;    1,136
688,528;29813,197;   -0,719;    1,955
689,101;30601,705;   -3,992;    1,045
689,675;30234,032;   -0,356;   -0,136
690,249;29617,085;   -0,719;    0,409
690,822;29903,229;    0,280;    0,318
691,396;30012,101;   -0,265;    1,227
691,969;29426,427;    1,280;    0,136
692,543;29863,663;   -0,447;   -1,955
693,116;29523,443;   -0,265;   -1,409
693,690;29430,042;    0,099;    0,500
694,263;29976,732;   -1,083;    2,955
694,836;30061,604;    1,371;    3,591
695,410;28700,839;   -0,265;    1,773
695,983;29161,165;    0,189;    0,591
696,556;29108,128;   -0,447;   -1,045
697,129;29527,545;   -0,356;    1,409
697,703;29138,689;   -1,629;    1,955
698,276;29058,015;    1,462;   -0,773
698,849;28929,796;    1,280;    1,409
699,422;29251,668;   -1,083;    0,591
699,995;28995,358;    0,007;    0,136
700,568;29456,502;   -0,629;    3,045
701,140;29456,646;   -2,811;    1,682
701,713;29207,427;   -0,174;    2,409
702,286;28945,753;   -0,538;    0,864
702,859;28820,988;   -0,902;   -0,591
703,432;28039,406;    0,825;    0,682
704,004;28519,186;    0,462;    0,318
704,577;28434,785;   -0,629;    0,136
705,150;28965,748;    0,189;    2,500
705,722;28714,438;   -0,356;   -3,227
706,295;28523,764;   -0,175;   -0,591
706,867;28393,908;   -0,175;    1,955
707,440;28622,871;   -1,720;   -0,409
708,012;28838,470;    0,462;    0,591
708,584;28767,978;    2,462;    0,227
709,157;29059,304;    1,825;   -0,591
709,729;28725,357;    2,280;    2,045
710,301;29528,865;    0,734;    0,045
710,874;29529,191;   -1,447;   -0,227
711,446;28424,336;    0,371;    0,864
712,018;28312,753;    0,098;    0,500
712,590;28051,443;   -1,993;    1,682
713,162;28565,314;    0,825;    1,318
713,734;28828,641;    1,825;   -2,045
714,306;28718,421;   -1,902;   -0,409
714,878;27387,475;    0,825;    0,864
715,450;28230,619;    0,643;    0,864
716,022;28453,673;    1,552;    1,318
716,593;28607,726;    0,189;    0,591
717,165;28555,598;   -3,175;   -1,227
717,737;28277,742;    0,280;    0,409
718,309;27930,159;    0,280;   -0,045
718,880;27907,940;   -0,539;   -1,409
719,452;28126,812;   -0,175;   -1,591
720,024;27729,410;    0,734;   -0,591
720,595;28276,918;   -2,902;    0,955
721,167;27823,881;    0,370;   -2,045
721,738;27366,207;   -0,812;   -1,045
722,309;27360,352;   -0,993;   -1,227
722,881;27087,769;   -1,357;    0,773
723,452;27747,640;   -2,630;    2,864
724,023;27922,966;   -0,721;    2,682
724,595;27638,202;    0,007;    0,682
725,166;27364,255;    0,007;   -0,409
725,737;27110,309;    1,734;    0,227
726,308;27167,271;   -0,266;    0,318
726,879;27655,870;   -1,630;    1,227
727,450;27422,378;    0,552;   -0,045
728,021;27434,159;    3,097;    0,682
728,592;27217,576;    0,734;    0,500
729,163;27581,993;    0,643;   -0,136
729,734;27662,319;    0,188;   -0,227
730,305;27962,100;    1,734;    0,136
730,876;28296,608;    0,188;    2,955
731,447;27978,661;    2,188;    2,682
732,017;28108,079;    1,097;    1,864
732,588;27587,859;    0,734;    1,227
733,159;27813,095;    0,643;   -1,045
733,729;27559,875;    0,006;    0,409
734,300;26808,383;    0,915;    0,864
734,870;27259,255;    3,461;    0,591
735,441;27837,308;    0,370;   -0,591
736,011;27610,907;    0,643;   -1,591
736,582;27529,415;   -0,812;    0,045
737,152;26993,378;   -1,721;   -2,045
737,722;27467,431;   -0,267;   -0,682
738,293;27157,303;   -1,358;    1,318
738,863;27055,902;    2,461;    2,318
739,433;26862,501;    5,279;    0,318
740,003;27482,736;   -0,994;   -0,682
740,573;26881,608;    2,097;   -1,591
741,143;26781,843;   -1,085;    0,318
741,713;27580,169;    1,188;   -0,500
742,283;27320,223;    0,915;    1,591
742,853;27078,640;    1,915;    1,591
743,423;26525,420;    1,733;    0,045
743,993;26684,292;   -0,358;    1,500
744,563;26049,255;    0,097;   -0,864
745,133;26003,581;   -0,812;   -0,864
745,702;26719,452;   -0,267;    1,773
746,272;25920,870;   -0,176;    0,591
746,842;25689,559;   -1,358;   -0,591
747,411;26078,431;   -0,267;   -0,318
747,981;26257,121;    0,097;    0,500
748,551;26308,902;    2,278;   -1,045
749,120;26188,046;    0,642;   -0,227
749,690;26548,463;   -0,631;    2,409
750,259;26879,607;    1,369;    2,955
750,828;26836,479;    1,551;   -1,955
751,398;27088,442;    1,278;   -0,045
751,967;26636,495;    2,187;    0,409
752,536;26797,912;   -0,813;   -0,227
753,105;27228,693;    0,096;    0,227
753,675;27030,292;    0,096;    1,773
754,244;26963,709;   -0,904;    3,591
754,813;27051,671;    0,551;    1,227
755,382;26592,179;    0,460;    0,955
755,951;27146,142;    1,551;    3,682
756,520;26677,468;   -0,085;    1,864
757,089;27246,613;    0,278;    0,500
757,658;27386,302;    1,733;    1,227
758,227;27392,810;    1,096;    0,318
758,795;27672,591;    1,187;    1,136
759,364;27899,645;   -0,086;   -0,591
759,933;26889,789;   -1,176;   -0,045
760,501;26393,206;    0,733;   -1,318
761,070;26897,350;   -2,813;   -1,409
761,639;27615,040;   -1,904;    1,318
762,207;26932,457;    1,551;   -0,955
762,776;26916,602;    0,369;    0,864
763,344;26830,746;   -0,995;    0,591
763,913;25897,527;   -0,722;    1,409
764,481;26673,035;    1,005;   -0,136
765,049;26460,543;   -1,358;    1,409
765,618;26326,505;   -0,086;    0,318
766,186;26398,104;    0,278;    0,136
766,754;26646,794;    0,005;    1,864
767,322;25621,666;   -1,995;    0,409
767,890;25640,174;   -0,722;   -1,773
768,459;26056,318;   -2,177;   -0,318
769,027;26273,644;    1,641;    3,409
769,595;25257,516;    3,278;    2,591
770,163;25688,388;    3,823;    2,955
770,730;25398,077;    0,732;   -0,136
771,298;25211,767;    0,187;   -1,409
771,866;25277,275;   -1,541;    4,955
772,434;25601,965;   -0,631;   -1,864
773,002;25813,928;    0,005;    0,682
773,569;25461,799;    0,914;    1,682
774,137;25297,035;   -0,268;   -0,045
774,705;26047,906;    0,278;   -0,136
775,272;25518,141;    0,641;    0,682
775,840;25268,922;   -0,177;    2,682
776,407;24863,339;    0,277;    1,955
776,975;24506,575;   -0,632;    0,318
777,542;25473,628;   -1,086;   -0,045
778,110;25251,318;   -1,268;   -0,045
778,677;24992,371;   -2,359;   -0,864
779,244;24726,152;    2,186;    1,045
779,812;24846,933;    1,823;    0,864
780,379;24703,532;    0,005;    1,136
780,946;24925,312;    1,005;   -0,773
781,513;25287,639;   -1,450;    0,318
782,080;24683,510;   -0,086;    2,864
782,647;25420,836;   -0,268;    3,045
783,214;25015,163;   -0,177;    3,864
783,781;24559,125;   -0,723;   -0,682
784,348;24425,451;   -0,632;    1,500
784,915;24859,050;   -3,177;    0,318
785,482;24653,831;    1,368;    2,591
786,049;25104,612;    0,186;   -0,591
786,615;25232,665;    0,277;   -0,955
787,182;24905,264;    0,186;   -0,682
787,749;24649,863;   -2,814;    1,409
788,315;24005,553;   -1,632;   -0,409
788,882;24283,879;    1,550;   -1,227
789,448;24974,842;    1,732;   -0,955
790,015;24968,713;    1,095;    3,227
790,581;24532,039;    1,459;    0,227
791,148;24471,093;    0,641;    1,045
791,714;24666,328;   -0,541;    3,136
792,280;24347,200;    0,186;    1,591
792,847;23865,890;    0,550;    2,500
793,413;24432,670;   -0,269;   -0,318
793,979;24006,815;    3,459;   -1,318
794,545;24088,595;    4,459;    2,682
795,111;23495,922;    2,186;    1,318
795,678;23644,066;    0,731;   -1,682
796,244;23288,756;    3,368;    0,136
796,810;23865,264;    1,731;    0,773
797,375;23568,408;    0,549;   -2,136
797,941;23631,553;   -0,541;    0,591
798,507;23749,970;   -0,451;   -0,955
799,073;23292,660;   -0,360;    0,591
799,639;23343,986;   -2,632;    3,136
800,205;23395,130;    0,095;    2,682
800,770;22908,365;    0,640;    1,773
801,336;23013,782;    1,368;   -0,955
801,901;22721,654;    4,549;    3,136
802,467;23305,344;   -0,542;    2,045
803,033;22579,397;   -0,087;    0,864
803,598;22843,269;    1,913;   -1,045
804,163;22835,504;    1,095;   -0,318
804,729;22774,376;   -0,178;    1,136
805,294;23249,066;    0,822;    2,227
805,859;23034,756;    0,731;   -0,409
806,425;22487,627;    1,186;    2,682
806,990;22159,044;    2,186;    4,318
807,555;22628,734;   -1,451;    2,591
808,120;22464,606;    0,822;   -0,409
808,685;22550,932;    0,185;   -2,500
809,250;22064,076;    0,004;   -0,500
809,815;22376,039;    1,913;    0,682
810,380;22946,456;   -0,269;    1,591
810,945;23490,600;   -1,087;    2,045
811,510;22624,654;    2,094;    1,591
812,075;22317,980;   -0,633;   -1,409
812,640;22354,124;    2,003;    1,409
813,204;22423,723;    0,822;   -0,227
813,769;22922,049;    2,094;   -0,045
814,334;22348,285;    0,458;    0,864
814,898;22394,156;    0,367;    0,591
815,463;22220,573;    1,276;   -0,773
816,027;22204,536;   -0,724;   -2,318
816,592;22241,499;    0,640;   -2,045
817,156;21833,643;    2,094;    1,136
817,721;21728,969;    4,276;    2,318
818,285;21666,750;    2,912;    1,500
818,849;22257,622;   -1,451;    1,682
819,414;22193,402;   -0,269;    2,955
819,978;21742,365;   -1,269;    1,773
820,542;22324,964;    2,003;    0,500
821,106;21983,926;   -0,815;    0,682
821,670;22129,162;   -0,815;    2,591
822,234;21885,306;   -0,270;    1,409
822,798;21189,723;    0,003;    0,500
823,362;21170,867;   -0,633;    4,227
823,926;20552,194;    0,094;    1,136
824,490;20797,702;   -0,997;   -0,682
825,054;21197,391;   -0,088;   -1,136
825,618;20853,808;   -1,542;   -1,500
826,181;20778,044;    0,458;   -1,318
826,745;20704,915;    1,367;   -1,045
827,309;21079,605;    1,185;    1,318
827,872;20422,840;    1,367;    0,955
828,436;21349,167;    1,185;   -0,773
828,999;21418,129;   -0,997;    1,227
829,563;20236,728;   -0,179;    1,136
830,126;20083,873;   -0,179;   -0,591
830,690;20125,381;   -1,997;    2,864
831,253;19609,070;   -0,543;    2,227
831,816;19774,942;   -1,906;    0,500
832,380;19699,905;    0,185;    0,864
832,943;19951,413;   -1,361;   -0,500
833,506;19414,921;    2,639;   -1,227
834,069;20183,610;    3,912;   -0,955
834,632;20248,391;    1,730;    1,318
835,195;20143,717;    1,003;    0,955
835,758;19316,043;   -0,997;    1,955
836,321;19153,824;    0,730;   -1,045
836,884;19296,423;   -0,725;   -0,955
837,447;19288,295;   -2,816;    1,773
838,010;19578,075;    0,366;    3,227
838,573;19866,038;   -1,179;    0,773
839,135;19815,910;   -1,361;   -0,955
839,698;19280,327;    1,275;    0,409
840,261;18787,926;    1,003;   -0,227
840,823;18598,434;   -0,543;    0,864
841,386;18920,124;   -0,452;   -2,409
841,948;18848,268;   -1,361;    1,773
842,511;18582,412;    0,912;    1,682
843,073;18704,829;    1,912;    0,227
843,636;18494,792;   -0,361;   -0,227
844,198;18452,482;    0,911;    0,591
844,760;18600,172;    1,093;    1,955
845,322;18218,316;    0,548;    1,136
845,885;18682,278;    0,730;    0,591
846,447;19097,696;   -1,998;    0,227
847,009;18688,567;    1,911;   -0,682
847,571;18995,075;    0,820;   -2,045
848,133;19111,310;   -1,089;   -1,864
848,695;18901,182;   -0,543;    1,409
849,257;18505,781;   -1,089;   -1,682
849,819;18647,653;   -0,998;   -0,409
850,381;18676,888;   -0,725;   -0,864
850,942;19050,396;    1,093;   -0,591
851,504;19045,540;    1,184;    0,227
852,066;19062,139;    1,275;   -1,591
852,628;18619,193;   -0,180;    1,955
853,189;18145,337;    1,638;    2,682
853,751;18232,209;   -0,907;    1,409
854,312;18028,535;   -0,453;   -1,682
854,874;18558,770;   -2,089;   -0,773
855,435;19104,460;   -0,907;   -1,682
855,997;19240,604;   -1,816;   -0,136
856,558;18500,294;    0,366;    1,773
857,119;18620,984;    0,820;    2,864
857,681;18265,219;    0,002;    0,318
858,242;18313,182;    1,911;   -2,136
858,803;18773,872;    0,456;   -0,773
859,364;19363,743;    0,184;   -4,773
859,925;18686,160;   -2,453;   -0,955
860,486;18589,941;   -0,453;   -0,955
861,047;18308,358;   -0,544;   -1,227
861,608;18121,594;   -1,089;   -0,773
862,169;18220,283;    0,638;   -0,045
862,730;18012,973;    0,456;    1,409
863,291;18280,299;   -0,635;   -0,500
863,852;18630,262;   -0,635;    1,955
864,412;18068,497;   -0,271;   -0,864
864,973;16701,187;   -0,089;    0,500
865,534;16569,968;   -1,726;    0,227
866,094;18048,112;    1,820;    0,227
866,655;17714,166;    1,274;    3,318
867,215;17968,946;    0,274;    0,136
867,776;17810,454;    0,547;   -0,136
868,336;17913,417;   -1,453;    0,136
868,897;17400,561;    2,638;    1,682
869,457;17131,887;    1,365;    0,318
870,017;17345,395;    0,547;   -1,227
870,578;17840,631;   -0,817;    0,773
871,138;17589,411;   -2,089;   -0,955
871,698;17106,556;   -0,817;   -1,318
872,258;16964,882;   -0,453;   -2,864
872,818;17385,117;    2,729;    0,045
873,378;17332,171;    0,638;    1,045
873,938;16867,042;    0,547;    0,500
874,498;17159,732;    0,274;   -1,955
875,058;17103,422;    2,183;    1,773
875,618;16936,385;    1,910;   -2,682
876,177;16827,438;    1,274;    0,136
876,737;16462,310;   -0,090;    1,955
877,297;16535,272;    0,183;    1,955
877,856;16543,598;   -0,362;    0,318
878,416;16450,834;    1,183;   -0,136
878,976;16710,524;   -1,817;    0,409
879,535;16869,577;    0,092;    3,136
880,095;16597,994;   -0,544;    0,045
880,654;16738,048;   -1,090;    1,318
881,213;16842,465;    2,456;    1,500
881,773;16483,791;    2,637;    2,682
882,332;16834,662;    3,365;    5,136
882,891;16671,080;    3,092;    2,136
883,451;17121,678;   -1,272;    1,682
884,010;16572,550;   -2,908;   -0,409
884,569;16667,876;   -0,999;   -0,045
885,128;16786,930;    2,819;   -1,864
885,687;16900,801;    4,455;    0,682
886,246;16599,855;    1,455;    2,136
886,805;16339,636;    2,455;    2,045
887,364;16612,234;   -0,999;   -0,500
887,922;17005,652;   -1,181;    0,045
888,481;16503,978;   -1,545;    0,591
889,040;16813,304;    1,183;    2,136
889,599;17477,539;    2,455;    1,409
890,157;17528,047;    1,455;    2,409
890,716;17209,737;   -0,090;    0,227
891,274;17001,881;    0,092;   -1,136
891,833;17449,571;    1,546;    0,864
892,391;17321,625;   -0,454;    0,500
892,950;17407,315;    1,819;   -0,773
893,508;17793,277;    0,455;   -0,409
894,067;17122,603;    0,637;    0,136
894,625;17007,748;   -0,636;   -1,500
895,183;17226,619;   -0,363;   -0,682
895,741;17110,218;    1,728;   -1,773
896,299;16973,272;   -0,545;   -2,409
896,858;17193,598;    0,819;   -1,591
897,416;17292,288;    2,728;   -1,318
897,974;17076,068;    1,819;    0,318
898,532;17205,486;    6,091;    2,682
899,089;17073,357;    2,091;   -0,682
899,647;17127,592;   -1,454;    1,318
900,205;16846,464;    1,182;    1,045
900,763;17007,336;   -0,454;    0,227
901,321;17023,935;    2,364;   -1,409
901,878;16413,624;   -1,000;   -0,773
902,436;16306,314;   -1,363;    1,318
902,994;16774,095;    4,728;    3,682
903,551;16165,785;    0,728;    0,409
904,109;16558,202;    0,182;   -1,409
904,666;16093,983;    2,455;    1,045
905,224;15915,763;    0,182;   -0,409
905,781;15676,180;    0,727;   -0,318
906,338;15745,507;   -1,363;    1,045
906,895;15705,378;    0,637;    2,045
907,453;15617,977;    1,727;    1,136
908,010;15682,031;   -0,909;    0,409
908,567;15358,721;    1,273;    0,591
909,124;14815,319;    0,364;   -1,500
909,681;14934,827;   -2,909;    0,682
910,238;15045,154;    0,636;   -1,318
910,795;15368,298;   -0,273;   -1,136
911,352;14956,389;   -2,909;   -2,682
911,909;14424,934;   -1,364;   -0,864
912,466;14927,571;   -3,182;    1,500
913,022;14444,298;   -1,636;    0,500
913,579;14838,571;   -0,909;    2,045
914,136;14495,207;    1,636;    0,955
914,692;14836,571;    0,091;   -1,227
915,249;14472,662;    1,455;    0,409
915,806;14718,843;    0,182;    1,955
916,362;14450,116;    1,909;    1,864
916,918;14022,207;    2,000;    1,045
917,475;13994,025;   -1,182;    0,955
918,031;14039,480;    3,364;   -0,045
918,587;13482,480;   -0,909;   -0,318
919,144;13699,207;   -2,273;    0,227
919,700;14026,480;    1,727;    0,773
920,256;13600,025;    0,727;    0,045
920,812;13230,753;   -0,727;   -1,045
921,368;13232,116;   -1,727;   -1,045
921,924;12871,662;    0,182;   -0,136
922,480;12442,843;   -0,545;    1,227
923,036;13068,753;    1,273;    1,955
923,592;13012,571;    0,455;    0,318
924,148;12928,207;    0,455;   -0,955
924,704;12233,025;   -1,364;   -0,409
925,259;12485,571;   -0,273;    0,591
925,815;12274,934;    1,455;    0,500
926,371;11761,571;    2,909;    1,409
926,926;11647,480;    2,091;    0,591
927,482;11336,571;   -1,364;    0,773
928,037;11194,753;    0,909;    2,045
928,593;11494,843;    1,636;    1,045
929,148;11284,662;   -1,818;   -1,500
929,704;10794,025;   -1,455;   -0,500
930,259;11017,298;    0,091;   -0,136
930,814;10098,571;   -0,818;    1,955
931,369; 9762,389;    1,091;   -0,773
931,925; 9673,571;   -0,091;    0,136
932,480; 9576,934;   -2,818;   -2,591
933,035; 9472,025;    0,545;   -0,318
933,590; 9236,843;    0,364;   -1,773
934,145; 8826,116;   -1,364;   -0,318
934,700; 9196,571;    0,455;   -0,591
935,255; 8983,571;   -0,091;    0,045
935,809; 8310,389;    3,182;    0,864
936,364; 7426,480;   -0,455;   -0,136
936,919; 7384,207;    0,455;   -1,773
937,474; 7263,389;    1,455;    0,136
938,028; 7011,843;   -1,636;    1,136
938,583; 6537,480;    1,818;    4,682
939,138; 6780,025;    2,091;    2,136
939,692; 6203,480;    1,636;   -1,136
940,247; 5918,753;   -0,727;   -1,045
940,801; 5501,207;   -0,636;    0,227
941,355; 5409,934;   -0,364;    2,591
941,910; 5038,207;   -0,273;   -2,136
942,464; 5150,662;   -0,818;   -0,318
943,018; 4938,934;    1,000;   -0,227
943,572; 4882,662;    2,545;   -0,682
944,126; 4319,116;    0,091;   -0,409
944,681; 4212,025;    3,091;    0,227
945,235; 4201,116;    1,000;   -0,591
945,789; 4152,753;    0,364;   -1,864
946,342; 4273,116;    0,455;   -0,591
946,896; 4066,571;   -2,273;    0,955
947,450; 3806,753;    1,545;   -0,227
948,004; 4011,843;    1,727;   -0,045
948,558; 4009,025;    0,273;   -0,864
949,111; 3918,662;   -0,273;   -0,318
949,665; 3967,298;    1,636;   -0,682
950,219; 3861,207;   -0,091;   -1,045
950,772; 3933,480;   -1,909;    1,864
951,326; 3839,389;    0,545;   -0,955
951,879; 3950,662;    0,727;   -2,318
952,433; 3964,571;    0,000;    2,227
952,986; 3795,116;    2,909;    0,682
953,539; 3750,934;   -0,273;    0,591
954,093; 3680,389;    0,545;   -1,318
954,646; 3798,480;    0,909;    1,318
955,199; 3609,116;    0,000;   -0,500
955,752; 3518,389;   -0,455;    1,773
956,305; 3455,298;   -0,091;    2,955
956,858; 3637,298;    0,818;   -0,318
957,411; 3796,116;   -0,545;    2,136
957,964; 3640,662;    1,364;    2,136
958,517; 3629,025;   -1,545;    3,136
959,070; 3449,116;   -0,455;    1,955
959,623; 3543,025;    1,091;    1,500
960,176; 3307,753;    1,727;    2,045
960,728; 3300,207;   -2,727;    0,773
961,281; 3348,934;    0,545;    0,500
961,834; 3397,298;   -0,909;    0,864
962,386; 3295,480;    1,727;    1,045
962,939; 3231,753;    0,364;   -0,318
963,491; 3370,025;    0,455;    1,136
964,043; 3228,571;    1,182;    2,409
964,596; 3368,025;   -1,000;    2,227
965,148; 3218,025;   -1,000;    1,773
965,700; 3138,571;    1,091;   -0,227
966,253; 3294,662;   -0,636;    0,318
966,805; 3106,389;   -2,273;    0,773
967,357; 3160,116;    1,091;   -1,500
967,909; 3106,843;    0,455;   -1,227
968,461; 3228,480;    0,545;    3,136
969,013; 3155,389;   -0,182;   -0,864
969,565; 3224,662;   -0,455;   -1,136
970,117; 3310,480;   -0,364;    1,045
970,669; 3143,662;    0,182;   -0,136
971,220; 2982,207;   -0,455;   -1,500
971,772; 2934,843;   -0,636;   -0,318
972,324; 3043,934;    0,091;   -0,500
972,876; 2967,389;    0,818;   -0,045
973,427; 3127,025;    1,909;   -1,045
973,979; 3106,389;   -0,727;   -2,500
974,530; 3127,934;    1,818;    1,318
975,082; 3136,843;   -0,545;    1,682
975,633; 3029,753;    1,091;    1,682
976,184; 3162,843;    0,909;    0,773
976,736; 2963,025;    0,091;    0,227
977,287; 2764,389;   -0,909;   -0,500
977,838; 2950,571;    0,909;   -0,318
978,389; 3014,934;   -1,000;   -0,500
978,940; 2878,662;    0,545;   -0,409
979,491; 2906,934;    0,091;   -0,500
980,042; 2865,662;    0,182;    3,045
980,593; 2915,389;   -2,545;    0,227
981,144; 2964,662;    2,545;   -0,500
981,695; 2939,753;    1,455;    1,500
982,246; 2901,298;   -0,273;    1,045
982,797; 3045,934;   -1,727;    0,682
983,347; 3153,843;    0,364;    0,591
983,898; 3336,934;    3,091;    0,409
984,449; 3153,571;    2,182;    0,773
984,999; 3039,025;    1,455;   -1,136
985,550; 2816,207;    0,182;   -0,318
986,100; 2851,389;   -0,455;   -0,318
986,651; 2884,753;   -0,818;    0,045
987,201; 2863,934;   -1,000;   -0,591
987,751; 2942,116;    0,818;    2,864
988,302; 2947,116;    2,636;    1,500
988,852; 2966,025;    0,455;   -1,136
989,402; 3004,480;    0,091;    0,682
989,952; 2921,571;   -2,182;    0,864
990,502; 3031,753;   -0,091;    0,682
991,052; 2973,571;   -0,727;    0,045
991,602; 2859,298;   -2,909;    1,318
992,152; 2847,843;    0,455;    0,682
992,702; 2824,207;    1,364;   -0,045
993,252; 2762,662;   -3,000;   -0,500
993,802; 2849,571;   -0,273;    1,318
994,352; 3075,843;   -1,545;    1,136
994,901; 3159,662;   -0,182;    3,227
995,451; 3079,025;   -0,182;    0,318
996,000; 3166,480;    1,636;    0,318
996,550; 2888,662;    2,273;    0,227
997,100; 2863,571;    1,273;   -0,045
997,649; 3149,934;    2,182;    0,955
998,198; 2781,480;    1,727;   -1,500
998,748; 3003,662;    1,091;   -2,318
999,297; 2899,753;   -0,818;   -0,409
999,846; 2956,207;    1,000;   -0,773
1000,395; 2987,571;   -0,818;    0,500
1000,945; 2952,753;    1,818;   -0,773
1001,494; 3055,207;    2,364;    0,682
1002,043; 3031,389;    4,636;    0,864
1002,592; 2852,843;   -1,091;    1,955
1003,141; 3022,116;   -0,455;   -0,682
1003,690; 2894,662;    1,727;    0,500
1004,238; 2978,389;    1,455;   -0,045
1004,787; 2625,207;    1,364;    1,227
1005,336; 2838,298;    0,364;    0,682
1005,885; 2974,843;    1,364;   -2,773
1006,433; 3121,207;    0,545;    0,955
1006,982; 3181,753;    0,455;    1,682
1007,531; 3089,389;   -1,818;   -0,227
1008,079; 3037,207;   -2,273;    0,500
1008,627; 3149,843;   -1,455;    0,409
1009,176; 2915,025;    0,000;   -1,955
1009,724; 2950,298;    1,091;    0,864
1010,273; 3024,116;    1,273;    0,500
1010,821; 3122,934;    0,091;    1,409
1011,369; 2830,662;   -1,364;    1,318
1011,917; 2829,753;   -1,364;   -0,591
1012,465; 3102,753;    1,273;   -1,591
1013,013; 3222,116;    2,091;   -1,682
1013,561; 3110,753;    0,455;   -0,773
1014,109; 3161,207;   -1,909;    1,682
1014,657; 3033,207;    0,364;    0,591
1015,205; 3161,207;    1,636;   -0,955
1015,753; 3196,571;   -0,545;   -1,409
1016,301; 3224,298;   -2,636;    3,045
1016,848; 3215,843;   -1,273;    0,409
1017,396; 3264,571;    2,545;    0,045
1017,944; 3382,389;    1,182;    1,864
1018,491; 3144,571;    0,273;    1,409
1019,039; 3306,571;    0,455;    0,591
1019,586; 3208,753;   -1,364;    1,682
1020,134; 3294,389;    0,455;    1,500
1020,681; 3319,025;    0,182;   -1,136
1021,228; 3329,662;    2,909;   -2,227
1021,776; 3148,753;    1,182;   -1,136
1022,323; 3400,934;    0,455;    0,773
1022,870; 3300,389;   -1,000;   -0,045
1023,417; 3203,662;    2,636;    1,864
1023,964; 3354,662;    2,636;    1,227
1024,511; 3205,843;    1,000;    0,773
1025,058; 3009,843;    3,182;   -0,045
1025,605; 3056,662;   -2,273;    3,136
1026,152; 3284,571;    1,727;   -0,591
1026,699; 2983,662;    1,818;    1,318
1027,245; 3166,389;   -0,091;    0,318
1027,792; 3383,298;   -1,000;    1,409
1028,339; 3276,662;    2,364;   -0,045
1028,885; 3104,389;    1,000;   -0,227
1029,432; 3041,025;   -0,091;    0,227
1029,978; 3122,389;   -1,000;   -1,591
1030,525; 3018,843;    1,000;    0,409
1031,071; 3224,116;   -1,364;    1,136
1031,618; 3356,480;    0,364;    1,682
1032,164; 3130,480;   -0,091;    3,045
1032,710; 3182,389;    1,636;   -1,500
1033,256; 3099,934;   -0,636;   -0,136
1033,803; 3071,753;   -0,545;    1,500
1034,349; 2798,753;   -1,364;    0,136
1034,895; 2948,571;    0,000;   -0,318
1035,441; 2933,480;   -0,818;    0,318
1035,987; 2924,389;   -2,364;   -0,682
1036,533; 2931,116;   -1,455;   -0,955
1037,078; 3141,389;    1,455;    1,682
1037,624; 2962,480;    2,455;   -0,955
1038,170; 2978,298;    0,455;   -0,318
1038,716; 2884,571;    1,636;   -0,409
1039,261; 2807,662;   -2,273;   -0,773
1039,807; 2749,207;   -0,091;    3,409
1040,352; 2825,753;   -1,909;   -0,318
1040,898; 2861,298;   -1,545;   -0,682
1041,443; 2752,662;   -1,455;   -2,591
1041,989; 2789,207;    1,091;    1,591
1042,534; 2679,389;   -0,364;    2,591
1043,079; 2758,934;    2,909;    0,955
1043,625; 2559,843;    1,818;    0,500
1044,170; 2608,389;   -1,364;    1,045
1044,715; 2875,934;    2,455;    0,955
1045,260; 2685,480;    2,182;   -0,955
1045,805; 2718,843;    1,182;   -0,591
1046,350; 2662,207;    1,364;   -0,409
1046,895; 2649,025;    2,909;    1,591
1047,440; 2591,662;    5,364;    0,409
1047,985; 2467,116;    2,818;   -0,955
1048,530; 2379,025;    1,545;    1,227
1049,074; 2468,025;    0,000;    0,318
1049,619; 2439,480;   -1,364;    1,955
1050,164; 2241,571;    0,455;    0,227
1050,708; 2276,753;   -0,455;    0,045
1051,253; 2675,298;    1,273;   -2,227
1051,797; 2363,480;    0,818;   -1,318
1052,342; 2365,207;   -1,182;    1,045
1052,886; 2389,389;    0,364;   -1,409
1053,430; 2237,843;   -1,364;    0,136
1053,975; 2261,298;   -0,818;   -0,318
1054,519; 2241,571;   -0,727;    3,227
1055,063; 2265,025;    0,909;    1,318
1055,607; 2142,025;   -0,182;    0,227
1056,151; 2186,298;    2,909;    1,682
1056,695; 2082,116;    2,273;   -1,136
1057,239; 2140,753;   -1,727;   -0,682
1057,783; 2168,116;    0,818;   -1,500
1058,327; 2108,843;    0,000;    1,409
1058,871; 2353,662;   -0,545;    1,318
1059,415; 2068,662;   -0,818;   -0,045
1059,958; 2332,843;    1,455;    2,591
1060,502; 2032,662;   -1,000;   -0,773
1061,046; 1941,116;    0,364;   -0,955
1061,589; 1912,480;   -3,000;   -1,136
1062,133; 1803,571;   -1,273;    1,864
1062,676; 1746,389;    1,182;    0,864
1063,220; 1749,843;    1,091;    0,500
1063,763; 1777,662;    0,909;    1,136
1064,306; 1865,025;   -0,909;    1,864
1064,849; 1738,843;   -0,909;    0,591
1065,393; 1743,480;    2,000;   -1,500
1065,936; 1849,207;    0,182;   -0,409
1066,479; 1743,934;   -1,455;    1,318
1067,022; 1768,934;   -0,273;   -0,227
1067,565; 1655,662;   -0,091;   -1,318
1068,108; 1675,025;    0,727;   -0,591
1068,651; 1648,843;   -0,636;    1,409
1069,194; 1586,116;   -0,455;   -1,682
1069,736; 1600,025;   -1,273;    0,955
1070,279; 1562,389;   -1,364;   -0,500
1070,822; 1635,116;   -2,000;   -0,318
1071,364; 1737,298;   -0,364;    1,318
1071,907; 1537,662;   -0,727;    3,227
1072,450; 1425,571;    0,000;   -0,045
1072,992; 1429,480;   -0,273;    3,136
1073,535; 1585,207;    2,091;    2,136
1074,077; 1366,480;   -0,727;    2,045
1074,619; 1332,571;   -1,364;    0,591
1075,161; 1375,025;   -1,091;    1,500
1075,704; 1564,116;    1,545;    1,227
1076,246; 1341,389;   -0,182;    0,682
1076,788; 1263,298;   -0,364;    1,773
1077,330; 1331,025;    1,273;    2,136
1077,872; 1307,480;    0,909;    0,955
1078,414; 1543,116;    2,727;    0,773
1078,956; 1281,389;    1,273;   -0,227
1079,498; 1552,753;    1,636;    0,318
1080,040; 1248,571;    1,909;   -1,318
1080,581; 1176,753;    1,636;   -0,318
1081,123; 1097,207;    0,091;   -0,773
1081,665; 1155,843;   -1,182;   -0,955
1082,206; 1477,480;    1,364;   -0,500
1082,748; 1319,298;    0,727;    2,045
1083,289; 1186,298;   -2,000;    1,318
1083,831; 1111,934;   -0,545;    0,227
1084,372; 1157,571;    0,000;    0,591
1084,913; 1147,298;    1,091;    0,864
1085,455; 1093,753;   -1,909;   -2,045
1085,996; 1077,389;   -2,273;    0,136
1086,537; 1113,571;   -0,091;    0,864
1087,078; 1137,389;   -0,909;   -2,136
1087,619; 1193,480;   -1,273;    0,227
1088,160; 1094,934;    0,000;    1,318
1088,701; 1082,480;   -1,091;    0,682
1089,242; 1009,934;    1,364;   -2,227
1089,783; 1139,571;   -0,273;    1,409
1090,324; 1097,934;    0,455;    0,682
1090,865;  959,571;    2,727;   -0,409
1091,405;  918,207;    0,727;    2,227
1091,946;  958,662;    0,182;   -0,955
1092,487;  869,207;    0,818;   -1,409
1093,027; 1057,934;   -1,364;   -1,500
1093,568;  907,207;   -0,364;    1,227
1094,108; 1019,207;    0,273;    1,773
1094,649;  947,480;   -1,182;    0,136
1095,189;  875,116;   -0,636;   -0,682
1095,729;  832,207;   -0,091;    0,955
1096,269;  834,571;    0,727;   -0,955
1096,810; 1156,843;   -1,364;    0,500
1097,350;  987,662;    1,364;   -0,773
1097,890;  897,298;    0,364;    1,227
1098,430; 1152,662;    2,364;    2,864
1098,970; 1025,389;    2,182;    1,682
1099,510;  875,662;    0,545;   -2,318
1100,050;  800,662;    1,000;   -1,591
1100,589;  767,207;   -0,727;   -0,318
1101,129;  898,025;    0,818;   -0,955
1101,669; 1046,389;    1,727;    2,136
1102,209;  867,480;   -0,091;    2,227
1102,748;  818,480;    0,000;    0,955
1103,288;  811,480;    1,273;   -1,227
1103,827;  847,571;    3,091;   -2,227
1104,367;  716,025;   -0,091;   -2,409
1104,906;  684,571;    1,364;   -1,136
1105,445;  756,934;    0,636;   -1,136
1105,985;  702,389;   -0,727;    1,500
1106,524;  748,753;   -1,727;   -0,682
1107,063;  722,025;   -2,727;    1,409
1107,602;  703,753;   -1,909;   -1,500
1108,141;  621,753;   -1,909;    1,500
1108,680;  740,843;   -3,455;   -0,591
1109,219;  662,207;   -0,909;   -0,500
1109,758;  665,571;    0,455;    0,682
1110,297;  635,207;    1,000;   -0,682
1110,836;  571,025;   -0,727;    0,955
1111,375;  753,298;   -2,545;    0,409
1111,913;  762,843;   -1,000;    0,773
1112,452;  688,298;   -0,273;    0,136
1112,991;  571,662;    1,091;    1,955
1113,529;  534,298;   -0,818;   -0,045
1114,068;  605,571;   -0,273;    2,955
1114,606;  508,662;   -0,364;   -0,955
1115,144;  681,480;   -1,273;    1,045
1115,683;  611,116;   -0,727;    0,318
1116,221;  659,662;   -0,455;   -0,864
1116,759;  567,389;    0,636;   -0,864
1117,297;  770,116;    0,000;    1,864
1117,836;  572,389;   -2,182;   -1,227
1118,374;  582,662;    0,182;   -0,682
1118,912;  517,662;    0,909;    2,682
1119,450;  512,571;    1,000;    0,864
1119,988;  576,116;    1,545;    2,136
1120,525; 1033,207;    5,091;    3,318
1121,063;  730,298;    1,182;    1,864
1121,601;  528,662;   -0,909;   -1,227
1122,139;  479,571;   -0,727;   -2,045
1122,676;  686,025;   -0,727;    2,773
1123,214;  612,843;   -1,182;    4,409
1123,751;  419,480;    1,727;    2,227
1124,289;  556,116;   -0,091;   -0,409
1124,826;  422,298;    1,727;    0,227
1125,364;  338,025;    1,727;   -0,955
1125,901;  533,025;    1,182;    1,227
1126,438;  653,934;    0,818;    0,955
1126,975;  373,298;   -0,727;   -0,773
1127,513;  441,934;    0,273;    2,136
1128,050;  344,025;    1,636;   -0,682
1128,587;  444,571;    2,000;   -0,227
1129,124;  497,662;    0,091;    1,318
1129,661;  352,116;    0,273;    0,227
1130,198;  525,934;    1,636;    0,773
1130,734;  474,116;    0,182;    1,409
1131,271;  319,843;   -0,909;    0,864
1131,808;  502,025;    2,909;    3,045
1132,345;  376,662;    1,545;    0,318
1132,881;  243,025;   -1,545;   -1,864
1133,418;  388,662;    0,727;   -1,136
1133,954;  314,389;    2,455;   -2,682
1134,491;  394,843;    1,364;   -0,773
1135,027;  290,934;    2,364;    0,864
1135,564;  391,207;    0,273;    2,955
1136,100;  372,843;    0,364;    2,136
1136,636;  263,025;   -1,273;   -1,045
1137,172;  357,662;    0,000;   -1,045
1137,708;  279,389;   -1,364;   -1,045
1138,245;  279,207;    1,273;   -1,227
1138,781;  228,389;    1,091;   -3,318
1139,317;  307,571;    1,273;   -1,409
1139,852;  288,207;    3,091;    0,136
1140,388;  415,571;   -1,182;   -0,409
1140,924;  291,571;   -1,091;   -2,227
1141,460;  232,298;   -1,636;    0,136
1141,996;  162,843;   -1,364;    2,682
1142,531;  211,389;    1,364;    3,318
1143,067;  426,298;    1,182;    1,045
1143,602;  496,207;   -0,091;   -0,318
1144,138;  329,389;   -2,636;    1,045
1144,673;  200,389;   -1,455;    1,409
1145,209;  263,480;   -1,909;   -0,318
1145,744;  180,843;   -0,727;    0,864
1146,279;  328,298;    1,818;   -0,136
1146,815;  247,389;    1,545;   -2,682
1147,350;  280,753;   -1,364;    0,045
1147,885;  185,025;   -0,818;   -1,318
1148,420;  184,389;   -2,273;    0,773
1148,955;  169,389;   -1,727;    1,864
1149,490;  201,662;   -0,909;   -1,591
1150,025;  189,025;    0,455;   -1,773
1150,560;  300,753;    1,091;   -0,955
1151,094;  261,025;    1,455;   -0,591
1151,629;  270,843;    1,636;    0,864
1152,164;  184,298;    1,364;    1,318
1152,698;  138,934;   -0,182;   -0,136
1153,233;   96,843;    0,091;   -0,682
1153,767;  149,843;   -3,000;   -2,318
1154,302;  209,207;   -1,455;    1,773
1154,836;  201,207;   -0,455;   -2,136
1155,371;  260,207;   -1,364;    3,682
1155,905;  211,116;   -0,636;    1,682
1156,439;  171,207;   -0,636;   -0,500
1156,973;  209,025;    0,364;    0,318
1157,507;  146,753;   -0,364;    0,682
1158,042;  175,025;   -0,727;    1,045
1158,576;  226,571;    0,182;    1,773
1159,110;  210,298;   -0,818;    2,409
1159,643;  176,843;    0,636;   -0,045
1160,177;  110,207;   -1,545;    1,500

