
Integration time [ms]:   0,040
Averaging Nr. [scans]: 11
Smoothing Nr. [pixels]: 0
Data measured with spectrometer [name]: 7318044SP
Wave   ;Sample   ;Dark     ;Reference
[nm]   ;[counts] ;[counts] ;[counts] 

186,757;   31,659;   31,551;    1,318
187,357;   60,196;   22,551;    0,955
187,958;   35,183;   15,460;   -1,591
188,558;   93,558;    8,915;   -1,227
189,159;   63,483;    6,733;   -4,500
189,759;   19,992;    7,278;   -3,591
190,360;   22,205;    2,824;   -2,136
190,960;   69,350;    2,915;   -4,136
191,560;   87,724;    3,189;   -6,591
192,161;  351,492;    4,372;   -3,500
192,761;  182,467;    4,010;   -3,227
193,361;  122,225;    1,556;   -3,773
193,962;  178,337;    2,010;   -2,682
194,562;   92,068;    1,189;   -3,955
195,162;  138,049;   -2,448;   -2,227
195,762;  319,095;   -3,176;   -0,045
196,362;  255,517;    1,370;   -2,500
196,963;  101,995;    2,006;   -0,864
197,563;  180,654;    1,551;   -0,955
198,163;  127,583;    0,096;   -0,682
198,763;  136,714;    1,733;   -0,500
199,363;  257,697;    3,096;   -0,500
199,963;  214,398;    0,369;    0,409
200,563;  184,402;    2,823;   -1,409
201,163;  164,694;    3,277;   -0,227
201,763;  269,033;    3,732;    0,318
202,363;  199,136;    1,459;    1,500
202,963;  325,005;    1,459;    1,045
203,563;  441,165;    0,277;    0,500
204,162;  270,821;    2,096;   -1,864
204,762;  256,303;    0,550;    0,591
205,362;  226,733;    3,004;    1,955
205,962;  330,416;    3,096;    1,955
206,562;  323,358;    1,823;    2,318
207,161;  298,779;   -0,087;    0,318
207,761;  456,663;    1,277;    2,409
208,361;  330,285;   -0,268;    1,409
208,960;  428,488;    0,459;    1,500
209,560;  512,772;    1,277;    1,591
210,160;  487,522;    0,550;    1,864
210,759;  450,051;    4,186;    1,227
211,359;  461,663;    1,459;    1,045
211,958;  740,082;    1,277;    2,045
212,558;  830,598;    1,732;    1,864
213,157;  661,298;    1,822;    1,500
213,757; 1138,056;    3,822;   -0,227
214,356;  819,737;    1,277;   -0,409
214,956; 1164,746;    3,095;    0,409
215,555;  781,080;    2,095;    2,136
216,154;  712,294;   -2,723;   -0,591
216,754;  713,102;    0,277;    0,773
217,353;  861,514;   -0,268;   -1,045
217,952;  711,059;   -0,178;    0,318
218,552;  968,064;    1,368;   -0,773
219,151;  849,791;    0,277;    0,955
219,750;  852,947;    0,004;   -0,227
220,349; 1003,875;   -0,451;    1,045
220,948; 1072,943;   -1,360;    1,136
221,548; 1117,308;    0,913;    1,227
222,147; 1211,133;   -0,087;   -0,409
222,746; 1522,110;   -0,451;   -0,955
223,345; 1405,498;    0,731;    0,500
223,944; 1399,283;   -0,451;    0,773
224,543; 1586,674;    1,004;   -1,409
225,142; 1700,472;    0,094;    0,136
225,741; 1617,285;   -0,814;    1,045
226,340; 1655,977;   -0,451;   -0,955
226,939; 2134,669;   -0,996;   -0,136
227,538; 2108,120;   -0,360;   -0,773
228,137; 2279,689;   -0,814;    0,864
228,735; 2479,321;   -0,541;    1,227
229,334; 2203,129;   -0,905;   -0,227
229,933; 2576,021;    0,459;    0,591
230,532; 2692,417;    1,186;   -0,409
231,131; 2742,956;    1,732;    0,318
231,729; 2939,906;   -2,450;   -2,318
232,328; 3096,859;   -0,723;   -1,500
232,927; 3186,440;    1,004;   -0,500
233,525; 3330,949;    3,640;    0,045
234,124; 3560,840;    2,368;   -1,591
234,723; 3567,788;    0,913;   -1,045
235,321; 3720,834;    2,277;    0,136
235,920; 3992,274;    1,186;   -1,227
236,518; 4285,684;    3,459;    0,318
237,117; 4467,190;    0,004;   -0,227
237,715; 4668,466;    0,640;   -0,500
238,314; 4710,250;   -0,087;   -2,318
238,912; 4801,645;   -0,723;   -1,409
239,510; 4853,081;    0,459;   -1,227
240,109; 5035,797;    0,004;    3,773
240,707; 5068,971;   -0,996;    1,227
241,305; 5491,219;    0,550;    0,136
241,904; 5727,946;   -0,178;   -2,045
242,502; 5674,597;   -0,632;   -0,227
243,100; 5620,456;   -0,087;   -0,955
243,698; 5865,641;    0,732;    1,682
244,297; 6063,770;   -0,632;    0,682
244,895; 5869,915;   -0,269;   -2,318
245,493; 6209,659;    2,186;   -0,591
246,091; 6245,244;    1,368;   -1,318
246,689; 6274,693;    1,004;    0,591
247,287; 6418,202;    0,822;   -1,136
247,885; 6741,390;   -1,451;    1,227
248,483; 6849,438;    1,822;   -0,500
249,081; 6978,451;    0,185;    1,591
249,679; 7131,736;   -0,178;    1,682
250,277; 7408,811;   -1,723;    0,864
250,875; 7377,279;   -1,087;   -1,045
251,473; 7403,045;   -1,178;    0,500
252,071; 7617,074;    1,459;    1,045
252,669; 7770,828;   -1,814;    0,318
253,267; 8037,630;   -0,087;    0,773
253,864; 7993,475;   -0,360;    0,682
254,462; 7860,739;    1,640;    1,591
255,060; 7834,533;   -0,269;    1,318
255,658; 8170,464;    0,822;   -0,136
256,255; 8589,197;    0,186;   -2,045
256,853; 8442,117;   -0,269;    1,409
257,451; 8437,013;    0,822;    1,864
258,048; 8721,534;    1,822;    1,864
258,646; 8468,189;    1,731;   -1,045
259,243; 8676,572;   -0,087;    2,227
259,841; 8735,619;   -0,814;    0,318
260,438; 8588,272;   -0,087;    0,864
261,036; 9348,898;   -1,905;    1,409
261,633; 9225,474;   -0,087;    2,227
262,231; 8960,482;    2,731;   -0,045
262,828; 9036,409;   -0,905;    1,136
263,425; 9125,251;    0,913;   -0,591
264,023; 9409,897;    0,186;    0,045
264,620; 8957,725;   -0,360;   -0,318
265,217; 9314,833;   -2,087;    3,136
265,815; 9406,532;   -1,905;    2,136
266,412; 9167,752;    0,731;    0,136
267,009; 9230,190;   -1,451;    0,773
267,606; 9114,825;    0,822;   -0,955
268,203; 9083,586;   -0,269;   -0,591
268,801; 9389,310;    1,731;    0,591
269,398; 9709,346;   -0,360;    2,500
269,995; 9673,137;    0,277;    1,591
270,592; 9439,252;   -0,632;   -0,500
271,189; 9690,469;    0,186;    0,409
271,786; 9804,470;   -0,632;    1,227
272,383; 9599,181;   -1,087;    0,227
272,980; 9805,622;    0,277;    0,318
273,577;10264,557;    0,004;    1,227
274,174; 9841,881;    0,822;    2,591
274,771; 9837,374;   -0,814;   -0,773
275,367; 9968,552;    2,277;    1,409
275,964; 9962,675;    0,731;   -0,500
276,561;10026,934;    1,549;   -1,045
277,158;10266,281;    0,095;   -1,773
277,755;10393,814;    2,185;    0,409
278,351; 9760,184;   -0,451;   -1,500
278,948;10091,687;   -0,815;    0,045
279,545;10135,206;   -1,360;    2,318
280,141;10776,084;   -1,723;   -2,045
280,738;10688,546;   -0,451;   -0,136
281,334;10929,619;   -1,633;    0,591
281,931;10275,838;   -0,087;   -1,318
282,528;10357,664;    0,822;   -0,500
283,124;11106,012;   -1,087;   -0,500
283,721;10992,546;   -0,451;    1,409
284,317;10784,270;    0,185;    2,500
284,913;11356,160;   -1,360;    0,591
285,510;11521,524;    0,640;   -0,318
286,106;11559,338;   -2,269;   -0,955
286,703;11145,186;   -0,360;    1,955
287,299;11360,710;   -1,451;   -0,591
287,895;11554,847;    0,822;   -1,045
288,491;12185,437;    0,186;    2,136
289,088;11877,267;   -2,360;    2,409
289,684;11980,464;   -1,723;    1,500
290,280;11984,251;    0,368;    0,682
290,876;12068,233;    1,822;    5,500
291,472;11904,222;    1,276;    2,227
292,068;12047,529;    1,367;    0,227
292,665;11749,528;    2,095;    0,773
293,261;11281,933;    0,276;    2,136
293,857;11723,514;    2,913;    2,136
294,453;11677,925;    3,550;    0,955
295,049;11540,449;   -0,268;    1,955
295,644;11544,371;    0,095;    0,136
296,240;11482,802;   -0,905;   -0,136
296,836;11509,332;   -0,995;    0,318
297,432;11811,912;    1,096;   -0,500
298,028;11853,067;    0,732;    0,773
298,624;12262,346;    1,459;    1,864
299,220;12504,725;    2,368;    0,591
299,815;12205,847;    1,005;   -0,409
300,411;12001,449;    0,914;    1,773
301,007;12005,689;    1,368;    0,227
301,602;12023,582;   -0,541;   -2,318
302,198;12185,731;    0,732;   -0,773
302,794;12544,133;    1,187;   -0,500
303,389;12683,784;   -1,177;    1,045
303,985;12757,948;    0,550;    1,409
304,580;12719,765;    1,459;    1,591
305,176;12661,144;   -3,086;    0,136
305,771;12587,674;   -1,268;   -1,227
306,367;12481,586;    4,095;    0,136
306,962;12800,037;    0,641;    1,500
307,558;12517,336;   -0,450;    0,136
308,153;12438,604;    1,095;   -1,136
308,748;12679,633;   -0,814;    1,682
309,344;12682,890;   -0,632;   -1,318
309,939;12781,333;   -1,905;   -1,318
310,534;13047,475;   -0,086;   -1,682
311,130;12956,611;    0,459;   -2,500
311,725;12694,105;    1,004;   -0,500
312,320;12985,742;    2,459;    0,045
312,915;12831,662;    1,459;   -1,045
313,510;12934,596;    1,550;   -0,500
314,105;13451,345;    1,096;    1,409
314,700;12834,020;   -3,086;   -1,045
315,295;12432,855;   -0,904;    0,045
315,890;12010,936;    1,277;    0,864
316,485;12406,933;   -0,359;   -0,318
317,080;12539,683;   -3,086;    1,591
317,675;13105,474;    2,005;   -0,682
318,270;12489,846;    5,550;    3,318
318,865;12497,205;    3,278;    3,045
319,460;12320,550;   -0,904;    0,591
320,055;12538,766;   -0,541;   -1,227
320,650;12184,982;   -1,995;   -0,591
321,244;12234,517;   -0,177;   -1,409
321,839;13218,671;   -1,541;   -0,227
322,434;13090,287;   -1,086;   -1,591
323,029;12719,357;    1,732;    1,591
323,623;12559,724;    1,550;    0,773
324,218;12294,232;    2,368;    1,409
324,812;12153,774;    1,096;    1,591
325,407;11968,550;   -0,814;    2,045
326,002;11948,346;    0,277;   -0,409
326,596;12247,187;    0,914;    1,318
327,191;12414,140;    0,823;   -1,045
327,785;11998,642;   -0,813;   -0,227
328,379;12202,536;    1,368;    0,136
328,974;12006,295;    0,914;   -3,955
329,568;12206,902;    0,186;   -2,409
330,163;12030,672;    2,096;    1,045
330,757;12372,006;    2,459;    1,591
331,351;11707,257;    0,459;    0,682
331,945;12007,583;    0,914;    1,409
332,540;11624,717;   -1,723;   -0,591
333,134;11774,711;   -1,086;    0,773
333,728;12014,321;    0,005;    0,318
334,322;12335,012;   -1,177;   -0,864
334,916;11610,096;    0,277;    0,955
335,510;11932,643;   -0,450;   -0,136
336,105;12183,958;   -1,086;    1,591
336,699;11896,550;   -1,086;    0,591
337,293;11792,964;   -1,723;    0,318
337,887;11967,501;   -2,723;    1,955
338,481;12098,653;    0,459;    0,591
339,074;12229,546;   -0,359;    2,682
339,668;12050,217;   -1,632;    1,227
340,262;12327,748;    1,732;    3,227
340,856;11805,022;    1,822;   -0,682
341,450;11136,125;    1,004;    1,864
342,044;12075,782;    1,459;    0,136
342,637;11842,978;    0,913;   -2,136
343,231;11707,167;   -2,360;    0,682
343,825;11652,817;   -1,086;   -0,591
344,419;11609,794;   -1,995;    0,500
345,012;11378,600;    2,459;    4,045
345,606;11420,539;    4,641;    1,591
346,199;11236,871;   -1,813;   -0,227
346,793;10749,997;    1,914;    2,045
347,386;10948,192;   -0,813;   -1,136
347,980;10908,152;   -0,268;   -0,045
348,573;10681,861;    2,278;    0,409
349,167;10402,923;    5,278;    4,773
349,760;10716,329;    2,914;    2,682
350,354;10709,132;   -0,813;    1,136
350,947;10461,084;    1,096;    1,682
351,540;10126,379;   -0,358;   -1,409
352,134;10056,633;    1,096;    1,136
352,727;10143,492;   -0,086;    1,136
353,320; 9912,689;    0,005;    0,591
353,913; 9769,205;   -1,995;    1,864
354,507; 9994,775;    0,823;   -1,227
355,100; 9974,109;    0,460;    0,864
355,693; 9207,748;    2,005;    2,409
356,286; 9255,992;    0,823;    2,773
356,879; 9601,884;   -0,722;    1,227
357,472; 9196,021;   -0,904;    1,500
358,065; 9411,457;   -0,722;    2,500
358,658; 9288,606;   -0,540;    2,318
359,251; 8910,434;   -1,631;   -0,591
359,844; 8424,079;   -1,904;   -1,136
360,437; 8646,996;   -2,995;    0,045
361,030; 8877,948;    1,369;   -0,682
361,623; 8470,848;    2,824;    0,318
362,215; 8528,020;   -0,086;    2,045
362,808; 8350,322;   -2,358;   -1,682
363,401; 8549,777;   -2,449;    0,136
363,994; 8261,884;   -0,631;   -1,500
364,586; 8173,320;    0,824;   -1,500
365,179; 8399,810;   -0,449;   -1,136
365,772; 7910,108;   -1,995;    2,045
366,364; 8212,709;    1,915;   -3,227
366,957; 8409,939;    2,279;   -0,045
367,549; 8429,913;    2,188;   -0,864
368,142; 8074,337;    1,825;   -1,500
368,734; 8262,035;    0,734;   -2,136
369,327; 8211,397;    1,643;   -0,500
369,919; 8105,023;   -1,538;    0,409
370,512; 7896,367;   -1,083;   -0,500
371,104; 7700,190;   -0,901;    1,591
371,696; 7870,817;    1,191;   -0,955
372,289; 7968,570;    0,373;    1,136
372,881; 8134,807;   -2,080;    1,318
373,473; 8034,991;   -2,170;    1,136
374,066; 7845,236;   -0,169;    0,500
374,658; 7640,673;    0,378;    1,136
375,250; 8039,618;    0,653;   -1,409
375,842; 7883,786;    0,473;   -0,045
376,434; 7775,447;   -0,435;   -0,409
377,026; 8329,609;    0,204;   -2,500
377,618; 8236,310;   -0,158;   -0,682
378,210; 8066,516;   -0,338;   -1,955
378,802; 7896,621;    0,754;   -0,591
379,394; 7917,834;    1,846;    0,682
379,986; 8500,235;    1,393;   -0,955
380,578; 8591,339;   -0,153;    0,773
381,170; 7931,297;   -0,972;    0,045
381,762; 7896,106;    0,755;    1,409
382,354; 8123,900;   -0,065;   -1,318
382,945; 8227,649;   -2,976;    0,318
383,537; 8344,737;   -2,705;   -1,955
384,129; 8340,888;   -2,160;   -1,136
384,721; 8528,770;   -0,252;    0,955
385,312; 8449,264;   -0,161;   -0,955
385,904; 8566,450;   -2,706;    1,591
386,496; 7929,739;   -0,979;    1,045
387,087; 8125,079;    1,022;    2,500
387,679; 8145,847;   -1,160;    0,045
388,270; 8262,281;    2,840;    2,045
388,862; 8370,027;    1,295;   -0,318
389,453; 8293,796;   -0,887;    1,045
390,045; 8598,492;   -0,705;   -2,682
390,636; 8484,783;    0,204;   -0,591
391,227; 8350,494;   -0,523;   -0,045
391,819; 8410,122;    0,204;    0,773
392,410; 8539,116;    1,022;    0,045
393,001; 8465,129;   -0,979;   -1,591
393,593; 8757,688;    1,930;   -0,045
394,184; 8613,230;    1,385;   -0,409
394,775; 8567,176;    1,839;    2,136
395,366; 8726,241;    1,385;    0,773
395,957; 8751,612;    0,113;    0,136
396,548; 9069,829;   -0,342;    2,682
397,139; 9372,180;   -2,433;    0,591
397,730; 9096,381;   -1,888;    0,955
398,321; 9128,498;   -1,252;    0,955
398,912; 9173,387;   -0,615;    0,136
399,503; 9255,137;   -3,524;   -1,409
400,094; 8684,792;    0,294;    1,682
400,685; 8540,965;   -0,433;    0,045
401,276; 8633,835;    0,930;   -0,955
401,867; 8978,110;   -0,888;    0,773
402,458; 9040,248;   -2,251;   -2,318
403,048; 9004,780;    1,112;    0,591
403,639; 8600,811;    0,840;    0,864
404,230; 8848,276;    2,476;    0,318
404,821; 8769,864;   -0,615;    0,045
405,411; 8904,438;    1,203;   -2,591
406,002; 8531,458;   -1,252;   -1,136
406,592; 8343,852;    2,294;    0,045
407,183; 8678,590;    0,566;   -1,500
407,774; 8614,495;    3,475;   -0,136
408,364; 8955,692;    0,930;    0,409
408,954; 8532,895;    0,384;    1,227
409,545; 8564,881;    1,021;    1,045
410,135; 8104,562;    1,293;    0,500
410,726; 8263,565;    1,838;    0,318
411,316; 8675,721;    0,111;    0,773
411,906; 8311,678;   -0,253;   -0,409
412,497; 7786,076;   -1,070;   -0,045
413,087; 8416,877;   -1,980;   -0,227
413,677; 8839,415;   -0,707;    3,864
414,267; 8663,818;    0,656;    1,409
414,857; 8683,302;   -2,980;    4,227
415,448; 8977,387;    0,839;    0,500
416,038; 8636,989;    0,020;   -0,591
416,628; 8631,491;   -0,889;    0,409
417,218; 8060,618;    0,565;    3,318
417,808; 8366,738;    0,202;   -0,409
418,398; 8821,593;    0,020;    2,682
418,988; 8847,585;    2,020;    0,591
419,578; 9086,503;   -0,707;    1,409
420,168; 9453,143;   -1,343;   -0,955
420,757; 9053,328;   -1,343;   -1,500
421,347; 8726,238;    0,111;   -0,227
421,937; 8902,619;    2,292;    1,409
422,527; 8855,682;    0,838;   -0,773
423,116; 8662,075;   -0,253;   -0,045
423,706; 8976,197;   -1,889;    0,318
424,296; 8954,278;    1,384;    0,682
424,885; 9410,914;   -0,071;   -3,045
425,475; 9694,533;    1,474;   -2,864
426,065; 9607,373;   -0,980;   -0,318
426,654; 9204,364;   -0,435;   -0,318
427,244; 9379,857;    0,020;    1,409
427,833; 8850,732;    1,383;   -0,500
428,423; 9300,915;   -0,526;    1,136
429,012;10077,682;   -0,344;   -1,136
429,601; 9558,419;   -1,344;    0,136
430,191; 9801,506;    1,292;    4,318
430,780; 9425,801;   -0,344;   -0,409
431,369; 9324,878;    0,746;   -0,045
431,959;10001,661;   -1,254;    0,500
432,548; 9771,072;   -1,163;   -0,045
433,137; 9905,130;   -1,254;   -1,318
433,726;10473,632;    0,292;    0,500
434,315; 9786,371;   -0,526;    2,409
434,905; 9887,324;   -1,254;    1,409
435,494; 9762,168;    0,746;    0,955
436,083;10236,715;   -0,981;   -0,955
436,672;10164,137;    0,110;    0,500
437,261; 9702,666;    0,292;   -1,955
437,850; 9821,040;    1,383;    0,682
438,439; 9855,552;    3,291;    1,955
439,027; 9689,773;    3,655;    1,773
439,616;10036,266;    2,927;    1,227
440,205; 9866,414;    0,200;   -2,136
440,794;10011,563;    2,109;   -0,045
441,383;10288,834;   -1,346;   -0,591
441,971;10085,542;   -2,436;    0,591
442,560; 9958,872;    0,563;   -1,773
443,149; 9736,184;    0,379;   -1,318
443,737; 9867,819;   -0,074;   -2,318
444,326;10126,250;    0,018;    0,318
444,915;10209,440;   -1,982;    0,864
445,503;10648,386;   -2,891;   -0,318
446,092; 9852,334;    0,382;    2,136
446,680;10430,953;    0,382;    0,318
447,269;10583,692;   -0,346;   -0,318
447,857;10358,516;    0,018;   -1,773
448,445;10467,128;    0,563;    1,318
449,034;10694,858;   -1,528;   -1,136
449,622;10856,044;   -1,073;    3,500
450,210;10031,708;    2,017;    2,227
450,799;10581,287;    0,290;   -0,591
451,387;10536,995;    1,381;   -0,591
451,975;10164,032;    2,654;    0,864
452,563;10262,185;    3,472;    2,318
453,151;10308,599;   -0,528;   -1,227
453,739;10269,948;   -1,347;    0,136
454,328;10071,944;    2,381;   -2,136
454,916; 9768,417;    2,562;   -0,136
455,504; 9942,922;    1,017;    1,227
456,092;10138,618;    0,017;   -1,591
456,679;10151,691;    1,472;    0,682
457,267;10091,789;    4,017;    1,045
457,855;10250,179;    1,017;    1,409
458,443; 9975,659;   -0,165;    1,682
459,031;10134,495;    0,108;    2,409
459,619;10601,582;   -1,801;    2,864
460,206;10762,021;    0,835;    2,045
460,794;10832,030;   -2,983;   -0,227
461,382;11092,572;   -0,529;   -0,864
461,970;10647,417;    1,198;    1,864
462,557;10680,166;   -0,711;   -0,682
463,145;10902,445;   -3,165;   -1,682
463,732;11037,873;    2,016;   -1,045
464,320;10928,476;   -0,075;   -3,045
464,907;10628,400;    2,743;   -0,773
465,495;10496,965;    0,743;   -1,227
466,082;10629,675;   -1,984;   -0,045
466,670;10562,331;   -2,529;    1,227
467,257;11014,834;   -1,711;    2,045
467,844;11152,364;   -0,075;    0,045
468,432;11155,416;    0,834;    3,500
469,019;10634,884;    0,925;   -1,773
469,606;11140,683;    0,470;    3,682
470,193;10950,008;   -1,439;    0,227
470,780;10519,017;   -2,075;    0,864
471,368;10853,318;   -1,257;   -0,773
471,955;10646,365;    1,379;   -0,682
472,542;10296,160;    0,652;   -1,136
473,129;10491,635;   -0,166;    0,136
473,716;10216,933;    1,470;    0,591
474,303;10455,761;    0,652;   -0,864
474,890;10759,748;   -1,439;   -0,500
475,477;10837,598;   -1,621;    0,409
476,064;10707,466;    1,106;   -1,591
476,650;10625,612;    0,288;    0,318
477,237;10457,976;   -0,258;    0,955
477,824;10635,674;   -1,076;    0,864
478,411;10653,200;   -1,894;   -0,318
478,997;10868,584;    0,560;   -0,773
479,584;10951,425;    1,196;   -0,409
480,171;11639,276;   -0,440;   -0,773
480,757;11323,530;    2,651;    0,773
481,344;11597,436;    0,469;    0,409
481,931;11122,979;    1,105;    1,045
482,517;12255,632;   -1,258;    0,318
483,104;12933,575;    1,106;    2,864
483,690;13224,135;   -1,804;    0,045
484,276;13554,001;   -0,895;    0,227
484,863;13247,484;    2,469;    1,136
485,449;13847,998;   -0,077;    0,318
486,035;13864,777;   -1,986;   -0,136
486,622;14312,220;   -0,895;    0,045
487,208;14249,892;    1,378;    1,500
487,794;14051,199;    0,741;    0,318
488,380;14128,237;    0,105;   -1,409
488,967;14233,427;   -1,168;   -0,409
489,553;14332,472;   -1,895;   -1,409
490,139;14490,723;    1,559;    0,773
490,725;13856,656;    0,741;   -0,227
491,311;13317,054;    3,287;    3,045
491,897;12660,160;   -0,986;    1,500
492,483;12480,049;    0,105;    1,227
493,069;12282,511;    3,923;    0,864
493,655;12272,181;    1,650;    0,682
494,241;12199,852;    1,377;   -0,955
494,826;12603,194;    0,287;   -1,045
495,412;12059,045;    2,559;   -0,682
495,998;12176,838;   -0,805;   -0,318
496,584;12365,807;    0,377;    1,045
497,169;12326,283;    1,014;   -0,682
497,755;12285,426;    0,650;    1,227
498,341;12904,823;    0,559;    0,318
498,926;12471,142;    1,832;    1,955
499,512;12628,376;    1,286;    2,955
500,097;12744,483;    0,195;   -0,318
500,683;12694,789;   -0,350;    2,136
501,268;13080,467;   -0,169;   -0,955
501,854;12768,584;   -0,169;    1,227
502,439;12688,175;   -0,624;   -1,773
503,024;12920,864;    0,195;    0,500
503,610;12995,336;   -0,078;   -0,682
504,195;12985,694;    0,558;    1,955
504,780;13105,395;    2,922;    1,227
505,366;12947,457;    3,013;    2,864
505,951;12680,901;    0,740;    1,045
506,536;12661,904;   -3,260;   -3,682
507,121;12629,513;    0,285;   -0,318
507,706;13133,619;    2,376;    1,045
508,291;13572,724;    2,649;    1,136
508,876;13031,569;   -0,988;    2,591
509,461;12437,557;   -0,169;   -0,773
510,046;12893,297;    0,194;    0,318
510,631;13143,214;   -0,351;   -0,773
511,216;12812,705;    2,467;   -0,500
511,801;13177,613;   -0,442;    2,591
512,386;13475,767;    0,740;    0,500
512,971;13348,630;   -2,988;    0,955
513,555;12926,506;   -0,897;   -1,500
514,140;13746,845;   -0,442;   -3,136
514,725;13768,514;   -0,715;   -1,136
515,309;13881,575;   -0,533;    0,318
515,894;13340,539;   -0,624;   -2,227
516,479;13775,133;   -0,624;   -0,955
517,063;13645,089;    0,376;    1,227
517,648;13724,290;    1,012;   -1,136
518,232;13362,469;   -0,261;   -1,409
518,817;13726,084;   -0,079;    1,682
519,401;13978,568;    2,194;    0,591
519,985;13453,984;    1,103;    1,136
520,570;13339,285;    0,830;   -1,955
521,154;13654,867;    2,102;    0,591
521,738;13843,184;   -2,352;    2,409
522,323;14365,656;   -0,170;    1,682
522,907;14111,047;    0,466;   -0,136
523,491;13829,698;    0,557;    0,955
524,075;13842,676;    2,284;    0,591
524,659;13924,625;    1,466;    0,591
525,243;13362,222;    1,739;    0,409
525,827;13603,376;    0,648;   -0,045
526,411;14506,807;   -1,989;   -0,136
526,995;14689,642;   -0,352;    1,409
527,579;14267,185;   -0,443;   -1,045
528,163;14602,568;    0,375;   -1,500
528,747;14560,180;    2,466;   -0,773
529,331;14848,006;   -0,080;   -1,409
529,915;15038,064;    1,738;    0,955
530,499;14982,214;   -0,807;    1,227
531,082;14700,630;   -0,534;    1,591
531,666;14114,999;    1,374;    0,773
532,250;14837,521;    1,284;    2,682
532,833;15198,215;    0,920;    2,773
533,417;15022,620;   -1,807;    0,864
534,001;15024,017;    1,647;   -0,318
534,584;15721,333;    0,374;    0,500
535,168;15544,324;    0,465;    1,409
535,751;15605,945;    0,647;    0,045
536,334;15030,988;   -0,898;   -0,409
536,918;15624,369;    0,011;    1,591
537,501;15749,165;   -0,899;    1,318
538,085;15740,199;   -0,444;    1,045
538,668;15913,449;    0,829;    2,409
539,251;16237,518;    1,829;    3,773
539,834;16238,408;    0,101;    0,773
540,418;16220,030;   -1,990;    4,318
541,001;16307,868;   -0,990;    1,773
541,584;16342,610;    2,101;    2,227
542,167;16013,081;    1,374;    2,955
542,750;16179,612;    1,919;   -0,773
543,333;15743,286;    0,555;    2,136
543,916;16547,392;    0,192;    2,500
544,499;17147,227;   -1,354;    0,227
545,082;17164,119;    1,374;    3,591
545,665;17297,476;    1,919;    1,500
546,248;17695,377;    1,010;   -0,318
546,830;17326,502;   -0,445;    1,955
547,413;17742,491;    1,010;   -0,773
547,996;18224,886;    0,555;    0,500
548,579;18055,664;    0,919;    0,955
549,161;17832,828;    1,828;    2,682
549,744;17588,788;   -0,809;    0,409
550,326;18104,253;   -0,809;   -1,136
550,909;17968,289;    2,737;    0,591
551,492;18330,405;   -0,263;    0,227
552,074;18161,450;   -0,173;   -1,318
552,657;18704,423;    2,373;    0,045
553,239;18443,629;   -0,173;   -0,773
553,821;18298,441;   -1,082;    1,045
554,404;17815,114;    1,282;    1,136
554,986;18218,809;    0,464;    1,045
555,568;18843,287;    1,191;   -0,955
556,151;18027,083;    1,191;   -0,227
556,733;18186,875;   -0,264;   -0,864
557,315;18678,576;    0,100;    0,500
557,897;18508,707;    0,554;   -0,500
558,479;18623,476;   -1,991;    1,318
559,061;18774,440;   -0,719;   -0,864
559,643;19118,521;   -0,264;    0,045
560,225;19487,725;    1,645;    2,864
560,807;19484,794;    0,918;    0,318
561,389;18966,700;    0,554;    2,318
561,971;19787,885;    0,463;    2,136
562,553;19562,658;   -1,628;    1,591
563,135;19692,494;   -0,537;    1,136
563,717;19302,548;    3,372;    1,136
564,298;20067,356;    3,645;   -0,045
564,880;19787,805;    0,645;   -1,409
565,462;19940,987;    0,645;    1,318
566,043;21154,859;   -0,446;    2,318
566,625;20703,218;    1,918;    1,227
567,207;20540,760;    1,099;    1,682
567,788;21712,875;   -1,264;    1,500
568,370;22552,873;    1,917;   -0,500
568,951;22395,513;    0,190;    0,227
569,533;23273,032;   -0,628;   -0,500
570,114;23750,934;   -0,446;    0,682
570,695;24351,306;   -0,174;   -1,318
571,277;24838,001;   -0,265;   -1,682
571,858;25657,438;    2,008;   -1,136
572,439;26537,343;    1,554;   -1,045
573,021;26708,724;    2,099;   -2,773
573,602;27243,661;   -1,265;    0,318
574,183;28189,601;   -2,083;    2,227
574,764;28331,827;   -1,629;    0,409
575,345;28887,881;    0,917;   -0,136
575,926;29470,123;   -0,356;    0,136
576,507;29398,656;    1,099;   -0,227
577,088;30550,351;    3,099;    1,682
577,669;30582,048;    0,735;    1,955
578,250;31503,965;    0,644;   -1,045
578,831;32167,462;   -1,356;   -2,227
579,412;32367,571;   -0,810;    0,955
579,993;33236,372;    1,008;    0,227
580,573;33575,954;   -0,629;   -0,955
581,154;32490,630;    0,735;   -0,591
581,735;33404,193;    0,644;    0,773
582,315;32927,375;   -0,629;    2,136
582,896;33162,645;   -0,174;    1,227
583,477;32573,126;    0,189;    1,227
584,057;32798,158;    0,553;    0,955
584,638;33106,917;    2,553;    2,318
585,218;33094,239;   -0,538;    2,682
585,799;33279,141;    0,281;   -0,227
586,379;33136,442;    0,372;    1,591
586,959;31859,119;    0,735;    0,318
587,540;31142,806;   -0,629;    2,227
588,120;30667,519;    1,007;   -0,045
588,700;29639,257;    2,553;    2,136
589,281;29986,254;    0,462;   -0,955
589,861;30035,860;    0,099;   -1,682
590,441;29747,082;    2,371;   -2,682
591,021;28709,458;   -0,265;   -2,591
591,601;28980,349;   -0,537;    0,500
592,181;28917,634;   -0,719;   -0,773
592,761;28189,201;    0,007;    1,409
593,341;28154,264;   -0,901;    0,045
593,921;28131,046;   -0,265;    1,591
594,501;28060,515;   -0,538;    1,318
595,081;27906,796;    0,917;   -0,318
595,661;28263,545;   -1,447;    0,955
596,240;28791,744;   -0,537;    0,136
596,820;28495,957;    0,372;    1,955
597,400;28690,562;    2,008;    0,773
597,980;28837,647;    2,008;    1,045
598,559;28802,093;    2,735;   -0,227
599,139;28520,667;   -0,174;   -1,227
599,718;28397,849;   -0,174;   -0,409
600,298;28656,579;    0,735;    0,682
600,877;28887,388;    2,917;    1,409
601,457;29159,055;    2,281;    1,136
602,036;29112,071;    0,190;    2,045
602,616;29376,005;    0,644;    1,682
603,195;29659,596;   -0,355;    3,500
603,774;29197,048;   -0,901;    2,045
604,354;29080,753;    0,826;   -0,500
604,933;28568,425;    0,463;    1,864
605,512;28726,190;    3,554;    0,591
606,091;28712,348;   -0,537;    3,773
606,671;29532,119;    0,281;    0,773
607,250;28674,402;    1,644;    3,136
607,829;28900,017;    2,372;    3,227
608,408;28740,579;    1,190;    2,591
608,987;27748,156;    1,281;    3,409
609,566;28090,095;   -1,265;   -2,500
610,145;28215,143;   -1,082;    0,682
610,723;28570,922;    4,372;    6,864
611,302;27802,203;   -0,446;    1,682
611,881;27324,424;    5,008;   11,227
612,460;28173,861;    1,645;    3,955
613,039;28566,068;   -0,082;    2,045
613,617;27272,432;    1,736;    4,773
614,196;27482,347;    1,099;    1,227
614,775;27849,663;    1,009;    2,409
615,353;27748,759;    0,736;    0,864
615,932;27456,197;    0,100;    2,409
616,510;28009,749;    0,554;    0,591
617,089;27546,725;    7,100;   17,591
617,667;27307,838;    2,372;    6,136
618,246;27139,902;   -1,537;    1,318
618,824;27331,981;   -3,355;   -0,955
619,402;26874,804;   -2,900;   -1,773
619,981;27395,377;   -0,173;   -1,045
620,559;27184,847;    0,009;    1,682
621,137;26722,753;   -0,718;    1,864
621,715;26761,623;   -1,173;   -0,682
622,293;26709,262;   -0,537;   -0,773
622,871;27143,758;   -0,718;    0,500
623,450;26693,555;    0,373;   -0,864
624,028;26636,783;    0,191;   -0,955
624,606;26266,398;   -1,718;    1,682
625,183;26652,298;   -1,536;   -1,136
625,761;26243,747;    1,009;    1,136
626,339;26535,845;    1,373;    2,591
626,917;26954,009;   -0,172;   -0,045
627,495;26983,419;   -0,354;    1,318
628,073;26462,560;   -0,263;    2,864
628,650;26081,099;    0,100;    2,136
629,228;26538,204;    0,373;    4,409
629,806;25965,291;    2,282;    1,136
630,383;26185,176;    1,464;   -0,318
630,961;25963,050;    2,555;   -0,955
631,539;25650,862;    2,464;    0,227
632,116;25062,232;   11,373;   15,409
632,694;25664,004;    2,555;    6,500
633,271;25939,062;    0,828;    2,682
633,848;25867,949;    1,828;    2,045
634,426;25880,800;   -1,081;    1,773
635,003;25040,593;    1,101;   -0,409
635,580;25331,028;    1,192;    3,682
636,158;25884,951;    3,737;    1,227
636,735;25912,276;    0,555;   -0,500
637,312;25988,850;   -0,809;   -0,682
637,889;26074,016;   -4,354;   -0,682
638,466;25553,454;   -3,990;   -0,409
639,043;25576,526;    2,101;   -1,136
639,620;25918,035;   -2,262;   -0,955
640,197;26209,929;    1,100;    1,682
640,774;26319,259;   -0,172;    1,136
641,351;26714,590;    0,737;    1,136
641,928;26161,556;   -0,627;    1,409
642,505;25818,250;    0,828;   -0,500
643,082;25906,853;   -1,718;    1,227
643,658;24910,183;   -0,718;    1,500
644,235;25716,967;    1,191;    2,500
644,812;26013,116;    1,918;    0,773
645,388;25755,627;   -0,991;    1,409
645,965;25837,685;   -0,809;    1,682
646,542;25934,469;   -1,445;   -0,227
647,118;25921,527;    1,009;   -0,955
647,695;26233,402;   -0,263;    1,136
648,271;26115,278;   -0,536;    0,500
648,848;26443,790;    0,736;    2,227
649,424;26258,302;    0,827;    1,318
650,000;26001,177;   -0,354;   -1,045
650,577;25831,144;   -0,627;   -0,955
651,153;26332,928;   -1,809;    0,955
651,729;27330,622;    1,191;    0,864
652,305;27968,407;    0,645;    2,773
652,881;33460,010;   -0,082;    1,136
653,458;40504,703;    1,100;    0,227
654,034;43840,852;    0,282;    1,591
654,610;45024,363;    0,554;    0,773
655,186;46290,694;    0,645;    3,045
655,762;45916,842;   -0,991;    0,409
656,338;45851,808;    0,100;    0,136
656,913;46798,593;   -0,082;    0,409
657,489;46051,469;    0,827;   -0,318
658,065;46014,071;   -0,173;   -1,591
658,641;46598,765;   -0,900;   -0,864
659,217;45903,095;   -0,991;    0,409
659,792;45268,789;    0,645;   -0,409
660,368;45417,937;   -2,173;   -0,682
660,944;44702,358;   -2,082;    1,227
661,519;39205,779;   -0,628;    0,409
662,095;33195,473;   -1,719;    0,591
662,670;29081,712;    1,281;   -0,136
663,246;28154,679;    1,009;   -0,409
663,821;27575,190;    0,281;    1,682
664,396;27085,339;    0,009;    1,864
664,972;27395,851;    0,009;   -0,500
665,547;27621,908;    1,372;    0,136
666,122;27704,056;   -1,082;    0,318
666,698;28013,023;   -0,173;    0,318
667,273;27324,080;   -0,173;    0,136
667,848;28157,683;    2,372;    1,500
668,423;27991,558;    2,190;    2,318
668,998;28592,798;    2,827;   -0,682
669,573;29086,310;   -3,264;   -1,500
670,148;28887,549;   -1,446;   -0,682
670,723;28670,333;   -1,810;    0,318
671,298;29098,936;    2,372;    1,045
671,873;29217,630;   -0,082;   -0,136
672,448;29178,415;    0,645;    0,136
673,023;29512,290;   -1,992;   -0,227
673,597;29857,802;    0,827;    2,318
674,172;29626,859;   -0,355;    0,318
674,747;29081,099;    0,372;   -1,045
675,321;28881,429;   -0,628;    3,318
675,896;28462,668;    0,645;    1,045
676,471;29515,725;    2,645;    1,591
677,045;29255,783;   -1,264;    0,682
677,620;29356,294;    0,190;    1,136
678,194;29619,988;   -2,628;    1,136
678,769;29186,500;   -1,083;   -0,318
679,343;29470,012;   -0,628;    1,773
679,917;29339,615;   -1,446;    1,955
680,492;29475,036;    0,826;    3,227
681,066;29532,457;    3,372;    0,409
681,640;29596,151;    1,463;   -0,318
682,214;30424,572;    0,735;    0,500
682,788;30003,447;   -1,356;   -0,773
683,363;29926,959;   -1,810;    1,682
683,937;29589,744;   -1,719;   -0,318
684,511;30341,256;    0,463;   -0,591
685,085;30046,586;   -1,356;    0,318
685,659;29806,916;   -2,538;    0,864
686,232;30103,882;   -0,356;   -0,318
686,806;29760,758;   -0,901;    0,409
687,380;30392,088;   -0,174;    0,591
687,954;30617,236;   -1,174;    1,136
688,528;30309,294;   -0,719;    1,955
689,101;31092,805;   -3,992;    1,045
689,675;30705,045;   -0,356;   -0,136
690,249;30131,011;   -0,719;    0,409
690,822;30399,978;    0,280;    0,318
691,396;30508,308;   -0,265;    1,227
691,969;29934,638;    1,280;    0,136
692,543;30373,150;   -0,447;   -1,955
693,116;30034,480;   -0,265;   -1,409
693,690;29885,537;    0,099;    0,500
694,263;30451,867;   -1,083;    2,955
694,836;30484,015;    1,371;    3,591
695,410;29121,618;   -0,265;    1,773
695,983;29592,039;    0,189;    0,591
696,556;29535,188;   -0,447;   -1,045
697,129;29936,336;   -0,356;    1,409
697,703;29602,030;   -1,629;    1,955
698,276;29581,451;    1,462;   -0,773
698,849;29393,781;    1,280;    1,409
699,422;29726,202;   -1,083;    0,591
699,995;29411,986;    0,007;    0,136
700,568;29945,316;   -0,629;    3,045
701,140;29967,647;   -2,811;    1,682
701,713;29682,613;   -0,174;    2,409
702,286;29481,852;   -0,538;    0,864
702,859;29339,546;   -0,902;   -0,591
703,432;28491,694;    0,825;    0,682
704,004;29003,752;    0,462;    0,318
704,577;28892,718;   -0,629;    0,136
705,150;29427,594;    0,189;    2,500
705,722;29212,924;   -0,356;   -3,227
706,295;29011,981;   -0,175;   -0,591
706,867;28858,220;   -0,175;    1,955
707,440;29121,278;   -1,720;   -0,409
708,012;29360,971;    0,462;    0,591
708,584;29279,756;    2,462;    0,227
709,157;29529,541;    1,825;   -0,591
709,729;29132,052;    2,280;    2,045
710,301;30004,473;    0,734;    0,045
710,874;29969,713;   -1,447;   -0,227
711,446;28910,134;    0,371;    0,864
712,018;28775,646;    0,098;    0,500
712,590;28519,248;   -1,993;    1,682
713,162;29089,669;    0,825;    1,318
713,734;29327,272;    1,825;   -2,045
714,306;29182,330;   -1,902;   -0,409
714,878;27910,023;    0,825;    0,864
715,450;28723,899;    0,643;    0,864
716,022;28933,502;    1,552;    1,318
716,593;29075,832;    0,189;    0,591
717,165;29013,525;   -3,175;   -1,227
717,737;28775,583;    0,280;    0,409
718,309;28416,822;    0,280;   -0,045
718,880;28394,607;   -0,539;   -1,409
719,452;28569,482;   -0,175;   -1,591
720,024;28179,085;    0,734;   -0,591
720,595;28722,142;   -2,902;    0,955
721,167;28234,200;    0,370;   -2,045
721,738;27841,166;   -0,812;   -1,045
722,309;27828,496;   -0,993;   -1,227
722,881;27597,190;   -1,357;    0,773
723,452;28224,338;   -2,630;    2,864
724,023;28358,578;   -0,721;    2,682
724,595;28102,817;    0,007;    0,682
725,166;27867,783;    0,007;   -0,409
725,737;27593,295;    1,734;    0,227
726,308;27689,443;   -0,266;    0,318
726,879;28132,228;   -1,630;    1,227
727,450;27944,376;    0,552;   -0,045
728,021;27954,343;    3,097;    0,682
728,592;27709,400;    0,734;    0,500
729,163;28023,003;    0,643;   -0,136
729,734;28128,606;    0,188;   -0,227
730,305;28452,390;    1,734;    0,136
730,876;28771,448;    0,188;    2,955
731,447;28501,051;    2,188;    2,682
732,017;28638,835;    1,097;    1,864
732,588;28080,347;    0,734;    1,227
733,159;28299,677;    0,643;   -1,045
733,729;28080,462;    0,006;    0,409
734,300;27344,701;    0,915;    0,864
734,870;27778,849;    3,461;    0,591
735,441;28335,998;    0,370;   -0,591
736,011;28104,328;    0,643;   -1,591
736,582;27998,112;   -0,812;    0,045
737,152;27488,715;   -1,721;   -2,045
737,722;27954,954;   -0,267;   -0,682
738,293;27655,284;   -1,358;    1,318
738,863;27461,614;    2,461;    2,318
739,433;27349,490;    5,279;    0,318
740,003;27958,002;   -0,994;   -0,682
740,573;27383,787;    2,097;   -1,591
741,143;27354,662;   -1,085;    0,318
741,713;28092,447;    1,188;   -0,500
742,283;27839,595;    0,915;    1,591
742,853;27585,016;    1,915;    1,591
743,423;26976,073;    1,733;    0,045
743,993;27136,949;   -0,358;    1,500
744,563;26554,097;    0,097;   -0,864
745,133;26470,518;   -0,812;   -0,864
745,702;27086,576;   -0,267;    1,773
746,272;26372,906;   -0,176;    0,591
746,842;26186,145;   -1,358;   -0,591
747,411;26571,293;   -0,267;   -0,318
747,981;26769,714;    0,097;    0,500
748,551;26781,590;    2,278;   -1,045
749,120;26669,102;    0,642;   -0,227
749,690;27006,977;   -0,631;    2,409
750,259;27357,398;    1,369;    2,955
750,828;27271,274;    1,551;   -1,955
751,398;27519,240;    1,278;   -0,045
751,967;27051,298;    2,187;    0,409
752,536;27238,446;   -0,813;   -0,227
753,105;27657,412;    0,096;    0,227
753,675;27464,742;    0,096;    1,773
754,244;27444,163;   -0,904;    3,591
754,813;27415,221;    0,551;    1,227
755,382;27015,914;    0,460;    0,955
755,951;27647,881;    1,551;    3,682
756,520;27199,393;   -0,085;    1,864
757,089;27766,087;    0,278;    0,500
757,658;27897,598;    1,733;    1,227
758,227;27865,474;    1,096;    0,318
758,795;28127,531;    1,187;    1,136
759,364;28397,498;   -0,086;   -0,591
759,933;27368,101;   -1,176;   -0,045
760,501;26862,249;    0,733;   -1,318
761,070;27363,397;   -2,813;   -1,409
761,639;28052,000;   -1,904;    1,318
762,207;27431,603;    1,551;   -0,955
762,776;27364,569;    0,369;    0,864
763,344;27335,536;   -0,995;    0,591
763,913;26365,320;   -0,722;    1,409
764,481;27145,650;    1,005;   -0,136
765,049;26902,617;   -1,358;    1,409
765,618;26811,311;   -0,086;    0,318
766,186;26842,095;    0,278;    0,136
766,754;27030,062;    0,005;    1,864
767,322;26076,937;   -1,995;    0,409
767,890;26108,177;   -0,722;   -1,773
768,459;26485,234;   -2,177;   -0,318
769,027;26670,200;    1,641;    3,409
769,595;25633,621;    3,278;    2,591
770,163;26074,406;    3,823;    2,955
770,730;25815,372;    0,732;   -0,136
771,298;25692,521;    0,187;   -1,409
771,866;25741,942;   -1,541;    4,955
772,434;26059,817;   -0,631;   -1,864
773,002;26221,511;    0,005;    0,682
773,569;25911,841;    0,914;    1,682
774,137;25712,080;   -0,268;   -0,045
774,705;26466,683;    0,278;   -0,136
775,272;26009,013;    0,641;    0,682
775,840;25739,252;   -0,177;    2,682
776,407;25250,219;    0,277;    1,955
776,975;24885,094;   -0,632;    0,318
777,542;25879,970;   -1,086;   -0,045
778,110;25655,391;   -1,268;   -0,045
778,677;25358,630;   -2,359;   -0,864
779,244;25114,960;    2,186;    1,045
779,812;25272,927;    1,823;    0,864
780,379;25108,893;    0,005;    1,136
780,946;25369,860;    1,005;   -0,773
781,513;25657,190;   -1,450;    0,318
782,080;25079,974;   -0,086;    2,864
782,647;25795,577;   -0,268;    3,045
783,214;25381,362;   -0,177;    3,864
783,781;25006,874;   -0,723;   -0,682
784,348;24870,840;   -0,632;    1,500
784,915;25302,443;   -3,177;    0,318
785,482;25096,955;    1,368;    2,591
786,049;25518,921;    0,186;   -0,591
786,615;25646,979;    0,277;   -0,955
787,182;25369,127;    0,186;   -0,682
787,749;25001,639;   -2,814;    1,409
788,315;24374,605;   -1,632;   -0,409
788,882;24652,754;    1,550;   -1,227
789,448;25386,629;    1,732;   -0,955
790,015;25363,959;    1,095;    3,227
790,581;24938,926;    1,459;    0,227
791,148;24874,438;    0,641;    1,045
791,714;25046,677;   -0,541;    3,136
792,280;24742,280;    0,186;    1,591
792,847;24262,701;    0,550;    2,500
793,413;24786,758;   -0,269;   -0,318
793,979;24391,088;    3,459;   -1,318
794,545;24515,236;    4,459;    2,682
795,111;23980,930;    2,186;    1,318
795,678;24091,715;    0,731;   -1,682
796,244;23707,136;    3,368;    0,136
796,810;24252,193;    1,731;    0,773
797,375;23959,160;    0,549;   -2,136
797,941;23991,944;   -0,541;    0,591
798,507;24135,820;   -0,451;   -0,955
799,073;23685,786;   -0,360;    0,591
799,639;23730,116;   -2,632;    3,136
800,205;23743,174;    0,095;    2,682
800,770;23325,686;    0,640;    1,773
801,336;23399,834;    1,368;   -0,955
801,901;23127,709;    4,549;    3,136
802,467;23639,767;   -0,542;    2,045
803,033;22957,642;   -0,087;    0,864
803,598;23177,700;    1,913;   -1,045
804,163;23256,484;    1,095;   -0,318
804,729;23240,996;   -0,178;    1,136
805,294;23639,235;    0,822;    2,227
805,859;23414,929;    0,731;   -0,409
806,425;22867,532;    1,186;    2,682
806,990;22495,771;    2,186;    4,318
807,555;23029,101;   -1,451;    2,591
808,120;22896,795;    0,822;   -0,409
808,685;22903,670;    0,185;   -2,500
809,250;22442,364;    0,004;   -0,500
809,815;22759,876;    1,913;    0,682
810,380;23318,206;   -0,269;    1,591
810,945;23896,900;   -1,087;    2,045
811,510;23001,776;    2,094;    1,591
812,075;22695,833;   -0,633;   -1,409
812,640;22760,618;    2,003;    1,409
813,204;22790,584;    0,822;   -0,227
813,769;23251,187;    2,094;   -0,045
814,334;22706,517;    0,458;    0,864
814,898;22768,302;    0,367;    0,591
815,463;22634,904;    1,276;   -0,773
816,027;22557,689;   -0,724;   -2,318
816,592;22637,928;    0,640;   -2,045
817,156;22200,349;    2,094;    1,136
817,721;22112,861;    4,276;    2,318
818,285;22028,282;    2,912;    1,500
818,849;22674,067;   -1,451;    1,682
819,414;22572,397;   -0,269;    2,955
819,978;22102,545;   -1,269;    1,773
820,542;22708,966;    2,003;    0,500
821,106;22407,660;   -0,815;    0,682
821,670;22537,899;   -0,815;    2,591
822,234;22258,684;   -0,270;    1,409
822,798;21611,923;    0,003;    0,500
823,362;21567,980;   -0,633;    4,227
823,926;20903,219;    0,094;    1,136
824,490;21144,549;   -0,997;   -0,682
825,054;21598,243;   -0,088;   -1,136
825,618;21176,573;   -1,542;   -1,500
826,181;21151,903;    0,458;   -1,318
826,745;21074,779;    1,367;   -1,045
827,309;21418,564;    1,185;    1,318
827,872;20793,985;    1,367;    0,955
828,436;21773,496;    1,185;   -0,773
828,999;21741,372;   -0,997;    1,227
829,563;20551,884;   -0,179;    1,136
830,126;20381,941;   -0,179;   -0,591
830,690;20444,180;   -1,997;    2,864
831,253;19970,965;   -0,543;    2,227
831,816;20135,295;   -1,906;    0,500
832,380;20033,444;    0,185;    0,864
832,943;20266,865;   -1,361;   -0,500
833,506;19736,922;    2,639;   -1,227
834,069;20515,161;    3,912;   -0,955
834,632;20541,855;    1,730;    1,318
835,195;20492,276;    1,003;    0,955
835,758;19655,151;   -0,997;    1,955
836,321;19473,845;    0,730;   -1,045
836,884;19590,630;   -0,725;   -0,955
837,447;19605,142;   -2,816;    1,773
838,010;19894,108;    0,366;    3,227
838,573;20194,620;   -1,179;    0,773
839,135;20149,223;   -1,361;   -0,955
839,698;19632,007;    1,275;    0,409
840,261;19127,065;    1,003;   -0,227
840,823;18925,304;   -0,543;    0,864
841,386;19198,089;   -0,452;   -2,409
841,948;19138,873;   -1,361;    1,773
842,511;18886,476;    0,912;    1,682
843,073;19010,897;    1,912;    0,227
843,636;18782,954;   -0,361;   -0,227
844,198;18723,012;    0,911;    0,591
844,760;18899,706;    1,093;    1,955
845,322;18511,763;    0,548;    1,136
845,885;18935,911;    0,730;    0,591
846,447;19405,605;   -1,998;    0,227
847,009;19013,208;    1,911;   -0,682
847,571;19318,265;    0,820;   -2,045
848,133;19432,777;   -1,089;   -1,864
848,695;19232,107;   -0,543;    1,409
849,257;18756,983;   -1,089;   -1,682
849,819;18946,495;   -0,998;   -0,409
850,381;18996,188;   -0,725;   -0,864
850,942;19378,973;    1,093;   -0,591
851,504;19370,758;    1,184;    0,227
852,066;19372,997;    1,275;   -1,591
852,628;18894,054;   -0,180;    1,955
853,189;18375,748;    1,638;    2,682
853,751;18494,351;   -0,907;    1,409
854,312;18302,499;   -0,453;   -1,682
854,874;18841,375;   -2,089;   -0,773
855,435;19376,977;   -0,907;   -1,682
855,997;19548,853;   -1,816;   -0,136
856,558;18858,910;    0,366;    1,773
857,119;18931,695;    0,820;    2,864
857,681;18612,298;    0,002;    0,318
858,242;18704,719;    1,911;   -2,136
858,803;19107,958;    0,456;   -0,773
859,364;19679,379;    0,184;   -4,773
859,925;19009,345;   -2,453;   -0,955
860,486;18884,766;   -0,453;   -0,955
861,047;18603,915;   -0,544;   -1,227
861,608;18439,245;   -1,089;   -0,773
862,169;18507,938;    0,638;   -0,045
862,730;18287,087;    0,456;    1,409
863,291;18563,871;   -0,635;   -0,500
863,852;18929,929;   -0,635;    1,955
864,412;18350,259;   -0,271;   -0,864
864,973;16968,225;   -0,089;    0,500
865,534;16853,555;   -1,726;    0,227
866,094;18332,613;    1,820;    0,227
866,655;18012,306;    1,274;    3,318
867,215;18267,182;    0,274;    0,136
867,776;18098,785;    0,547;   -0,136
868,336;18180,751;   -1,453;    0,136
868,897;17657,354;    2,638;    1,682
869,457;17404,957;    1,365;    0,318
870,017;17632,105;    0,547;   -1,227
870,578;18181,799;   -0,817;    0,773
871,138;17864,220;   -2,089;   -0,955
871,698;17438,914;   -0,817;   -1,318
872,258;17297,698;   -0,453;   -2,864
872,818;17674,392;    2,729;    0,045
873,378;17624,904;    0,638;    1,045
873,938;17110,870;    0,547;    0,500
874,498;17464,382;    0,274;   -1,955
875,058;17418,712;    2,183;    1,773
875,618;17244,861;    1,910;   -2,682
876,177;17157,373;    1,274;    0,136
876,737;16756,066;   -0,090;    1,955
877,297;16777,396;    0,183;    1,955
877,856;16823,999;   -0,362;    0,318
878,416;16776,875;    1,183;   -0,136
878,976;16976,387;   -1,817;    0,409
879,535;17140,353;    0,092;    3,136
880,095;16874,956;   -0,544;    0,045
880,654;16959,741;   -1,090;    1,318
881,213;17096,889;    2,456;    1,500
881,773;16765,855;    2,637;    2,682
882,332;17125,367;    3,365;    5,136
882,891;16954,516;    3,092;    2,136
883,451;17403,118;   -1,272;    1,682
884,010;16866,539;   -2,908;   -0,409
884,569;16937,506;   -0,999;   -0,045
885,128;17107,927;    2,819;   -1,864
885,687;17185,530;    4,455;    0,682
886,246;16909,951;    1,455;    2,136
886,805;16621,735;    2,455;    2,045
887,364;16931,156;   -0,999;   -0,500
887,922;17311,032;   -1,181;    0,045
888,481;16801,180;   -1,545;    0,591
889,040;17107,874;    1,183;    2,136
889,599;17780,113;    2,455;    1,409
890,157;17828,716;    1,455;    2,409
890,716;17455,410;   -0,090;    0,227
891,274;17313,921;    0,092;   -1,136
891,833;17748,070;    1,546;    0,864
892,391;17612,309;   -0,454;    0,500
892,950;17663,821;    1,819;   -0,773
893,508;18057,242;    0,455;   -0,409
894,067;17353,936;    0,637;    0,136
894,625;17240,902;   -0,636;   -1,500
895,183;17514,596;   -0,363;   -0,682
895,741;17382,562;    1,728;   -1,773
896,299;17229,529;   -0,545;   -2,409
896,858;17478,222;    0,819;   -1,591
897,416;17572,189;    2,728;   -1,318
897,974;17306,155;    1,819;    0,318
898,532;17509,122;    6,091;    2,682
899,089;17406,725;    2,091;   -0,682
899,647;17419,327;   -1,454;    1,318
900,205;17125,476;    1,182;    1,045
900,763;17329,715;   -0,454;    0,227
901,321;17346,045;    2,364;   -1,409
901,878;16698,466;   -1,000;   -0,773
902,436;16619,614;   -1,363;    1,318
902,994;16962,853;    4,728;    3,682
903,551;16443,093;    0,728;    0,409
904,109;16813,332;    0,182;   -1,409
904,666;16425,116;    2,455;    1,045
905,224;16271,265;    0,182;   -0,409
905,781;15985,777;    0,727;   -0,318
906,338;16071,925;   -1,363;    1,045
906,895;15991,437;    0,637;    2,045
907,453;15911,312;    1,727;    1,136
908,010;15921,370;   -0,909;    0,409
908,567;15632,154;    1,273;    0,591
909,124;15112,575;    0,364;   -1,500
909,681;15170,178;   -2,909;    0,682
910,238;15320,872;    0,636;   -1,318
910,795;15621,475;   -0,273;   -1,136
911,352;15238,838;   -2,909;   -2,682
911,909;14690,929;   -1,364;   -0,864
912,466;15175,566;   -3,182;    1,500
913,022;14729,202;   -1,636;    0,500
913,579;15071,747;   -0,909;    2,045
914,136;14776,384;    1,636;    0,955
914,692;15128,293;    0,091;   -1,227
915,249;14729,202;    1,455;    0,409
915,806;14938,838;    0,182;    1,955
916,362;14715,384;    1,909;    1,864
916,918;14260,202;    2,000;    1,045
917,475;14266,111;   -1,182;    0,955
918,031;14290,747;    3,364;   -0,045
918,587;13745,020;   -0,909;   -0,318
919,144;13950,293;   -2,273;    0,227
919,700;14263,475;    1,727;    0,773
920,256;13817,838;    0,727;    0,045
920,812;13445,838;   -0,727;   -1,045
921,368;13434,384;   -1,727;   -1,045
921,924;13085,657;    0,182;   -0,136
922,480;12677,111;   -0,545;    1,227
923,036;13294,020;    1,273;    1,955
923,592;13184,747;    0,455;    0,318
924,148;13132,929;    0,455;   -0,955
924,704;12460,384;   -1,364;   -0,409
925,259;12684,566;   -0,273;    0,591
925,815;12463,202;    1,455;    0,500
926,371;11987,475;    2,909;    1,409
926,926;11863,475;    2,091;    0,591
927,482;11492,202;   -1,364;    0,773
928,037;11413,838;    0,909;    2,045
928,593;11688,475;    1,636;    1,045
929,148;11525,111;   -1,818;   -1,500
929,704;10990,020;   -1,455;   -0,500
930,259;11209,020;    0,091;   -0,136
930,814;10250,384;   -0,818;    1,955
931,369; 9908,020;    1,091;   -0,773
931,925; 9802,020;   -0,091;    0,136
932,480; 9749,111;   -2,818;   -2,591
933,035; 9632,020;    0,545;   -0,318
933,590; 9387,111;    0,364;   -1,773
934,145; 8990,111;   -1,364;   -0,318
934,700; 9323,293;    0,455;   -0,591
935,255; 9122,111;   -0,091;    0,045
935,809; 8436,566;    3,182;    0,864
936,364; 7533,111;   -0,455;   -0,136
936,919; 7492,111;    0,455;   -1,773
937,474; 7385,384;    1,455;    0,136
938,028; 7123,657;   -1,636;    1,136
938,583; 6625,475;    1,818;    4,682
939,138; 6889,384;    2,091;    2,136
939,692; 6316,566;    1,636;   -1,136
940,247; 6026,657;   -0,727;   -1,045
940,801; 5570,747;   -0,636;    0,227
941,355; 5479,838;   -0,364;    2,591
941,910; 5121,384;   -0,273;   -2,136
942,464; 5238,929;   -0,818;   -0,318
943,018; 5044,202;    1,000;   -0,227
943,572; 4984,293;    2,545;   -0,682
944,126; 4403,111;    0,091;   -0,409
944,681; 4314,838;    3,091;    0,227
945,235; 4301,293;    1,000;   -0,591
945,789; 4227,566;    0,364;   -1,864
946,342; 4298,293;    0,455;   -0,591
946,896; 4117,020;   -2,273;    0,955
947,450; 3868,020;    1,545;   -0,227
948,004; 4072,838;    1,727;   -0,045
948,558; 4074,747;    0,273;   -0,864
949,111; 3994,929;   -0,273;   -0,318
949,665; 4024,384;    1,636;   -0,682
950,219; 3906,111;   -0,091;   -1,045
950,772; 3971,020;   -1,909;    1,864
951,326; 3860,566;    0,545;   -0,955
951,879; 3978,747;    0,727;   -2,318
952,433; 4011,657;    0,000;    2,227
952,986; 3841,384;    2,909;    0,682
953,539; 3788,202;   -0,273;    0,591
954,093; 3705,202;    0,545;   -1,318
954,646; 3853,020;    0,909;    1,318
955,199; 3672,111;    0,000;   -0,500
955,752; 3566,657;   -0,455;    1,773
956,305; 3538,475;   -0,091;    2,955
956,858; 3712,020;    0,818;   -0,318
957,411; 3849,293;   -0,545;    2,136
957,964; 3699,566;    1,364;    2,136
958,517; 3680,293;   -1,545;    3,136
959,070; 3513,838;   -0,455;    1,955
959,623; 3597,020;    1,091;    1,500
960,176; 3341,020;    1,727;    2,045
960,728; 3341,111;   -2,727;    0,773
961,281; 3395,475;    0,545;    0,500
961,834; 3446,293;   -0,909;    0,864
962,386; 3346,384;    1,727;    1,045
962,939; 3276,929;    0,364;   -0,318
963,491; 3414,475;    0,455;    1,136
964,043; 3297,657;    1,182;    2,409
964,596; 3417,020;   -1,000;    2,227
965,148; 3256,293;   -1,000;    1,773
965,700; 3168,293;    1,091;   -0,227
966,253; 3324,747;   -0,636;    0,318
966,805; 3141,384;   -2,273;    0,773
967,357; 3219,202;    1,091;   -1,500
967,909; 3170,747;    0,455;   -1,227
968,461; 3286,202;    0,545;    3,136
969,013; 3215,020;   -0,182;   -0,864
969,565; 3300,747;   -0,455;   -1,136
970,117; 3362,202;   -0,364;    1,045
970,669; 3177,566;    0,182;   -0,136
971,220; 3032,838;   -0,455;   -1,500
971,772; 2967,111;   -0,636;   -0,318
972,324; 3083,475;    0,091;   -0,500
972,876; 3028,566;    0,818;   -0,045
973,427; 3189,111;    1,909;   -1,045
973,979; 3138,747;   -0,727;   -2,500
974,530; 3196,384;    1,818;    1,318
975,082; 3197,657;   -0,545;    1,682
975,633; 3082,020;    1,091;    1,682
976,184; 3230,475;    0,909;    0,773
976,736; 3008,929;    0,091;    0,227
977,287; 2820,293;   -0,909;   -0,500
977,838; 3010,747;    0,909;   -0,318
978,389; 3069,929;   -1,000;   -0,500
978,940; 2937,384;    0,545;   -0,409
979,491; 2940,111;    0,091;   -0,500
980,042; 2905,384;    0,182;    3,045
980,593; 2963,202;   -2,545;    0,227
981,144; 3009,838;    2,545;   -0,500
981,695; 2983,475;    1,455;    1,500
982,246; 2939,566;   -0,273;    1,045
982,797; 3103,202;   -1,727;    0,682
983,347; 3215,384;    0,364;    0,591
983,898; 3376,293;    3,091;    0,409
984,449; 3196,657;    2,182;    0,773
984,999; 3095,293;    1,455;   -1,136
985,550; 2854,838;    0,182;   -0,318
986,100; 2890,111;   -0,455;   -0,318
986,651; 2944,020;   -0,818;    0,045
987,201; 2917,929;   -1,000;   -0,591
987,751; 2991,747;    0,818;    2,864
988,302; 2990,747;    2,636;    1,500
988,852; 3014,020;    0,455;   -1,136
989,402; 3055,657;    0,091;    0,682
989,952; 2967,838;   -2,182;    0,864
990,502; 3064,566;   -0,091;    0,682
991,052; 3023,111;   -0,727;    0,045
991,602; 2904,293;   -2,909;    1,318
992,152; 2902,475;    0,455;    0,682
992,702; 2867,293;    1,364;   -0,045
993,252; 2804,293;   -3,000;   -0,500
993,802; 2911,566;   -0,273;    1,318
994,352; 3137,293;   -1,545;    1,136
994,901; 3211,747;   -0,182;    3,227
995,451; 3127,657;   -0,182;    0,318
996,000; 3203,111;    1,636;    0,318
996,550; 2926,202;    2,273;    0,227
997,100; 2929,384;    1,273;   -0,045
997,649; 3209,929;    2,182;    0,955
998,198; 2845,475;    1,727;   -1,500
998,748; 3058,657;    1,091;   -2,318
999,297; 2946,747;   -0,818;   -0,409
999,846; 3006,929;    1,000;   -0,773
1000,395; 3051,293;   -0,818;    0,500
1000,945; 3003,566;    1,818;   -0,773
1001,494; 3105,475;    2,364;    0,682
1002,043; 3095,475;    4,636;    0,864
1002,592; 2907,747;   -1,091;    1,955
1003,141; 3056,202;   -0,455;   -0,682
1003,690; 2941,020;    1,727;    0,500
1004,238; 3013,475;    1,455;   -0,045
1004,787; 2634,929;    1,364;    1,227
1005,336; 2899,202;    0,364;    0,682
1005,885; 3037,111;    1,364;   -2,773
1006,433; 3175,111;    0,545;    0,955
1006,982; 3215,475;    0,455;    1,682
1007,531; 3116,838;   -1,818;   -0,227
1008,079; 3082,838;   -2,273;    0,500
1008,627; 3209,202;   -1,455;    0,409
1009,176; 2936,475;    0,000;   -1,955
1009,724; 2990,566;    1,091;    0,864
1010,273; 3047,929;    1,273;    0,500
1010,821; 3148,747;    0,091;    1,409
1011,369; 2879,747;   -1,364;    1,318
1011,917; 2872,929;   -1,364;   -0,591
1012,465; 3168,929;    1,273;   -1,591
1013,013; 3272,202;    2,091;   -1,682
1013,561; 3141,111;    0,455;   -0,773
1014,109; 3206,657;   -1,909;    1,682
1014,657; 3080,475;    0,364;    0,591
1015,205; 3208,566;    1,636;   -0,955
1015,753; 3229,293;   -0,545;   -1,409
1016,301; 3271,929;   -2,636;    3,045
1016,848; 3266,838;   -1,273;    0,409
1017,396; 3305,020;    2,545;    0,045
1017,944; 3420,384;    1,182;    1,864
1018,491; 3176,747;    0,273;    1,409
1019,039; 3348,384;    0,455;    0,591
1019,586; 3244,657;   -1,364;    1,682
1020,134; 3344,111;    0,455;    1,500
1020,681; 3368,111;    0,182;   -1,136
1021,228; 3369,111;    2,909;   -2,227
1021,776; 3212,838;    1,182;   -1,136
1022,323; 3437,566;    0,455;    0,773
1022,870; 3368,657;   -1,000;   -0,045
1023,417; 3250,747;    2,636;    1,864
1023,964; 3393,475;    2,636;    1,227
1024,511; 3225,020;    1,000;    0,773
1025,058; 3039,111;    3,182;   -0,045
1025,605; 3100,202;   -2,273;    3,136
1026,152; 3321,475;    1,727;   -0,591
1026,699; 3048,020;    1,818;    1,318
1027,245; 3196,475;   -0,091;    0,318
1027,792; 3387,111;   -1,000;    1,409
1028,339; 3286,929;    2,364;   -0,045
1028,885; 3148,475;    1,000;   -0,227
1029,432; 3084,020;   -0,091;    0,227
1029,978; 3147,747;   -1,000;   -1,591
1030,525; 3051,929;    1,000;    0,409
1031,071; 3252,111;   -1,364;    1,136
1031,618; 3401,020;    0,364;    1,682
1032,164; 3171,657;   -0,091;    3,045
1032,710; 3223,020;    1,636;   -1,500
1033,256; 3120,657;   -0,636;   -0,136
1033,803; 3121,566;   -0,545;    1,500
1034,349; 2825,566;   -1,364;    0,136
1034,895; 2982,747;    0,000;   -0,318
1035,441; 2967,657;   -0,818;    0,318
1035,987; 2972,838;   -2,364;   -0,682
1036,533; 2970,566;   -1,455;   -0,955
1037,078; 3173,838;    1,455;    1,682
1037,624; 2985,475;    2,455;   -0,955
1038,170; 3028,202;    0,455;   -0,318
1038,716; 2930,111;    1,636;   -0,409
1039,261; 2822,929;   -2,273;   -0,773
1039,807; 2769,202;   -0,091;    3,409
1040,352; 2834,566;   -1,909;   -0,318
1040,898; 2880,020;   -1,545;   -0,682
1041,443; 2777,202;   -1,455;   -2,591
1041,989; 2813,293;    1,091;    1,591
1042,534; 2694,020;   -0,364;    2,591
1043,079; 2804,111;    2,909;    0,955
1043,625; 2589,202;    1,818;    0,500
1044,170; 2633,747;   -1,364;    1,045
1044,715; 2912,566;    2,455;    0,955
1045,260; 2723,202;    2,182;   -0,955
1045,805; 2751,475;    1,182;   -0,591
1046,350; 2674,566;    1,364;   -0,409
1046,895; 2655,111;    2,909;    1,591
1047,440; 2618,747;    5,364;    0,409
1047,985; 2513,111;    2,818;   -0,955
1048,530; 2408,747;    1,545;    1,227
1049,074; 2491,020;    0,000;    0,318
1049,619; 2475,202;   -1,364;    1,955
1050,164; 2257,111;    0,455;    0,227
1050,708; 2301,384;   -0,455;    0,045
1051,253; 2708,475;    1,273;   -2,227
1051,797; 2391,747;    0,818;   -1,318
1052,342; 2389,020;   -1,182;    1,045
1052,886; 2393,202;    0,364;   -1,409
1053,430; 2281,293;   -1,364;    0,136
1053,975; 2293,384;   -0,818;   -0,318
1054,519; 2279,384;   -0,727;    3,227
1055,063; 2300,020;    0,909;    1,318
1055,607; 2173,020;   -0,182;    0,227
1056,151; 2186,111;    2,909;    1,682
1056,695; 2100,747;    2,273;   -1,136
1057,239; 2174,202;   -1,727;   -0,682
1057,783; 2184,657;    0,818;   -1,500
1058,327; 2135,838;    0,000;    1,409
1058,871; 2359,475;   -0,545;    1,318
1059,415; 2070,111;   -0,818;   -0,045
1059,958; 2350,566;    1,455;    2,591
1060,502; 2052,657;   -1,000;   -0,773
1061,046; 1935,657;    0,364;   -0,955
1061,589; 1929,384;   -3,000;   -1,136
1062,133; 1803,293;   -1,273;    1,864
1062,676; 1764,929;    1,182;    0,864
1063,220; 1767,475;    1,091;    0,500
1063,763; 1795,747;    0,909;    1,136
1064,306; 1877,929;   -0,909;    1,864
1064,849; 1757,020;   -0,909;    0,591
1065,393; 1766,747;    2,000;   -1,500
1065,936; 1873,657;    0,182;   -0,409
1066,479; 1756,384;   -1,455;    1,318
1067,022; 1768,929;   -0,273;   -0,227
1067,565; 1673,566;   -0,091;   -1,318
1068,108; 1704,020;    0,727;   -0,591
1068,651; 1668,020;   -0,636;    1,409
1069,194; 1607,838;   -0,455;   -1,682
1069,736; 1611,929;   -1,273;    0,955
1070,279; 1585,384;   -1,364;   -0,500
1070,822; 1654,202;   -2,000;   -0,318
1071,364; 1746,475;   -0,364;    1,318
1071,907; 1542,657;   -0,727;    3,227
1072,450; 1433,384;    0,000;   -0,045
1072,992; 1437,020;   -0,273;    3,136
1073,535; 1609,929;    2,091;    2,136
1074,077; 1377,838;   -0,727;    2,045
1074,619; 1350,838;   -1,364;    0,591
1075,161; 1398,020;   -1,091;    1,500
1075,704; 1568,475;    1,545;    1,227
1076,246; 1366,020;   -0,182;    0,682
1076,788; 1298,293;   -0,364;    1,773
1077,330; 1349,747;    1,273;    2,136
1077,872; 1325,111;    0,909;    0,955
1078,414; 1558,475;    2,727;    0,773
1078,956; 1283,929;    1,273;   -0,227
1079,498; 1563,566;    1,636;    0,318
1080,040; 1256,384;    1,909;   -1,318
1080,581; 1187,566;    1,636;   -0,318
1081,123; 1120,111;    0,091;   -0,773
1081,665; 1170,657;   -1,182;   -0,955
1082,206; 1492,202;    1,364;   -0,500
1082,748; 1336,475;    0,727;    2,045
1083,289; 1208,020;   -2,000;    1,318
1083,831; 1109,111;   -0,545;    0,227
1084,372; 1158,202;    0,000;    0,591
1084,913; 1163,384;    1,091;    0,864
1085,455; 1116,202;   -1,909;   -2,045
1085,996; 1093,020;   -2,273;    0,136
1086,537; 1119,838;   -0,091;    0,864
1087,078; 1150,566;   -0,909;   -2,136
1087,619; 1192,202;   -1,273;    0,227
1088,160; 1101,929;    0,000;    1,318
1088,701; 1087,293;   -1,091;    0,682
1089,242; 1030,202;    1,364;   -2,227
1089,783; 1129,838;   -0,273;    1,409
1090,324; 1098,202;    0,455;    0,682
1090,865;  969,838;    2,727;   -0,409
1091,405;  928,929;    0,727;    2,227
1091,946;  967,838;    0,182;   -0,955
1092,487;  888,566;    0,818;   -1,409
1093,027; 1075,838;   -1,364;   -1,500
1093,568;  917,566;   -0,364;    1,227
1094,108; 1023,566;    0,273;    1,773
1094,649;  950,111;   -1,182;    0,136
1095,189;  876,111;   -0,636;   -0,682
1095,729;  842,929;   -0,091;    0,955
1096,269;  839,111;    0,727;   -0,955
1096,810; 1172,657;   -1,364;    0,500
1097,350;  986,020;    1,364;   -0,773
1097,890;  887,111;    0,364;    1,227
1098,430; 1153,384;    2,364;    2,864
1098,970; 1021,202;    2,182;    1,682
1099,510;  869,293;    0,545;   -2,318
1100,050;  797,929;    1,000;   -1,591
1100,589;  764,747;   -0,727;   -0,318
1101,129;  900,929;    0,818;   -0,955
1101,669; 1058,475;    1,727;    2,136
1102,209;  866,111;   -0,091;    2,227
1102,748;  834,020;    0,000;    0,955
1103,288;  813,020;    1,273;   -1,227
1103,827;  852,202;    3,091;   -2,227
1104,367;  711,111;   -0,091;   -2,409
1104,906;  688,020;    1,364;   -1,136
1105,445;  760,566;    0,636;   -1,136
1105,985;  703,747;   -0,727;    1,500
1106,524;  754,020;   -1,727;   -0,682
1107,063;  733,566;   -2,727;    1,409
1107,602;  698,202;   -1,909;   -1,500
1108,141;  614,475;   -1,909;    1,500
1108,680;  728,111;   -3,455;   -0,591
1109,219;  658,202;   -0,909;   -0,500
1109,758;  660,566;    0,455;    0,682
1110,297;  636,838;    1,000;   -0,682
1110,836;  586,293;   -0,727;    0,955
1111,375;  762,384;   -2,545;    0,409
1111,913;  766,929;   -1,000;    0,773
1112,452;  699,384;   -0,273;    0,136
1112,991;  583,384;    1,091;    1,955
1113,529;  539,838;   -0,818;   -0,045
1114,068;  606,566;   -0,273;    2,955
1114,606;  497,475;   -0,364;   -0,955
1115,144;  677,384;   -1,273;    1,045
1115,683;  616,566;   -0,727;    0,318
1116,221;  657,020;   -0,455;   -0,864
1116,759;  566,838;    0,636;   -0,864
1117,297;  777,566;    0,000;    1,864
1117,836;  570,020;   -2,182;   -1,227
1118,374;  575,202;    0,182;   -0,682
1118,912;  520,111;    0,909;    2,682
1119,450;  512,384;    1,000;    0,864
1119,988;  571,020;    1,545;    2,136
1120,525; 1026,293;    5,091;    3,318
1121,063;  719,202;    1,182;    1,864
1121,601;  521,111;   -0,909;   -1,227
1122,139;  482,020;   -0,727;   -2,045
1122,676;  686,293;   -0,727;    2,773
1123,214;  611,020;   -1,182;    4,409
1123,751;  425,747;    1,727;    2,227
1124,289;  563,111;   -0,091;   -0,409
1124,826;  424,657;    1,727;    0,227
1125,364;  343,475;    1,727;   -0,955
1125,901;  542,566;    1,182;    1,227
1126,438;  665,020;    0,818;    0,955
1126,975;  378,929;   -0,727;   -0,773
1127,513;  440,475;    0,273;    2,136
1128,050;  341,566;    1,636;   -0,682
1128,587;  461,020;    2,000;   -0,227
1129,124;  502,566;    0,091;    1,318
1129,661;  359,020;    0,273;    0,227
1130,198;  532,202;    1,636;    0,773
1130,734;  471,475;    0,182;    1,409
1131,271;  330,202;   -0,909;    0,864
1131,808;  510,293;    2,909;    3,045
1132,345;  380,657;    1,545;    0,318
1132,881;  236,475;   -1,545;   -1,864
1133,418;  394,838;    0,727;   -1,136
1133,954;  321,020;    2,455;   -2,682
1134,491;  404,566;    1,364;   -0,773
1135,027;  293,566;    2,364;    0,864
1135,564;  394,747;    0,273;    2,955
1136,100;  381,202;    0,364;    2,136
1136,636;  254,838;   -1,273;   -1,045
1137,172;  362,384;    0,000;   -1,045
1137,708;  276,747;   -1,364;   -1,045
1138,245;  283,566;    1,273;   -1,227
1138,781;  224,838;    1,091;   -3,318
1139,317;  301,384;    1,273;   -1,409
1139,852;  292,111;    3,091;    0,136
1140,388;  418,929;   -1,182;   -0,409
1140,924;  292,657;   -1,091;   -2,227
1141,460;  232,202;   -1,636;    0,136
1141,996;  169,111;   -1,364;    2,682
1142,531;  223,929;    1,364;    3,318
1143,067;  434,566;    1,182;    1,045
1143,602;  496,293;   -0,091;   -0,318
1144,138;  336,111;   -2,636;    1,045
1144,673;  190,566;   -1,455;    1,409
1145,209;  275,929;   -1,909;   -0,318
1145,744;  184,020;   -0,727;    0,864
1146,279;  331,929;    1,818;   -0,136
1146,815;  237,566;    1,545;   -2,682
1147,350;  278,838;   -1,364;    0,045
1147,885;  184,566;   -0,818;   -1,318
1148,420;  180,475;   -2,273;    0,773
1148,955;  165,566;   -1,727;    1,864
1149,490;  195,475;   -0,909;   -1,591
1150,025;  180,838;    0,455;   -1,773
1150,560;  301,384;    1,091;   -0,955
1151,094;  270,566;    1,455;   -0,591
1151,629;  270,020;    1,636;    0,864
1152,164;  186,202;    1,364;    1,318
1152,698;  153,475;   -0,182;   -0,136
1153,233;  104,020;    0,091;   -0,682
1153,767;  155,020;   -3,000;   -2,318
1154,302;  204,566;   -1,455;    1,773
1154,836;  206,202;   -0,455;   -2,136
1155,371;  268,657;   -1,364;    3,682
1155,905;  211,475;   -0,636;    1,682
1156,439;  174,475;   -0,636;   -0,500
1156,973;  214,020;    0,364;    0,318
1157,507;  144,838;   -0,364;    0,682
1158,042;  171,747;   -0,727;    1,045
1158,576;  223,384;    0,182;    1,773
1159,110;  207,293;   -0,818;    2,409
1159,643;  171,747;    0,636;   -0,045
1160,177;  109,475;   -1,545;    1,500

