
Integration time [ms]:   0,040
Averaging Nr. [scans]: 11
Smoothing Nr. [pixels]: 0
Data measured with spectrometer [name]: 7318044SP
Wave   ;Sample   ;Dark     ;Reference
[nm]   ;[counts] ;[counts] ;[counts] 

186,757;   26,024;   31,551;    1,318
187,357;   58,562;   22,551;    0,955
187,958;   35,368;   15,460;   -1,591
188,558;   87,924;    8,915;   -1,227
189,159;   54,486;    6,733;   -4,500
189,759;   20,176;    7,278;   -3,591
190,360;   19,755;    2,824;   -2,136
190,960;   63,720;    2,915;   -4,136
191,560;   80,007;    3,189;   -6,591
192,161;  349,328;    4,372;   -3,500
192,761;  182,584;    4,010;   -3,227
193,361;  118,434;    1,556;   -3,773
193,962;  164,269;    2,010;   -2,682
194,562;   81,353;    1,189;   -3,955
195,162;  125,238;   -2,448;   -2,227
195,762;  305,645;   -3,176;   -0,045
196,362;  241,703;    1,370;   -2,500
196,963;   83,453;    2,006;   -0,864
197,563;  170,565;    1,551;   -0,955
198,163;  109,675;    0,096;   -0,682
198,763;  130,897;    1,733;   -0,500
199,363;  244,971;    3,096;   -0,500
199,963;  197,852;    0,369;    0,409
200,563;  166,220;    2,823;   -1,409
201,163;  143,874;    3,277;   -0,227
201,763;  240,941;    3,732;    0,318
202,363;  174,589;    1,459;    1,500
202,963;  286,912;    1,459;    1,045
203,563;  401,800;    0,277;    0,500
204,162;  241,001;    2,096;   -1,864
204,762;  234,935;    0,550;    0,591
205,362;  199,821;    3,004;    1,955
205,962;  297,778;    3,096;    1,955
206,562;  300,537;    1,823;    2,318
207,161;  257,320;   -0,087;    0,318
207,761;  429,751;    1,277;    2,409
208,361;  298,283;   -0,268;    1,409
208,960;  397,304;    0,459;    1,500
209,560;  480,950;    1,277;    1,591
210,160;  456,519;    0,550;    1,864
210,759;  412,411;    4,186;    1,227
211,359;  425,567;    1,459;    1,045
211,958;  706,260;    1,277;    2,045
212,558;  793,868;    1,732;    1,864
213,157;  613,021;    1,822;    1,500
213,757; 1082,960;    3,822;   -0,227
214,356;  765,278;    1,277;   -0,409
214,956; 1109,107;    3,095;    0,409
215,555;  713,257;    2,095;    2,136
216,154;  650,198;   -2,723;   -0,591
216,754;  659,188;    0,277;    0,773
217,353;  809,328;   -0,268;   -1,045
217,952;  657,599;   -0,178;    0,318
218,552;  906,786;    1,368;   -0,773
219,151;  795,148;    0,277;    0,955
219,750;  793,667;    0,004;   -0,227
220,349;  916,778;   -0,451;    1,045
220,948;  992,573;   -1,360;    1,136
221,548; 1019,029;    0,913;    1,227
222,147; 1139,946;   -0,087;   -0,409
222,746; 1432,194;   -0,451;   -0,955
223,345; 1313,400;    0,731;    0,500
223,944; 1311,459;   -0,451;    0,773
224,543; 1495,851;    1,004;   -1,409
225,142; 1619,738;    0,094;    0,136
225,741; 1530,824;   -0,814;    1,045
226,340; 1556,426;   -0,451;   -0,955
226,939; 2026,028;   -0,996;   -0,136
227,538; 1976,842;   -0,360;   -0,773
228,137; 2116,502;   -0,814;    0,864
228,735; 2315,498;   -0,541;    1,227
229,334; 2044,397;   -0,905;   -0,227
229,933; 2434,561;    0,459;    0,591
230,532; 2554,322;    1,186;   -0,409
231,131; 2611,042;    1,732;    0,318
231,729; 2770,901;   -2,450;   -2,318
232,328; 2902,673;   -0,723;   -1,500
232,927; 3000,345;    1,004;   -0,500
233,525; 3147,671;    3,640;    0,045
234,124; 3348,381;    2,368;   -1,591
234,723; 3375,328;    0,913;   -1,045
235,321; 3547,556;    2,277;    0,136
235,920; 3799,360;    1,186;   -1,227
236,518; 4052,678;    3,459;    0,318
237,117; 4238,820;    0,004;   -0,227
237,715; 4418,097;    0,640;   -0,500
238,314; 4479,973;   -0,087;   -2,318
238,912; 4589,186;   -0,723;   -1,409
239,510; 4624,531;    0,459;   -1,227
240,109; 4796,884;    0,004;    3,773
240,707; 4845,058;   -0,996;    1,227
241,305; 5214,033;    0,550;    0,136
241,904; 5456,487;   -0,178;   -2,045
242,502; 5421,320;   -0,632;   -0,227
243,100; 5354,451;   -0,087;   -0,955
243,698; 5591,001;    0,732;    1,682
244,297; 5789,584;   -0,632;    0,682
244,895; 5644,273;   -0,269;   -2,318
245,493; 6013,380;    2,186;   -0,591
246,091; 6029,602;    1,368;   -1,318
246,689; 6034,688;    1,004;    0,591
247,287; 6160,288;    0,822;   -1,136
247,885; 6467,839;   -1,451;    1,227
248,483; 6619,796;    1,822;   -0,500
249,081; 6736,807;    0,185;    1,591
249,679; 6894,729;   -0,178;    1,682
250,277; 7167,350;   -1,723;    0,864
250,875; 7158,365;   -1,087;   -1,045
251,473; 7174,766;   -1,178;    0,500
252,071; 7413,433;    1,459;    1,045
252,669; 7561,731;   -1,814;    0,318
253,267; 7827,077;   -0,087;    0,773
253,864; 7770,833;   -0,360;    0,682
254,462; 7639,097;    1,640;    1,591
255,060; 7604,527;   -0,269;    1,318
255,658; 7982,095;    0,822;   -0,136
256,255; 8421,010;    0,186;   -2,045
256,853; 8278,475;   -0,269;    1,409
257,451; 8261,371;    0,822;    1,864
258,048; 8532,528;    1,822;    1,864
258,646; 8279,910;    1,731;   -1,045
259,243; 8502,111;   -0,087;    2,227
259,841; 8543,613;   -0,814;    0,318
260,438; 8403,266;   -0,087;    0,864
261,036; 9174,348;   -1,905;    1,409
261,633; 9083,923;   -0,087;    2,227
262,231; 8803,203;    2,731;   -0,045
262,828; 8881,859;   -0,905;    1,136
263,425; 8954,973;    0,913;   -0,591
264,023; 9227,891;    0,186;    0,045
264,620; 8773,719;   -0,360;   -0,318
265,217; 9138,282;   -2,087;    3,136
265,815; 9221,707;   -1,905;    2,136
266,412; 8978,473;    0,731;    0,136
267,009; 9066,366;   -1,451;    0,773
267,606; 8914,456;    0,822;   -0,955
268,203; 8885,490;   -0,269;   -0,591
268,801; 9218,486;    1,731;    0,591
269,398; 9523,885;   -0,360;    2,500
269,995; 9501,132;    0,277;    1,591
270,592; 9254,702;   -0,632;   -0,500
271,189; 9458,280;    0,186;    0,409
271,786; 9599,646;   -0,632;    1,227
272,383; 9437,903;   -1,087;    0,227
272,980; 9642,162;    0,277;    0,318
273,577;10119,008;    0,004;    1,227
274,174; 9647,150;    0,822;    2,591
274,771; 9652,822;   -0,814;   -0,773
275,367; 9821,003;    2,277;    1,409
275,964; 9768,033;    0,731;   -0,500
276,561; 9852,564;    1,549;   -1,045
277,158;10094,729;    0,095;   -1,773
277,755;10217,080;    2,185;    0,409
278,351; 9620,451;   -0,451;   -1,500
278,948; 9924,134;   -0,815;    0,045
279,545; 9878,017;   -1,360;    2,318
280,141;10583,442;   -1,723;   -2,045
280,738;10452,904;   -0,451;   -0,136
281,334;10695,885;   -1,633;    0,591
281,931;10083,648;   -0,087;   -1,318
282,528;10173,474;    0,822;   -0,500
283,124;10895,733;   -1,087;   -0,500
283,721;10827,538;   -0,451;    1,409
284,317;10581,626;    0,185;    2,500
284,913;11172,334;   -1,360;    0,591
285,510;11367,971;    0,640;   -0,318
286,106;11397,967;   -2,269;   -0,955
286,703;11032,452;   -0,360;    1,955
287,299;11185,522;   -1,451;   -0,591
287,895;11384,387;    0,822;   -1,045
288,491;11951,158;    0,186;    2,136
289,088;11726,351;   -2,360;    2,409
289,684;11804,368;   -1,723;    1,500
290,280;11788,155;    0,368;    0,682
290,876;11881,318;    1,822;    5,500
291,472;11777,488;    1,276;    2,227
292,068;11913,977;    1,367;    0,227
292,665;11574,159;    2,095;    0,773
293,261;11196,836;    0,276;    2,136
293,857;11587,873;    2,913;    2,136
294,453;11523,557;    3,550;    0,955
295,049;11387,537;   -0,268;    1,955
295,644;11426,186;    0,095;    0,136
296,240;11318,435;   -0,905;   -0,136
296,836;11383,511;   -0,995;    0,318
297,432;11683,820;    1,096;   -0,500
298,028;11758,702;    0,732;    0,773
298,624;12130,889;    1,459;    1,864
299,220;12351,359;    2,368;    0,591
299,815;12029,208;    1,005;   -0,409
300,411;11833,355;    0,914;    1,773
301,007;11863,051;    1,368;    0,227
301,602;11903,307;   -0,541;   -2,318
302,198;12076,548;    0,732;   -0,773
302,794;12425,768;    1,187;   -0,500
303,389;12526,328;   -1,177;    1,045
303,985;12595,856;    0,550;    1,409
304,580;12575,399;    1,459;    1,591
305,176;12530,505;   -3,086;    0,136
305,771;12447,762;   -1,268;   -1,227
306,367;12342,491;    4,095;    0,136
306,962;12667,580;    0,641;    1,500
307,558;12377,789;   -0,450;    0,136
308,153;12331,510;    1,095;   -1,136
308,748;12550,358;   -0,814;    1,682
309,344;12520,069;   -0,632;   -1,318
309,939;12616,966;   -1,905;   -1,318
310,534;12858,745;   -0,086;   -1,682
311,130;12783,063;    0,459;   -2,500
311,725;12529,102;    1,004;   -0,500
312,320;12871,012;    2,459;    0,045
312,915;12730,841;    1,459;   -1,045
313,510;12816,866;    1,550;   -0,500
314,105;13313,161;    1,096;    1,409
314,700;12666,291;   -3,086;   -1,045
315,295;12322,399;   -0,904;    0,045
315,890;11888,570;    1,277;    0,864
316,485;12261,384;   -0,359;   -0,318
317,080;12407,771;   -3,086;    1,591
317,675;12975,290;    2,005;   -0,682
318,270;12410,118;    5,550;    3,318
318,865;12377,295;    3,278;    3,045
319,460;12251,730;   -0,904;    0,591
320,055;12441,311;   -0,541;   -1,227
320,650;12090,527;   -1,995;   -0,591
321,244;12123,426;   -0,177;   -1,409
321,839;13099,033;   -1,541;   -0,227
322,434;12978,558;   -1,086;   -1,591
323,029;12588,447;    1,732;    1,591
323,623;12429,904;    1,550;    0,773
324,218;12217,049;    2,368;    1,409
324,812;12101,682;    1,096;    1,591
325,407;11883,457;   -0,814;    2,045
326,002;11793,707;    0,277;   -0,409
326,596;12112,913;    0,914;    1,318
327,191;12296,592;    0,823;   -1,045
327,785;11857,004;   -0,813;   -0,227
328,379;12112,170;    1,368;    0,136
328,974;11948,111;    0,914;   -3,955
329,568;12106,809;    0,186;   -2,409
330,163;11937,034;    2,096;    1,045
330,757;12285,003;    2,459;    1,591
331,351;11565,437;    0,459;    0,682
331,945;11873,308;    0,914;    1,409
332,540;11486,260;   -1,723;   -0,591
333,134;11668,526;   -1,086;    0,773
333,728;11951,137;    0,005;    0,318
334,322;12253,374;   -1,177;   -0,864
334,916;11507,002;    0,277;    0,955
335,510;11858,822;   -0,450;   -0,136
336,105;12113,411;   -1,086;    1,591
336,699;11809,092;   -1,086;    0,591
337,293;11724,415;   -1,723;    0,318
337,887;11890,408;   -2,723;    1,955
338,481;12010,287;    0,459;    0,591
339,074;12161,815;   -0,359;    2,682
339,668;11978,305;   -1,632;    1,227
340,262;12247,018;    1,732;    3,227
340,856;11734,655;    1,822;   -0,682
341,450;11054,303;    1,004;    1,864
342,044;11965,051;    1,459;    0,136
342,637;11744,157;    0,913;   -2,136
343,231;11626,525;   -2,360;    0,682
343,825;11599,724;   -1,086;   -0,591
344,419;11545,792;   -1,995;    0,500
345,012;11324,871;    2,459;    4,045
345,606;11350,265;    4,641;    1,591
346,199;11177,052;   -1,813;   -0,227
346,793;10675,269;    1,914;    2,045
347,386;10868,645;   -0,813;   -1,136
347,980;10873,334;   -0,268;   -0,045
348,573;10644,770;    2,278;    0,409
349,167;10321,470;    5,278;    4,773
349,760;10672,511;    2,914;    2,682
350,354;10656,317;   -0,813;    1,136
350,947;10435,723;    1,096;    1,682
351,540;10059,927;   -0,358;   -1,409
352,134;10000,634;    1,096;    1,136
352,727;10117,673;   -0,086;    1,136
353,320; 9867,599;    0,005;    0,591
353,913; 9712,206;   -1,995;    1,864
354,507; 9939,412;    0,823;   -1,227
355,100; 9904,201;    0,460;    0,864
355,693; 9158,022;    2,005;    2,409
356,286; 9211,357;    0,823;    2,773
356,879; 9542,885;   -0,722;    1,227
357,472; 9125,931;   -0,904;    1,500
358,065; 9359,367;   -0,722;    2,500
358,658; 9268,698;   -0,540;    2,318
359,251; 8882,708;   -1,631;   -0,591
359,844; 8380,808;   -1,904;   -1,136
360,437; 8588,179;   -2,995;    0,045
361,030; 8804,767;    1,369;   -0,682
361,623; 8410,032;    2,824;    0,318
362,215; 8464,294;   -0,086;    2,045
362,808; 8289,868;   -2,358;   -1,682
363,401; 8511,143;   -2,449;    0,136
363,994; 8227,704;   -0,631;   -1,500
364,586; 8139,869;    0,824;   -1,500
365,179; 8366,451;   -0,449;   -1,136
365,772; 7855,383;   -1,995;    2,045
366,364; 8172,076;    1,915;   -3,227
366,957; 8363,491;    2,279;   -0,045
367,549; 8395,101;    2,188;   -0,864
368,142; 8045,708;    1,825;   -1,500
368,734; 8244,044;    0,734;   -2,136
369,327; 8179,953;    1,643;   -0,500
369,919; 8082,125;   -1,538;    0,409
370,512; 7894,926;   -1,083;   -0,500
371,104; 7679,661;   -0,901;    1,591
371,696; 7863,020;    1,191;   -0,955
372,289; 7926,957;    0,373;    1,136
372,881; 8076,380;   -2,080;    1,318
373,473; 8014,568;   -2,170;    1,136
374,066; 7837,638;   -0,169;    0,500
374,658; 7653,630;    0,378;    1,136
375,250; 7998,765;    0,653;   -1,409
375,842; 7860,307;    0,473;   -0,045
376,434; 7768,703;   -0,435;   -0,409
377,026; 8315,875;    0,204;   -2,500
377,618; 8231,132;   -0,158;   -0,682
378,210; 8053,166;   -0,338;   -1,955
378,802; 7909,276;    0,754;   -0,591
379,394; 7877,222;    1,846;    0,682
379,986; 8465,445;    1,393;   -0,955
380,578; 8614,642;   -0,153;    0,773
381,170; 7916,868;   -0,972;    0,045
381,762; 7854,036;    0,755;    1,409
382,354; 8041,822;   -0,065;   -1,318
382,945; 8169,928;   -2,976;    0,318
383,537; 8337,280;   -2,705;   -1,955
384,129; 8349,606;   -2,160;   -1,136
384,721; 8515,849;   -0,252;    0,955
385,312; 8453,797;   -0,161;   -0,955
385,904; 8527,438;   -2,706;    1,591
386,496; 7895,820;   -0,979;    1,045
387,087; 8065,798;    1,022;    2,500
387,679; 8099,477;   -1,160;    0,045
388,270; 8236,548;    2,840;    2,045
388,862; 8363,293;    1,295;   -0,318
389,453; 8259,790;   -0,887;    1,045
390,045; 8533,577;   -0,705;   -2,682
390,636; 8441,778;    0,204;   -0,591
391,227; 8293,488;   -0,523;   -0,045
391,819; 8416,024;    0,204;    0,773
392,410; 8480,290;    1,022;    0,045
393,001; 8406,027;   -0,979;   -1,591
393,593; 8739,768;    1,930;   -0,045
394,184; 8593,037;    1,385;   -0,409
394,775; 8516,619;    1,839;    2,136
395,366; 8699,505;    1,385;    0,773
395,957; 8741,422;    0,113;    0,136
396,548; 9024,366;   -0,342;    2,682
397,139; 9355,809;   -2,433;    0,591
397,730; 9067,463;   -1,888;    0,955
398,321; 9114,943;   -1,252;    0,955
398,912; 9181,195;   -0,615;    0,136
399,503; 9234,126;   -3,524;   -1,409
400,094; 8637,326;    0,294;    1,682
400,685; 8501,228;   -0,433;    0,045
401,276; 8588,826;    0,930;   -0,955
401,867; 8913,281;   -0,888;    0,773
402,458; 9005,148;   -2,251;   -2,318
403,048; 8985,042;    1,112;    0,591
403,639; 8579,893;    0,840;    0,864
404,230; 8835,720;    2,476;    0,318
404,821; 8751,308;   -0,615;    0,045
405,411; 8876,154;    1,203;   -2,591
406,002; 8474,356;   -1,252;   -1,136
406,592; 8341,840;    2,294;    0,045
407,183; 8678,395;    0,566;   -1,500
407,774; 8572,755;    3,475;   -0,136
408,364; 8905,043;    0,930;    0,409
408,954; 8514,064;    0,384;    1,227
409,545; 8547,959;    1,021;    1,045
410,135; 8085,367;    1,293;    0,500
410,726; 8255,094;    1,838;    0,318
411,316; 8648,071;    0,111;    0,773
411,906; 8305,481;   -0,253;   -0,409
412,497; 7802,880;   -1,070;   -0,045
413,087; 8419,681;   -1,980;   -0,227
413,677; 8820,854;   -0,707;    3,864
414,267; 8667,893;    0,656;    1,409
414,857; 8652,104;   -2,980;    4,227
415,448; 8942,373;    0,839;    0,500
416,038; 8638,793;    0,020;   -0,591
416,628; 8605,112;   -0,889;    0,409
417,218; 8038,329;    0,565;    3,318
417,808; 8330,176;    0,202;   -0,409
418,398; 8809,668;    0,020;    2,682
418,988; 8826,569;    2,020;    0,591
419,578; 9099,305;   -0,707;    1,409
420,168; 9413,764;   -1,343;   -0,955
420,757; 9022,587;   -1,343;   -1,500
421,347; 8672,584;    0,111;   -0,227
421,937; 8842,601;    2,292;    1,409
422,527; 8825,755;    0,838;   -0,773
423,116; 8650,331;   -0,253;   -0,045
423,706; 8984,089;   -1,889;    0,318
424,296; 8960,443;    1,384;    0,682
424,885; 9388,261;   -0,071;   -3,045
425,475; 9688,879;    1,474;   -2,864
426,065; 9615,083;   -0,980;   -0,318
426,654; 9226,435;   -0,435;   -0,318
427,244; 9369,294;    0,020;    1,409
427,833; 8786,078;    1,383;   -0,500
428,423; 9294,987;   -0,526;    1,136
429,012;10061,663;   -0,344;   -1,136
429,601; 9567,853;   -1,344;    0,136
430,191; 9766,396;    1,292;    4,318
430,780; 9401,783;   -0,344;   -0,409
431,369; 9385,949;    0,746;   -0,045
431,959; 9993,459;   -1,254;    0,500
432,548; 9757,687;   -1,163;   -0,045
433,137; 9896,200;   -1,254;   -1,318
433,726;10434,702;    0,292;    0,500
434,315; 9794,168;   -0,526;    2,409
434,905; 9858,574;   -1,254;    1,409
435,494; 9763,964;    0,746;    0,955
436,083;10234,421;   -0,981;   -0,955
436,672;10121,661;    0,110;    0,500
437,261; 9666,735;    0,292;   -1,955
437,850; 9805,928;    1,383;    0,682
438,439; 9814,892;    3,291;    1,955
439,027; 9688,113;    3,655;    1,773
439,616;10019,241;    2,927;    1,227
440,205; 9868,845;    0,200;   -2,136
440,794; 9989,629;    2,109;   -0,045
441,383;10281,354;   -1,346;   -0,591
441,971;10075,153;   -2,436;    0,591
442,560; 9949,028;    0,563;   -1,773
443,149; 9700,055;    0,379;   -1,318
443,737; 9817,790;   -0,074;   -2,318
444,326;10121,133;    0,018;    0,318
444,915;10188,413;   -1,982;    0,864
445,503;10599,724;   -2,891;   -0,318
446,092; 9825,581;    0,382;    2,136
446,680;10395,744;    0,382;    0,318
447,269;10574,119;   -0,346;   -0,318
447,857;10345,216;    0,018;   -1,773
448,445;10444,645;    0,563;    1,318
449,034;10649,102;   -1,528;   -1,136
449,622;10795,107;   -1,073;    3,500
450,210;10003,496;    2,017;    2,227
450,799;10585,076;    0,290;   -0,591
451,387;10514,692;    1,381;   -0,591
451,975;10139,184;    2,654;    0,864
452,563;10262,974;    3,472;    2,318
453,151;10313,932;   -0,528;   -1,227
453,739;10240,734;   -1,347;    0,136
454,328;10061,822;    2,381;   -2,136
454,916; 9746,749;    2,562;   -0,136
455,504; 9938,345;    1,017;    1,227
456,092;10110,678;    0,017;   -1,591
456,679;10115,115;    1,472;    0,682
457,267;10062,393;    4,017;    1,045
457,855;10224,510;    1,017;    1,409
458,443; 9951,626;   -0,165;    1,682
459,031;10098,462;    0,108;    2,409
459,619;10607,004;   -1,801;    2,864
460,206;10759,261;    0,835;    2,045
460,794;10787,179;   -2,983;   -0,227
461,382;11030,628;   -0,529;   -0,864
461,970;10640,019;    1,198;    1,864
462,557;10639,950;   -0,711;   -0,682
463,145;10838,774;   -3,165;   -1,682
463,732;11012,656;    2,016;   -1,045
464,320;10932,349;   -0,075;   -3,045
464,907;10598,092;    2,743;   -0,773
465,495;10477,019;    0,743;   -1,227
466,082;10666,185;   -1,984;   -0,045
466,670;10578,659;   -2,529;    1,227
467,257;10976,343;   -1,711;    2,045
467,844;11133,146;   -0,075;    0,045
468,432;11160,015;    0,834;    3,500
469,019;10614,482;    0,925;   -1,773
469,606;11114,827;    0,470;    3,682
470,193;10937,423;   -1,439;    0,227
470,780;10479,797;   -2,075;    0,864
471,368;10794,007;   -1,257;   -0,773
471,955;10579,963;    1,379;   -0,682
472,542;10251,393;    0,652;   -1,136
473,129;10527,688;   -0,166;    0,136
473,716;10228,986;    1,470;    0,591
474,303;10454,541;    0,652;   -0,864
474,890;10780,436;   -1,439;   -0,500
475,477;10787,285;   -1,621;    0,409
476,064;10719,061;    1,106;   -1,591
476,650;10650,572;    0,288;    0,318
477,237;10449,754;   -0,258;    0,955
477,824;10634,269;   -1,076;    0,864
478,411;10646,522;   -1,894;   -0,318
478,997;10827,270;    0,560;   -0,773
479,584;10903,928;    1,196;   -0,409
480,171;11627,961;   -0,440;   -0,773
480,757;11314,123;    2,651;    0,773
481,344;11625,211;    0,469;    0,409
481,931;11132,024;    1,105;    1,045
482,517;12255,133;   -1,258;    0,318
483,104;12921,805;    1,106;    2,864
483,690;13226,001;   -1,804;    0,045
484,276;13529,321;   -0,895;    0,227
484,863;13238,349;    2,469;    1,136
485,449;13867,226;   -0,077;    0,318
486,035;13844,732;   -1,986;   -0,136
486,622;14288,994;   -0,895;    0,045
487,208;14249,212;    1,378;    1,500
487,794;14054,790;    0,741;    0,318
488,380;14147,192;    0,105;   -1,409
488,967;14220,380;   -1,168;   -0,409
489,553;14305,335;   -1,895;   -1,409
490,139;14460,585;    1,559;    0,773
490,725;13821,700;    0,741;   -0,227
491,311;13328,280;    3,287;    3,045
491,897;12634,386;   -0,986;    1,500
492,483;12448,365;    0,105;    1,227
493,069;12277,100;    3,923;    0,864
493,655;12275,951;    1,650;    0,682
494,241;12152,168;    1,377;   -0,955
494,826;12566,966;    0,287;   -1,045
495,412;12045,362;    2,559;   -0,682
495,998;12216,608;   -0,805;   -0,318
496,584;12364,940;    0,377;    1,045
497,169;12344,507;    1,014;   -0,682
497,755;12264,194;    0,650;    1,227
498,341;12894,866;    0,559;    0,318
498,926;12443,275;    1,832;    1,955
499,512;12594,415;    1,286;    2,955
500,097;12742,978;    0,195;   -0,318
500,683;12661,284;   -0,350;    2,136
501,268;13060,598;   -0,169;   -0,955
501,854;12735,988;   -0,169;    1,227
502,439;12646,305;   -0,624;   -1,773
503,024;12887,176;    0,195;    0,500
503,610;12971,648;   -0,078;   -0,682
504,195;13000,188;    0,558;    1,955
504,780;13106,072;    2,922;    1,227
505,366;12915,770;    3,013;    2,864
505,951;12636,393;    0,740;    1,045
506,536;12636,123;   -3,260;   -3,682
507,121;12642,007;    0,285;   -0,318
507,706;13123,021;    2,376;    1,045
508,291;13573,671;    2,649;    1,136
508,876;13005,877;   -0,988;    2,591
509,461;12439,412;   -0,169;   -0,773
510,046;12875,152;    0,194;    0,318
510,631;13130,615;   -0,351;   -0,773
511,216;12772,196;    2,467;   -0,500
511,801;13125,197;   -0,442;    2,591
512,386;13463,440;    0,740;    0,500
512,971;13424,848;   -2,988;    0,955
513,555;12976,997;   -0,897;   -1,500
514,140;13741,972;   -0,442;   -3,136
514,725;13735,549;   -0,715;   -1,136
515,309;13869,247;   -0,533;    0,318
515,894;13341,665;   -0,624;   -2,227
516,479;13779,441;   -0,624;   -0,955
517,063;13627,397;    0,376;    1,227
517,648;13767,962;    1,012;   -1,136
518,232;13395,321;   -0,261;   -1,409
518,817;13736,571;   -0,079;    1,682
519,401;13979,147;    2,194;    0,591
519,985;13445,836;    1,103;    1,136
520,570;13334,772;    0,830;   -1,955
521,154;13640,354;    2,102;    0,591
521,738;13851,943;   -2,352;    2,409
522,323;14382,688;   -0,170;    1,682
522,907;14117,897;    0,466;   -0,136
523,491;13850,275;    0,557;    0,955
524,075;13825,980;    2,284;    0,591
524,659;13924,657;    1,466;    0,591
525,243;13391,799;    1,739;    0,409
525,827;13615,135;    0,648;   -0,045
526,411;14469,293;   -1,989;   -0,136
526,995;14692,673;   -0,352;    1,409
527,579;14252,397;   -0,443;   -1,045
528,163;14597,143;    0,375;   -1,500
528,747;14498,755;    2,466;   -0,773
529,331;14797,490;   -0,080;   -1,409
529,915;15025,457;    1,738;    0,955
530,499;14941,243;   -0,807;    1,227
531,082;14668,842;   -0,534;    1,591
531,666;14134,300;    1,374;    0,773
532,250;14793,278;    1,284;    2,682
532,833;15128,335;    0,920;    2,773
533,417;14971,922;   -1,807;    0,864
534,001;15005,409;    1,647;   -0,318
534,584;15698,724;    0,374;    0,500
535,168;15542,805;    0,465;    1,409
535,751;15620,609;    0,647;    0,045
536,334;15062,380;   -0,898;   -0,409
536,918;15636,216;    0,011;    1,591
537,501;15731,738;   -0,899;    1,318
538,085;15742,680;   -0,444;    1,045
538,668;15935,113;    0,829;    2,409
539,251;16261,272;    1,829;    3,773
539,834;16258,708;    0,101;    0,773
540,418;16226,874;   -1,990;    4,318
541,001;16348,531;   -0,990;    1,773
541,584;16308,817;    2,101;    2,227
542,167;16010,107;    1,374;    2,955
542,750;16155,910;    1,919;   -0,773
543,333;15773,310;    0,555;    2,136
543,916;16587,963;    0,192;    2,500
544,499;17170,525;   -1,354;    0,227
545,082;17166,053;    1,374;    3,591
545,665;17303,137;    1,919;    1,500
546,248;17633,492;    1,010;   -0,318
546,830;17316,345;   -0,445;    1,955
547,413;17742,878;    1,010;   -0,773
547,996;18241,636;    0,555;    0,500
548,579;18021,777;    0,919;    0,955
549,161;17868,305;    1,828;    2,682
549,744;17639,446;   -0,809;    0,409
550,326;18117,001;   -0,809;   -1,136
550,909;17904,673;    2,737;    0,591
551,492;18303,154;   -0,263;    0,227
552,074;18109,380;   -0,173;   -1,318
552,657;18651,989;    2,373;    0,045
553,239;18388,377;   -0,173;   -0,773
553,821;18259,826;   -1,082;    1,045
554,404;17773,589;    1,282;    1,136
554,986;18224,374;    0,464;    1,045
555,568;18799,217;    1,191;   -0,955
556,151;18046,740;    1,191;   -0,227
556,733;18221,986;   -0,264;   -0,864
557,315;18748,595;    0,100;    0,500
557,897;18532,544;    0,554;   -0,500
558,479;18621,949;   -1,991;    1,318
559,061;18748,821;   -0,719;   -0,864
559,643;19115,449;   -0,264;    0,045
560,225;19502,199;    1,645;    2,864
560,807;19484,267;    0,918;    0,318
561,389;18940,901;    0,554;    2,318
561,971;19771,811;    0,463;    2,136
562,553;19583,403;   -1,628;    1,591
563,135;19688,057;   -0,537;    1,136
563,717;19317,384;    3,372;    1,136
564,298;20050,646;    3,645;   -0,045
564,880;19804,094;    0,645;   -1,409
565,462;19951,094;    0,645;    1,318
566,043;21126,240;   -0,446;    2,318
566,625;20661,689;    1,918;    1,227
567,207;20507,776;    1,099;    1,682
567,788;21706,255;   -1,264;    1,500
568,370;22544,707;    1,917;   -0,500
568,951;22359,802;    0,190;    0,227
569,533;23280,229;   -0,628;   -0,500
570,114;23781,315;   -0,446;    0,682
570,695;24328,139;   -0,174;   -1,318
571,277;24858,470;   -0,265;   -1,682
571,858;25636,545;    2,008;   -1,136
572,439;26549,814;    1,554;   -1,045
573,021;26749,010;    2,099;   -2,773
573,602;27201,948;   -1,265;    0,318
574,183;28184,615;   -2,083;    2,227
574,764;28353,023;   -1,629;    0,409
575,345;28892,894;    0,917;   -0,136
575,926;29432,410;   -0,356;    0,136
576,507;29420,306;    1,099;   -0,227
577,088;30580,638;    3,099;    1,682
577,669;30586,970;    0,735;    1,955
578,250;31426,069;    0,644;   -1,045
578,831;32100,383;   -1,356;   -2,227
579,412;32335,675;   -0,810;    0,955
579,993;33234,658;    1,008;    0,227
580,573;33547,240;   -0,629;   -0,955
581,154;32525,280;    0,735;   -0,591
581,735;33423,752;    0,644;    0,773
582,315;32956,388;   -0,629;    2,136
582,896;33153,568;   -0,174;    1,227
583,477;32551,866;    0,189;    1,227
584,057;32767,535;    0,553;    0,955
584,638;33131,203;    2,553;    2,318
585,218;33091,707;   -0,538;    2,682
585,799;33247,064;    0,281;   -0,227
586,379;33204,002;    0,372;    1,591
586,959;31857,678;    0,735;    0,318
587,540;31115,636;   -0,629;    2,227
588,120;30666,440;    1,007;   -0,045
588,700;29681,088;    2,553;    2,136
589,281;29993,449;    0,462;   -0,955
589,861;30014,328;    0,099;   -1,682
590,441;29749,913;    2,371;   -2,682
591,021;28728,380;   -0,265;   -2,591
591,601;28938,363;   -0,537;    0,500
592,181;28951,740;   -0,719;   -0,773
592,761;28210,304;    0,007;    1,409
593,341;28144,551;   -0,901;    0,045
593,921;28162,243;   -0,265;    1,591
594,501;28020,801;   -0,538;    1,318
595,081;27861,719;    0,917;   -0,318
595,661;28247,286;   -1,447;    0,955
596,240;28743,486;   -0,537;    0,136
596,820;28477,336;    0,372;    1,955
597,400;28664,303;    2,008;    0,773
597,980;28881,207;    2,008;    1,045
598,559;28787,653;    2,735;   -0,227
599,139;28480,409;   -0,174;   -1,227
599,718;28419,318;   -0,174;   -0,409
600,298;28687,957;    0,735;    0,682
600,877;28964,312;    2,917;    1,409
601,457;29200,889;    2,281;    1,136
602,036;29092,904;    0,190;    2,045
602,616;29329,475;    0,644;    1,682
603,195;29701,339;   -0,355;    3,500
603,774;29218,336;   -0,901;    2,045
604,354;29042,950;    0,826;   -0,500
604,933;28526,622;    0,463;    1,864
605,512;28666,023;    3,554;    0,591
606,091;28761,455;   -0,537;    3,773
606,671;29586,953;    0,281;    0,773
607,250;28709,417;    1,644;    3,136
607,829;28903,488;    2,372;    3,227
608,408;28689,868;    1,190;    2,591
608,987;27667,264;    1,281;    3,409
609,566;28056,473;   -1,265;   -2,500
610,145;28151,615;   -1,082;    0,682
610,723;28525,575;    4,372;    6,864
611,302;27772,493;   -0,446;    1,682
611,881;27312,532;    5,008;   11,227
612,460;28149,242;    1,645;    3,955
613,039;28577,632;   -0,082;    2,045
613,617;27310,994;    1,736;    4,773
614,196;27478,455;    1,099;    1,227
614,775;27800,954;    1,009;    2,409
615,353;27753,141;    0,736;    0,864
615,932;27456,033;    0,100;    2,409
616,510;28043,767;    0,554;    0,591
617,089;27601,288;    7,100;   17,591
617,667;27311,856;    2,372;    6,136
618,246;27152,557;   -1,537;    1,318
618,824;27341,272;   -3,355;   -0,955
619,402;26835,095;   -2,900;   -1,773
619,981;27399,851;   -0,173;   -1,045
620,559;27201,503;    0,009;    1,682
621,137;26664,136;   -0,718;    1,864
621,715;26782,369;   -1,173;   -0,682
622,293;26706,008;   -0,537;   -0,773
622,871;27117,232;   -0,718;    0,500
623,450;26704,121;    0,373;   -0,864
624,028;26583,075;    0,191;   -0,955
624,606;26228,690;   -1,718;    1,682
625,183;26631,409;   -1,536;   -1,136
625,761;26271,768;    1,009;    1,136
626,339;26574,864;    1,373;    2,591
626,917;26963,303;   -0,172;   -0,045
627,495;26972,259;   -0,354;    1,318
628,073;26393,127;   -0,263;    2,864
628,650;26067,575;    0,100;    2,136
629,228;26487,133;    0,373;    4,409
629,806;25911,766;    2,282;    1,136
630,383;26145,743;    1,464;   -0,318
630,961;25932,707;    2,555;   -0,955
631,539;25675,520;    2,464;    0,227
632,116;25087,071;   11,373;   15,409
632,694;25636,571;    2,555;    6,500
633,271;25964,267;    0,828;    2,682
633,848;25920,789;    1,828;    2,045
634,426;25884,459;   -1,081;    1,773
635,003;24930,981;    1,101;   -0,409
635,580;25332,235;    1,192;    3,682
636,158;25867,610;    3,737;    1,227
636,735;25885,662;    0,555;   -0,500
637,312;26016,326;   -0,809;   -0,682
637,889;26068,858;   -4,354;   -0,682
638,466;25524,115;   -3,990;   -0,409
639,043;25549,734;    2,101;   -1,136
639,620;25899,607;   -2,262;   -0,955
640,197;26248,133;    1,100;    1,682
640,774;26294,009;   -0,172;    1,136
641,351;26747,884;    0,737;    1,136
641,928;26134,669;   -0,627;    1,409
642,505;25777,817;    0,828;   -0,500
643,082;25922,783;   -1,718;    1,227
643,658;24910,659;   -0,718;    1,500
644,235;25683,534;    1,191;    2,500
644,812;26042,592;    1,918;    0,773
645,388;25719,558;   -0,991;    1,409
645,965;25818,342;   -0,809;    1,682
646,542;25951,854;   -1,445;   -0,227
647,118;25884,548;    1,009;   -0,955
647,695;26191,787;   -0,263;    1,136
648,271;26111,299;   -0,536;    0,500
648,848;26477,992;    0,736;    2,227
649,424;26357,322;    0,827;    1,318
650,000;26025,652;   -0,354;   -1,045
650,577;25819,619;   -0,627;   -0,955
651,153;26253,858;   -1,809;    0,955
651,729;27311,370;    1,191;    0,864
652,305;28003,972;    0,645;    2,773
652,881;33463,393;   -0,082;    1,136
653,458;40544,723;    1,100;    0,227
654,034;43751,417;    0,282;    1,591
654,610;45045,020;    0,554;    0,773
655,186;46297,168;    0,645;    3,045
655,762;45927,589;   -0,991;    0,409
656,338;45942,737;    0,100;    0,136
656,913;46792,158;   -0,082;    0,409
657,489;46055,761;    0,827;   -0,318
658,065;46002,545;   -0,173;   -1,591
658,641;46630,148;   -0,900;   -0,864
659,217;45897,478;   -0,991;    0,409
659,792;45266,444;    0,645;   -0,409
660,368;45365,683;   -2,173;   -0,682
660,944;44735,286;   -2,082;    1,227
661,519;39204,161;   -0,628;    0,409
662,095;33137,310;   -1,719;    0,591
662,670;29032,185;    1,281;   -0,136
663,246;28187,879;    1,009;   -0,409
663,821;27555,936;    0,281;    1,682
664,396;27078,357;    0,009;    1,864
664,972;27297,687;    0,009;   -0,500
665,547;27648,199;    1,372;    0,136
666,122;27725,529;   -1,082;    0,318
666,698;27980,768;   -0,173;    0,318
667,273;27313,370;   -0,173;    0,136
667,848;28146,973;    2,372;    1,500
668,423;27964,394;    2,190;    2,318
668,998;28499,451;    2,827;   -0,682
669,573;29080,963;   -3,264;   -1,500
670,148;28908,111;   -1,446;   -0,682
670,723;28680,350;   -1,810;    0,318
671,298;29068,589;    2,372;    1,045
671,873;29251,647;   -0,082;   -0,136
672,448;29193,340;    0,645;    0,136
673,023;29498,034;   -1,992;   -0,227
673,597;29901,819;    0,827;    2,318
674,172;29694,603;   -0,355;    0,318
674,747;29141,842;    0,372;   -1,045
675,321;28887,809;   -0,628;    3,318
675,896;28435,957;    0,645;    1,045
676,471;29486,832;    2,645;    1,591
677,045;29222,980;   -1,264;    0,682
677,620;29273,765;    0,190;    1,136
678,194;29583,368;   -2,628;    1,136
678,769;29133,970;   -1,083;   -0,318
679,343;29480,300;   -0,628;    1,773
679,917;29313,448;   -1,446;    1,955
680,492;29429,960;    0,826;    3,227
681,066;29555,018;    3,372;    0,409
681,640;29612,348;    1,463;   -0,318
682,214;30407,950;    0,735;    0,500
682,788;29939,917;   -1,356;   -0,773
683,363;29903,701;   -1,810;    1,682
683,937;29614,486;   -1,719;   -0,318
684,511;30331,361;    0,463;   -0,591
685,085;30042,600;   -1,356;    0,318
685,659;29767,930;   -2,538;    0,864
686,232;30037,897;   -0,356;   -0,318
686,806;29770,772;   -0,901;    0,409
687,380;30424,284;   -0,174;    0,591
687,954;30622,614;   -1,174;    1,136
688,528;30324,944;   -0,719;    1,955
689,101;31138,001;   -3,992;    1,045
689,675;30684,240;   -0,356;   -0,136
690,249;30101,752;   -0,719;    0,409
690,822;30427,173;    0,280;    0,318
691,396;30482,321;   -0,265;    1,227
691,969;29943,742;    1,280;    0,136
692,543;30382,072;   -0,447;   -1,955
693,116;29977,856;   -0,265;   -1,409
693,690;29884,096;    0,099;    0,500
694,263;30507,516;   -1,083;    2,955
694,836;30614,028;    1,371;    3,591
695,410;29202,904;   -0,265;    1,773
695,983;29589,597;    0,189;    0,591
696,556;29553,291;   -0,447;   -1,045
697,129;29939,894;   -0,356;    1,409
697,703;29582,133;   -1,629;    1,955
698,276;29566,008;    1,462;   -0,773
698,849;29386,611;    1,280;    1,409
699,422;29765,577;   -1,083;    0,591
699,995;29407,453;    0,007;    0,136
700,568;29933,328;   -0,629;    3,045
701,140;29949,749;   -2,811;    1,682
701,713;29747,443;   -0,174;    2,409
702,286;29423,318;   -0,538;    0,864
702,859;29316,012;   -0,902;   -0,591
703,432;28440,615;    0,825;    0,682
704,004;28960,217;    0,462;    0,318
704,577;28837,093;   -0,629;    0,136
705,150;29422,605;    0,189;    2,500
705,722;29202,025;   -0,356;   -3,227
706,295;28995,901;   -0,175;   -0,591
706,867;28910,140;   -0,175;    1,955
707,440;29103,379;   -1,720;   -0,409
708,012;29344,982;    0,462;    0,591
708,584;29256,948;    2,462;    0,227
709,157;29527,460;    1,825;   -0,591
709,729;29193,335;    2,280;    2,045
710,301;30004,665;    0,734;    0,045
710,874;29994,086;   -1,447;   -0,227
711,446;28882,871;    0,371;    0,864
712,018;28785,201;    0,098;    0,500
712,590;28535,985;   -1,993;    1,682
713,162;29088,406;    0,825;    1,318
713,734;29296,191;    1,825;   -2,045
714,306;29205,066;   -1,902;   -0,409
714,878;27880,214;    0,825;    0,864
715,450;28671,908;    0,643;    0,864
716,022;28949,329;    1,552;    1,318
716,593;29119,204;    0,189;    0,591
717,165;29039,080;   -3,175;   -1,227
717,737;28779,137;    0,280;    0,409
718,309;28391,467;    0,280;   -0,045
718,880;28332,979;   -0,539;   -1,409
719,452;28578,127;   -0,175;   -1,591
720,024;28159,184;    0,734;   -0,591
720,595;28706,605;   -2,902;    0,955
721,167;28272,299;    0,370;   -2,045
721,738;27785,083;   -0,812;   -1,045
722,309;27823,595;   -0,993;   -1,227
722,881;27621,834;   -1,357;    0,773
723,452;28208,073;   -2,630;    2,864
724,023;28395,585;   -0,721;    2,682
724,595;28154,279;    0,007;    0,682
725,166;27891,154;    0,007;   -0,409
725,737;27560,302;    1,734;    0,227
726,308;27612,360;   -0,266;    0,318
726,879;28101,053;   -1,630;    1,227
727,450;27931,383;    0,552;   -0,045
728,021;27887,350;    3,097;    0,682
728,592;27656,407;    0,734;    0,500
729,163;28018,373;    0,643;   -0,136
729,734;28070,612;    0,188;   -0,227
730,305;28429,397;    1,734;    0,136
730,876;28771,182;    0,188;    2,955
731,447;28533,239;    2,188;    2,682
732,017;28654,660;    1,097;    1,864
732,588;28063,353;    0,734;    1,227
733,159;28289,683;    0,643;   -1,045
733,729;28063,104;    0,006;    0,409
734,300;27342,889;    0,915;    0,864
734,870;27786,219;    3,461;    0,591
735,441;28389,003;    0,370;   -0,591
736,011;28121,061;    0,643;   -1,591
736,582;27988,845;   -0,812;    0,045
737,152;27449,630;   -1,721;   -2,045
737,722;27901,505;   -0,267;   -0,682
738,293;27653,653;   -1,358;    1,318
738,863;27520,620;    2,461;    2,318
739,433;27320,859;    5,279;    0,318
740,003;27970,280;   -0,994;   -0,682
740,573;27363,246;    2,097;   -1,591
741,143;27277,031;   -1,085;    0,318
741,713;28075,542;    1,188;   -0,500
742,283;27808,054;    0,915;    1,591
742,853;27544,566;    1,915;    1,591
743,423;26959,078;    1,733;    0,045
743,993;27116,771;   -0,358;    1,500
744,563;26475,829;    0,097;   -0,864
745,133;26457,522;   -0,812;   -0,864
745,702;27141,307;   -0,267;    1,773
746,272;26346,000;   -0,176;    0,591
746,842;26155,421;   -1,358;   -0,591
747,411;26633,570;   -0,267;   -0,318
747,981;26712,445;    0,097;    0,500
748,551;26750,139;    2,278;   -1,045
749,120;26602,650;    0,642;   -0,227
749,690;27043,980;   -0,631;    2,409
750,259;27331,401;    1,369;    2,955
750,828;27258,459;    1,551;   -1,955
751,398;27522,425;    1,278;   -0,045
751,967;27082,664;    2,187;    0,409
752,536;27278,721;   -0,813;   -0,227
753,105;27709,142;    0,096;    0,227
753,675;27481,199;    0,096;    1,773
754,244;27441,893;   -0,904;    3,591
754,813;27431,041;    0,551;    1,227
755,382;27008,189;    0,460;    0,955
755,951;27660,883;    1,551;    3,682
756,520;27170,940;   -0,085;    1,864
757,089;27743,179;    0,278;    0,500
757,658;27800,964;    1,733;    1,227
758,227;27845,748;    1,096;    0,318
758,795;28168,988;    1,187;    1,136
759,364;28344,045;   -0,086;   -0,591
759,933;27378,920;   -1,176;   -0,045
760,501;26841,068;    0,733;   -1,318
761,070;27307,671;   -2,813;   -1,409
761,639;28078,183;   -1,904;    1,318
762,207;27464,331;    1,551;   -0,955
762,776;27362,752;    0,369;    0,864
763,344;27339,718;   -0,995;    0,591
763,913;26344,139;   -0,722;    1,409
764,481;27122,651;    1,005;   -0,136
765,049;26906,072;   -1,358;    1,409
765,618;26758,584;   -0,086;    0,318
766,186;26846,732;    0,278;    0,136
766,754;27072,426;    0,005;    1,864
767,322;26021,210;   -1,995;    0,409
767,890;26095,358;   -0,722;   -1,773
768,459;26487,961;   -2,177;   -0,318
769,027;26669,291;    1,641;    3,409
769,595;25615,985;    3,278;    2,591
770,163;26069,133;    3,823;    2,955
770,730;25808,917;    0,732;   -0,136
771,298;25672,520;    0,187;   -1,409
771,866;25719,577;   -1,541;    4,955
772,434;26049,271;   -0,631;   -1,864
773,002;26238,692;    0,005;    0,682
773,569;25899,204;    0,914;    1,682
774,137;25725,716;   -0,268;   -0,045
774,705;26469,773;    0,278;   -0,136
775,272;25979,830;    0,641;    0,682
775,840;25744,160;   -0,177;    2,682
776,407;25279,399;    0,277;    1,955
776,975;24837,547;   -0,632;    0,318
777,542;25880,877;   -1,086;   -0,045
778,110;25696,298;   -1,268;   -0,045
778,677;25386,992;   -2,359;   -0,864
779,244;25177,413;    2,186;    1,045
779,812;25247,925;    1,823;    0,864
780,379;25065,073;    0,005;    1,136
780,946;25343,676;    1,005;   -0,773
781,513;25660,187;   -1,450;    0,318
782,080;25082,154;   -0,086;    2,864
782,647;25806,211;   -0,268;    3,045
783,214;25360,905;   -0,177;    3,864
783,781;24989,962;   -0,723;   -0,682
784,348;24863,928;   -0,632;    1,500
784,915;25304,167;   -3,177;    0,318
785,482;25097,679;    1,368;    2,591
786,049;25509,282;    0,186;   -0,591
786,615;25652,794;    0,277;   -0,955
787,182;25396,396;    0,186;   -0,682
787,749;25027,454;   -2,814;    1,409
788,315;24397,147;   -1,632;   -0,409
788,882;24712,386;    1,550;   -1,227
789,448;25411,989;    1,732;   -0,955
790,015;25365,592;    1,095;    3,227
790,581;24911,104;    1,459;    0,227
791,148;24851,343;    0,641;    1,045
791,714;25064,582;   -0,541;    3,136
792,280;24720,639;    0,186;    1,591
792,847;24250,333;    0,550;    2,500
793,413;24848,208;   -0,269;   -0,318
793,979;24423,811;    3,459;   -1,318
794,545;24529,959;    4,459;    2,682
795,111;23914,471;    2,186;    1,318
795,678;24090,710;    0,731;   -1,682
796,244;23705,585;    3,368;    0,136
796,810;24256,552;    1,731;    0,773
797,375;23998,882;    0,549;   -2,136
797,941;23986,666;   -0,541;    0,591
798,507;24117,633;   -0,451;   -0,955
799,073;23665,326;   -0,360;    0,591
799,639;23748,202;   -2,632;    3,136
800,205;23748,895;    0,095;    2,682
800,770;23326,589;    0,640;    1,773
801,336;23392,373;    1,368;   -0,955
801,901;23085,613;    4,549;    3,136
802,467;23644,943;   -0,542;    2,045
803,033;22976,363;   -0,087;    0,864
803,598;23217,330;    1,913;   -1,045
804,163;23176,842;    1,095;   -0,318
804,729;23131,626;   -0,178;    1,136
805,294;23559,774;    0,822;    2,227
805,859;23378,923;    0,731;   -0,409
806,425;22866,616;    1,186;    2,682
806,990;22519,128;    2,186;    4,318
807,555;22989,185;   -1,451;    2,591
808,120;22941,333;    0,822;   -0,409
808,685;22930,936;    0,185;   -2,500
809,250;22433,266;    0,004;   -0,500
809,815;22756,778;    1,913;    0,682
810,380;23327,653;   -0,269;    1,591
810,945;23892,620;   -1,087;    2,045
811,510;22980,222;    2,094;    1,591
812,075;22713,007;   -0,633;   -1,409
812,640;22738,064;    2,003;    1,409
813,204;22806,394;    0,822;   -0,227
813,769;23304,997;    2,094;   -0,045
814,334;22675,054;    0,458;    0,864
814,898;22710,021;    0,367;    0,591
815,463;22599,169;    1,276;   -0,773
816,027;22547,408;   -0,724;   -2,318
816,592;22601,556;    0,640;   -2,045
817,156;22165,250;    2,094;    1,136
817,721;22066,034;    4,276;    2,318
818,285;21993,819;    2,912;    1,500
818,849;22620,694;   -1,451;    1,682
819,414;22534,479;   -0,269;    2,955
819,978;22113,900;   -1,269;    1,773
820,542;22711,957;    2,003;    0,500
821,106;22404,741;   -0,815;    0,682
821,670;22527,162;   -0,815;    2,591
822,234;22236,947;   -0,270;    1,409
822,798;21562,913;    0,003;    0,500
823,362;21542,243;   -0,633;    4,227
823,926;20880,664;    0,094;    1,136
824,490;21152,540;   -0,997;   -0,682
825,054;21551,870;   -0,088;   -1,136
825,618;21171,018;   -1,542;   -1,500
826,181;21106,075;    0,458;   -1,318
826,745;21044,860;    1,367;   -1,045
827,309;21341,190;    1,185;    1,318
827,872;20737,338;    1,367;    0,955
828,436;21723,122;    1,185;   -0,773
828,999;21816,180;   -0,997;    1,227
829,563;20566,873;   -0,179;    1,136
830,126;20393,840;   -0,179;   -0,591
830,690;20420,624;   -1,997;    2,864
831,253;19945,772;   -0,543;    2,227
831,816;20112,466;   -1,906;    0,500
832,380;20025,887;    0,185;    0,864
832,943;20272,944;   -1,361;   -0,500
833,506;19724,092;    2,639;   -1,227
834,069;20493,695;    3,912;   -0,955
834,632;20541,843;    1,730;    1,318
835,195;20477,355;    1,003;    0,955
835,758;19628,594;   -0,997;    1,955
836,321;19463,379;    0,730;   -1,045
836,884;19555,981;   -0,725;   -0,955
837,447;19603,039;   -2,816;    1,773
838,010;19908,550;    0,366;    3,227
838,573;20191,335;   -1,179;    0,773
839,135;20110,847;   -1,361;   -0,955
839,698;19615,086;    1,275;    0,409
840,261;19123,416;    1,003;   -0,227
840,823;18972,746;   -0,543;    0,864
841,386;19245,348;   -0,452;   -2,409
841,948;19141,678;   -1,361;    1,773
842,511;18824,008;    0,912;    1,682
843,073;18960,157;    1,912;    0,227
843,636;18783,941;   -0,361;   -0,227
844,198;18756,908;    0,911;    0,591
844,760;18873,601;    1,093;    1,955
845,322;18519,931;    0,548;    1,136
845,885;18968,443;    0,730;    0,591
846,447;19371,864;   -1,998;    0,227
847,009;18993,376;    1,911;   -0,682
847,571;19274,978;    0,820;   -2,045
848,133;19400,308;   -1,089;   -1,864
848,695;19187,366;   -0,543;    1,409
849,257;18729,423;   -1,089;   -1,682
849,819;18950,389;   -0,998;   -0,409
850,381;18993,356;   -0,725;   -0,864
850,942;19383,049;    1,093;   -0,591
851,504;19367,743;    1,184;    0,227
852,066;19349,891;    1,275;   -1,591
852,628;18906,948;   -0,180;    1,955
853,189;18446,278;    1,638;    2,682
853,751;18561,063;   -0,907;    1,409
854,312;18341,302;   -0,453;   -1,682
854,874;18858,996;   -2,089;   -0,773
855,435;19325,962;   -0,907;   -1,682
855,997;19510,110;   -1,816;   -0,136
856,558;18860,531;    0,366;    1,773
857,119;18936,770;    0,820;    2,864
857,681;18583,100;    0,002;    0,318
858,242;18631,066;    1,911;   -2,136
858,803;19078,578;    0,456;   -0,773
859,364;19654,454;    0,184;   -4,773
859,925;18998,511;   -2,453;   -0,955
860,486;18870,386;   -0,453;   -0,955
861,047;18606,898;   -0,544;   -1,227
861,608;18402,683;   -1,089;   -0,773
862,169;18520,104;    0,638;   -0,045
862,730;18321,343;    0,456;    1,409
863,291;18533,945;   -0,635;   -0,500
863,852;18946,457;   -0,635;    1,955
864,412;18427,787;   -0,271;   -0,864
864,973;16973,754;   -0,089;    0,500
865,534;16811,447;   -1,726;    0,227
866,094;18355,959;    1,820;    0,227
866,655;18041,016;    1,274;    3,318
867,215;18269,255;    0,274;    0,136
867,776;18103,222;    0,547;   -0,136
868,336;18227,552;   -1,453;    0,136
868,897;17682,609;    2,638;    1,682
869,457;17439,666;    1,365;    0,318
870,017;17655,087;    0,547;   -1,227
870,578;18209,235;   -0,817;    0,773
871,138;17899,656;   -2,089;   -0,955
871,698;17430,804;   -0,817;   -1,318
872,258;17308,862;   -0,453;   -2,864
872,818;17658,283;    2,729;    0,045
873,378;17619,249;    0,638;    1,045
873,938;17101,034;    0,547;    0,500
874,498;17479,636;    0,274;   -1,955
875,058;17386,784;    2,183;    1,773
875,618;17207,569;    1,910;   -2,682
876,177;17161,444;    1,274;    0,136
876,737;16785,865;   -0,090;    1,955
877,297;16812,832;    0,183;    1,955
877,856;16801,344;   -0,362;    0,318
878,416;16719,219;    1,183;   -0,136
878,976;16938,822;   -1,817;    0,409
879,535;17109,243;    0,092;    3,136
880,095;16831,300;   -0,544;    0,045
880,654;17002,266;   -1,090;    1,318
881,213;17111,596;    2,456;    1,500
881,773;16796,199;    2,637;    2,682
882,332;17140,893;    3,365;    5,136
882,891;16928,041;    3,092;    2,136
883,451;17406,189;   -1,272;    1,682
884,010;16827,701;   -2,908;   -0,409
884,569;16961,667;   -0,999;   -0,045
885,128;17104,815;    2,819;   -1,864
885,687;17208,873;    4,455;    0,682
886,246;16888,566;    1,455;    2,136
886,805;16655,169;    2,455;    2,045
887,364;16945,044;   -0,999;   -0,500
887,922;17281,192;   -1,181;    0,045
888,481;16783,795;   -1,545;    0,591
889,040;17092,671;    1,183;    2,136
889,599;17759,910;    2,455;    1,409
890,157;17807,876;    1,455;    2,409
890,716;17497,752;   -0,090;    0,227
891,274;17305,445;    0,092;   -1,136
891,833;17756,593;    1,546;    0,864
892,391;17606,560;   -0,454;    0,500
892,950;17712,253;    1,819;   -0,773
893,508;18060,765;    0,455;   -0,409
894,067;17370,368;    0,637;    0,136
894,625;17268,607;   -0,636;   -1,500
895,183;17469,028;   -0,363;   -0,682
895,741;17376,812;    1,728;   -1,773
896,299;17200,506;   -0,545;   -2,409
896,858;17464,563;    0,819;   -1,591
897,416;17567,711;    2,728;   -1,318
897,974;17253,587;    1,819;    0,318
898,532;17490,553;    6,091;    2,682
899,089;17342,520;    2,091;   -0,682
899,647;17344,395;   -1,454;    1,318
900,205;17070,452;    1,182;    1,045
900,763;17291,328;   -0,454;    0,227
901,321;17313,931;    2,364;   -1,409
901,878;16719,170;   -1,000;   -0,773
902,436;16598,954;   -1,363;    1,318
902,994;17033,739;    4,728;    3,682
903,551;16457,250;    0,728;    0,409
904,109;16825,671;    0,182;   -1,409
904,666;16420,729;    2,455;    1,045
905,224;16218,150;    0,182;   -0,409
905,781;16007,207;    0,727;   -0,318
906,338;16050,628;   -1,363;    1,045
906,895;15964,503;    0,637;    2,045
907,453;15928,288;    1,727;    1,136
908,010;15950,072;   -0,909;    0,409
908,567;15596,584;    1,273;    0,591
909,124;15085,914;    0,364;   -1,500
909,681;15178,790;   -2,909;    0,682
910,238;15298,392;    0,636;   -1,318
910,795;15617,813;   -0,273;   -1,136
911,352;15212,449;   -2,909;   -2,682
911,909;14654,359;   -1,364;   -0,864
912,466;15168,177;   -3,182;    1,500
913,022;14715,722;   -1,636;    0,500
913,579;15058,177;   -0,909;    2,045
914,136;14769,086;    1,636;    0,955
914,692;15124,540;    0,091;   -1,227
915,249;14701,177;    1,455;    0,409
915,806;14955,631;    0,182;    1,955
916,362;14698,359;    1,909;    1,864
916,918;14256,359;    2,000;    1,045
917,475;14206,359;   -1,182;    0,955
918,031;14230,813;    3,364;   -0,045
918,587;13678,904;   -0,909;   -0,318
919,144;13890,268;   -2,273;    0,227
919,700;14226,177;    1,727;    0,773
920,256;13800,904;    0,727;    0,045
920,812;13428,177;   -0,727;   -1,045
921,368;13455,631;   -1,727;   -1,045
921,924;13061,540;    0,182;   -0,136
922,480;12659,813;   -0,545;    1,227
923,036;13319,268;    1,273;    1,955
923,592;13226,813;    0,455;    0,318
924,148;13131,995;    0,455;   -0,955
924,704;12426,722;   -1,364;   -0,409
925,259;12671,086;   -0,273;    0,591
925,815;12454,268;    1,455;    0,500
926,371;11932,995;    2,909;    1,409
926,926;11836,904;    2,091;    0,591
927,482;11480,722;   -1,364;    0,773
928,037;11331,540;    0,909;    2,045
928,593;11671,631;    1,636;    1,045
929,148;11469,086;   -1,818;   -1,500
929,704;10986,268;   -1,455;   -0,500
930,259;11195,449;    0,091;   -0,136
930,814;10233,177;   -0,818;    1,955
931,369; 9888,540;    1,091;   -0,773
931,925; 9799,086;   -0,091;    0,136
932,480; 9701,177;   -2,818;   -2,591
933,035; 9611,086;    0,545;   -0,318
933,590; 9402,449;    0,364;   -1,773
934,145; 8962,904;   -1,364;   -0,318
934,700; 9316,177;    0,455;   -0,591
935,255; 9130,449;   -0,091;    0,045
935,809; 8407,359;    3,182;    0,864
936,364; 7533,086;   -0,455;   -0,136
936,919; 7510,904;    0,455;   -1,773
937,474; 7376,813;    1,455;    0,136
938,028; 7109,540;   -1,636;    1,136
938,583; 6604,268;    1,818;    4,682
939,138; 6842,540;    2,091;    2,136
939,692; 6311,449;    1,636;   -1,136
940,247; 6034,631;   -0,727;   -1,045
940,801; 5604,449;   -0,636;    0,227
941,355; 5477,449;   -0,364;    2,591
941,910; 5112,540;   -0,273;   -2,136
942,464; 5205,540;   -0,818;   -0,318
943,018; 5032,904;    1,000;   -0,227
943,572; 4971,177;    2,545;   -0,682
944,126; 4382,813;    0,091;   -0,409
944,681; 4295,177;    3,091;    0,227
945,235; 4270,540;    1,000;   -0,591
945,789; 4212,359;    0,364;   -1,864
946,342; 4318,540;    0,455;   -0,591
946,896; 4091,631;   -2,273;    0,955
947,450; 3867,086;    1,545;   -0,227
948,004; 4074,722;    1,727;   -0,045
948,558; 4048,995;    0,273;   -0,864
949,111; 3990,086;   -0,273;   -0,318
949,665; 4038,995;    1,636;   -0,682
950,219; 3908,540;   -0,091;   -1,045
950,772; 3985,631;   -1,909;    1,864
951,326; 3864,995;    0,545;   -0,955
951,879; 3992,631;    0,727;   -2,318
952,433; 4003,813;    0,000;    2,227
952,986; 3834,995;    2,909;    0,682
953,539; 3799,449;   -0,273;    0,591
954,093; 3727,359;    0,545;   -1,318
954,646; 3852,904;    0,909;    1,318
955,199; 3686,631;    0,000;   -0,500
955,752; 3579,631;   -0,455;    1,773
956,305; 3513,540;   -0,091;    2,955
956,858; 3682,995;    0,818;   -0,318
957,411; 3844,904;   -0,545;    2,136
957,964; 3678,268;    1,364;    2,136
958,517; 3680,359;   -1,545;    3,136
959,070; 3494,177;   -0,455;    1,955
959,623; 3571,449;    1,091;    1,500
960,176; 3346,540;    1,727;    2,045
960,728; 3335,904;   -2,727;    0,773
961,281; 3398,359;    0,545;    0,500
961,834; 3446,813;   -0,909;    0,864
962,386; 3317,995;    1,727;    1,045
962,939; 3254,722;    0,364;   -0,318
963,491; 3423,813;    0,455;    1,136
964,043; 3277,359;    1,182;    2,409
964,596; 3389,904;   -1,000;    2,227
965,148; 3240,813;   -1,000;    1,773
965,700; 3154,904;    1,091;   -0,227
966,253; 3309,359;   -0,636;    0,318
966,805; 3165,359;   -2,273;    0,773
967,357; 3194,631;    1,091;   -1,500
967,909; 3151,904;    0,455;   -1,227
968,461; 3266,631;    0,545;    3,136
969,013; 3202,449;   -0,182;   -0,864
969,565; 3284,540;   -0,455;   -1,136
970,117; 3349,904;   -0,364;    1,045
970,669; 3184,086;    0,182;   -0,136
971,220; 3043,359;   -0,455;   -1,500
971,772; 2973,449;   -0,636;   -0,318
972,324; 3092,359;    0,091;   -0,500
972,876; 3026,540;    0,818;   -0,045
973,427; 3184,631;    1,909;   -1,045
973,979; 3128,813;   -0,727;   -2,500
974,530; 3175,359;    1,818;    1,318
975,082; 3181,722;   -0,545;    1,682
975,633; 3084,813;    1,091;    1,682
976,184; 3218,631;    0,909;    0,773
976,736; 3008,540;    0,091;    0,227
977,287; 2804,631;   -0,909;   -0,500
977,838; 3000,904;    0,909;   -0,318
978,389; 3068,904;   -1,000;   -0,500
978,940; 2908,540;    0,545;   -0,409
979,491; 2937,449;    0,091;   -0,500
980,042; 2918,359;    0,182;    3,045
980,593; 2958,631;   -2,545;    0,227
981,144; 3000,540;    2,545;   -0,500
981,695; 2968,540;    1,455;    1,500
982,246; 2935,177;   -0,273;    1,045
982,797; 3099,813;   -1,727;    0,682
983,347; 3184,722;    0,364;    0,591
983,898; 3357,268;    3,091;    0,409
984,449; 3178,813;    2,182;    0,773
984,999; 3090,359;    1,455;   -1,136
985,550; 2872,540;    0,182;   -0,318
986,100; 2903,449;   -0,455;   -0,318
986,651; 2926,631;   -0,818;    0,045
987,201; 2913,995;   -1,000;   -0,591
987,751; 2997,359;    0,818;    2,864
988,302; 2979,904;    2,636;    1,500
988,852; 3017,995;    0,455;   -1,136
989,402; 3072,268;    0,091;    0,682
989,952; 2975,177;   -2,182;    0,864
990,502; 3070,540;   -0,091;    0,682
991,052; 3025,359;   -0,727;    0,045
991,602; 2881,177;   -2,909;    1,318
992,152; 2897,540;    0,455;    0,682
992,702; 2895,449;    1,364;   -0,045
993,252; 2805,813;   -3,000;   -0,500
993,802; 2898,177;   -0,273;    1,318
994,352; 3126,086;   -1,545;    1,136
994,901; 3210,268;   -0,182;    3,227
995,451; 3107,904;   -0,182;    0,318
996,000; 3191,722;    1,636;    0,318
996,550; 2919,722;    2,273;    0,227
997,100; 2915,268;    1,273;   -0,045
997,649; 3195,540;    2,182;    0,955
998,198; 2829,359;    1,727;   -1,500
998,748; 3025,813;    1,091;   -2,318
999,297; 2946,540;   -0,818;   -0,409
999,846; 3022,995;    1,000;   -0,773
1000,395; 3054,904;   -0,818;    0,500
1000,945; 3012,995;    1,818;   -0,773
1001,494; 3090,631;    2,364;    0,682
1002,043; 3082,813;    4,636;    0,864
1002,592; 2918,359;   -1,091;    1,955
1003,141; 3060,268;   -0,455;   -0,682
1003,690; 2927,359;    1,727;    0,500
1004,238; 3015,995;    1,455;   -0,045
1004,787; 2649,268;    1,364;    1,227
1005,336; 2886,904;    0,364;    0,682
1005,885; 3033,995;    1,364;   -2,773
1006,433; 3167,813;    0,545;    0,955
1006,982; 3232,540;    0,455;    1,682
1007,531; 3137,449;   -1,818;   -0,227
1008,079; 3083,995;   -2,273;    0,500
1008,627; 3209,086;   -1,455;    0,409
1009,176; 2954,268;    0,000;   -1,955
1009,724; 2987,540;    1,091;    0,864
1010,273; 3060,449;    1,273;    0,500
1010,821; 3154,540;    0,091;    1,409
1011,369; 2890,177;   -1,364;    1,318
1011,917; 2885,722;   -1,364;   -0,591
1012,465; 3155,722;    1,273;   -1,591
1013,013; 3270,904;    2,091;   -1,682
1013,561; 3144,631;    0,455;   -0,773
1014,109; 3215,449;   -1,909;    1,682
1014,657; 3077,813;    0,364;    0,591
1015,205; 3205,086;    1,636;   -0,955
1015,753; 3228,268;   -0,545;   -1,409
1016,301; 3260,995;   -2,636;    3,045
1016,848; 3261,177;   -1,273;    0,409
1017,396; 3314,449;    2,545;    0,045
1017,944; 3451,540;    1,182;    1,864
1018,491; 3188,177;    0,273;    1,409
1019,039; 3350,904;    0,455;    0,591
1019,586; 3244,631;   -1,364;    1,682
1020,134; 3351,631;    0,455;    1,500
1020,681; 3380,540;    0,182;   -1,136
1021,228; 3378,722;    2,909;   -2,227
1021,776; 3210,449;    1,182;   -1,136
1022,323; 3441,631;    0,455;    0,773
1022,870; 3349,449;   -1,000;   -0,045
1023,417; 3247,631;    2,636;    1,864
1023,964; 3389,540;    2,636;    1,227
1024,511; 3230,540;    1,000;    0,773
1025,058; 3033,540;    3,182;   -0,045
1025,605; 3099,540;   -2,273;    3,136
1026,152; 3322,631;    1,727;   -0,591
1026,699; 3036,540;    1,818;    1,318
1027,245; 3191,904;   -0,091;    0,318
1027,792; 3391,631;   -1,000;    1,409
1028,339; 3305,449;    2,364;   -0,045
1028,885; 3143,177;    1,000;   -0,227
1029,432; 3067,268;   -0,091;    0,227
1029,978; 3157,904;   -1,000;   -1,591
1030,525; 3061,540;    1,000;    0,409
1031,071; 3267,449;   -1,364;    1,136
1031,618; 3387,631;    0,364;    1,682
1032,164; 3187,449;   -0,091;    3,045
1032,710; 3228,631;    1,636;   -1,500
1033,256; 3129,086;   -0,636;   -0,136
1033,803; 3103,813;   -0,545;    1,500
1034,349; 2808,540;   -1,364;    0,136
1034,895; 2983,177;    0,000;   -0,318
1035,441; 2970,268;   -0,818;    0,318
1035,987; 2955,722;   -2,364;   -0,682
1036,533; 2969,177;   -1,455;   -0,955
1037,078; 3183,086;    1,455;    1,682
1037,624; 3001,359;    2,455;   -0,955
1038,170; 3025,268;    0,455;   -0,318
1038,716; 2924,813;    1,636;   -0,409
1039,261; 2836,904;   -2,273;   -0,773
1039,807; 2786,540;   -0,091;    3,409
1040,352; 2857,904;   -1,909;   -0,318
1040,898; 2887,177;   -1,545;   -0,682
1041,443; 2775,631;   -1,455;   -2,591
1041,989; 2814,359;    1,091;    1,591
1042,534; 2693,359;   -0,364;    2,591
1043,079; 2808,359;    2,909;    0,955
1043,625; 2601,631;    1,818;    0,500
1044,170; 2645,268;   -1,364;    1,045
1044,715; 2892,268;    2,455;    0,955
1045,260; 2717,359;    2,182;   -0,955
1045,805; 2758,722;    1,182;   -0,591
1046,350; 2670,177;    1,364;   -0,409
1046,895; 2646,540;    2,909;    1,591
1047,440; 2612,268;    5,364;    0,409
1047,985; 2500,904;    2,818;   -0,955
1048,530; 2429,359;    1,545;    1,227
1049,074; 2492,449;    0,000;    0,318
1049,619; 2454,995;   -1,364;    1,955
1050,164; 2250,904;    0,455;    0,227
1050,708; 2308,904;   -0,455;    0,045
1051,253; 2689,449;    1,273;   -2,227
1051,797; 2393,540;    0,818;   -1,318
1052,342; 2395,359;   -1,182;    1,045
1052,886; 2401,995;    0,364;   -1,409
1053,430; 2261,177;   -1,364;    0,136
1053,975; 2277,086;   -0,818;   -0,318
1054,519; 2256,086;   -0,727;    3,227
1055,063; 2276,995;    0,909;    1,318
1055,607; 2167,449;   -0,182;    0,227
1056,151; 2187,359;    2,909;    1,682
1056,695; 2101,086;    2,273;   -1,136
1057,239; 2174,631;   -1,727;   -0,682
1057,783; 2176,813;    0,818;   -1,500
1058,327; 2125,449;    0,000;    1,409
1058,871; 2355,722;   -0,545;    1,318
1059,415; 2083,722;   -0,818;   -0,045
1059,958; 2357,540;    1,455;    2,591
1060,502; 2054,359;   -1,000;   -0,773
1061,046; 1940,813;    0,364;   -0,955
1061,589; 1929,086;   -3,000;   -1,136
1062,133; 1820,449;   -1,273;    1,864
1062,676; 1749,722;    1,182;    0,864
1063,220; 1760,813;    1,091;    0,500
1063,763; 1783,177;    0,909;    1,136
1064,306; 1880,631;   -0,909;    1,864
1064,849; 1756,904;   -0,909;    0,591
1065,393; 1760,086;    2,000;   -1,500
1065,936; 1863,631;    0,182;   -0,409
1066,479; 1751,449;   -1,455;    1,318
1067,022; 1765,449;   -0,273;   -0,227
1067,565; 1663,631;   -0,091;   -1,318
1068,108; 1698,813;    0,727;   -0,591
1068,651; 1671,177;   -0,636;    1,409
1069,194; 1597,631;   -0,455;   -1,682
1069,736; 1610,359;   -1,273;    0,955
1070,279; 1579,904;   -1,364;   -0,500
1070,822; 1643,813;   -2,000;   -0,318
1071,364; 1747,540;   -0,364;    1,318
1071,907; 1552,086;   -0,727;    3,227
1072,450; 1440,268;    0,000;   -0,045
1072,992; 1452,086;   -0,273;    3,136
1073,535; 1601,904;    2,091;    2,136
1074,077; 1379,268;   -0,727;    2,045
1074,619; 1340,540;   -1,364;    0,591
1075,161; 1382,722;   -1,091;    1,500
1075,704; 1572,086;    1,545;    1,227
1076,246; 1349,631;   -0,182;    0,682
1076,788; 1284,631;   -0,364;    1,773
1077,330; 1354,813;    1,273;    2,136
1077,872; 1334,813;    0,909;    0,955
1078,414; 1573,359;    2,727;    0,773
1078,956; 1295,449;    1,273;   -0,227
1079,498; 1572,904;    1,636;    0,318
1080,040; 1268,359;    1,909;   -1,318
1080,581; 1204,177;    1,636;   -0,318
1081,123; 1114,631;    0,091;   -0,773
1081,665; 1170,813;   -1,182;   -0,955
1082,206; 1492,813;    1,364;   -0,500
1082,748; 1328,449;    0,727;    2,045
1083,289; 1191,722;   -2,000;    1,318
1083,831; 1100,722;   -0,545;    0,227
1084,372; 1147,086;    0,000;    0,591
1084,913; 1150,268;    1,091;    0,864
1085,455; 1115,086;   -1,909;   -2,045
1085,996; 1088,359;   -2,273;    0,136
1086,537; 1114,995;   -0,091;    0,864
1087,078; 1143,086;   -0,909;   -2,136
1087,619; 1202,995;   -1,273;    0,227
1088,160; 1105,995;    0,000;    1,318
1088,701; 1075,177;   -1,091;    0,682
1089,242; 1027,813;    1,364;   -2,227
1089,783; 1133,540;   -0,273;    1,409
1090,324; 1110,540;    0,455;    0,682
1090,865;  981,449;    2,727;   -0,409
1091,405;  929,359;    0,727;    2,227
1091,946;  962,540;    0,182;   -0,955
1092,487;  891,449;    0,818;   -1,409
1093,027; 1063,268;   -1,364;   -1,500
1093,568;  912,086;   -0,364;    1,227
1094,108; 1025,631;    0,273;    1,773
1094,649;  943,359;   -1,182;    0,136
1095,189;  889,631;   -0,636;   -0,682
1095,729;  851,904;   -0,091;    0,955
1096,269;  844,722;    0,727;   -0,955
1096,810; 1170,268;   -1,364;    0,500
1097,350; 1002,177;    1,364;   -0,773
1097,890;  891,359;    0,364;    1,227
1098,430; 1156,086;    2,364;    2,864
1098,970; 1027,722;    2,182;    1,682
1099,510;  876,813;    0,545;   -2,318
1100,050;  806,995;    1,000;   -1,591
1100,589;  771,904;   -0,727;   -0,318
1101,129;  901,449;    0,818;   -0,955
1101,669; 1069,904;    1,727;    2,136
1102,209;  878,359;   -0,091;    2,227
1102,748;  836,631;    0,000;    0,955
1103,288;  818,449;    1,273;   -1,227
1103,827;  851,722;    3,091;   -2,227
1104,367;  722,359;   -0,091;   -2,409
1104,906;  688,722;    1,364;   -1,136
1105,445;  760,449;    0,636;   -1,136
1105,985;  711,359;   -0,727;    1,500
1106,524;  762,631;   -1,727;   -0,682
1107,063;  726,813;   -2,727;    1,409
1107,602;  692,540;   -1,909;   -1,500
1108,141;  621,268;   -1,909;    1,500
1108,680;  735,268;   -3,455;   -0,591
1109,219;  662,268;   -0,909;   -0,500
1109,758;  657,086;    0,455;    0,682
1110,297;  643,813;    1,000;   -0,682
1110,836;  583,722;   -0,727;    0,955
1111,375;  757,722;   -2,545;    0,409
1111,913;  752,813;   -1,000;    0,773
1112,452;  690,631;   -0,273;    0,136
1112,991;  583,177;    1,091;    1,955
1113,529;  530,995;   -0,818;   -0,045
1114,068;  612,995;   -0,273;    2,955
1114,606;  517,631;   -0,364;   -0,955
1115,144;  676,449;   -1,273;    1,045
1115,683;  610,359;   -0,727;    0,318
1116,221;  664,540;   -0,455;   -0,864
1116,759;  562,631;    0,636;   -0,864
1117,297;  785,540;    0,000;    1,864
1117,836;  570,631;   -2,182;   -1,227
1118,374;  590,813;    0,182;   -0,682
1118,912;  527,268;    0,909;    2,682
1119,450;  514,631;    1,000;    0,864
1119,988;  557,359;    1,545;    2,136
1120,525; 1036,813;    5,091;    3,318
1121,063;  735,904;    1,182;    1,864
1121,601;  530,086;   -0,909;   -1,227
1122,139;  485,722;   -0,727;   -2,045
1122,676;  695,540;   -0,727;    2,773
1123,214;  622,631;   -1,182;    4,409
1123,751;  426,904;    1,727;    2,227
1124,289;  566,359;   -0,091;   -0,409
1124,826;  427,268;    1,727;    0,227
1125,364;  342,268;    1,727;   -0,955
1125,901;  551,359;    1,182;    1,227
1126,438;  662,359;    0,818;    0,955
1126,975;  372,813;   -0,727;   -0,773
1127,513;  447,268;    0,273;    2,136
1128,050;  346,359;    1,636;   -0,682
1128,587;  452,995;    2,000;   -0,227
1129,124;  496,359;    0,091;    1,318
1129,661;  357,631;    0,273;    0,227
1130,198;  527,268;    1,636;    0,773
1130,734;  475,540;    0,182;    1,409
1131,271;  325,359;   -0,909;    0,864
1131,808;  504,359;    2,909;    3,045
1132,345;  378,449;    1,545;    0,318
1132,881;  228,268;   -1,545;   -1,864
1133,418;  390,268;    0,727;   -1,136
1133,954;  321,813;    2,455;   -2,682
1134,491;  396,904;    1,364;   -0,773
1135,027;  297,631;    2,364;    0,864
1135,564;  386,449;    0,273;    2,955
1136,100;  366,995;    0,364;    2,136
1136,636;  254,995;   -1,273;   -1,045
1137,172;  362,722;    0,000;   -1,045
1137,708;  286,540;   -1,364;   -1,045
1138,245;  283,904;    1,273;   -1,227
1138,781;  225,813;    1,091;   -3,318
1139,317;  317,904;    1,273;   -1,409
1139,852;  291,268;    3,091;    0,136
1140,388;  413,359;   -1,182;   -0,409
1140,924;  294,086;   -1,091;   -2,227
1141,460;  227,722;   -1,636;    0,136
1141,996;  163,268;   -1,364;    2,682
1142,531;  208,904;    1,364;    3,318
1143,067;  441,359;    1,182;    1,045
1143,602;  496,449;   -0,091;   -0,318
1144,138;  333,268;   -2,636;    1,045
1144,673;  189,904;   -1,455;    1,409
1145,209;  266,995;   -1,909;   -0,318
1145,744;  189,086;   -0,727;    0,864
1146,279;  333,904;    1,818;   -0,136
1146,815;  242,177;    1,545;   -2,682
1147,350;  279,631;   -1,364;    0,045
1147,885;  188,540;   -0,818;   -1,318
1148,420;  186,995;   -2,273;    0,773
1148,955;  162,995;   -1,727;    1,864
1149,490;  204,177;   -0,909;   -1,591
1150,025;  181,722;    0,455;   -1,773
1150,560;  304,268;    1,091;   -0,955
1151,094;  268,359;    1,455;   -0,591
1151,629;  276,904;    1,636;    0,864
1152,164;  193,540;    1,364;    1,318
1152,698;  153,995;   -0,182;   -0,136
1153,233;  112,268;    0,091;   -0,682
1153,767;  151,813;   -3,000;   -2,318
1154,302;  197,177;   -1,455;    1,773
1154,836;  203,631;   -0,455;   -2,136
1155,371;  263,813;   -1,364;    3,682
1155,905;  204,813;   -0,636;    1,682
1156,439;  174,813;   -0,636;   -0,500
1156,973;  218,631;    0,364;    0,318
1157,507;  139,813;   -0,364;    0,682
1158,042;  176,540;   -0,727;    1,045
1158,576;  228,813;    0,182;    1,773
1159,110;  216,268;   -0,818;    2,409
1159,643;  189,995;    0,636;   -0,045
1160,177;  112,086;   -1,545;    1,500

