
Integration time [ms]:   0,040
Averaging Nr. [scans]: 11
Smoothing Nr. [pixels]: 0
Data measured with spectrometer [name]: 7318044SP
Wave   ;Sample   ;Dark     ;Reference
[nm]   ;[counts] ;[counts] ;[counts] 

186,757;   27,208;   31,551;    1,318
187,357;   60,691;   22,551;    0,955
187,958;   40,401;   15,460;   -1,591
188,558;   82,564;    8,915;   -1,227
189,159;   53,156;    6,733;   -4,500
189,759;   13,939;    7,278;   -3,591
190,360;   23,668;    2,824;   -2,136
190,960;   70,603;    2,915;   -4,136
191,560;   84,295;    3,189;   -6,591
192,161;  335,619;    4,372;   -3,500
192,761;  173,772;    4,010;   -3,227
193,361;  108,738;    1,556;   -3,773
193,962;  166,878;    2,010;   -2,682
194,562;   88,524;    1,189;   -3,955
195,162;  134,145;   -2,448;   -2,227
195,762;  301,472;   -3,176;   -0,045
196,362;  244,332;    1,370;   -2,500
196,963;   99,968;    2,006;   -0,864
197,563;  180,022;    1,551;   -0,955
198,163;  117,175;    0,096;   -0,682
198,763;  141,875;    1,733;   -0,500
199,363;  258,672;    3,096;   -0,500
199,963;  215,419;    0,369;    0,409
200,563;  180,132;    2,823;   -1,409
201,163;  158,037;    3,277;   -0,227
201,763;  251,383;    3,732;    0,318
202,363;  189,747;    1,459;    1,500
202,963;  311,683;    1,459;    1,045
203,563;  423,859;    0,277;    0,500
204,162;  256,691;    2,096;   -1,864
204,762;  255,476;    0,550;    0,591
205,362;  224,931;    3,004;    1,955
205,962;  332,579;    3,096;    1,955
206,562;  325,840;    1,823;    2,318
207,161;  288,483;   -0,087;    0,318
207,761;  457,690;    1,277;    2,409
208,361;  324,970;   -0,268;    1,409
208,960;  438,704;    0,459;    1,500
209,560;  513,123;    1,277;    1,591
210,160;  483,983;    0,550;    1,864
210,759;  442,253;    4,186;    1,227
211,359;  450,084;    1,459;    1,045
211,958;  733,721;    1,277;    2,045
212,558;  826,427;    1,732;    1,864
213,157;  657,927;    1,822;    1,500
213,757; 1123,559;    3,822;   -0,227
214,356;  813,081;    1,277;   -0,409
214,956; 1168,040;    3,095;    0,409
215,555;  756,758;    2,095;    2,136
216,154;  688,244;   -2,723;   -0,591
216,754;  696,874;    0,277;    0,773
217,353;  852,497;   -0,268;   -1,045
217,952;  703,709;   -0,178;    0,318
218,552;  947,621;    1,368;   -0,773
219,151;  842,876;    0,277;    0,955
219,750;  845,641;    0,004;   -0,227
220,349;  980,789;   -0,451;    1,045
220,948; 1053,655;   -1,360;    1,136
221,548; 1075,691;    0,913;    1,227
222,147; 1190,614;   -0,087;   -0,409
222,746; 1483,191;   -0,451;   -0,955
223,345; 1377,935;    0,731;    0,500
223,944; 1381,747;   -0,451;    0,773
224,543; 1574,884;    1,004;   -1,409
225,142; 1685,518;    0,094;    0,136
225,741; 1604,376;   -0,814;    1,045
226,340; 1636,152;   -0,451;   -0,955
226,939; 2111,335;   -0,996;   -0,136
227,538; 2094,124;   -0,360;   -0,773
228,137; 2249,276;   -0,814;    0,864
228,735; 2423,181;   -0,541;    1,227
229,334; 2152,902;   -0,905;   -0,227
229,933; 2556,608;    0,459;    0,591
230,532; 2653,475;    1,186;   -0,409
231,131; 2711,388;    1,732;    0,318
231,729; 2893,045;   -2,450;   -2,318
232,328; 3053,640;   -0,723;   -1,500
232,927; 3136,972;    1,004;   -0,500
233,525; 3280,786;    3,640;    0,045
234,124; 3509,898;    2,368;   -1,591
234,723; 3521,744;    0,913;   -1,045
235,321; 3683,405;    2,277;    0,136
235,920; 3947,049;    1,186;   -1,227
236,518; 4198,709;    3,459;    0,318
237,117; 4435,663;    0,004;   -0,227
237,715; 4618,601;    0,640;   -0,500
238,314; 4636,213;   -0,087;   -2,318
238,912; 4739,063;   -0,723;   -1,409
239,510; 4779,776;    0,459;   -1,227
240,109; 4975,521;    0,004;    3,773
240,707; 5037,689;   -0,996;    1,227
241,305; 5430,927;    0,550;    0,136
241,904; 5641,109;   -0,178;   -2,045
242,502; 5612,664;   -0,632;   -0,227
243,100; 5543,685;   -0,087;   -0,955
243,698; 5788,350;    0,732;    1,682
244,297; 5973,360;   -0,632;    0,682
244,895; 5787,761;   -0,269;   -2,318
245,493; 6165,219;    2,186;   -0,591
246,091; 6182,810;    1,368;   -1,318
246,689; 6195,534;    1,004;    0,591
247,287; 6345,044;    0,822;   -1,136
247,885; 6634,023;   -1,451;    1,227
248,483; 6719,919;    1,822;   -0,500
249,081; 6894,694;    0,185;    1,591
249,679; 7022,711;   -0,178;    1,682
250,277; 7300,453;   -1,723;    0,864
250,875; 7282,507;   -1,087;   -1,045
251,473; 7337,789;   -1,178;    0,500
252,071; 7538,646;    1,459;    1,045
252,669; 7690,383;   -1,814;    0,318
253,267; 7950,774;   -0,087;    0,773
253,864; 7927,135;   -0,360;    0,682
254,462; 7772,649;    1,640;    1,591
255,060; 7724,086;   -0,269;    1,318
255,658; 8099,202;    0,822;   -0,136
256,255; 8530,496;    0,186;   -2,045
256,853; 8352,659;   -0,269;    1,409
257,451; 8351,485;    0,822;    1,864
258,048; 8644,104;    1,822;    1,864
258,646; 8400,009;    1,731;   -1,045
259,243; 8602,932;   -0,087;    2,227
259,841; 8671,355;   -0,814;    0,318
260,438; 8522,813;   -0,087;    0,864
261,036; 9287,395;   -1,905;    1,409
261,633; 9143,208;   -0,087;    2,227
262,231; 8876,223;    2,731;   -0,045
262,828; 8972,370;   -0,905;    1,136
263,425; 9030,188;    0,913;   -0,591
264,023; 9325,450;    0,186;    0,045
264,620; 8845,820;   -0,360;   -0,318
265,217; 9208,478;   -2,087;    3,136
265,815; 9293,323;   -1,905;    2,136
266,412; 9063,485;    0,731;    0,136
267,009; 9142,300;   -1,451;    0,773
267,606; 8997,464;    0,822;   -0,955
268,203; 8988,440;   -0,269;   -0,591
268,801; 9289,139;    1,731;    0,591
269,398; 9610,428;   -0,360;    2,500
269,995; 9598,279;    0,277;    1,591
270,592; 9334,388;   -0,632;   -0,500
271,189; 9527,551;    0,186;    0,409
271,786; 9665,768;   -0,632;    1,227
272,383; 9515,856;   -1,087;    0,227
272,980; 9690,821;    0,277;    0,318
273,577;10177,528;    0,004;    1,227
274,174; 9730,755;    0,822;    2,591
274,771; 9733,565;   -0,814;   -0,773
275,367; 9899,433;    2,277;    1,409
275,964; 9848,083;    0,731;   -0,500
276,561; 9931,848;    1,549;   -1,045
277,158;10173,711;    0,095;   -1,773
277,755;10302,330;    2,185;    0,409
278,351; 9655,915;   -0,451;   -1,500
278,948;10003,659;   -0,815;    0,045
279,545; 9994,103;   -1,360;    2,318
280,141;10650,744;   -1,723;   -2,045
280,738;10526,649;   -0,451;   -0,136
281,334;10788,883;   -1,633;    0,591
281,931;10143,966;   -0,087;   -1,318
282,528;10236,253;    0,822;   -0,500
283,124;10944,012;   -1,087;   -0,500
283,721;10858,861;   -0,451;    1,409
284,317;10662,669;    0,185;    2,500
284,913;11200,564;   -1,360;    0,591
285,510;11417,836;    0,640;   -0,318
286,106;11436,760;   -2,269;   -0,955
286,703;11046,708;   -0,360;    1,955
287,299;11253,446;   -1,451;   -0,591
287,895;11419,034;    0,822;   -1,045
288,491;12018,610;    0,186;    2,136
289,088;11714,428;   -2,360;    2,409
289,684;11796,656;   -1,723;    1,500
290,280;11802,188;    0,368;    0,682
290,876;11920,240;    1,822;    5,500
291,472;11818,197;    1,276;    2,227
292,068;11915,131;    1,367;    0,227
292,665;11600,446;    2,095;    0,773
293,261;11190,012;    0,276;    2,136
293,857;11644,090;    2,913;    2,136
294,453;11549,241;    3,550;    0,955
295,049;11417,477;   -0,268;    1,955
295,644;11413,724;    0,095;    0,136
296,240;11348,270;   -0,905;   -0,136
296,836;11378,467;   -0,995;    0,318
297,432;11688,345;    1,096;   -0,500
298,028;11730,044;    0,732;    0,773
298,624;12130,750;    1,459;    1,864
299,220;12384,051;    2,368;    0,591
299,815;12025,519;    1,005;   -0,409
300,411;11818,295;    0,914;    1,773
301,007;11846,852;    1,368;    0,227
301,602;11889,442;   -0,541;   -2,318
302,198;12064,999;    0,732;   -0,773
302,794;12399,009;    1,187;   -0,500
303,389;12497,110;   -1,177;    1,045
303,985;12609,271;    0,550;    1,409
304,580;12578,642;    1,459;    1,591
305,176;12530,354;   -3,086;    0,136
305,771;12419,417;   -1,268;   -1,227
306,367;12303,410;    4,095;    0,136
306,962;12641,078;    0,641;    1,500
307,558;12376,834;   -0,450;    0,136
308,153;12302,994;    1,095;   -1,136
308,748;12515,578;   -0,814;    1,682
309,344;12512,078;   -0,632;   -1,318
309,939;12601,896;   -1,905;   -1,318
310,534;12845,578;   -0,086;   -1,682
311,130;12755,736;    0,459;   -2,500
311,725;12499,581;    1,004;   -0,500
312,320;12849,963;    2,459;    0,045
312,915;12681,581;    1,459;   -1,045
313,510;12768,253;    1,550;   -0,500
314,105;13273,866;    1,096;    1,409
314,700;12651,893;   -3,086;   -1,045
315,295;12249,642;   -0,904;    0,045
315,890;11811,708;    1,277;    0,864
316,485;12218,861;   -0,359;   -0,318
317,080;12362,540;   -3,086;    1,591
317,675;12930,694;    2,005;   -0,682
318,270;12327,835;    5,550;    3,318
318,865;12343,013;    3,278;    3,045
319,460;12181,138;   -0,904;    0,591
320,055;12358,496;   -0,541;   -1,227
320,650;12033,720;   -1,995;   -0,591
321,244;12062,695;   -0,177;   -1,409
321,839;13054,631;   -1,541;   -0,227
322,434;12931,418;   -1,086;   -1,591
323,029;12555,247;    1,732;    1,591
323,623;12360,487;    1,550;    0,773
324,218;12105,314;    2,368;    1,409
324,812;11981,558;    1,096;    1,591
325,407;11801,229;   -0,814;    2,045
326,002;11726,386;    0,277;   -0,409
326,596;12019,247;    0,914;    1,318
327,191;12226,187;    0,823;   -1,045
327,785;11793,428;   -0,813;   -0,227
328,379;12020,673;    1,368;    0,136
328,974;11827,795;    0,914;   -3,955
329,568;11998,593;    0,186;   -2,409
330,163;11803,104;    2,096;    1,045
330,757;12197,658;    2,459;    1,591
331,351;11536,015;    0,459;    0,682
331,945;11816,278;    0,914;    1,409
332,540;11411,201;   -1,723;   -0,591
333,134;11562,906;   -1,086;    0,773
333,728;11831,896;    0,005;    0,318
334,322;12107,697;   -1,177;   -0,864
334,916;11400,004;    0,277;    0,955
335,510;11760,585;   -0,450;   -0,136
336,105;11978,641;   -1,086;    1,591
336,699;11687,484;   -1,086;    0,591
337,293;11600,966;   -1,723;    0,318
337,887;11790,813;   -2,723;    1,955
338,481;11903,229;    0,459;    0,591
339,074;12029,364;   -0,359;    2,682
339,668;11813,952;   -1,632;    1,227
340,262;12140,850;    1,732;    3,227
340,856;11630,825;    1,822;   -0,682
341,450;10969,461;    1,004;    1,864
342,044;11863,693;    1,459;    0,136
342,637;11631,067;    0,913;   -2,136
343,231;11494,548;   -2,360;    0,682
343,825;11464,207;   -1,086;   -0,591
344,419;11397,299;   -1,995;    0,500
345,012;11225,117;    2,459;    4,045
345,606;11214,520;    4,641;    1,591
346,199;11063,233;   -1,813;   -0,227
346,793;10564,730;    1,914;    2,045
347,386;10740,432;   -0,813;   -1,136
347,980;10728,720;   -0,268;   -0,045
348,573;10511,906;    2,278;    0,409
349,167;10177,539;    5,278;    4,773
349,760;10507,305;    2,914;    2,682
350,354;10530,355;   -0,813;    1,136
350,947;10290,823;    1,096;    1,682
351,540; 9923,666;   -0,358;   -1,409
352,134; 9885,336;    1,096;    1,136
352,727; 9962,612;   -0,086;    1,136
353,320; 9699,385;    0,005;    0,591
353,913; 9595,528;   -1,995;    1,864
354,507; 9815,727;    0,823;   -1,227
355,100; 9783,252;    0,460;    0,864
355,693; 8988,760;    2,005;    2,409
356,286; 9060,697;    0,823;    2,773
356,879; 9424,494;   -0,722;    1,227
357,472; 9008,717;   -0,904;    1,500
358,065; 9231,085;   -0,722;    2,500
358,658; 9153,581;   -0,540;    2,318
359,251; 8767,588;   -1,631;   -0,591
359,844; 8253,347;   -1,904;   -1,136
360,437; 8447,591;   -2,995;    0,045
361,030; 8692,647;    1,369;   -0,682
361,623; 8271,858;    2,824;    0,318
362,215; 8343,197;   -0,086;    2,045
362,808; 8185,490;   -2,358;   -1,682
363,401; 8357,526;   -2,449;    0,136
363,994; 8101,645;   -0,631;   -1,500
364,586; 8022,667;    0,824;   -1,500
365,179; 8241,273;   -0,449;   -1,136
365,772; 7732,113;   -1,995;    2,045
366,364; 8046,612;    1,915;   -3,227
366,957; 8230,907;    2,279;   -0,045
367,549; 8237,260;    2,188;   -0,864
368,142; 7867,537;    1,825;   -1,500
368,734; 8105,486;    0,734;   -2,136
369,327; 8036,148;    1,643;   -0,500
369,919; 7951,820;   -1,538;    0,409
370,512; 7750,958;   -1,083;   -0,500
371,104; 7506,720;   -0,901;    1,591
371,696; 7706,761;    1,191;   -0,955
372,289; 7808,693;    0,373;    1,136
372,881; 7956,543;   -2,080;    1,318
373,473; 7875,676;   -2,170;    1,136
374,066; 7681,982;   -0,169;    0,500
374,658; 7521,283;    0,378;    1,136
375,250; 7878,622;    0,653;   -1,409
375,842; 7697,861;    0,473;   -0,045
376,434; 7586,612;   -0,435;   -0,409
377,026; 8156,599;    0,204;   -2,500
377,618; 8058,565;   -0,158;   -0,682
378,210; 7915,541;   -0,338;   -1,955
378,802; 7749,686;    0,754;   -0,591
379,394; 7728,082;    1,846;    0,682
379,986; 8312,529;    1,393;   -0,955
380,578; 8406,764;   -0,153;    0,773
381,170; 7769,677;   -0,972;    0,045
381,762; 7728,124;    0,755;    1,409
382,354; 7925,118;   -0,065;   -1,318
382,945; 8023,609;   -2,976;    0,318
383,537; 8153,046;   -2,705;   -1,955
384,129; 8162,153;   -2,160;   -1,136
384,721; 8376,955;   -0,252;    0,955
385,312; 8287,213;   -0,161;   -0,955
385,904; 8412,441;   -2,706;    1,591
386,496; 7757,778;   -0,979;    1,045
387,087; 7908,748;    1,022;    2,500
387,679; 7935,466;   -1,160;    0,045
388,270; 8067,477;    2,840;    2,045
388,862; 8208,837;    1,295;   -0,318
389,453; 8092,439;   -0,887;    1,045
390,045; 8350,771;   -0,705;   -2,682
390,636; 8294,373;    0,204;   -0,591
391,227; 8160,764;   -0,523;   -0,045
391,819; 8252,004;    0,204;    0,773
392,410; 8314,783;    1,022;    0,045
393,001; 8249,788;   -0,979;   -1,591
393,593; 8600,326;    1,930;   -0,045
394,184; 8400,431;    1,385;   -0,409
394,775; 8334,921;    1,839;    2,136
395,366; 8546,128;    1,385;    0,773
395,957; 8562,458;    0,113;    0,136
396,548; 8845,094;   -0,342;    2,682
397,139; 9143,319;   -2,433;    0,591
397,730; 8888,272;   -1,888;    0,955
398,321; 8941,082;   -1,252;    0,955
398,912; 8993,323;   -0,615;    0,136
399,503; 9032,075;   -3,524;   -1,409
400,094; 8470,980;    0,294;    1,682
400,685; 8321,463;   -0,433;    0,045
401,276; 8407,345;    0,930;   -0,955
401,867; 8709,683;   -0,888;    0,773
402,458; 8814,852;   -2,251;   -2,318
403,048; 8807,707;    1,112;    0,591
403,639; 8378,600;    0,840;    0,864
404,230; 8628,382;    2,476;    0,318
404,821; 8578,529;   -0,615;    0,045
405,411; 8719,987;    1,203;   -2,591
406,002; 8325,382;   -1,252;   -1,136
406,592; 8165,196;    2,294;    0,045
407,183; 8471,524;    0,566;   -1,500
407,774; 8392,993;    3,475;   -0,136
408,364; 8733,385;    0,930;    0,409
408,954; 8332,209;    0,384;    1,227
409,545; 8370,835;    1,021;    1,045
410,135; 7924,478;    1,293;    0,500
410,726; 8069,410;    1,838;    0,318
411,316; 8481,708;    0,111;    0,773
411,906; 8118,634;   -0,253;   -0,409
412,497; 7617,810;   -1,070;   -0,045
413,087; 8225,516;   -1,980;   -0,227
413,677; 8627,350;   -0,707;    3,864
414,267; 8491,396;    0,656;    1,409
414,857; 8474,962;   -2,980;    4,227
415,448; 8742,110;    0,839;    0,500
416,038; 8410,250;    0,020;   -0,591
416,628; 8401,613;   -0,889;    0,409
417,218; 7881,539;    0,565;    3,318
417,808; 8163,832;    0,202;   -0,409
418,398; 8638,231;    0,020;    2,682
418,988; 8682,308;    2,020;    0,591
419,578; 8940,431;   -0,707;    1,409
420,168; 9221,732;   -1,343;   -0,955
420,757; 8840,869;   -1,343;   -1,500
421,347; 8470,566;    0,111;   -0,227
421,937; 8645,587;    2,292;    1,409
422,527; 8623,359;    0,838;   -0,773
423,116; 8460,713;   -0,253;   -0,045
423,706; 8806,909;   -1,889;    0,318
424,296; 8731,902;    1,384;    0,682
424,885; 9198,175;   -0,071;   -3,045
425,475; 9489,863;    1,474;   -2,864
426,065; 9377,706;   -0,980;   -0,318
426,654; 9006,820;   -0,435;   -0,318
427,244; 9147,454;    0,020;    1,409
427,833; 8587,157;    1,383;   -0,500
428,423; 9097,296;   -0,526;    1,136
429,012; 9842,207;   -0,344;   -1,136
429,601; 9312,378;   -1,344;    0,136
430,191; 9556,229;    1,292;    4,318
430,780; 9223,726;   -0,344;   -0,409
431,369; 9150,018;    0,746;   -0,045
431,959; 9758,612;   -1,254;    0,500
432,548; 9533,109;   -1,163;   -0,045
433,137; 9674,787;   -1,254;   -1,318
433,726;10235,755;    0,292;    0,500
434,315; 9572,755;   -0,526;    2,409
434,905; 9676,925;   -1,254;    1,409
435,494; 9571,796;    0,746;    0,955
436,083;10013,832;   -0,981;   -0,955
436,672; 9913,056;    0,110;    0,500
437,261; 9437,828;    0,292;   -1,955
437,850; 9590,307;    1,383;    0,682
438,439; 9581,404;    3,291;    1,955
439,027; 9464,250;    3,655;    1,773
439,616; 9782,623;    2,927;    1,227
440,205; 9641,799;    0,200;   -2,136
440,794; 9755,459;    2,109;   -0,045
441,383;10010,968;   -1,346;   -0,591
441,971; 9849,500;   -2,436;    0,591
442,560; 9727,524;    0,563;   -1,773
443,149; 9476,623;    0,379;   -1,318
443,737; 9616,091;   -0,074;   -2,318
444,326; 9909,352;    0,018;    0,318
444,915; 9967,003;   -1,982;    0,864
445,503;10360,510;   -2,891;   -0,318
446,092; 9604,447;    0,382;    2,136
446,680;10112,590;    0,382;    0,318
447,269;10299,953;   -0,346;   -0,318
447,857;10061,568;    0,018;   -1,773
448,445;10216,169;    0,563;    1,318
449,034;10410,180;   -1,528;   -1,136
449,622;10570,819;   -1,073;    3,500
450,210; 9771,696;    2,017;    2,227
450,799;10336,265;    0,290;   -0,591
451,387;10295,143;    1,381;   -0,591
451,975; 9932,014;    2,654;    0,864
452,563;10007,556;    3,472;    2,318
453,151;10085,293;   -0,528;   -1,227
453,739;10009,131;   -1,347;    0,136
454,328; 9845,600;    2,381;   -2,136
454,916; 9566,960;    2,562;   -0,136
455,504; 9723,121;    1,017;    1,227
456,092; 9899,471;    0,017;   -1,591
456,679; 9889,177;    1,472;    0,682
457,267; 9809,610;    4,017;    1,045
457,855; 9952,802;    1,017;    1,409
458,443; 9751,521;   -0,165;    1,682
459,031; 9889,742;    0,108;    2,409
459,619;10313,757;   -1,801;    2,864
460,206;10449,728;    0,835;    2,045
460,794;10540,445;   -2,983;   -0,227
461,382;10831,216;   -0,529;   -0,864
461,970;10414,699;    1,198;    1,864
462,557;10408,996;   -0,711;   -0,682
463,145;10613,290;   -3,165;   -1,682
463,732;10744,947;    2,016;   -1,045
464,320;10713,607;   -0,075;   -3,045
464,907;10391,999;    2,743;   -0,773
465,495;10185,679;    0,743;   -1,227
466,082;10393,901;   -1,984;   -0,045
466,670;10305,096;   -2,529;    1,227
467,257;10724,858;   -1,711;    2,045
467,844;10898,284;   -0,075;    0,045
468,432;10893,512;    0,834;    3,500
469,019;10369,668;    0,925;   -1,773
469,606;10871,490;    0,470;    3,682
470,193;10682,765;   -1,439;    0,227
470,780;10254,724;   -2,075;    0,864
471,368;10606,818;   -1,257;   -0,773
471,955;10401,969;    1,379;   -0,682
472,542;10029,636;    0,652;   -1,136
473,129;10251,049;   -0,166;    0,136
473,716; 9973,084;    1,470;    0,591
474,303;10190,364;    0,652;   -0,864
474,890;10523,649;   -1,439;   -0,500
475,477;10535,026;   -1,621;    0,409
476,064;10423,763;    1,106;   -1,591
476,650;10370,491;    0,288;    0,318
477,237;10233,309;   -0,258;    0,955
477,824;10366,725;   -1,076;    0,864
478,411;10389,530;   -1,894;   -0,318
478,997;10596,700;    0,560;   -0,773
479,584;10635,318;    1,196;   -0,409
480,171;11358,276;   -0,440;   -0,773
480,757;11030,129;    2,651;    0,773
481,344;11320,797;    0,469;    0,409
481,931;10852,319;    1,105;    1,045
482,517;11911,020;   -1,258;    0,318
483,104;12569,287;    1,106;    2,864
483,690;12866,024;   -1,804;    0,045
484,276;13156,677;   -0,895;    0,227
484,863;12890,814;    2,469;    1,136
485,449;13495,558;   -0,077;    0,318
486,035;13478,149;   -1,986;   -0,136
486,622;13910,803;   -0,895;    0,045
487,208;13851,366;    1,378;    1,500
487,794;13705,554;    0,741;    0,318
488,380;13818,673;    0,105;   -1,409
488,967;13881,899;   -1,168;   -0,409
489,553;13894,693;   -1,895;   -1,409
490,139;14107,486;    1,559;    0,773
490,725;13511,322;    0,741;   -0,227
491,311;13022,455;    3,287;    3,045
491,897;12358,556;   -0,986;    1,500
492,483;12162,161;    0,105;    1,227
493,069;11987,266;    3,923;    0,864
493,655;11982,363;    1,650;    0,682
494,241;11889,678;    1,377;   -0,955
494,826;12304,689;    0,287;   -1,045
495,412;11733,175;    2,559;   -0,682
495,998;11894,443;   -0,805;   -0,318
496,584;12026,793;    0,377;    1,045
497,169;12022,981;    1,014;   -0,682
497,755;11976,711;    0,650;    1,227
498,341;12574,796;    0,559;    0,318
498,926;12153,911;    1,832;    1,955
499,512;12368,671;    1,286;    2,955
500,097;12461,280;    0,195;   -0,318
500,683;12402,057;   -0,350;    2,136
501,268;12786,641;   -0,169;   -0,955
501,854;12452,924;   -0,169;    1,227
502,439;12402,930;   -0,624;   -1,773
503,024;12632,920;    0,195;    0,500
503,610;12677,123;   -0,078;   -0,682
504,195;12693,101;    0,558;    1,955
504,780;12833,291;    2,922;    1,227
505,366;12638,270;    3,013;    2,864
505,951;12351,803;    0,740;    1,045
506,536;12381,268;   -3,260;   -3,682
507,121;12363,440;    0,285;   -0,318
507,706;12888,359;    2,376;    1,045
508,291;13283,170;    2,649;    1,136
508,876;12723,756;   -0,988;    2,591
509,461;12195,047;   -0,169;   -0,773
510,046;12647,064;    0,194;    0,318
510,631;12884,187;   -0,351;   -0,773
511,216;12557,113;    2,467;   -0,500
511,801;12907,883;   -0,442;    2,591
512,386;13236,002;    0,740;    0,500
512,971;13143,644;   -2,988;    0,955
513,555;12699,274;   -0,897;   -1,500
514,140;13501,966;   -0,442;   -3,136
514,725;13529,955;   -0,715;   -1,136
515,309;13654,570;   -0,533;    0,318
515,894;13114,990;   -0,624;   -2,227
516,479;13544,388;   -0,624;   -0,955
517,063;13344,448;    0,376;    1,227
517,648;13496,007;    1,012;   -1,136
518,232;13187,299;   -0,261;   -1,409
518,817;13535,184;   -0,079;    1,682
519,401;13765,222;    2,194;    0,591
519,985;13241,831;    1,103;    1,136
520,570;13130,289;    0,830;   -1,955
521,154;13385,851;    2,102;    0,591
521,738;13571,130;   -2,352;    2,409
522,323;14130,921;   -0,170;    1,682
522,907;13888,997;    0,466;   -0,136
523,491;13606,826;    0,557;    0,955
524,075;13603,256;    2,284;    0,591
524,659;13686,501;    1,466;    0,591
525,243;13158,455;    1,739;    0,409
525,827;13395,773;    0,648;   -0,045
526,411;14215,228;   -1,989;   -0,136
526,995;14460,504;   -0,352;    1,409
527,579;14052,269;   -0,443;   -1,045
528,163;14369,719;    0,375;   -1,500
528,747;14298,338;    2,466;   -0,773
529,331;14586,171;   -0,080;   -1,409
529,915;14783,939;    1,738;    0,955
530,499;14734,544;   -0,807;    1,227
531,082;14467,353;   -0,534;    1,591
531,666;13917,023;    1,374;    0,773
532,250;14588,314;    1,284;    2,682
532,833;14916,974;    0,920;    2,773
533,417;14737,739;   -1,807;    0,864
534,001;14747,928;    1,647;   -0,318
534,584;15425,032;    0,374;    0,500
535,168;15298,298;    0,465;    1,409
535,751;15391,239;    0,647;    0,045
536,334;14772,271;   -0,898;   -0,409
536,918;15370,201;    0,011;    1,591
537,501;15481,340;   -0,899;    1,318
538,085;15476,183;   -0,444;    1,045
538,668;15660,067;    0,829;    2,409
539,251;15992,043;    1,829;    3,773
539,834;15936,483;    0,101;    0,773
540,418;15946,521;   -1,990;    4,318
541,001;16071,643;   -0,990;    1,773
541,584;16039,229;    2,101;    2,227
542,167;15746,021;    1,374;    2,955
542,750;15862,629;    1,919;   -0,773
543,333;15458,257;    0,555;    2,136
543,916;16290,940;    0,192;    2,500
544,499;16915,215;   -1,354;    0,227
545,082;16891,013;    1,374;    3,591
545,665;17026,016;    1,919;    1,500
546,248;17391,621;    1,010;   -0,318
546,830;17042,754;   -0,445;    1,955
547,413;17451,984;    1,010;   -0,773
547,996;17977,179;    0,555;    0,500
548,579;17758,752;    0,919;    0,955
549,161;17550,549;    1,828;    2,682
549,744;17287,577;   -0,809;    0,409
550,326;17788,129;   -0,809;   -1,136
550,909;17624,692;    2,737;    0,591
551,492;17968,472;   -0,263;    0,227
552,074;17780,296;   -0,173;   -1,318
552,657;18342,632;    2,373;    0,045
553,239;18086,740;   -0,173;   -0,773
553,821;17993,125;   -1,082;    1,045
554,404;17518,142;    1,282;    1,136
554,986;17922,457;    0,464;    1,045
555,568;18511,019;    1,191;   -0,955
556,151;17757,904;    1,191;   -0,227
556,733;17929,530;   -0,264;   -0,864
557,315;18385,277;    0,100;    0,500
557,897;18184,687;    0,554;   -0,500
558,479;18309,452;   -1,991;    1,318
559,061;18495,284;   -0,719;   -0,864
559,643;18813,567;   -0,264;    0,045
560,225;19141,998;    1,645;    2,864
560,807;19167,385;    0,918;    0,318
561,389;18672,375;    0,554;    2,318
561,971;19424,234;    0,463;    2,136
562,553;19227,864;   -1,628;    1,591
563,135;19391,067;   -0,537;    1,136
563,717;18964,759;    3,372;    1,136
564,298;19727,825;    3,645;   -0,045
564,880;19435,852;    0,645;   -1,409
565,462;19637,943;    0,645;    1,318
566,043;20826,860;   -0,446;    2,318
566,625;20334,856;    1,918;    1,227
567,207;20160,101;    1,099;    1,682
567,788;21331,300;   -1,264;    1,500
568,370;22169,991;    1,917;   -0,500
568,951;21976,747;    0,190;    0,227
569,533;22839,403;   -0,628;   -0,500
570,114;23283,377;   -0,446;    0,682
570,695;23817,967;   -0,174;   -1,318
571,277;24332,645;   -0,265;   -1,682
571,858;25075,914;    2,008;   -1,136
572,439;25978,292;    1,554;   -1,045
573,021;26195,507;    2,099;   -2,773
573,602;26634,462;   -1,265;    0,318
574,183;27586,021;   -2,083;    2,227
574,764;27687,434;   -1,629;    0,409
575,345;28257,290;    0,917;   -0,136
575,926;28853,840;   -0,356;    0,136
576,507;28872,822;    1,099;   -0,227
577,088;29939,518;    3,099;    1,682
577,669;29975,734;    0,735;    1,955
578,250;30769,294;    0,644;   -1,045
578,831;31464,108;   -1,356;   -2,227
579,412;31681,983;   -0,810;    0,955
579,993;32527,507;    1,008;    0,227
580,573;32850,997;   -0,629;   -0,955
581,154;31864,678;    0,735;   -0,591
581,735;32695,427;    0,644;    0,773
582,315;32238,063;   -0,629;    2,136
582,896;32475,343;   -0,174;    1,227
583,477;31873,699;    0,189;    1,227
584,057;32101,476;    0,553;    0,955
584,638;32441,053;    2,553;    2,318
585,218;32390,923;   -0,538;    2,682
585,799;32575,927;    0,281;   -0,227
586,379;32539,609;    0,372;    1,591
586,959;31243,993;    0,735;    0,318
587,540;30512,185;   -0,629;    2,227
588,120;30053,677;    1,007;   -0,045
588,700;29099,720;    2,553;    2,136
589,281;29460,297;    0,462;   -0,955
589,861;29431,440;    0,099;   -1,682
590,441;29190,122;    2,371;   -2,682
591,021;28153,867;   -0,265;   -2,591
591,601;28368,616;   -0,537;    0,500
592,181;28385,452;   -0,719;   -0,773
592,761;27689,653;    0,007;    1,409
593,341;27648,413;   -0,901;    0,045
593,921;27625,850;   -0,265;    1,591
594,501;27521,298;   -0,538;    1,318
595,081;27340,602;    0,917;   -0,318
595,661;27660,882;   -1,447;    0,955
596,240;28154,193;   -0,537;    0,136
596,820;27935,886;    0,372;    1,955
597,400;28091,266;    2,008;    0,773
597,980;28262,924;    2,008;    1,045
598,559;28254,438;    2,735;   -0,227
599,139;28027,549;   -0,174;   -1,227
599,718;27910,095;   -0,174;   -0,409
600,298;28131,378;    0,735;    0,682
600,877;28414,026;    2,917;    1,409
601,457;28664,719;    2,281;    1,136
602,036;28570,977;    0,190;    2,045
602,616;28759,921;    0,644;    1,682
603,195;29132,533;   -0,355;    3,500
603,774;28674,614;   -0,901;    2,045
604,354;28512,225;    0,826;   -0,500
604,933;28062,151;    0,463;    1,864
605,512;28151,841;    3,554;    0,591
606,091;28187,478;   -0,537;    3,773
606,671;29007,236;    0,281;    0,773
607,250;28139,607;    1,644;    3,136
607,829;28372,709;    2,372;    3,227
608,408;28209,166;    1,190;    2,591
608,987;27239,332;    1,281;    3,409
609,566;27584,885;   -1,265;   -2,500
610,145;27641,587;   -1,082;    0,682
610,723;28014,359;    4,372;    6,864
611,302;27311,937;   -0,446;    1,682
611,881;26837,874;    5,008;   11,227
612,460;27691,853;    1,645;    3,955
613,039;28064,088;   -0,082;    2,045
613,617;26829,481;    1,736;    4,773
614,196;26990,430;    1,099;    1,227
614,775;27295,504;    1,009;    2,409
615,353;27252,071;    0,736;    0,864
615,932;27020,231;    0,100;    2,409
616,510;27629,228;    0,554;    0,591
617,089;27084,665;    7,100;   17,591
617,667;26810,507;    2,372;    6,136
618,246;26710,225;   -1,537;    1,318
618,824;26907,207;   -3,355;   -0,955
619,402;26436,756;   -2,900;   -1,773
619,981;26933,711;   -0,173;   -1,045
620,559;26746,285;    0,009;    1,682
621,137;26302,092;   -0,718;    1,864
621,715;26365,501;   -1,173;   -0,682
622,293;26276,512;   -0,537;   -0,773
622,871;26739,277;   -0,718;    0,500
623,450;26310,380;    0,373;   -0,864
624,028;26138,404;    0,191;   -0,955
624,606;25817,215;   -1,718;    1,682
625,183;26216,135;   -1,536;   -1,136
625,761;25788,313;    1,009;    1,136
626,339;26127,019;    1,373;    2,591
626,917;26518,059;   -0,172;   -0,045
627,495;26502,919;   -0,354;    1,318
628,073;25960,171;   -0,263;    2,864
628,650;25681,586;    0,100;    2,136
629,228;26113,034;    0,373;    4,409
629,806;25539,593;    2,282;    1,136
630,383;25711,412;    1,464;   -0,318
630,961;25538,898;    2,555;   -0,955
631,539;25304,737;    2,464;    0,227
632,116;24700,261;   11,373;   15,409
632,694;25253,146;    2,555;    6,500
633,271;25558,158;    0,828;    2,682
633,848;25461,843;    1,828;    2,045
634,426;25510,819;   -1,081;    1,773
635,003;24593,481;    1,101;   -0,409
635,580;24968,740;    1,192;    3,682
636,158;25482,896;    3,737;    1,227
636,735;25475,826;    0,555;   -0,500
637,312;25586,101;   -0,809;   -0,682
637,889;25681,407;   -4,354;   -0,682
638,466;25155,628;   -3,990;   -0,409
639,043;25150,196;    2,101;   -1,136
639,620;25486,888;   -2,262;   -0,955
640,197;25831,830;    1,100;    1,682
640,774;25910,430;   -0,172;    1,136
641,351;26330,938;    0,737;    1,136
641,928;25750,537;   -0,627;    1,409
642,505;25456,228;    0,828;   -0,500
643,082;25519,736;   -1,718;    1,227
643,658;24583,608;   -0,718;    1,500
644,235;25306,662;    1,191;    2,500
644,812;25677,171;    1,918;    0,773
645,388;25410,224;   -0,991;    1,409
645,965;25486,006;   -0,809;    1,682
646,542;25567,241;   -1,445;   -0,227
647,118;25563,022;    1,009;   -0,955
647,695;25814,804;   -0,263;    1,136
648,271;25679,221;   -0,536;    0,500
648,848;26015,275;    0,736;    2,227
649,424;25899,965;    0,827;    1,318
650,000;25659,565;   -0,354;   -1,045
650,577;25468,709;   -0,627;   -0,955
651,153;25910,400;   -1,809;    0,955
651,729;26948,817;    1,191;    0,864
652,305;27425,235;    0,645;    2,773
652,881;32551,925;   -0,082;    1,136
653,458;39439,888;    1,100;    0,227
654,034;42747,578;    0,282;    1,591
654,610;44045,177;    0,554;    0,773
655,186;45326,231;    0,645;    3,045
655,762;44870,558;   -0,991;    0,409
656,338;44809,521;    0,100;    0,136
656,913;45776,211;   -0,082;    0,409
657,489;44955,083;    0,827;   -0,318
658,065;44952,137;   -0,173;   -1,591
658,641;45608,373;   -0,900;   -0,864
659,217;44844,154;   -0,991;    0,409
659,792;44211,935;    0,645;   -0,409
660,368;44398,989;   -2,173;   -0,682
660,944;43811,952;   -2,082;    1,227
661,519;38649,006;   -0,628;    0,409
662,095;32781,332;   -1,719;    0,591
662,670;28676,659;    1,281;   -0,136
663,246;27805,167;    1,009;   -0,409
663,821;27185,403;    0,281;    1,682
664,396;26682,457;    0,009;    1,864
664,972;26946,965;    0,009;   -0,500
665,547;27287,201;    1,372;    0,136
666,122;27286,619;   -1,082;    0,318
666,698;27584,400;   -0,173;    0,318
667,273;26904,181;   -0,173;    0,136
667,848;27724,053;    2,372;    1,500
668,423;27538,198;    2,190;    2,318
668,998;28103,342;    2,827;   -0,682
669,573;28669,305;   -3,264;   -1,500
670,148;28473,996;   -1,446;   -0,682
670,723;28248,050;   -1,810;    0,318
671,298;28668,376;    2,372;    1,045
671,873;28779,157;   -0,082;   -0,136
672,448;28736,575;    0,645;    0,136
673,023;29074,538;   -1,992;   -0,227
673,597;29440,410;    0,827;    2,318
674,172;29183,736;   -0,355;    0,318
674,747;28635,336;    0,372;   -1,045
675,321;28425,390;   -0,628;    3,318
675,896;28033,262;    0,645;    1,045
676,471;29029,497;    2,645;    1,591
677,045;28806,915;   -1,264;    0,682
677,620;28868,787;    0,190;    1,136
678,194;29156,932;   -2,628;    1,136
678,769;28754,168;   -1,083;   -0,318
679,343;29043,858;   -0,628;    1,773
679,917;28941,184;   -1,446;    1,955
680,492;28985,693;    0,826;    3,227
681,066;29118,110;    3,372;    0,409
681,640;29190,710;    1,463;   -0,318
682,214;30008,218;    0,735;    0,500
682,788;29487,999;   -1,356;   -0,773
683,363;29499,599;   -1,810;    1,682
683,937;29122,743;   -1,719;   -0,318
684,511;29908,161;    0,463;   -0,591
685,085;29603,124;   -1,356;    0,318
685,659;29344,723;   -2,538;    0,864
686,232;29707,413;   -0,356;   -0,318
686,806;29404,558;   -0,901;    0,409
687,380;29994,794;   -0,174;    0,591
687,954;30171,393;   -1,174;    1,136
688,528;29914,174;   -0,719;    1,955
689,101;30691,865;   -3,992;    1,045
689,675;30290,464;   -0,356;   -0,136
690,249;29650,154;   -0,719;    0,409
690,822;29966,663;    0,280;    0,318
691,396;30049,989;   -0,265;    1,227
691,969;29461,225;    1,280;    0,136
692,543;29951,915;   -0,447;   -1,955
693,116;29572,605;   -0,265;   -1,409
693,690;29460,114;    0,099;    0,500
694,263;30073,168;   -1,083;    2,955
694,836;30119,131;    1,371;    3,591
695,410;28742,185;   -0,265;    1,773
695,983;29189,602;    0,189;    0,591
696,556;29100,747;   -0,447;   -1,045
697,129;29520,528;   -0,356;    1,409
697,703;29178,400;   -1,629;    1,955
698,276;29133,545;    1,462;   -0,773
698,849;28988,144;    1,280;    1,409
699,422;29311,107;   -1,083;    0,591
699,995;29046,525;    0,007;    0,136
700,568;29519,033;   -0,629;    3,045
701,140;29527,451;   -2,811;    1,682
701,713;29293,504;   -0,174;    2,409
702,286;29032,467;   -0,538;    0,864
702,859;28928,158;   -0,902;   -0,591
703,432;28074,121;    0,825;    0,682
704,004;28558,447;    0,462;    0,318
704,577;28452,592;   -0,629;    0,136
705,150;29068,010;    0,189;    2,500
705,722;28783,518;   -0,356;   -3,227
706,295;28577,481;   -0,175;   -0,591
706,867;28481,080;   -0,175;    1,955
707,440;28687,589;   -1,720;   -0,409
708,012;28923,733;    0,462;    0,591
708,584;28844,787;    2,462;    0,227
709,157;29113,750;    1,825;   -0,591
709,729;28687,622;    2,280;    2,045
710,301;29580,585;    0,734;    0,045
710,874;29568,548;   -1,447;   -0,227
711,446;28429,148;    0,371;    0,864
712,018;28361,747;    0,098;    0,500
712,590;28106,801;   -1,993;    1,682
713,162;28645,764;    0,825;    1,318
713,734;28865,909;    1,825;   -2,045
714,306;28777,144;   -1,902;   -0,409
714,878;27472,107;    0,825;    0,864
715,450;28291,434;    0,643;    0,864
716,022;28548,670;    1,552;    1,318
716,593;28625,451;    0,189;    0,591
717,165;28641,050;   -3,175;   -1,227
717,737;28351,195;    0,280;    0,409
718,309;28014,976;    0,280;   -0,045
718,880;28025,484;   -0,539;   -1,409
719,452;28165,447;   -0,175;   -1,591
720,024;27744,501;    0,734;   -0,591
720,595;28335,192;   -2,902;    0,955
721,167;27905,700;    0,370;   -2,045
721,738;27396,117;   -0,812;   -1,045
722,309;27398,990;   -0,993;   -1,227
722,881;27168,771;   -1,357;    0,773
723,452;27798,188;   -2,630;    2,864
724,023;27957,333;   -0,721;    2,682
724,595;27779,387;    0,007;    0,682
725,166;27480,077;    0,007;   -0,409
725,737;27153,404;    1,734;    0,227
726,308;27207,276;   -0,266;    0,318
726,879;27693,148;   -1,630;    1,227
727,450;27493,747;    0,552;   -0,045
728,021;27479,801;    3,097;    0,682
728,592;27298,037;    0,734;    0,500
729,163;27579,727;    0,643;   -0,136
729,734;27694,144;    0,188;   -0,227
730,305;28046,017;    1,734;    0,136
730,876;28372,343;    0,188;    2,955
731,447;28088,215;    2,188;    2,682
732,017;28172,724;    1,097;    1,864
732,588;27657,505;    0,734;    1,227
733,159;27895,195;    0,643;   -1,045
733,729;27679,158;    0,006;    0,409
734,300;26970,394;    0,915;    0,864
734,870;27363,629;    3,461;    0,591
735,441;27933,229;    0,370;   -0,591
736,011;27671,192;    0,643;   -1,591
736,582;27581,427;   -0,812;    0,045
737,152;27093,936;   -1,721;   -2,045
737,722;27501,808;   -0,267;   -0,682
738,293;27244,407;   -1,358;    1,318
738,863;27093,643;    2,461;    2,318
739,433;26889,333;    5,279;    0,318
740,003;27562,478;   -0,994;   -0,682
740,573;26942,895;    2,097;   -1,591
741,143;26867,222;   -1,085;    0,318
741,713;27667,094;    1,188;   -0,500
742,283;27399,784;    0,915;    1,591
742,853;27160,747;    1,915;    1,591
743,423;26564,438;    1,733;    0,045
743,993;26720,673;   -0,358;    1,500
744,563;26150,454;    0,097;   -0,864
745,133;26068,963;   -0,812;   -0,864
745,702;26750,017;   -0,267;    1,773
746,272;25939,162;   -0,176;    0,591
746,842;25706,306;   -1,358;   -0,591
747,411;26147,087;   -0,267;   -0,318
747,981;26307,232;    0,097;    0,500
748,551;26365,468;    2,278;   -1,045
749,120;26235,885;    0,642;   -0,227
749,690;26635,303;   -0,631;    2,409
750,259;26944,448;    1,369;    2,955
750,828;26845,138;    1,551;   -1,955
751,398;27138,646;    1,278;   -0,045
751,967;26689,973;    2,187;    0,409
752,536;26884,209;   -0,813;   -0,227
753,105;27263,081;    0,096;    0,227
753,675;27071,044;    0,096;    1,773
754,244;27017,189;   -0,904;    3,591
754,813;27061,606;    0,551;    1,227
755,382;26621,478;    0,460;    0,955
755,951;27195,532;    1,551;    3,682
756,520;26726,949;   -0,085;    1,864
757,089;27327,003;    0,278;    0,500
757,658;27475,694;    1,733;    1,227
758,227;27405,020;    1,096;    0,318
758,795;27748,801;    1,187;    1,136
759,364;27949,673;   -0,086;   -0,591
759,933;26952,727;   -1,176;   -0,045
760,501;26436,236;    0,733;   -1,318
761,070;26872,017;   -2,813;   -1,409
761,639;27638,980;   -1,904;    1,318
762,207;27017,397;    1,551;   -0,955
762,776;26961,906;    0,369;    0,864
763,344;26905,960;   -0,995;    0,591
763,913;25988,923;   -0,722;    1,409
764,481;26723,613;    1,005;   -0,136
765,049;26504,485;   -1,358;    1,409
765,618;26346,721;   -0,086;    0,318
766,186;26403,047;    0,278;    0,136
766,754;26642,919;    0,005;    1,864
767,322;25658,519;   -1,995;    0,409
767,890;25690,300;   -0,722;   -1,773
768,459;26119,626;   -2,177;   -0,318
769,027;26259,771;    1,641;    3,409
769,595;25186,098;    3,278;    2,591
770,163;25658,333;    3,823;    2,955
770,730;25439,206;    0,732;   -0,136
771,298;25243,714;    0,187;   -1,409
771,866;25286,313;   -1,541;    4,955
772,434;25655,367;   -0,631;   -1,864
773,002;25822,057;    0,005;    0,682
773,569;25472,839;    0,914;    1,682
774,137;25289,165;   -0,268;   -0,045
774,705;26092,037;    0,278;   -0,136
775,272;25592,637;    0,641;    0,682
775,840;25344,236;   -0,177;    2,682
776,407;24930,926;    0,277;    1,955
776,975;24490,707;   -0,632;    0,318
777,542;25459,761;   -1,086;   -0,045
778,110;25302,361;   -1,268;   -0,045
778,677;24964,323;   -2,359;   -0,864
779,244;24746,286;    2,186;    1,045
779,812;24898,886;    1,823;    0,864
780,379;24748,485;    0,005;    1,136
780,946;24973,903;    1,005;   -0,773
781,513;25286,684;   -1,450;    0,318
782,080;24635,192;   -0,086;    2,864
782,647;25423,610;   -0,268;    3,045
783,214;24997,300;   -0,177;    3,864
783,781;24640,990;   -0,723;   -0,682
784,348;24476,044;   -0,632;    1,500
784,915;24985,825;   -3,177;    0,318
785,482;24752,243;    1,368;    2,591
786,049;25147,024;    0,186;   -0,591
786,615;25277,260;    0,277;   -0,955
787,182;25011,677;    0,186;   -0,682
787,749;24664,367;   -2,814;    1,409
788,315;23998,512;   -1,632;   -0,409
788,882;24313,475;    1,550;   -1,227
789,448;25024,984;    1,732;   -0,955
790,015;25013,219;    1,095;    3,227
790,581;24576,637;    1,459;    0,227
791,148;24463,872;    0,641;    1,045
791,714;24629,472;   -0,541;    3,136
792,280;24325,253;    0,186;    1,591
792,847;23849,943;    0,550;    2,500
793,413;24435,724;   -0,269;   -0,318
793,979;23985,869;    3,459;   -1,318
794,545;24149,105;    4,459;    2,682
795,111;23556,431;    2,186;    1,318
795,678;23729,849;    0,731;   -1,682
796,244;23361,176;    3,368;    0,136
796,810;23903,411;    1,731;    0,773
797,375;23600,011;    0,549;   -2,136
797,941;23643,064;   -0,541;    0,591
798,507;23784,118;   -0,451;   -0,955
799,073;23296,990;   -0,360;    0,591
799,639;23333,772;   -2,632;    3,136
800,205;23392,644;    0,095;    2,682
800,770;22928,334;    0,640;    1,773
801,336;23070,842;    1,368;   -0,955
801,901;22774,351;    4,549;    3,136
802,467;23281,041;   -0,542;    2,045
803,033;22596,277;   -0,087;    0,864
803,598;22810,512;    1,913;   -1,045
804,163;22833,021;    1,095;   -0,318
804,729;22867,620;   -0,178;    1,136
805,294;23272,583;    0,822;    2,227
805,859;23003,637;    0,731;   -0,409
806,425;22523,600;    1,186;    2,682
806,990;22205,926;    2,186;    4,318
807,555;22651,344;   -1,451;    2,591
808,120;22584,216;    0,822;   -0,409
808,685;22621,634;    0,185;   -2,500
809,250;22116,960;    0,004;   -0,500
809,815;22405,287;    1,913;    0,682
810,380;22990,704;   -0,269;    1,591
810,945;23555,758;   -1,087;    2,045
811,510;22611,630;    2,094;    1,591
812,075;22321,593;   -0,633;   -1,409
812,640;22391,465;    2,003;    1,409
813,204;22457,337;    0,822;   -0,227
813,769;22930,300;    2,094;   -0,045
814,334;22364,536;    0,458;    0,864
814,898;22423,226;    0,367;    0,591
815,463;22275,007;    1,276;   -0,773
816,027;22302,425;   -0,724;   -2,318
816,592;22299,933;    0,640;   -2,045
817,156;21879,896;    2,094;    1,136
817,721;21785,496;    4,276;    2,318
818,285;21693,368;    2,912;    1,500
818,849;22309,785;   -1,451;    1,682
819,414;22198,112;   -0,269;    2,955
819,978;21760,438;   -1,269;    1,773
820,542;22369,129;    2,003;    0,500
821,106;22066,728;   -0,815;    0,682
821,670;22192,600;   -0,815;    2,591
822,234;21908,836;   -0,270;    1,409
822,798;21303,708;    0,003;    0,500
823,362;21268,125;   -0,633;    4,227
823,926;20562,906;    0,094;    1,136
824,490;20843,597;   -0,997;   -0,682
825,054;21249,832;   -0,088;   -1,136
825,618;20910,977;   -1,542;   -1,500
826,181;20836,304;    0,458;   -1,318
826,745;20778,358;    1,367;   -1,045
827,309;21096,957;    1,185;    1,318
827,872;20476,647;    1,367;    0,955
828,436;21447,519;    1,185;   -0,773
828,999;21490,755;   -0,997;    1,227
829,563;20284,536;   -0,179;    1,136
830,126;20099,135;   -0,179;   -0,591
830,690;20115,462;   -1,997;    2,864
831,253;19655,061;   -0,543;    2,227
831,816;19763,206;   -1,906;    0,500
832,380;19738,715;    0,185;    0,864
832,943;19996,859;   -1,361;   -0,500
833,506;19430,095;    2,639;   -1,227
834,069;20227,967;    3,912;   -0,955
834,632;20246,021;    1,730;    1,318
835,195;20182,620;    1,003;    0,955
835,758;19366,492;   -0,997;    1,955
836,321;19199,001;    0,730;   -1,045
836,884;19328,327;   -0,725;   -0,955
837,447;19328,836;   -2,816;    1,773
838,010;19605,890;    0,366;    3,227
838,573;19883,216;   -1,179;    0,773
839,135;19878,634;   -1,361;   -0,955
839,698;19343,233;    1,275;    0,409
840,261;18869,378;    1,003;   -0,227
840,823;18707,523;   -0,543;    0,864
841,386;18982,668;   -0,452;   -2,409
841,948;18876,176;   -1,361;    1,773
842,511;18611,048;    0,912;    1,682
843,073;18749,556;    1,912;    0,227
843,636;18519,519;   -0,361;   -0,227
844,198;18484,755;    0,911;    0,591
844,760;18616,991;    1,093;    1,955
845,322;18260,136;    0,548;    1,136
845,885;18658,008;    0,730;    0,591
846,447;19115,334;   -1,998;    0,227
847,009;18710,661;    1,911;   -0,682
847,571;19021,260;    0,820;   -2,045
848,133;19131,314;   -1,089;   -1,864
848,695;18899,550;   -0,543;    1,409
849,257;18505,967;   -1,089;   -1,682
849,819;18688,203;   -0,998;   -0,409
850,381;18755,984;   -0,725;   -0,864
850,942;19101,129;    1,093;   -0,591
851,504;19097,001;    1,184;    0,227
852,066;19103,328;    1,275;   -1,591
852,628;18578,654;   -0,180;    1,955
853,189;18094,526;    1,638;    2,682
853,751;18208,398;   -0,907;    1,409
854,312;18057,452;   -0,453;   -1,682
854,874;18596,052;   -2,089;   -0,773
855,435;19105,924;   -0,907;   -1,682
855,997;19280,523;   -1,816;   -0,136
856,558;18565,759;    0,366;    1,773
857,119;18627,903;    0,820;    2,864
857,681;18337,957;    0,002;    0,318
858,242;18391,738;    1,911;   -2,136
858,803;18816,701;    0,456;   -0,773
859,364;19381,210;    0,184;   -4,773
859,925;18695,627;   -2,453;   -0,955
860,486;18568,227;   -0,453;   -0,955
861,047;18277,462;   -0,544;   -1,227
861,608;18125,607;   -1,089;   -0,773
862,169;18213,297;    0,638;   -0,045
862,730;17986,170;    0,456;    1,409
863,291;18259,587;   -0,635;   -0,500
863,852;18653,732;   -0,635;    1,955
864,412;18117,604;   -0,271;   -0,864
864,973;16684,840;   -0,089;    0,500
865,534;16512,257;   -1,726;    0,227
866,094;18045,675;    1,820;    0,227
866,655;17767,183;    1,274;    3,318
867,215;18002,601;    0,274;    0,136
867,776;17781,200;    0,547;   -0,136
868,336;17911,799;   -1,453;    0,136
868,897;17475,217;    2,638;    1,682
869,457;17188,998;    1,365;    0,318
870,017;17374,324;    0,547;   -1,227
870,578;17885,833;   -0,817;    0,773
871,138;17588,978;   -2,089;   -0,955
871,698;17120,032;   -0,817;   -1,318
872,258;17011,995;   -0,453;   -2,864
872,818;17433,230;    2,729;    0,045
873,378;17387,011;    0,638;    1,045
873,938;16881,338;    0,547;    0,500
874,498;17208,210;    0,274;   -1,955
875,058;17134,628;    2,183;    1,773
875,618;16952,772;    1,910;   -2,682
876,177;16907,826;    1,274;    0,136
876,737;16529,516;   -0,090;    1,955
877,297;16612,479;    0,183;    1,955
877,856;16616,897;   -0,362;    0,318
878,416;16498,405;    1,183;   -0,136
878,976;16737,187;   -1,817;    0,409
879,535;16896,968;    0,092;    3,136
880,095;16611,294;   -0,544;    0,045
880,654;16732,257;   -1,090;    1,318
881,213;16899,947;    2,456;    1,500
881,773;16538,183;    2,637;    2,682
882,332;16887,055;    3,365;    5,136
882,891;16719,655;    3,092;    2,136
883,451;17173,254;   -1,272;    1,682
884,010;16614,217;   -2,908;   -0,409
884,569;16713,271;   -0,999;   -0,045
885,128;16862,506;    2,819;   -1,864
885,687;16928,469;    4,455;    0,682
886,246;16624,523;    1,455;    2,136
886,805;16391,668;    2,455;    2,045
887,364;16677,267;   -0,999;   -0,500
887,922;17038,867;   -1,181;    0,045
888,481;16552,921;   -1,545;    0,591
889,040;16820,884;    1,183;    2,136
889,599;17500,483;    2,455;    1,409
890,157;17568,537;    1,455;    2,409
890,716;17183,591;   -0,090;    0,227
891,274;17043,099;    0,092;   -1,136
891,833;17490,789;    1,546;    0,864
892,391;17354,116;   -0,454;    0,500
892,950;17454,352;    1,819;   -0,773
893,508;17807,406;    0,455;   -0,409
894,067;17150,550;    0,637;    0,136
894,625;17034,695;   -0,636;   -1,500
895,183;17259,294;   -0,363;   -0,682
895,741;17135,894;    1,728;   -1,773
896,299;16967,948;   -0,545;   -2,409
896,858;17168,911;    0,819;   -1,591
897,416;17319,510;    2,728;   -1,318
897,974;17039,200;    1,819;    0,318
898,532;17209,163;    6,091;    2,682
899,089;17121,308;    2,091;   -0,682
899,647;17144,180;   -1,454;    1,318
900,205;16892,688;    1,182;    1,045
900,763;17076,470;   -0,454;    0,227
901,321;17112,251;    2,364;   -1,409
901,878;16518,123;   -1,000;   -0,773
902,436;16357,358;   -1,363;    1,318
902,994;16755,231;    4,728;    3,682
903,551;16219,557;    0,728;    0,409
904,109;16628,338;    0,182;   -1,409
904,666;16155,210;    2,455;    1,045
905,224;15958,628;    0,182;   -0,409
905,781;15752,045;    0,727;   -0,318
906,338;15821,099;   -1,363;    1,045
906,895;15742,062;    0,637;    2,045
907,453;15676,025;    1,727;    1,136
908,010;15730,715;   -0,909;    0,409
908,567;15384,678;    1,273;    0,591
909,124;14842,278;    0,364;   -1,500
909,681;14918,604;   -2,909;    0,682
910,238;15106,931;    0,636;   -1,318
910,795;15394,985;   -0,273;   -1,136
911,352;15028,985;   -2,909;   -2,682
911,909;14440,348;   -1,364;   -0,864
912,466;14966,439;   -3,182;    1,500
913,022;14519,621;   -1,636;    0,500
913,579;14880,803;   -0,909;    2,045
914,136;14557,167;    1,636;    0,955
914,692;14891,076;    0,091;   -1,227
915,249;14490,439;    1,455;    0,409
915,806;14714,439;    0,182;    1,955
916,362;14496,348;    1,909;    1,864
916,918;14044,076;    2,000;    1,045
917,475;14006,076;   -1,182;    0,955
918,031;14055,530;    3,364;   -0,045
918,587;13514,076;   -0,909;   -0,318
919,144;13741,076;   -2,273;    0,227
919,700;14051,167;    1,727;    0,773
920,256;13620,894;    0,727;    0,045
920,812;13221,076;   -0,727;   -1,045
921,368;13261,803;   -1,727;   -1,045
921,924;12895,439;    0,182;   -0,136
922,480;12469,985;   -0,545;    1,227
923,036;13108,348;    1,273;    1,955
923,592;13001,712;    0,455;    0,318
924,148;12954,621;    0,455;   -0,955
924,704;12237,803;   -1,364;   -0,409
925,259;12491,712;   -0,273;    0,591
925,815;12263,621;    1,455;    0,500
926,371;11784,348;    2,909;    1,409
926,926;11697,348;    2,091;    0,591
927,482;11338,985;   -1,364;    0,773
928,037;11204,803;    0,909;    2,045
928,593;11495,712;    1,636;    1,045
929,148;11331,712;   -1,818;   -1,500
929,704;10832,985;   -1,455;   -0,500
930,259;11033,167;    0,091;   -0,136
930,814;10129,076;   -0,818;    1,955
931,369; 9798,985;    1,091;   -0,773
931,925; 9694,439;   -0,091;    0,136
932,480; 9575,712;   -2,818;   -2,591
933,035; 9448,621;    0,545;   -0,318
933,590; 9260,803;    0,364;   -1,773
934,145; 8888,348;   -1,364;   -0,318
934,700; 9196,439;    0,455;   -0,591
935,255; 9009,348;   -0,091;    0,045
935,809; 8314,712;    3,182;    0,864
936,364; 7449,530;   -0,455;   -0,136
936,919; 7412,076;    0,455;   -1,773
937,474; 7281,258;    1,455;    0,136
938,028; 7043,258;   -1,636;    1,136
938,583; 6543,258;    1,818;    4,682
939,138; 6788,167;    2,091;    2,136
939,692; 6216,894;    1,636;   -1,136
940,247; 5950,621;   -0,727;   -1,045
940,801; 5507,621;   -0,636;    0,227
941,355; 5388,167;   -0,364;    2,591
941,910; 5035,712;   -0,273;   -2,136
942,464; 5149,258;   -0,818;   -0,318
943,018; 4939,167;    1,000;   -0,227
943,572; 4896,803;    2,545;   -0,682
944,126; 4333,076;    0,091;   -0,409
944,681; 4228,621;    3,091;    0,227
945,235; 4226,076;    1,000;   -0,591
945,789; 4141,985;    0,364;   -1,864
946,342; 4246,621;    0,455;   -0,591
946,896; 4047,621;   -2,273;    0,955
947,450; 3815,258;    1,545;   -0,227
948,004; 4012,258;    1,727;   -0,045
948,558; 4012,348;    0,273;   -0,864
949,111; 3964,621;   -0,273;   -0,318
949,665; 3976,076;    1,636;   -0,682
950,219; 3853,530;   -0,091;   -1,045
950,772; 3936,258;   -1,909;    1,864
951,326; 3810,076;    0,545;   -0,955
951,879; 3918,439;    0,727;   -2,318
952,433; 3961,803;    0,000;    2,227
952,986; 3799,985;    2,909;    0,682
953,539; 3754,894;   -0,273;    0,591
954,093; 3674,530;    0,545;   -1,318
954,646; 3822,712;    0,909;    1,318
955,199; 3645,348;    0,000;   -0,500
955,752; 3513,076;   -0,455;    1,773
956,305; 3471,803;   -0,091;    2,955
956,858; 3657,712;    0,818;   -0,318
957,411; 3829,712;   -0,545;    2,136
957,964; 3646,258;    1,364;    2,136
958,517; 3636,348;   -1,545;    3,136
959,070; 3452,621;   -0,455;    1,955
959,623; 3539,621;    1,091;    1,500
960,176; 3301,076;    1,727;    2,045
960,728; 3295,258;   -2,727;    0,773
961,281; 3359,985;    0,545;    0,500
961,834; 3387,348;   -0,909;    0,864
962,386; 3308,167;    1,727;    1,045
962,939; 3230,258;    0,364;   -0,318
963,491; 3384,803;    0,455;    1,136
964,043; 3239,803;    1,182;    2,409
964,596; 3365,167;   -1,000;    2,227
965,148; 3218,712;   -1,000;    1,773
965,700; 3124,076;    1,091;   -0,227
966,253; 3267,439;   -0,636;    0,318
966,805; 3116,894;   -2,273;    0,773
967,357; 3170,985;    1,091;   -1,500
967,909; 3141,985;    0,455;   -1,227
968,461; 3233,712;    0,545;    3,136
969,013; 3165,894;   -0,182;   -0,864
969,565; 3237,985;   -0,455;   -1,136
970,117; 3323,894;   -0,364;    1,045
970,669; 3136,258;    0,182;   -0,136
971,220; 2993,621;   -0,455;   -1,500
971,772; 2918,258;   -0,636;   -0,318
972,324; 3049,167;    0,091;   -0,500
972,876; 2982,894;    0,818;   -0,045
973,427; 3159,076;    1,909;   -1,045
973,979; 3101,439;   -0,727;   -2,500
974,530; 3118,621;    1,818;    1,318
975,082; 3134,803;   -0,545;    1,682
975,633; 3031,985;    1,091;    1,682
976,184; 3176,712;    0,909;    0,773
976,736; 2975,712;    0,091;    0,227
977,287; 2785,076;   -0,909;   -0,500
977,838; 2955,894;    0,909;   -0,318
978,389; 3026,258;   -1,000;   -0,500
978,940; 2889,167;    0,545;   -0,409
979,491; 2901,167;    0,091;   -0,500
980,042; 2874,985;    0,182;    3,045
980,593; 2916,258;   -2,545;    0,227
981,144; 2964,985;    2,545;   -0,500
981,695; 2938,258;    1,455;    1,500
982,246; 2907,985;   -0,273;    1,045
982,797; 3049,167;   -1,727;    0,682
983,347; 3149,258;    0,364;    0,591
983,898; 3360,258;    3,091;    0,409
984,449; 3156,621;    2,182;    0,773
984,999; 3054,530;    1,455;   -1,136
985,550; 2830,167;    0,182;   -0,318
986,100; 2863,076;   -0,455;   -0,318
986,651; 2904,985;   -0,818;    0,045
987,201; 2892,894;   -1,000;   -0,591
987,751; 2968,712;    0,818;    2,864
988,302; 2956,621;    2,636;    1,500
988,852; 2976,712;    0,455;   -1,136
989,402; 3008,985;    0,091;    0,682
989,952; 2930,712;   -2,182;    0,864
990,502; 3022,530;   -0,091;    0,682
991,052; 2988,712;   -0,727;    0,045
991,602; 2849,803;   -2,909;    1,318
992,152; 2863,712;    0,455;    0,682
992,702; 2841,348;    1,364;   -0,045
993,252; 2759,530;   -3,000;   -0,500
993,802; 2862,621;   -0,273;    1,318
994,352; 3071,803;   -1,545;    1,136
994,901; 3159,348;   -0,182;    3,227
995,451; 3083,621;   -0,182;    0,318
996,000; 3179,894;    1,636;    0,318
996,550; 2887,348;    2,273;    0,227
997,100; 2869,439;    1,273;   -0,045
997,649; 3158,803;    2,182;    0,955
998,198; 2790,803;    1,727;   -1,500
998,748; 3003,348;    1,091;   -2,318
999,297; 2911,348;   -0,818;   -0,409
999,846; 2971,894;    1,000;   -0,773
1000,395; 3014,894;   -0,818;    0,500
1000,945; 2969,712;    1,818;   -0,773
1001,494; 3078,803;    2,364;    0,682
1002,043; 3040,712;    4,636;    0,864
1002,592; 2891,985;   -1,091;    1,955
1003,141; 3040,348;   -0,455;   -0,682
1003,690; 2886,348;    1,727;    0,500
1004,238; 2968,348;    1,455;   -0,045
1004,787; 2621,985;    1,364;    1,227
1005,336; 2865,348;    0,364;    0,682
1005,885; 3003,258;    1,364;   -2,773
1006,433; 3135,167;    0,545;    0,955
1006,982; 3195,985;    0,455;    1,682
1007,531; 3089,258;   -1,818;   -0,227
1008,079; 3040,621;   -2,273;    0,500
1008,627; 3172,530;   -1,455;    0,409
1009,176; 2917,803;    0,000;   -1,955
1009,724; 2961,803;    1,091;    0,864
1010,273; 3023,167;    1,273;    0,500
1010,821; 3128,167;    0,091;    1,409
1011,369; 2853,530;   -1,364;    1,318
1011,917; 2840,530;   -1,364;   -0,591
1012,465; 3111,530;    1,273;   -1,591
1013,013; 3222,530;    2,091;   -1,682
1013,561; 3109,712;    0,455;   -0,773
1014,109; 3171,076;   -1,909;    1,682
1014,657; 3050,621;    0,364;    0,591
1015,205; 3149,348;    1,636;   -0,955
1015,753; 3175,621;   -0,545;   -1,409
1016,301; 3220,258;   -2,636;    3,045
1016,848; 3229,621;   -1,273;    0,409
1017,396; 3277,621;    2,545;    0,045
1017,944; 3401,076;    1,182;    1,864
1018,491; 3179,076;    0,273;    1,409
1019,039; 3322,803;    0,455;    0,591
1019,586; 3210,167;   -1,364;    1,682
1020,134; 3319,348;    0,455;    1,500
1020,681; 3351,076;    0,182;   -1,136
1021,228; 3334,439;    2,909;   -2,227
1021,776; 3172,439;    1,182;   -1,136
1022,323; 3421,621;    0,455;    0,773
1022,870; 3320,167;   -1,000;   -0,045
1023,417; 3209,258;    2,636;    1,864
1023,964; 3354,076;    2,636;    1,227
1024,511; 3207,712;    1,000;    0,773
1025,058; 3008,167;    3,182;   -0,045
1025,605; 3062,621;   -2,273;    3,136
1026,152; 3296,348;    1,727;   -0,591
1026,699; 3015,258;    1,818;    1,318
1027,245; 3164,985;   -0,091;    0,318
1027,792; 3359,439;   -1,000;    1,409
1028,339; 3249,348;    2,364;   -0,045
1028,885; 3099,530;    1,000;   -0,227
1029,432; 3047,076;   -0,091;    0,227
1029,978; 3127,530;   -1,000;   -1,591
1030,525; 3025,167;    1,000;    0,409
1031,071; 3242,621;   -1,364;    1,136
1031,618; 3364,076;    0,364;    1,682
1032,164; 3128,894;   -0,091;    3,045
1032,710; 3199,530;    1,636;   -1,500
1033,256; 3103,712;   -0,636;   -0,136
1033,803; 3075,712;   -0,545;    1,500
1034,349; 2789,712;   -1,364;    0,136
1034,895; 2933,439;    0,000;   -0,318
1035,441; 2936,258;   -0,818;    0,318
1035,987; 2943,167;   -2,364;   -0,682
1036,533; 2938,621;   -1,455;   -0,955
1037,078; 3147,803;    1,455;    1,682
1037,624; 2954,076;    2,455;   -0,955
1038,170; 2996,985;    0,455;   -0,318
1038,716; 2894,530;    1,636;   -0,409
1039,261; 2817,348;   -2,273;   -0,773
1039,807; 2752,258;   -0,091;    3,409
1040,352; 2830,348;   -1,909;   -0,318
1040,898; 2864,803;   -1,545;   -0,682
1041,443; 2754,167;   -1,455;   -2,591
1041,989; 2798,894;    1,091;    1,591
1042,534; 2662,530;   -0,364;    2,591
1043,079; 2757,621;    2,909;    0,955
1043,625; 2574,712;    1,818;    0,500
1044,170; 2626,621;   -1,364;    1,045
1044,715; 2886,348;    2,455;    0,955
1045,260; 2715,712;    2,182;   -0,955
1045,805; 2733,258;    1,182;   -0,591
1046,350; 2658,348;    1,364;   -0,409
1046,895; 2623,439;    2,909;    1,591
1047,440; 2581,803;    5,364;    0,409
1047,985; 2485,621;    2,818;   -0,955
1048,530; 2401,894;    1,545;    1,227
1049,074; 2473,894;    0,000;    0,318
1049,619; 2445,985;   -1,364;    1,955
1050,164; 2258,167;    0,455;    0,227
1050,708; 2305,985;   -0,455;    0,045
1051,253; 2682,439;    1,273;   -2,227
1051,797; 2377,894;    0,818;   -1,318
1052,342; 2373,076;   -1,182;    1,045
1052,886; 2372,439;    0,364;   -1,409
1053,430; 2244,985;   -1,364;    0,136
1053,975; 2263,712;   -0,818;   -0,318
1054,519; 2255,985;   -0,727;    3,227
1055,063; 2271,712;    0,909;    1,318
1055,607; 2155,621;   -0,182;    0,227
1056,151; 2178,439;    2,909;    1,682
1056,695; 2074,439;    2,273;   -1,136
1057,239; 2143,167;   -1,727;   -0,682
1057,783; 2175,439;    0,818;   -1,500
1058,327; 2120,258;    0,000;    1,409
1058,871; 2348,894;   -0,545;    1,318
1059,415; 2058,258;   -0,818;   -0,045
1059,958; 2335,894;    1,455;    2,591
1060,502; 2039,894;   -1,000;   -0,773
1061,046; 1935,439;    0,364;   -0,955
1061,589; 1912,894;   -3,000;   -1,136
1062,133; 1800,348;   -1,273;    1,864
1062,676; 1758,348;    1,182;    0,864
1063,220; 1745,712;    1,091;    0,500
1063,763; 1771,894;    0,909;    1,136
1064,306; 1862,348;   -0,909;    1,864
1064,849; 1756,621;   -0,909;    0,591
1065,393; 1756,894;    2,000;   -1,500
1065,936; 1861,348;    0,182;   -0,409
1066,479; 1736,076;   -1,455;    1,318
1067,022; 1757,985;   -0,273;   -0,227
1067,565; 1654,439;   -0,091;   -1,318
1068,108; 1690,530;    0,727;   -0,591
1068,651; 1658,076;   -0,636;    1,409
1069,194; 1589,985;   -0,455;   -1,682
1069,736; 1598,348;   -1,273;    0,955
1070,279; 1580,348;   -1,364;   -0,500
1070,822; 1643,712;   -2,000;   -0,318
1071,364; 1729,167;   -0,364;    1,318
1071,907; 1548,076;   -0,727;    3,227
1072,450; 1429,348;    0,000;   -0,045
1072,992; 1423,985;   -0,273;    3,136
1073,535; 1585,985;    2,091;    2,136
1074,077; 1366,803;   -0,727;    2,045
1074,619; 1344,439;   -1,364;    0,591
1075,161; 1380,712;   -1,091;    1,500
1075,704; 1560,258;    1,545;    1,227
1076,246; 1350,167;   -0,182;    0,682
1076,788; 1283,439;   -0,364;    1,773
1077,330; 1346,258;    1,273;    2,136
1077,872; 1314,530;    0,909;    0,955
1078,414; 1547,803;    2,727;    0,773
1078,956; 1280,167;    1,273;   -0,227
1079,498; 1552,894;    1,636;    0,318
1080,040; 1262,803;    1,909;   -1,318
1080,581; 1197,076;    1,636;   -0,318
1081,123; 1111,076;    0,091;   -0,773
1081,665; 1158,530;   -1,182;   -0,955
1082,206; 1473,803;    1,364;   -0,500
1082,748; 1326,258;    0,727;    2,045
1083,289; 1187,712;   -2,000;    1,318
1083,831; 1102,621;   -0,545;    0,227
1084,372; 1136,348;    0,000;    0,591
1084,913; 1150,530;    1,091;    0,864
1085,455; 1116,167;   -1,909;   -2,045
1085,996; 1091,712;   -2,273;    0,136
1086,537; 1122,076;   -0,091;    0,864
1087,078; 1143,803;   -0,909;   -2,136
1087,619; 1178,712;   -1,273;    0,227
1088,160; 1097,803;    0,000;    1,318
1088,701; 1087,348;   -1,091;    0,682
1089,242; 1017,712;    1,364;   -2,227
1089,783; 1120,894;   -0,273;    1,409
1090,324; 1093,348;    0,455;    0,682
1090,865;  966,803;    2,727;   -0,409
1091,405;  925,167;    0,727;    2,227
1091,946;  955,258;    0,182;   -0,955
1092,487;  875,348;    0,818;   -1,409
1093,027; 1058,439;   -1,364;   -1,500
1093,568;  903,621;   -0,364;    1,227
1094,108; 1022,894;    0,273;    1,773
1094,649;  952,076;   -1,182;    0,136
1095,189;  878,803;   -0,636;   -0,682
1095,729;  840,530;   -0,091;    0,955
1096,269;  829,439;    0,727;   -0,955
1096,810; 1160,894;   -1,364;    0,500
1097,350;  986,439;    1,364;   -0,773
1097,890;  882,621;    0,364;    1,227
1098,430; 1151,258;    2,364;    2,864
1098,970; 1014,712;    2,182;    1,682
1099,510;  867,530;    0,545;   -2,318
1100,050;  803,621;    1,000;   -1,591
1100,589;  778,167;   -0,727;   -0,318
1101,129;  889,803;    0,818;   -0,955
1101,669; 1059,076;    1,727;    2,136
1102,209;  870,894;   -0,091;    2,227
1102,748;  834,803;    0,000;    0,955
1103,288;  815,258;    1,273;   -1,227
1103,827;  845,530;    3,091;   -2,227
1104,367;  718,803;   -0,091;   -2,409
1104,906;  686,076;    1,364;   -1,136
1105,445;  754,348;    0,636;   -1,136
1105,985;  707,894;   -0,727;    1,500
1106,524;  750,803;   -1,727;   -0,682
1107,063;  727,621;   -2,727;    1,409
1107,602;  701,894;   -1,909;   -1,500
1108,141;  629,530;   -1,909;    1,500
1108,680;  736,621;   -3,455;   -0,591
1109,219;  662,803;   -0,909;   -0,500
1109,758;  658,621;    0,455;    0,682
1110,297;  634,167;    1,000;   -0,682
1110,836;  571,258;   -0,727;    0,955
1111,375;  752,076;   -2,545;    0,409
1111,913;  764,621;   -1,000;    0,773
1112,452;  694,439;   -0,273;    0,136
1112,991;  580,621;    1,091;    1,955
1113,529;  541,439;   -0,818;   -0,045
1114,068;  604,712;   -0,273;    2,955
1114,606;  499,258;   -0,364;   -0,955
1115,144;  676,348;   -1,273;    1,045
1115,683;  616,985;   -0,727;    0,318
1116,221;  657,258;   -0,455;   -0,864
1116,759;  562,803;    0,636;   -0,864
1117,297;  758,439;    0,000;    1,864
1117,836;  564,985;   -2,182;   -1,227
1118,374;  570,076;    0,182;   -0,682
1118,912;  518,530;    0,909;    2,682
1119,450;  507,894;    1,000;    0,864
1119,988;  562,258;    1,545;    2,136
1120,525; 1015,712;    5,091;    3,318
1121,063;  713,985;    1,182;    1,864
1121,601;  528,439;   -0,909;   -1,227
1122,139;  482,439;   -0,727;   -2,045
1122,676;  680,439;   -0,727;    2,773
1123,214;  619,439;   -1,182;    4,409
1123,751;  426,621;    1,727;    2,227
1124,289;  557,803;   -0,091;   -0,409
1124,826;  419,621;    1,727;    0,227
1125,364;  340,258;    1,727;   -0,955
1125,901;  537,258;    1,182;    1,227
1126,438;  653,076;    0,818;    0,955
1126,975;  372,076;   -0,727;   -0,773
1127,513;  441,348;    0,273;    2,136
1128,050;  350,894;    1,636;   -0,682
1128,587;  461,621;    2,000;   -0,227
1129,124;  499,712;    0,091;    1,318
1129,661;  359,439;    0,273;    0,227
1130,198;  533,258;    1,636;    0,773
1130,734;  471,530;    0,182;    1,409
1131,271;  337,167;   -0,909;    0,864
1131,808;  512,894;    2,909;    3,045
1132,345;  364,258;    1,545;    0,318
1132,881;  234,258;   -1,545;   -1,864
1133,418;  385,348;    0,727;   -1,136
1133,954;  324,076;    2,455;   -2,682
1134,491;  404,985;    1,364;   -0,773
1135,027;  293,803;    2,364;    0,864
1135,564;  386,894;    0,273;    2,955
1136,100;  379,530;    0,364;    2,136
1136,636;  260,348;   -1,273;   -1,045
1137,172;  361,348;    0,000;   -1,045
1137,708;  277,985;   -1,364;   -1,045
1138,245;  287,439;    1,273;   -1,227
1138,781;  222,348;    1,091;   -3,318
1139,317;  305,621;    1,273;   -1,409
1139,852;  292,530;    3,091;    0,136
1140,388;  411,712;   -1,182;   -0,409
1140,924;  294,621;   -1,091;   -2,227
1141,460;  230,348;   -1,636;    0,136
1141,996;  156,076;   -1,364;    2,682
1142,531;  205,167;    1,364;    3,318
1143,067;  429,621;    1,182;    1,045
1143,602;  499,621;   -0,091;   -0,318
1144,138;  334,530;   -2,636;    1,045
1144,673;  190,712;   -1,455;    1,409
1145,209;  259,258;   -1,909;   -0,318
1145,744;  176,167;   -0,727;    0,864
1146,279;  331,348;    1,818;   -0,136
1146,815;  238,258;    1,545;   -2,682
1147,350;  278,439;   -1,364;    0,045
1147,885;  186,167;   -0,818;   -1,318
1148,420;  188,530;   -2,273;    0,773
1148,955;  164,167;   -1,727;    1,864
1149,490;  185,712;   -0,909;   -1,591
1150,025;  173,894;    0,455;   -1,773
1150,560;  287,439;    1,091;   -0,955
1151,094;  252,076;    1,455;   -0,591
1151,629;  268,712;    1,636;    0,864
1152,164;  194,985;    1,364;    1,318
1152,698;  141,803;   -0,182;   -0,136
1153,233;  104,439;    0,091;   -0,682
1153,767;  158,167;   -3,000;   -2,318
1154,302;  203,985;   -1,455;    1,773
1154,836;  202,894;   -0,455;   -2,136
1155,371;  258,803;   -1,364;    3,682
1155,905;  207,076;   -0,636;    1,682
1156,439;  178,258;   -0,636;   -0,500
1156,973;  213,076;    0,364;    0,318
1157,507;  135,803;   -0,364;    0,682
1158,042;  169,894;   -0,727;    1,045
1158,576;  225,985;    0,182;    1,773
1159,110;  213,530;   -0,818;    2,409
1159,643;  180,348;    0,636;   -0,045
1160,177;  119,348;   -1,545;    1,500

