
Integration time [ms]:   0,040
Averaging Nr. [scans]: 11
Smoothing Nr. [pixels]: 0
Data measured with spectrometer [name]: 7318044SP
Wave   ;Sample   ;Dark     ;Reference
[nm]   ;[counts] ;[counts] ;[counts] 

186,757;   26,884;   31,551;    1,318
187,357;   67,821;   22,551;    0,955
187,958;   43,167;   15,460;   -1,591
188,558;   88,422;    8,915;   -1,227
189,159;   50,468;    6,733;   -4,500
189,759;   20,342;    7,278;   -3,591
190,360;   28,070;    2,824;   -2,136
190,960;   70,459;    2,915;   -4,136
191,560;   76,331;    3,189;   -6,591
192,161;  351,380;    4,372;   -3,500
192,761;  170,621;    4,010;   -3,227
193,361;  115,586;    1,556;   -3,773
193,962;  179,546;    2,010;   -2,682
194,562;   93,377;    1,189;   -3,955
195,162;  134,638;   -2,448;   -2,227
195,762;  306,874;   -3,176;   -0,045
196,362;  249,189;    1,370;   -2,500
196,963;   96,916;    2,006;   -0,864
197,563;  185,244;    1,551;   -0,955
198,163;  124,397;    0,096;   -0,682
198,763;  146,188;    1,733;   -0,500
199,363;  261,076;    3,096;   -0,500
199,963;  220,369;    0,369;    0,409
200,563;  185,536;    2,823;   -1,409
201,163;  163,533;    3,277;   -0,227
201,763;  261,152;    3,732;    0,318
202,363;  197,606;    1,459;    1,500
202,963;  319,088;    1,459;    1,045
203,563;  432,354;    0,277;    0,500
204,162;  272,641;    2,096;   -1,864
204,762;  251,972;    0,550;    0,591
205,362;  219,245;    3,004;    1,955
205,962;  324,347;    3,096;    1,955
206,562;  325,155;    1,823;    2,318
207,161;  290,797;   -0,087;    0,318
207,761;  457,459;    1,277;    2,409
208,361;  326,648;   -0,268;    1,409
208,960;  432,382;    0,459;    1,500
209,560;  506,255;    1,277;    1,591
210,160;  482,480;    0,550;    1,864
210,759;  447,567;    4,186;    1,227
211,359;  467,944;    1,459;    1,045
211,958;  740,399;    1,277;    2,045
212,558;  824,287;    1,732;    1,864
213,157;  647,151;    1,822;    1,500
213,757; 1121,783;    3,822;   -0,227
214,356;  802,304;    1,277;   -0,409
214,956; 1151,172;    3,095;    0,409
215,555;  770,891;    2,095;    2,136
216,154;  699,559;   -2,723;   -0,591
216,754;  703,280;    0,277;    0,773
217,353;  859,175;   -0,268;   -1,045
217,952;  700,024;   -0,178;    0,318
218,552;  952,118;    1,368;   -0,773
219,151;  837,283;    0,277;    0,955
219,750;  851,866;    0,004;   -0,227
220,349;  990,013;   -0,451;    1,045
220,948; 1043,517;   -1,360;    1,136
221,548; 1078,279;    0,913;    1,227
222,147; 1204,839;   -0,087;   -0,409
222,746; 1495,961;   -0,451;   -0,955
223,345; 1369,524;    0,731;    0,500
223,944; 1382,881;   -0,451;    0,773
224,543; 1581,017;    1,004;   -1,409
225,142; 1702,380;    0,094;    0,136
225,741; 1595,510;   -0,814;    1,045
226,340; 1619,559;   -0,451;   -0,955
226,939; 2100,559;   -0,996;   -0,136
227,538; 2076,076;   -0,360;   -0,773
228,137; 2241,500;   -0,814;    0,864
228,735; 2426,678;   -0,541;    1,227
229,334; 2161,398;   -0,905;   -0,227
229,933; 2523,105;    0,459;    0,591
230,532; 2645,245;    1,186;   -0,409
231,131; 2700,339;    1,732;    0,318
231,729; 2894,996;   -2,450;   -2,318
232,328; 3038,500;   -0,723;   -1,500
232,927; 3119,651;    1,004;   -0,500
233,525; 3257,737;    3,640;    0,045
234,124; 3471,395;    2,368;   -1,591
234,723; 3495,787;    0,913;   -1,045
235,321; 3675,629;    2,277;    0,136
235,920; 3936,182;    1,186;   -1,227
236,518; 4179,206;    3,459;    0,318
237,117; 4394,342;    0,004;   -0,227
237,715; 4572,370;    0,640;   -0,500
238,314; 4610,892;   -0,087;   -2,318
238,912; 4711,287;   -0,723;   -1,409
239,510; 4767,636;    0,459;   -1,227
240,109; 4950,654;    0,004;    3,773
240,707; 4996,458;   -0,996;    1,227
241,305; 5397,332;    0,550;    0,136
241,904; 5651,787;   -0,178;   -2,045
242,502; 5575,979;   -0,632;   -0,227
243,100; 5523,000;   -0,087;   -0,955
243,698; 5763,483;    0,732;    1,682
244,297; 5971,311;   -0,632;    0,682
244,895; 5782,440;   -0,269;   -2,318
245,493; 6139,353;    2,186;   -0,591
246,091; 6184,307;    1,368;   -1,318
246,689; 6179,577;    1,004;    0,591
247,287; 6339,178;    0,822;   -1,136
247,885; 6640,702;   -1,451;    1,227
248,483; 6748,143;    1,822;   -0,500
249,081; 6867,919;    0,185;    1,591
249,679; 7029,209;   -0,178;    1,682
250,277; 7280,860;   -1,723;    0,864
250,875; 7273,185;   -1,087;   -1,045
251,473; 7332,377;   -1,178;    0,500
252,071; 7522,688;    1,459;    1,045
252,669; 7672,608;   -1,814;    0,318
253,267; 7933,272;   -0,087;    0,773
253,864; 7922,542;   -0,360;    0,682
254,462; 7745,146;    1,640;    1,591
255,060; 7712,674;   -0,269;    1,318
255,658; 8095,517;    0,822;   -0,136
256,255; 8521,265;    0,186;   -2,045
256,853; 8371,702;   -0,269;    1,409
257,451; 8364,618;    0,822;    1,864
258,048; 8630,874;    1,822;    1,864
258,646; 8368,052;    1,731;   -1,045
259,243; 8594,520;   -0,087;    2,227
259,841; 8649,398;   -0,814;    0,318
260,438; 8519,856;   -0,087;    0,864
261,036; 9256,982;   -1,905;    1,409
261,633; 9155,524;   -0,087;    2,227
262,231; 8879,993;    2,731;   -0,045
262,828; 8920,413;   -0,905;    1,136
263,425; 9012,230;    0,913;   -0,591
264,023; 9293,129;    0,186;    0,045
264,620; 8820,408;   -0,360;   -0,318
265,217; 9222,884;   -2,087;    3,136
265,815; 9311,457;   -1,905;    2,136
266,412; 9064,346;    0,731;    0,136
267,009; 9118,251;   -1,451;    0,773
267,606; 8992,325;    0,822;   -0,955
268,203; 8958,028;   -0,269;   -0,591
268,801; 9256,454;    1,731;    0,591
269,398; 9581,653;   -0,360;    2,500
269,995; 9557,413;    0,277;    1,591
270,592; 9319,430;   -0,632;   -0,500
271,189; 9541,866;    0,186;    0,409
271,786; 9654,174;   -0,632;    1,227
272,383; 9493,717;   -1,087;    0,227
272,980; 9672,863;    0,277;    0,318
273,577;10173,206;    0,004;    1,227
274,174; 9749,706;    0,822;    2,591
274,771; 9747,062;   -0,814;   -0,773
275,367; 9882,294;    2,277;    1,409
275,964; 9817,944;    0,731;   -0,500
276,561; 9883,164;    1,549;   -1,045
277,158;10156,845;    0,095;   -1,773
277,755;10267,737;    2,185;    0,409
278,351; 9655,685;   -0,451;   -1,500
278,948; 9973,247;   -0,815;    0,045
279,545; 9976,873;   -1,360;    2,318
280,141;10665,605;   -1,723;   -2,045
280,738;10544,965;   -0,451;   -0,136
281,334;10792,835;   -1,633;    0,591
281,931;10136,464;   -0,087;   -1,318
282,528;10220,114;    0,822;   -0,500
283,124;10962,419;   -1,087;   -0,500
283,721;10868,904;   -0,451;    1,409
284,317;10678,803;    0,185;    2,500
284,913;11234,062;   -1,360;    0,591
285,510;11422,062;    0,640;   -0,318
286,106;11439,440;   -2,269;   -0,955
286,703;11038,569;   -0,360;    1,955
287,299;11227,034;   -1,451;   -0,591
287,895;11399,713;    0,822;   -1,045
288,491;12008,199;    0,186;    2,136
289,088;11763,926;   -2,360;    2,409
289,684;11845,062;   -1,723;    1,500
290,280;11857,049;    0,368;    0,682
290,876;11958,374;    1,822;    5,500
291,472;11819,240;    1,276;    2,227
292,068;11930,174;    1,367;    0,227
292,665;11585,671;    2,095;    0,773
293,261;11176,873;    0,276;    2,136
293,857;11603,587;    2,913;    2,136
294,453;11541,919;    3,550;    0,955
295,049;11417,882;   -0,268;    1,955
295,644;11459,675;    0,095;    0,136
296,240;11340,130;   -0,905;   -0,136
296,836;11377,872;   -0,995;    0,318
297,432;11655,568;    1,096;   -0,500
298,028;11703,721;    0,732;    0,773
298,624;12133,700;    1,459;    1,864
299,220;12387,728;    2,368;    0,591
299,815;11999,469;    1,005;   -0,409
300,411;11785,155;    0,914;    1,773
301,007;11819,347;    1,368;    0,227
301,602;11862,029;   -0,541;   -2,318
302,198;12055,949;    0,732;   -0,773
302,794;12386,141;    1,187;   -0,500
303,389;12501,333;   -1,177;    1,045
303,985;12577,403;    0,550;    1,409
304,580;12537,319;    1,459;    1,591
305,176;12522,487;   -3,086;    0,136
305,771;12457,640;   -1,268;   -1,227
306,367;12282,361;    4,095;    0,136
306,962;12638,392;    0,641;    1,500
307,558;12362,693;   -0,450;    0,136
308,153;12268,945;    1,095;   -1,136
308,748;12518,711;   -0,814;    1,682
309,344;12495,301;   -0,632;   -1,318
309,939;12581,029;   -1,905;   -1,318
310,534;12829,710;   -0,086;   -1,682
311,130;12776,868;    0,459;   -2,500
311,725;12546,259;    1,004;   -0,500
312,320;12878,641;    2,459;    0,045
312,915;12680,805;    1,459;   -1,045
313,510;12787,658;    1,550;   -0,500
314,105;13284,361;    1,096;    1,409
314,700;12656,844;   -3,086;   -1,045
315,295;12262,683;   -0,904;    0,045
315,890;11854,113;    1,277;    0,864
316,485;12238,448;   -0,359;   -0,318
317,080;12314,218;   -3,086;    1,591
317,675;12915,099;    2,005;   -0,682
318,270;12337,239;    5,550;    3,318
318,865;12325,054;    3,278;    3,045
319,460;12149,452;   -0,904;    0,591
320,055;12342,900;   -0,541;   -1,227
320,650;12027,306;   -1,995;   -0,591
321,244;12071,827;   -0,177;   -1,409
321,839;13020,581;   -1,541;   -0,227
322,434;12938,732;   -1,086;   -1,591
323,029;12551,106;    1,732;    1,591
323,623;12355,802;    1,550;    0,773
324,218;12136,809;    2,368;    1,409
324,812;12023,053;    1,096;    1,591
325,407;11799,725;   -0,814;    2,045
326,002;11709,791;    0,277;   -0,409
326,596;12035,106;    0,914;    1,318
327,191;12205,774;    0,823;   -1,045
327,785;11779,561;   -0,813;   -0,227
328,379;12014,623;    1,368;    0,136
328,974;11825,473;    0,914;   -3,955
329,568;11989,179;    0,186;   -2,409
330,163;11829,054;    2,096;    1,045
330,757;12212,245;    2,459;    1,591
331,351;11511,875;    0,459;    0,682
331,945;11784,228;    0,914;    1,409
332,540;11420,242;   -1,723;   -0,591
333,134;11560,221;   -1,086;    0,773
333,728;11816,756;    0,005;    0,318
334,322;12135,921;   -1,177;   -0,864
334,916;11394,955;    0,277;    0,955
335,510;11746,990;   -0,450;   -0,136
336,105;11981,955;   -1,086;    1,591
336,699;11694,798;   -1,086;    0,591
337,293;11624,826;   -1,723;    0,318
337,887;11782,218;   -2,723;    1,955
338,481;11864,543;    0,459;    0,591
339,074;12030,770;   -0,359;    2,682
339,668;11883,993;   -1,632;    1,227
340,262;12143,892;    1,732;    3,227
340,856;11610,413;    1,822;   -0,682
341,450;10927,322;    1,004;    1,864
342,044;11838,553;    1,459;    0,136
342,637;11625,018;    0,913;   -2,136
343,231;11538,136;   -2,360;    0,682
343,825;11476,613;   -1,086;   -0,591
344,419;11414,158;   -1,995;    0,500
345,012;11197,522;    2,459;    4,045
345,606;11192,288;    4,641;    1,591
346,199;11049,365;   -1,813;   -0,227
346,793;10575,771;    1,914;    2,045
347,386;10738,746;   -0,813;   -1,136
347,980;10774,851;   -0,268;   -0,045
348,573;10559,128;    2,278;    0,409
349,167;10216,125;    5,278;    4,773
349,760;10558,163;    2,914;    2,682
350,354;10516,122;   -0,813;    1,136
350,947;10269,045;    1,096;    1,682
351,540; 9931,433;   -0,358;   -1,409
352,134; 9872,195;    1,096;    1,136
352,727; 9952,561;   -0,086;    1,136
353,320; 9758,425;    0,005;    0,591
353,913; 9578,932;   -1,995;    1,864
354,507; 9775,222;    0,823;   -1,227
355,100; 9765,201;    0,460;    0,864
355,693; 9015,709;    2,005;    2,409
356,286; 9053,373;    0,823;    2,773
356,879; 9407,806;   -0,722;    1,227
357,472; 9011,303;   -0,904;    1,500
358,065; 9243,397;   -0,722;    2,500
358,658; 9143,257;   -0,540;    2,318
359,251; 8795,264;   -1,631;   -0,591
359,844; 8258,296;   -1,904;   -1,136
360,437; 8454,540;   -2,995;    0,045
361,030; 8732,869;    1,369;   -0,682
361,623; 8308,080;    2,824;    0,318
362,215; 8363,873;   -0,086;    2,045
362,808; 8168,167;   -2,358;   -1,682
363,401; 8377,566;   -2,449;    0,136
363,994; 8115,594;   -0,631;   -1,500
364,586; 7998,524;    0,824;   -1,500
365,179; 8221,039;   -0,449;   -1,136
365,772; 7719,153;   -1,995;    2,045
366,364; 8032,468;    1,915;   -3,227
366,957; 8230,036;    2,279;   -0,045
367,549; 8267,480;    2,188;   -0,864
368,142; 7899,120;    1,825;   -1,500
368,734; 8129,432;    0,734;   -2,136
369,327; 8080,821;    1,643;   -0,500
369,919; 7970,129;   -1,538;    0,409
370,512; 7752,902;   -1,083;   -0,500
371,104; 7551,935;   -0,901;    1,591
371,696; 7714,884;    1,191;   -0,955
372,289; 7813,997;    0,373;    1,136
372,881; 7947,482;   -2,080;    1,318
373,473; 7862,158;   -2,170;    1,136
374,066; 7657,825;   -0,169;    0,500
374,658; 7496,395;    0,378;    1,136
375,250; 7875,003;    0,653;   -1,409
375,842; 7701,965;    0,473;   -0,045
376,434; 7604,895;   -0,435;   -0,409
377,026; 8166,606;    0,204;   -2,500
377,618; 8053,750;   -0,158;   -0,682
378,210; 7884,540;   -0,338;   -1,955
378,802; 7769,682;    0,754;   -0,591
379,394; 7741,894;    1,846;    0,682
379,986; 8318,976;    1,393;   -0,955
380,578; 8420,029;   -0,153;    0,773
381,170; 7747,398;   -0,972;    0,045
381,762; 7736,847;    0,755;    1,409
382,354; 7899,117;   -0,065;   -1,318
382,945; 8022,520;   -2,976;    0,318
383,537; 8196,960;   -2,705;   -1,955
384,129; 8170,161;   -2,160;   -1,136
384,721; 8387,600;   -0,252;    0,955
385,312; 8302,858;   -0,161;   -0,955
385,904; 8388,541;   -2,706;    1,591
386,496; 7741,786;   -0,979;    1,045
387,087; 7888,301;    1,022;    2,500
387,679; 7936,927;   -1,160;    0,045
388,270; 8082,484;    2,840;    2,045
388,862; 8192,662;    1,295;   -0,318
389,453; 8098,718;   -0,887;    1,045
390,045; 8389,777;   -0,705;   -2,682
390,636; 8285,834;    0,204;   -0,591
391,227; 8133,952;   -0,523;   -0,045
391,819; 8259,466;    0,204;    0,773
392,410; 8334,063;    1,022;    0,045
393,001; 8251,705;   -0,979;   -1,591
393,593; 8555,062;    1,930;   -0,045
394,184; 8411,531;    1,385;   -0,409
394,775; 8351,929;    1,839;    2,136
395,366; 8532,863;    1,385;    0,773
395,957; 8532,192;    0,113;    0,136
396,548; 8843,919;   -0,342;    2,682
397,139; 9168,780;   -2,433;    0,591
397,730; 8903,098;   -1,888;    0,955
398,321; 8937,272;   -1,252;    0,955
398,912; 8967,695;   -0,615;    0,136
399,503; 9039,992;   -3,524;   -1,409
400,094; 8471,897;    0,294;    1,682
400,685; 8360,653;   -0,433;    0,045
401,276; 8432,080;    0,930;   -0,955
401,867; 8727,146;   -0,888;    0,773
402,458; 8809,041;   -2,251;   -2,318
403,048; 8806,352;    1,112;    0,591
403,639; 8446,881;    0,840;    0,864
404,230; 8670,845;    2,476;    0,318
404,821; 8585,174;   -0,615;    0,045
405,411; 8697,904;    1,203;   -2,591
406,002; 8286,481;   -1,252;   -1,136
406,592; 8160,932;    2,294;    0,045
407,183; 8455,715;    0,566;   -1,500
407,774; 8386,184;    3,475;   -0,136
408,364; 8719,575;    0,930;    0,409
408,954; 8315,128;    0,384;    1,227
409,545; 8337,481;    1,021;    1,045
410,135; 7903,033;    1,293;    0,500
410,726; 8091,147;    1,838;    0,318
411,316; 8484,536;    0,111;    0,773
411,906; 8126,099;   -0,253;   -0,409
412,497; 7620,183;   -1,070;   -0,045
413,087; 8223,526;   -1,980;   -0,227
413,677; 8630,270;   -0,707;    3,864
414,267; 8468,952;    0,656;    1,409
414,857; 8470,609;   -2,980;    4,227
415,448; 8769,302;    0,839;    0,500
416,038; 8464,714;    0,020;   -0,591
416,628; 8429,259;   -0,889;    0,409
417,218; 7891,004;    0,565;    3,318
417,808; 8162,661;    0,202;   -0,409
418,398; 8653,151;    0,020;    2,682
418,988; 8648,318;    2,020;    0,591
419,578; 8902,350;   -0,707;    1,409
420,168; 9249,378;   -1,343;   -0,955
420,757; 8849,788;   -1,343;   -1,500
421,347; 8487,304;    0,111;   -0,227
421,937; 8665,780;    2,292;    1,409
422,527; 8625,007;    0,838;   -0,773
423,116; 8446,997;   -0,253;   -0,045
423,706; 8764,829;   -1,889;    0,318
424,296; 8738,276;    1,384;    0,682
424,885; 9151,731;   -0,071;   -3,045
425,475; 9475,419;    1,474;   -2,864
426,065; 9375,444;   -0,980;   -0,318
426,654; 9012,377;   -0,435;   -0,318
427,244; 9121,556;    0,020;    1,409
427,833; 8583,622;    1,383;   -0,500
428,423; 9075,034;   -0,526;    1,136
429,012; 9818,128;   -0,344;   -1,136
429,601; 9313,481;   -1,344;    0,136
430,191; 9530,695;    1,292;    4,318
430,780; 9200,192;   -0,344;   -0,409
431,369; 9127,757;    0,746;   -0,045
431,959; 9779,806;   -1,254;    0,500
432,548; 9545,121;   -1,163;   -0,045
433,137; 9676,526;   -1,254;   -1,318
433,726;10237,131;    0,292;    0,500
434,315; 9526,040;   -0,526;    2,409
434,905; 9615,756;   -1,254;    1,409
435,494; 9507,718;    0,746;    0,955
436,083; 9984,845;   -0,981;   -0,955
436,672; 9882,977;    0,110;    0,500
437,261; 9453,386;    0,292;   -1,955
437,850; 9568,229;    1,383;    0,682
438,439; 9584,872;    3,291;    1,955
439,027; 9457,627;    3,655;    1,773
439,616; 9769,001;    2,927;    1,227
440,205; 9609,448;    0,200;   -2,136
440,794; 9729,018;    2,109;   -0,045
441,383;10008,528;   -1,346;   -0,591
441,971; 9820,696;   -2,436;    0,591
442,560; 9679,175;    0,563;   -1,773
443,149; 9450,915;    0,379;   -1,318
443,737; 9587,925;   -0,074;   -2,318
444,326; 9879,640;    0,018;    0,318
444,915; 9905,744;   -1,982;    0,864
445,503;10319,979;   -2,891;   -0,318
446,092; 9546,916;    0,382;    2,136
446,680;10133,059;    0,382;    0,318
447,269;10295,422;   -0,346;   -0,318
447,857;10052,219;    0,018;   -1,773
448,445;10164,275;    0,563;    1,318
449,034;10393,013;   -1,528;   -1,136
449,622;10535,562;   -1,073;    3,500
450,210; 9723,803;    2,017;    2,227
450,799;10269,281;    0,290;   -0,591
451,387;10241,068;    1,381;   -0,591
451,975; 9906,393;    2,654;    0,864
452,563; 9969,663;    3,472;    2,318
453,151; 9989,400;   -0,528;   -1,227
453,739; 9943,330;   -1,347;    0,136
454,328; 9798,344;    2,381;   -2,136
454,916; 9501,522;    2,562;   -0,136
455,504; 9684,228;    1,017;    1,227
456,092; 9839,306;    0,017;   -1,591
456,679; 9853,194;    1,472;    0,682
457,267; 9816,536;    4,017;    1,045
457,855; 9949,455;    1,017;    1,409
458,443; 9677,175;   -0,165;    1,682
459,031; 9835,759;    0,108;    2,409
459,619;10330,864;   -1,801;    2,864
460,206;10434,109;    0,835;    2,045
460,794;10521,098;   -2,983;   -0,227
461,382;10762,143;   -0,529;   -0,864
461,970;10342,171;    1,198;    1,864
462,557;10363,650;   -0,711;   -0,682
463,145;10558,944;   -3,165;   -1,682
463,732;10702,874;    2,016;   -1,045
464,320;10664,443;   -0,075;   -3,045
464,907;10337,290;    2,743;   -0,773
465,495;10211,698;    0,743;   -1,227
466,082;10374,192;   -1,984;   -0,045
466,670;10272,478;   -2,529;    1,227
467,257;10644,695;   -1,711;    2,045
467,844;10828,030;   -0,075;    0,045
468,432;10838,167;    0,834;    3,500
469,019;10316,233;    0,925;   -1,773
469,606;10829,691;    0,470;    3,682
470,193;10643,149;   -1,439;    0,227
470,780;10217,380;   -2,075;    0,864
471,368;10544,383;   -1,257;   -0,773
471,955;10346,806;    1,379;   -0,682
472,542; 9992,110;    0,652;   -1,136
473,129;10226,523;   -0,166;    0,136
473,716; 9926,103;    1,470;    0,591
474,303;10164,019;    0,652;   -0,864
474,890;10477,396;   -1,439;   -0,500
475,477;10509,319;   -1,621;    0,409
476,064;10413,238;    1,106;   -1,591
476,650;10328,784;    0,288;    0,318
477,237;10144,511;   -0,258;    0,955
477,824;10296,200;   -1,076;    0,864
478,411;10329,732;   -1,894;   -0,318
478,997;10559,630;    0,560;   -0,773
479,584;10608,885;    1,196;   -0,409
480,171;11295,570;   -0,440;   -0,773
480,757;10978,332;    2,651;    0,773
481,344;11274,182;    0,469;    0,409
481,931;10803,069;    1,105;    1,045
482,517;11878,769;   -1,258;    0,318
483,104;12501,944;    1,106;    2,864
483,690;12768,955;   -1,804;    0,045
484,276;13087,154;   -0,895;    0,227
484,863;12802,563;    2,469;    1,136
485,449;13378,398;   -0,077;    0,318
486,035;13390,625;   -1,986;   -0,136
486,622;13806,098;   -0,895;    0,045
487,208;13764,751;    1,378;    1,500
487,794;13596,667;    0,741;    0,318
488,380;13711,422;    0,105;   -1,409
488,967;13797,831;   -1,168;   -0,409
489,553;13856,170;   -1,895;   -1,409
490,139;14044,236;    1,559;    0,773
490,725;13392,708;    0,741;   -0,227
491,311;12919,023;    3,287;    3,045
491,897;12249,397;   -0,986;    1,500
492,483;12050,820;    0,105;    1,227
493,069;11871,107;    3,923;    0,864
493,655;11912,659;    1,650;    0,682
494,241;11794,519;    1,377;   -0,955
494,826;12219,530;    0,287;   -1,045
495,412;11678,198;    2,559;   -0,682
495,998;11821,466;   -0,805;   -0,318
496,584;11991,180;    0,377;    1,045
497,169;11995,187;    1,014;   -0,682
497,755;11948,462;    0,650;    1,227
498,341;12530,729;    0,559;    0,318
498,926;12118,117;    1,832;    1,955
499,512;12266,423;    1,286;    2,955
500,097;12413,395;    0,195;   -0,318
500,683;12368,263;   -0,350;    2,136
501,268;12689,301;   -0,169;   -0,955
501,854;12429,857;   -0,169;    1,227
502,439;12368,954;   -0,624;   -1,773
503,024;12622,853;    0,195;    0,500
503,610;12670,056;   -0,078;   -0,682
504,195;12665,308;    0,558;    1,955
504,780;12779,679;    2,922;    1,227
505,366;12576,658;    3,013;    2,864
505,951;12358,646;    0,740;    1,045
506,536;12366,839;   -3,260;   -3,682
507,121;12316,283;    0,285;   -0,318
507,706;12834,839;    2,376;    1,045
508,291;13245,741;    2,649;    1,136
508,876;12744,600;   -0,988;    2,591
509,461;12218,345;   -0,169;   -0,773
510,046;12604,454;    0,194;    0,318
510,631;12889,576;   -0,351;   -0,773
511,216;12540,048;    2,467;   -0,500
511,801;12896,272;   -0,442;    2,591
512,386;13226,391;    0,740;    0,500
512,971;13141,943;   -2,988;    0,955
513,555;12693,754;   -0,897;   -1,500
514,140;13493,265;   -0,442;   -3,136
514,725;13465,890;   -0,715;   -1,136
515,309;13620,505;   -0,533;    0,318
515,894;13081,834;   -0,624;   -2,227
516,479;13533,051;   -0,624;   -0,955
517,063;13366,565;    0,376;    1,227
517,648;13490,488;    1,012;   -1,136
518,232;13153,963;   -0,261;   -1,409
518,817;13508,484;   -0,079;    1,682
519,401;13765,068;    2,194;    0,591
519,985;13240,131;    1,103;    1,136
520,570;13116,952;    0,830;   -1,955
521,154;13400,060;    2,102;    0,591
521,738;13593,703;   -2,352;    2,409
522,323;14153,494;   -0,170;    1,682
522,907;13879,207;    0,466;   -0,136
523,491;13591,672;    0,557;    0,955
524,075;13590,011;    2,284;    0,591
524,659;13691,892;    1,466;    0,591
525,243;13140,392;    1,739;    0,409
525,827;13419,892;    0,648;   -0,045
526,411;14278,710;   -1,989;   -0,136
526,995;14470,441;   -0,352;    1,409
527,579;14052,479;   -0,443;   -1,045
528,163;14368,475;    0,375;   -1,500
528,747;14281,185;    2,466;   -0,773
529,331;14585,835;   -0,080;   -1,409
529,915;14779,423;    1,738;    0,955
530,499;14742,118;   -0,807;    1,227
531,082;14473,199;   -0,534;    1,591
531,666;13875,415;    1,374;    0,773
532,250;14549,433;    1,284;    2,682
532,833;14909,548;    0,920;    2,773
533,417;14740,132;   -1,807;    0,864
534,001;14761,957;    1,647;   -0,318
534,584;15420,880;    0,374;    0,500
535,168;15317,236;    0,465;    1,409
535,751;15357,996;    0,647;    0,045
536,334;14778,027;   -0,898;   -0,409
536,918;15360,048;    0,011;    1,591
537,501;15526,824;   -0,899;    1,318
538,085;15479,757;   -0,444;    1,045
538,668;15657,915;    0,829;    2,409
539,251;15989,436;    1,829;    3,773
539,834;15995,604;    0,101;    0,773
540,418;15912,823;   -1,990;    4,318
541,001;16009,764;   -0,990;    1,773
541,584;16044,078;    2,101;    2,227
542,167;15775,323;    1,374;    2,955
542,750;15890,023;    1,919;   -0,773
543,333;15487,651;    0,555;    2,136
543,916;16284,788;    0,192;    2,500
544,499;16948,246;   -1,354;    0,227
545,082;16908,134;    1,374;    3,591
545,665;17011,410;    1,919;    1,500
546,248;17375,651;    1,010;   -0,318
546,830;17025,330;   -0,445;    1,955
547,413;17416,469;    1,010;   -0,773
547,996;17947,301;    0,555;    0,500
548,579;17764,602;    0,919;    0,955
549,161;17536,308;    1,828;    2,682
549,744;17318,972;   -0,809;    0,409
550,326;17820,524;   -0,809;   -1,136
550,909;17604,633;    2,737;    0,591
551,492;18008,413;   -0,263;    0,227
552,074;17784,783;   -0,173;   -1,318
552,657;18330,118;    2,373;    0,045
553,239;18098,318;   -0,173;   -0,773
553,821;18000,157;   -1,082;    1,045
554,404;17528,356;    1,282;    1,136
554,986;17898,307;    0,464;    1,045
555,568;18541,597;    1,191;   -0,955
556,151;17748,755;    1,191;   -0,227
556,733;17916,835;   -0,264;   -0,864
557,315;18441,128;    0,100;    0,500
557,897;18198,628;    0,554;   -0,500
558,479;18282,940;   -1,991;    1,318
559,061;18438,862;   -0,719;   -0,864
559,643;18793,237;   -0,264;    0,045
560,225;19216,576;    1,645;    2,864
560,807;19251,146;    0,918;    0,318
561,389;18676,771;    0,554;    2,318
561,971;19490,176;    0,463;    2,136
562,553;19236,533;   -1,628;    1,591
563,135;19407,373;   -0,537;    1,136
563,717;18997,883;    3,372;    1,136
564,298;19703,586;    3,645;   -0,045
564,880;19460,886;    0,645;   -1,409
565,462;19629,704;    0,645;    1,318
566,043;20761,984;   -0,446;    2,318
566,625;20310,708;    1,918;    1,227
567,207;20171,862;    1,099;    1,682
567,788;21321,061;   -1,264;    1,500
568,370;22163,571;    1,917;   -0,500
568,951;22024,417;    0,190;    0,227
569,533;22885,347;   -0,628;   -0,500
570,114;23291,593;   -0,446;    0,682
570,695;23840,819;   -0,174;   -1,318
571,277;24391,406;   -0,265;   -1,682
571,858;25077,767;    2,008;   -1,136
572,439;25952,599;    1,554;   -1,045
573,021;26117,088;    2,099;   -2,773
573,602;26621,315;   -1,265;    0,318
574,183;27577,238;   -2,083;    2,227
574,764;27751,742;   -1,629;    0,409
575,345;28310,598;    0,917;   -0,136
575,926;28913,966;   -0,356;    0,136
576,507;28834,494;    1,099;   -0,227
577,088;29969,462;    3,099;    1,682
577,669;30023,042;    0,735;    1,955
578,250;30800,693;    0,644;   -1,045
578,831;31475,234;   -1,356;   -2,227
579,412;31688,563;   -0,810;    0,955
579,993;32495,360;    1,008;    0,227
580,573;32858,668;   -0,629;   -0,955
581,154;31815,350;    0,735;   -0,591
581,735;32681,735;    0,644;    0,773
582,315;32234,007;   -0,629;    2,136
582,896;32461,105;   -0,174;    1,227
583,477;31859,189;    0,189;    1,227
584,057;32109,783;    0,553;    0,955
584,638;32427,269;    2,553;    2,318
585,218;32365,049;   -0,538;    2,682
585,799;32492,689;    0,281;   -0,227
586,379;32491,917;    0,372;    1,591
586,959;31198,574;    0,735;    0,318
587,540;30519,311;   -0,629;    2,227
588,120;30107,894;    1,007;   -0,045
588,700;29116,391;    2,553;    2,136
589,281;29464,332;    0,462;   -0,955
589,861;29420,385;    0,099;   -1,682
590,441;29190,976;    2,371;   -2,682
591,021;28171,902;   -0,265;   -2,591
591,601;28388,742;   -0,537;    0,500
592,181;28380,123;   -0,719;   -0,773
592,761;27665,779;    0,007;    1,409
593,341;27627,539;   -0,901;    0,045
593,921;27639,703;   -0,265;    1,591
594,501;27526,332;   -0,538;    1,318
595,081;27335,910;    0,917;   -0,318
595,661;27739,916;   -1,447;    0,955
596,240;28225,955;   -0,537;    0,136
596,820;27942,830;    0,372;    1,955
597,400;28113,028;    2,008;    0,773
597,980;28272,595;    2,008;    1,045
598,559;28295,473;    2,735;   -0,227
599,139;27988,948;   -0,174;   -1,227
599,718;27908,948;   -0,174;   -0,409
600,298;28119,413;    0,735;    0,682
600,877;28355,969;    2,917;    1,409
601,457;28652,025;    2,281;    1,136
602,036;28612,193;    0,190;    2,045
602,616;28793,864;    0,644;    1,682
603,195;29145,658;   -0,355;    3,500
603,774;28675,921;   -0,901;    2,045
604,354;28512,714;    0,826;   -0,500
604,933;27989,186;    0,463;    1,864
605,512;28134,420;    3,554;    0,591
606,091;28204,693;   -0,537;    3,773
606,671;29037,452;    0,281;    0,773
607,250;28156,186;    1,644;    3,136
607,829;28361,743;    2,372;    3,227
608,408;28189,291;    1,190;    2,591
608,987;27197,911;    1,281;    3,409
609,566;27538,193;   -1,265;   -2,500
610,145;27664,166;   -1,082;    0,682
610,723;28021,666;    4,372;    6,864
611,302;27303,334;   -0,446;    1,682
611,881;26811,271;    5,008;   11,227
612,460;27615,795;    1,645;    3,955
613,039;28027,939;   -0,082;    2,045
613,617;26802,970;    1,736;    4,773
614,196;27011,827;    1,099;    1,227
614,775;27360,901;    1,009;    2,409
615,353;27293,194;    0,736;    0,864
615,932;26998,537;    0,100;    2,409
616,510;27583,170;    0,554;    0,591
617,089;27134,971;    7,100;   17,591
617,667;26876,450;    2,372;    6,136
618,246;26725,076;   -1,537;    1,318
618,824;26896,240;   -3,355;   -0,955
619,402;26445,153;   -2,900;   -1,773
619,981;26977,653;   -0,173;   -1,045
620,559;26727,135;    0,009;    1,682
621,137;26266,034;   -0,718;    1,864
621,715;26319,807;   -1,173;   -0,682
622,293;26228,090;   -0,537;   -0,773
622,871;26682,037;   -0,718;    0,500
623,450;26280,230;    0,373;   -0,864
624,028;26144,163;    0,191;   -0,955
624,606;25827,248;   -1,718;    1,682
625,183;26233,349;   -1,536;   -1,136
625,761;25790,891;    1,009;    1,136
626,339;26133,597;    1,373;    2,591
626,917;26562,545;   -0,172;   -0,045
627,495;26545,951;   -0,354;    1,318
628,073;25981,385;   -0,263;    2,864
628,650;25637,073;    0,100;    2,136
629,228;26091,975;    0,373;    4,409
629,806;25495,716;    2,282;    1,136
630,383;25757,899;    1,464;   -0,318
630,961;25579,384;    2,555;   -0,955
631,539;25313,315;    2,464;    0,227
632,116;24708,112;   11,373;   15,409
632,694;25273,087;    2,555;    6,500
633,271;25555,098;    0,828;    2,682
633,848;25495,147;    1,828;    2,045
634,426;25496,941;   -1,081;    1,773
635,003;24618,512;    1,101;   -0,409
635,580;24973,498;    1,192;    3,682
636,158;25497,382;    3,737;    1,227
636,735;25461,312;    0,555;   -0,500
637,312;25621,042;   -0,809;   -0,682
637,889;25730,620;   -4,354;   -0,682
638,466;25185,568;   -3,990;   -0,409
639,043;25229,044;    2,101;   -1,136
639,620;25529,554;   -2,262;   -0,955
640,197;25836,226;    1,100;    1,682
640,774;25884,279;   -0,172;    1,136
641,351;26313,697;    0,737;    1,136
641,928;25811,296;   -0,627;    1,409
642,505;25414,805;    0,828;   -0,500
643,082;25504,313;   -1,718;    1,227
643,658;24557,549;   -0,718;    1,500
644,235;25286,148;    1,191;    2,500
644,812;25661,839;    1,918;    0,773
645,388;25372,620;   -0,991;    1,409
645,965;25515,947;   -0,809;    1,682
646,542;25561,455;   -1,445;   -0,227
647,118;25560,145;    1,009;   -0,955
647,695;25797,017;   -0,263;    1,136
648,271;25740,980;   -0,536;    0,500
648,848;26052,216;    0,736;    2,227
649,424;25868,088;    0,827;    1,318
650,000;25627,324;   -0,354;   -1,045
650,577;25462,560;   -0,627;   -0,955
651,153;25897,068;   -1,809;    0,955
651,729;26869,122;    1,191;    0,864
652,305;27491,267;    0,645;    2,773
652,881;32582,866;   -0,082;    1,136
653,458;39449,466;    1,100;    0,227
654,034;42802,065;    0,282;    1,591
654,610;44034,028;    0,554;    0,773
655,186;45284,809;    0,645;    3,045
655,762;44895,409;   -0,991;    0,409
656,338;44800,735;    0,100;    0,136
656,913;45784,153;   -0,082;    0,409
657,489;44998,389;    0,827;   -0,318
658,065;44966,261;   -0,173;   -1,591
658,641;45564,224;   -0,900;   -0,864
659,217;44848,096;   -0,991;    0,409
659,792;44238,786;    0,645;   -0,409
660,368;44441,204;   -2,173;   -0,682
660,944;43857,076;   -2,082;    1,227
661,519;38673,039;   -0,628;    0,409
662,095;32790,093;   -1,719;    0,591
662,670;28624,692;    1,281;   -0,136
663,246;27735,564;    1,009;   -0,409
663,821;27174,163;    0,281;    1,682
664,396;26617,672;    0,009;    1,864
664,972;26922,908;    0,009;   -0,500
665,547;27238,962;    1,372;    0,136
666,122;27331,561;   -1,082;    0,318
666,698;27530,888;   -0,173;    0,318
667,273;26903,305;   -0,173;    0,136
667,848;27761,268;    2,372;    1,500
668,423;27535,504;    2,190;    2,318
668,998;28081,921;    2,827;   -0,682
669,573;28638,794;   -3,264;   -1,500
670,148;28465,029;   -1,446;   -0,682
670,723;28222,901;   -1,810;    0,318
671,298;28644,773;    2,372;    1,045
671,873;28807,555;   -0,082;   -0,136
672,448;28726,336;    0,645;    0,136
673,023;29088,390;   -1,992;   -0,227
673,597;29406,898;    0,827;    2,318
674,172;29169,498;   -0,355;    0,318
674,747;28630,370;    0,372;   -1,045
675,321;28431,060;   -0,628;    3,318
675,896;28048,296;    0,645;    1,045
676,471;29102,986;    2,645;    1,591
677,045;28860,858;   -1,264;    0,682
677,620;28891,912;    0,190;    1,136
678,194;29106,239;   -2,628;    1,136
678,769;28728,111;   -1,083;   -0,318
679,343;29046,347;   -0,628;    1,773
679,917;28906,310;   -1,446;    1,955
680,492;28929,000;    0,826;    3,227
681,066;29116,236;    3,372;    0,409
681,640;29205,744;    1,463;   -0,318
682,214;30030,707;    0,735;    0,500
682,788;29551,306;   -1,356;   -0,773
683,363;29469,906;   -1,810;    1,682
683,937;29152,414;   -1,719;   -0,318
684,511;29847,559;    0,463;   -0,591
685,085;29577,522;   -1,356;    0,318
685,659;29310,394;   -2,538;    0,864
686,232;29645,357;   -0,356;   -0,318
686,806;29316,957;   -0,901;    0,409
687,380;29980,920;   -0,174;    0,591
687,954;30174,155;   -1,174;    1,136
688,528;29871,209;   -0,719;    1,955
689,101;30642,081;   -3,992;    1,045
689,675;30278,044;   -0,356;   -0,136
690,249;29674,007;   -0,719;    0,409
690,822;29871,061;    0,280;    0,318
691,396;30011,933;   -0,265;    1,227
691,969;29450,987;    1,280;    0,136
692,543;29916,405;   -0,447;   -1,955
693,116;29575,368;   -0,265;   -1,409
693,690;29427,240;    0,099;    0,500
694,263;29995,385;   -1,083;    2,955
694,836;30057,075;    1,371;    3,591
695,410;28764,674;   -0,265;    1,773
695,983;29169,546;    0,189;    0,591
696,556;29159,055;   -0,447;   -1,045
697,129;29533,382;   -0,356;    1,409
697,703;29182,436;   -1,629;    1,955
698,276;29165,489;    1,462;   -0,773
698,849;28975,452;    1,280;    1,409
699,422;29330,325;   -1,083;    0,591
699,995;29072,742;    0,007;    0,136
700,568;29520,160;   -0,629;    3,045
701,140;29531,486;   -2,811;    1,682
701,713;29282,722;   -0,174;    2,409
702,286;29035,594;   -0,538;    0,864
702,859;28910,103;   -0,902;   -0,591
703,432;27985,338;    0,825;    0,682
704,004;28512,483;    0,462;    0,318
704,577;28385,083;   -0,629;    0,136
705,150;28973,318;    0,189;    2,500
705,722;28819,463;   -0,356;   -3,227
706,295;28579,608;   -0,175;   -0,591
706,867;28453,753;   -0,175;    1,955
707,440;28681,988;   -1,720;   -0,409
708,012;28974,406;    0,462;    0,591
708,584;28846,278;    2,462;    0,227
709,157;29047,332;    1,825;   -0,591
709,729;28742,022;    2,280;    2,045
710,301;29589,894;    0,734;    0,045
710,874;29621,403;   -1,447;   -0,227
711,446;28478,275;    0,371;    0,864
712,018;28325,420;    0,098;    0,500
712,590;28081,746;   -1,993;    1,682
713,162;28650,073;    0,825;    1,318
713,734;28900,491;    1,825;   -2,045
714,306;28824,999;   -1,902;   -0,409
714,878;27459,235;    0,825;    0,864
715,450;28262,380;    0,643;    0,864
716,022;28521,070;    1,552;    1,318
716,593;28678,033;    0,189;    0,591
717,165;28653,632;   -3,175;   -1,227
717,737;28353,595;    0,280;    0,409
718,309;28025,467;    0,280;   -0,045
718,880;27940,158;   -0,539;   -1,409
719,452;28173,030;   -0,175;   -1,591
720,024;27769,993;    0,734;   -0,591
720,595;28326,138;   -2,902;    0,955
721,167;27877,737;    0,370;   -2,045
721,738;27377,155;   -0,812;   -1,045
722,309;27411,390;   -0,993;   -1,227
722,881;27151,172;   -1,357;    0,773
723,452;27789,862;   -2,630;    2,864
724,023;27960,279;   -0,721;    2,682
724,595;27691,515;    0,007;    0,682
725,166;27452,660;    0,007;   -0,409
725,737;27157,623;    1,734;    0,227
726,308;27170,131;   -0,266;    0,318
726,879;27659,004;   -1,630;    1,227
727,450;27537,512;    0,552;   -0,045
728,021;27466,020;    3,097;    0,682
728,592;27271,802;    0,734;    0,500
729,163;27590,310;    0,643;   -0,136
729,734;27660,000;    0,188;   -0,227
730,305;27986,691;    1,734;    0,136
730,876;28333,108;    0,188;    2,955
731,447;28100,253;    2,188;    2,682
732,017;28226,398;    1,097;    1,864
732,588;27692,815;    0,734;    1,227
733,159;27847,142;    0,643;   -1,045
733,729;27664,560;    0,006;    0,409
734,300;26897,886;    0,915;    0,864
734,870;27302,849;    3,461;    0,591
735,441;27896,176;    0,370;   -0,591
736,011;27652,957;    0,643;   -1,591
736,582;27590,556;   -0,812;    0,045
737,152;27063,429;   -1,721;   -2,045
737,722;27526,301;   -0,267;   -0,682
738,293;27248,082;   -1,358;    1,318
738,863;27062,681;    2,461;    2,318
739,433;26906,190;    5,279;    0,318
740,003;27540,789;   -0,994;   -0,682
740,573;26919,298;    2,097;   -1,591
741,143;26856,442;   -1,085;    0,318
741,713;27655,496;    1,188;   -0,500
742,283;27391,005;    0,915;    1,591
742,853;27161,513;    1,915;    1,591
743,423;26548,658;    1,733;    0,045
743,993;26758,712;   -0,358;    1,500
744,563;26134,402;    0,097;   -0,864
745,133;26035,729;   -0,812;   -0,864
745,702;26754,783;   -0,267;    1,773
746,272;25948,109;   -0,176;    0,591
746,842;25791,436;   -1,358;   -0,591
747,411;26177,581;   -0,267;   -0,318
747,981;26325,453;    0,097;    0,500
748,551;26375,325;    2,278;   -1,045
749,120;26237,015;    0,642;   -0,227
749,690;26622,888;   -0,631;    2,409
750,259;26968,487;    1,369;    2,955
750,828;26906,086;    1,551;   -1,955
751,398;27141,413;    1,278;   -0,045
751,967;26657,467;    2,187;    0,409
752,536;26885,703;   -0,813;   -0,227
753,105;27340,393;    0,096;    0,227
753,675;27096,992;    0,096;    1,773
754,244;27072,773;   -0,904;    3,591
754,813;27065,827;    0,551;    1,227
755,382;26625,699;    0,460;    0,955
755,951;27196,208;    1,551;    3,682
756,520;26751,807;   -0,085;    1,864
757,089;27342,952;    0,278;    0,500
757,658;27464,461;    1,733;    1,227
758,227;27411,333;    1,096;    0,318
758,795;27699,023;    1,187;    1,136
759,364;27994,077;   -0,086;   -0,591
759,933;27002,313;   -1,176;   -0,045
760,501;26487,185;    0,733;   -1,318
761,070;26912,693;   -2,813;   -1,409
761,639;27680,929;   -1,904;    1,318
762,207;27008,619;    1,551;   -0,955
762,776;26968,673;    0,369;    0,864
763,344;26915,636;   -0,995;    0,591
763,913;25986,145;   -0,722;    1,409
764,481;26740,017;    1,005;   -0,136
765,049;26493,071;   -1,358;    1,409
765,618;26373,579;   -0,086;    0,318
766,186;26477,542;    0,278;    0,136
766,754;26657,414;    0,005;    1,864
767,322;25638,014;   -1,995;    0,409
767,890;25686,613;   -0,722;   -1,773
768,459;26117,940;   -2,177;   -0,318
769,027;26277,812;    1,641;    3,409
769,595;25222,866;    3,278;    2,591
770,163;25707,829;    3,823;    2,955
770,730;25436,610;    0,732;   -0,136
771,298;25236,209;    0,187;   -1,409
771,866;25316,354;   -1,541;    4,955
772,434;25644,226;   -0,631;   -1,864
773,002;25799,916;    0,005;    0,682
773,569;25493,334;    0,914;    1,682
774,137;25312,842;   -0,268;   -0,045
774,705;26001,442;    0,278;   -0,136
775,272;25543,314;    0,641;    0,682
775,840;25333,459;   -0,177;    2,682
776,407;24898,785;    0,277;    1,955
776,975;24481,476;   -0,632;    0,318
777,542;25468,984;   -1,086;   -0,045
778,110;25296,765;   -1,268;   -0,045
778,677;24928,546;   -2,359;   -0,864
779,244;24733,146;    2,186;    1,045
779,812;24860,018;    1,823;    0,864
780,379;24694,890;    0,005;    1,136
780,946;24984,944;    1,005;   -0,773
781,513;25307,361;   -1,450;    0,318
782,080;24715,143;   -0,086;    2,864
782,647;25483,651;   -0,268;    3,045
783,214;25063,614;   -0,177;    3,864
783,781;24644,941;   -0,723;   -0,682
784,348;24446,086;   -0,632;    1,500
784,915;24893,776;   -3,177;    0,318
785,482;24726,557;    1,368;    2,591
786,049;25155,429;    0,186;   -0,591
786,615;25263,210;    0,277;   -0,955
787,182;25004,082;    0,186;   -0,682
787,749;24663,045;   -2,814;    1,409
788,315;24027,372;   -1,632;   -0,409
788,882;24335,517;    1,550;   -1,227
789,448;25032,207;    1,732;   -0,955
790,015;24989,170;    1,095;    3,227
790,581;24560,679;    1,459;    0,227
791,148;24490,914;    0,641;    1,045
791,714;24727,150;   -0,541;    3,136
792,280;24350,295;    0,186;    1,591
792,847;23916,076;    0,550;    2,500
793,413;24395,676;   -0,269;   -0,318
793,979;24013,366;    3,459;   -1,318
794,545;24196,420;    4,459;    2,682
795,111;23576,474;    2,186;    1,318
795,678;23725,619;    0,731;   -1,682
796,244;23378,854;    3,368;    0,136
796,810;23890,726;    1,731;    0,773
797,375;23657,144;    0,549;   -2,136
797,941;23639,652;   -0,541;    0,591
798,507;23768,706;   -0,451;   -0,955
799,073;23333,760;   -0,360;    0,591
799,639;23362,178;   -2,632;    3,136
800,205;23410,050;    0,095;    2,682
800,770;22947,922;    0,640;    1,773
801,336;23017,703;    1,368;   -0,955
801,901;22789,303;    4,549;    3,136
802,467;23350,538;   -0,542;    2,045
803,033;22667,229;   -0,087;    0,864
803,598;22828,192;    1,913;   -1,045
804,163;22870,973;    1,095;   -0,318
804,729;22817,027;   -0,178;    1,136
805,294;23232,171;    0,822;    2,227
805,859;23037,953;    0,731;   -0,409
806,425;22560,098;    1,186;    2,682
806,990;22211,970;    2,186;    4,318
807,555;22667,296;   -1,451;    2,591
808,120;22612,714;    0,822;   -0,409
808,685;22603,222;    0,185;   -2,500
809,250;22099,094;    0,004;   -0,500
809,815;22408,239;    1,913;    0,682
810,380;22959,202;   -0,269;    1,591
810,945;23483,438;   -1,087;    2,045
811,510;22645,219;    2,094;    1,591
812,075;22371,182;   -0,633;   -1,409
812,640;22427,600;    2,003;    1,409
813,204;22455,563;    0,822;   -0,227
813,769;22948,253;    2,094;   -0,045
814,334;22390,398;    0,458;    0,864
814,898;22422,997;    0,367;    0,591
815,463;22266,687;    1,276;   -0,773
816,027;22221,105;   -0,724;   -2,318
816,592;22328,523;    0,640;   -2,045
817,156;21825,031;    2,094;    1,136
817,721;21713,630;    4,276;    2,318
818,285;21630,957;    2,912;    1,500
818,849;22318,102;   -1,451;    1,682
819,414;22217,974;   -0,269;    2,955
819,978;21793,573;   -1,269;    1,773
820,542;22373,355;    2,003;    0,500
821,106;22102,045;   -0,815;    0,682
821,670;22188,281;   -0,815;    2,591
822,234;21910,516;   -0,270;    1,409
822,798;21253,388;    0,003;    0,500
823,362;21224,806;   -0,633;    4,227
823,926;20564,042;    0,094;    1,136
824,490;20827,277;   -0,997;   -0,682
825,054;21240,695;   -0,088;   -1,136
825,618;20873,385;   -1,542;   -1,500
826,181;20819,257;    0,458;   -1,318
826,745;20760,220;    1,367;   -1,045
827,309;21102,456;    1,185;    1,318
827,872;20446,146;    1,367;    0,955
828,436;21432,564;    1,185;   -0,773
828,999;21516,800;   -0,997;    1,227
829,563;20318,945;   -0,179;    1,136
830,126;20132,180;   -0,179;   -0,591
830,690;20120,961;   -1,997;    2,864
831,253;19643,743;   -0,543;    2,227
831,816;19838,978;   -1,906;    0,500
832,380;19742,487;    0,185;    0,864
832,943;19950,086;   -1,361;   -0,500
833,506;19442,776;    2,639;   -1,227
834,069;20215,467;    3,912;   -0,955
834,632;20269,521;    1,730;    1,318
835,195;20179,756;    1,003;    0,955
835,758;19331,901;   -0,997;    1,955
836,321;19219,773;    0,730;   -1,045
836,884;19336,736;   -0,725;   -0,955
837,447;19337,245;   -2,816;    1,773
838,010;19652,390;    0,366;    3,227
838,573;19948,171;   -1,179;    0,773
839,135;19892,588;   -1,361;   -0,955
839,698;19310,097;    1,275;    0,409
840,261;18833,605;    1,003;   -0,227
840,823;18652,205;   -0,543;    0,864
841,386;18927,440;   -0,452;   -2,409
841,948;18886,858;   -1,361;    1,773
842,511;18589,639;    0,912;    1,682
843,073;18754,875;    1,912;    0,227
843,636;18547,020;   -0,361;   -0,227
844,198;18490,437;    0,911;    0,591
844,760;18591,491;    1,093;    1,955
845,322;18245,181;    0,548;    1,136
845,885;18681,872;    0,730;    0,591
846,447;19114,835;   -1,998;    0,227
847,009;18712,889;    1,911;   -0,682
847,571;19022,761;    0,820;   -2,045
848,133;19121,451;   -1,089;   -1,864
848,695;18953,869;   -0,543;    1,409
849,257;18523,559;   -1,089;   -1,682
849,819;18675,795;   -0,998;   -0,409
850,381;18710,303;   -0,725;   -0,864
850,942;19133,357;    1,093;   -0,591
851,504;19054,502;    1,184;    0,227
852,066;19053,465;    1,275;   -1,591
852,628;18570,973;   -0,180;    1,955
853,189;18147,391;    1,638;    2,682
853,751;18272,172;   -0,907;    1,409
854,312;18063,317;   -0,453;   -1,682
854,874;18540,644;   -2,089;   -0,773
855,435;19119,788;   -0,907;   -1,682
855,997;19269,933;   -1,816;   -0,136
856,558;18543,805;    0,366;    1,773
857,119;18613,405;    0,820;    2,864
857,681;18289,822;    0,002;    0,318
858,242;18383,967;    1,911;   -2,136
858,803;18840,112;    0,456;   -0,773
859,364;19379,893;    0,184;   -4,773
859,925;18685,402;   -2,453;   -0,955
860,486;18573,183;   -0,453;   -0,955
861,047;18285,328;   -0,544;   -1,227
861,608;18138,291;   -1,089;   -0,773
862,169;18258,344;    0,638;   -0,045
862,730;18061,126;    0,456;    1,409
863,291;18289,907;   -0,635;   -0,500
863,852;18627,234;   -0,635;    1,955
864,412;18092,015;   -0,271;   -0,864
864,973;16752,705;   -0,089;    0,500
865,534;16546,941;   -1,726;    0,227
866,094;18063,813;    1,820;    0,227
866,655;17735,230;    1,274;    3,318
867,215;17974,648;    0,274;    0,136
867,776;17809,156;    0,547;   -0,136
868,336;17913,847;   -1,453;    0,136
868,897;17442,537;    2,638;    1,682
869,457;17142,318;    1,365;    0,318
870,017;17412,736;    0,547;   -1,227
870,578;17899,517;   -0,817;    0,773
871,138;17562,662;   -2,089;   -0,955
871,698;17166,625;   -0,817;   -1,318
872,258;17057,224;   -0,453;   -2,864
872,818;17457,096;    2,729;    0,045
873,378;17361,150;    0,638;    1,045
873,938;16899,659;    0,547;    0,500
874,498;17239,803;    0,274;   -1,955
875,058;17149,585;    2,183;    1,773
875,618;17007,184;    1,910;   -2,682
876,177;16884,602;    1,274;    0,136
876,737;16502,928;   -0,090;    1,955
877,297;16566,346;    0,183;    1,955
877,856;16586,672;   -0,362;    0,318
878,416;16488,090;    1,183;   -0,136
878,976;16705,871;   -1,817;    0,409
879,535;16878,834;    0,092;    3,136
880,095;16611,706;   -0,544;    0,045
880,654;16767,215;   -1,090;    1,318
881,213;16855,450;    2,456;    1,500
881,773;16471,141;    2,637;    2,682
882,332;16871,195;    3,365;    5,136
882,891;16729,885;    3,092;    2,136
883,451;17169,121;   -1,272;    1,682
884,010;16576,902;   -2,908;   -0,409
884,569;16686,865;   -0,999;   -0,045
885,128;16832,373;    2,819;   -1,864
885,687;16950,700;    4,455;    0,682
886,246;16633,299;    1,455;    2,136
886,805;16369,262;    2,455;    2,045
887,364;16629,771;   -0,999;   -0,500
887,922;17020,188;   -1,181;    0,045
888,481;16535,151;   -1,545;    0,591
889,040;16829,296;    1,183;    2,136
889,599;17508,714;    2,455;    1,409
890,157;17547,222;    1,455;    2,409
890,716;17180,549;   -0,090;    0,227
891,274;17048,603;    0,092;   -1,136
891,833;17481,839;    1,546;    0,864
892,391;17387,983;   -0,454;    0,500
892,950;17398,674;    1,819;   -0,773
893,508;17800,546;    0,455;   -0,409
894,067;17113,418;    0,637;    0,136
894,625;17036,654;   -0,636;   -1,500
895,183;17278,253;   -0,363;   -0,682
895,741;17152,852;    1,728;   -1,773
896,299;16990,088;   -0,545;   -2,409
896,858;17184,596;    0,819;   -1,591
897,416;17305,560;    2,728;   -1,318
897,974;17036,432;    1,819;    0,318
898,532;17231,849;    6,091;    2,682
899,089;17083,267;    2,091;   -0,682
899,647;17155,593;   -1,454;    1,318
900,205;16871,011;    1,182;    1,045
900,763;17087,519;   -0,454;    0,227
901,321;17105,573;    2,364;   -1,409
901,878;16522,354;   -1,000;   -0,773
902,436;16393,681;   -1,363;    1,318
902,994;16755,917;    4,728;    3,682
903,551;16198,334;    0,728;    0,409
904,109;16619,388;    0,182;   -1,409
904,666;16167,079;    2,455;    1,045
905,224;15994,769;    0,182;   -0,409
905,781;15745,368;    0,727;   -0,318
906,338;15822,786;   -1,363;    1,045
906,895;15766,203;    0,637;    2,045
907,453;15720,803;    1,727;    1,136
908,010;15740,129;   -0,909;    0,409
908,567;15375,911;    1,273;    0,591
909,124;14870,692;    0,364;   -1,500
909,681;14906,746;   -2,909;    0,682
910,238;15067,618;    0,636;   -1,318
910,795;15412,763;   -0,273;   -1,136
911,352;15020,944;   -2,909;   -2,682
911,909;14450,126;   -1,364;   -0,864
912,466;14952,035;   -3,182;    1,500
913,022;14522,126;   -1,636;    0,500
913,579;14897,581;   -0,909;    2,045
914,136;14558,035;    1,636;    0,955
914,692;14902,854;    0,091;   -1,227
915,249;14506,581;    1,455;    0,409
915,806;14731,490;    0,182;    1,955
916,362;14479,035;    1,909;    1,864
916,918;14030,490;    2,000;    1,045
917,475;14029,763;   -1,182;    0,955
918,031;14101,854;    3,364;   -0,045
918,587;13528,490;   -0,909;   -0,318
919,144;13721,672;   -2,273;    0,227
919,700;14037,581;    1,727;    0,773
920,256;13624,854;    0,727;    0,045
920,812;13253,944;   -0,727;   -1,045
921,368;13291,399;   -1,727;   -1,045
921,924;12917,763;    0,182;   -0,136
922,480;12498,490;   -0,545;    1,227
923,036;13098,399;    1,273;    1,955
923,592;13017,854;    0,455;    0,318
924,148;12933,672;    0,455;   -0,955
924,704;12259,308;   -1,364;   -0,409
925,259;12511,672;   -0,273;    0,591
925,815;12282,581;    1,455;    0,500
926,371;11805,763;    2,909;    1,409
926,926;11711,126;    2,091;    0,591
927,482;11316,217;   -1,364;    0,773
928,037;11223,399;    0,909;    2,045
928,593;11560,581;    1,636;    1,045
929,148;11328,944;   -1,818;   -1,500
929,704;10843,763;   -1,455;   -0,500
930,259;11014,217;    0,091;   -0,136
930,814;10099,854;   -0,818;    1,955
931,369; 9778,217;    1,091;   -0,773
931,925; 9643,672;   -0,091;    0,136
932,480; 9575,581;   -2,818;   -2,591
933,035; 9478,581;    0,545;   -0,318
933,590; 9258,763;    0,364;   -1,773
934,145; 8874,035;   -1,364;   -0,318
934,700; 9191,399;    0,455;   -0,591
935,255; 9037,126;   -0,091;    0,045
935,809; 8316,217;    3,182;    0,864
936,364; 7464,217;   -0,455;   -0,136
936,919; 7418,672;    0,455;   -1,773
937,474; 7294,126;    1,455;    0,136
938,028; 7048,944;   -1,636;    1,136
938,583; 6543,672;    1,818;    4,682
939,138; 6795,490;    2,091;    2,136
939,692; 6241,490;    1,636;   -1,136
940,247; 5950,035;   -0,727;   -1,045
940,801; 5512,490;   -0,636;    0,227
941,355; 5397,126;   -0,364;    2,591
941,910; 5030,126;   -0,273;   -2,136
942,464; 5164,581;   -0,818;   -0,318
943,018; 4942,763;    1,000;   -0,227
943,572; 4882,308;    2,545;   -0,682
944,126; 4322,672;    0,091;   -0,409
944,681; 4238,217;    3,091;    0,227
945,235; 4226,763;    1,000;   -0,591
945,789; 4156,672;    0,364;   -1,864
946,342; 4251,126;    0,455;   -0,591
946,896; 4071,126;   -2,273;    0,955
947,450; 3811,126;    1,545;   -0,227
948,004; 4022,035;    1,727;   -0,045
948,558; 4019,763;    0,273;   -0,864
949,111; 3924,944;   -0,273;   -0,318
949,665; 3973,581;    1,636;   -0,682
950,219; 3866,217;   -0,091;   -1,045
950,772; 3940,672;   -1,909;    1,864
951,326; 3816,490;    0,545;   -0,955
951,879; 3938,763;    0,727;   -2,318
952,433; 3963,854;    0,000;    2,227
952,986; 3767,854;    2,909;    0,682
953,539; 3739,126;   -0,273;    0,591
954,093; 3679,126;    0,545;   -1,318
954,646; 3811,672;    0,909;    1,318
955,199; 3625,126;    0,000;   -0,500
955,752; 3512,217;   -0,455;    1,773
956,305; 3465,399;   -0,091;    2,955
956,858; 3650,126;    0,818;   -0,318
957,411; 3815,581;   -0,545;    2,136
957,964; 3655,763;    1,364;    2,136
958,517; 3621,672;   -1,545;    3,136
959,070; 3448,126;   -0,455;    1,955
959,623; 3549,672;    1,091;    1,500
960,176; 3311,490;    1,727;    2,045
960,728; 3296,581;   -2,727;    0,773
961,281; 3340,490;    0,545;    0,500
961,834; 3391,126;   -0,909;    0,864
962,386; 3299,854;    1,727;    1,045
962,939; 3234,217;    0,364;   -0,318
963,491; 3374,672;    0,455;    1,136
964,043; 3247,217;    1,182;    2,409
964,596; 3364,763;   -1,000;    2,227
965,148; 3223,035;   -1,000;    1,773
965,700; 3132,035;    1,091;   -0,227
966,253; 3302,854;   -0,636;    0,318
966,805; 3111,399;   -2,273;    0,773
967,357; 3178,399;    1,091;   -1,500
967,909; 3145,035;    0,455;   -1,227
968,461; 3221,581;    0,545;    3,136
969,013; 3152,217;   -0,182;   -0,864
969,565; 3238,581;   -0,455;   -1,136
970,117; 3307,581;   -0,364;    1,045
970,669; 3128,581;    0,182;   -0,136
971,220; 2996,035;   -0,455;   -1,500
971,772; 2938,217;   -0,636;   -0,318
972,324; 3066,126;    0,091;   -0,500
972,876; 2996,763;    0,818;   -0,045
973,427; 3142,581;    1,909;   -1,045
973,979; 3103,763;   -0,727;   -2,500
974,530; 3136,217;    1,818;    1,318
975,082; 3137,035;   -0,545;    1,682
975,633; 3024,035;    1,091;    1,682
976,184; 3187,944;    0,909;    0,773
976,736; 2985,217;    0,091;    0,227
977,287; 2782,763;   -0,909;   -0,500
977,838; 2965,854;    0,909;   -0,318
978,389; 3024,763;   -1,000;   -0,500
978,940; 2880,217;    0,545;   -0,409
979,491; 2903,763;    0,091;   -0,500
980,042; 2874,854;    0,182;    3,045
980,593; 2926,672;   -2,545;    0,227
981,144; 2970,490;    2,545;   -0,500
981,695; 2926,581;    1,455;    1,500
982,246; 2893,672;   -0,273;    1,045
982,797; 3047,035;   -1,727;    0,682
983,347; 3158,399;    0,364;    0,591
983,898; 3336,672;    3,091;    0,409
984,449; 3159,763;    2,182;    0,773
984,999; 3060,308;    1,455;   -1,136
985,550; 2823,308;    0,182;   -0,318
986,100; 2864,944;   -0,455;   -0,318
986,651; 2885,763;   -0,818;    0,045
987,201; 2882,581;   -1,000;   -0,591
987,751; 2963,581;    0,818;    2,864
988,302; 2961,308;    2,636;    1,500
988,852; 2988,944;    0,455;   -1,136
989,402; 3022,217;    0,091;    0,682
989,952; 2938,399;   -2,182;    0,864
990,502; 3030,944;   -0,091;    0,682
991,052; 2961,035;   -0,727;    0,045
991,602; 2831,944;   -2,909;    1,318
992,152; 2861,399;    0,455;    0,682
992,702; 2841,399;    1,364;   -0,045
993,252; 2781,490;   -3,000;   -0,500
993,802; 2870,490;   -0,273;    1,318
994,352; 3085,672;   -1,545;    1,136
994,901; 3177,672;   -0,182;    3,227
995,451; 3075,854;   -0,182;    0,318
996,000; 3181,490;    1,636;    0,318
996,550; 2894,399;    2,273;    0,227
997,100; 2890,763;    1,273;   -0,045
997,649; 3178,672;    2,182;    0,955
998,198; 2812,854;    1,727;   -1,500
998,748; 3020,581;    1,091;   -2,318
999,297; 2911,490;   -0,818;   -0,409
999,846; 2972,490;    1,000;   -0,773
1000,395; 3025,126;   -0,818;    0,500
1000,945; 2970,944;    1,818;   -0,773
1001,494; 3072,490;    2,364;    0,682
1002,043; 3059,217;    4,636;    0,864
1002,592; 2885,035;   -1,091;    1,955
1003,141; 3047,308;   -0,455;   -0,682
1003,690; 2901,399;    1,727;    0,500
1004,238; 2992,944;    1,455;   -0,045
1004,787; 2615,308;    1,364;    1,227
1005,336; 2861,490;    0,364;    0,682
1005,885; 2985,581;    1,364;   -2,773
1006,433; 3131,490;    0,545;    0,955
1006,982; 3196,672;    0,455;    1,682
1007,531; 3098,944;   -1,818;   -0,227
1008,079; 3051,581;   -2,273;    0,500
1008,627; 3176,217;   -1,455;    0,409
1009,176; 2917,944;    0,000;   -1,955
1009,724; 2945,944;    1,091;    0,864
1010,273; 3028,217;    1,273;    0,500
1010,821; 3136,581;    0,091;    1,409
1011,369; 2874,308;   -1,364;    1,318
1011,917; 2846,944;   -1,364;   -0,591
1012,465; 3138,399;    1,273;   -1,591
1013,013; 3238,399;    2,091;   -1,682
1013,561; 3106,854;    0,455;   -0,773
1014,109; 3174,944;   -1,909;    1,682
1014,657; 3053,763;    0,364;    0,591
1015,205; 3159,581;    1,636;   -0,955
1015,753; 3177,581;   -0,545;   -1,409
1016,301; 3229,217;   -2,636;    3,045
1016,848; 3239,308;   -1,273;    0,409
1017,396; 3282,217;    2,545;    0,045
1017,944; 3402,944;    1,182;    1,864
1018,491; 3142,035;    0,273;    1,409
1019,039; 3307,854;    0,455;    0,591
1019,586; 3228,944;   -1,364;    1,682
1020,134; 3326,217;    0,455;    1,500
1020,681; 3337,308;    0,182;   -1,136
1021,228; 3332,399;    2,909;   -2,227
1021,776; 3168,035;    1,182;   -1,136
1022,323; 3388,763;    0,455;    0,773
1022,870; 3330,944;   -1,000;   -0,045
1023,417; 3218,944;    2,636;    1,864
1023,964; 3368,035;    2,636;    1,227
1024,511; 3212,490;    1,000;    0,773
1025,058; 3004,126;    3,182;   -0,045
1025,605; 3066,944;   -2,273;    3,136
1026,152; 3309,672;    1,727;   -0,591
1026,699; 3017,854;    1,818;    1,318
1027,245; 3160,399;   -0,091;    0,318
1027,792; 3356,490;   -1,000;    1,409
1028,339; 3253,035;    2,364;   -0,045
1028,885; 3111,126;    1,000;   -0,227
1029,432; 3058,399;   -0,091;    0,227
1029,978; 3125,217;   -1,000;   -1,591
1030,525; 3026,217;    1,000;    0,409
1031,071; 3258,490;   -1,364;    1,136
1031,618; 3385,854;    0,364;    1,682
1032,164; 3146,217;   -0,091;    3,045
1032,710; 3198,581;    1,636;   -1,500
1033,256; 3091,854;   -0,636;   -0,136
1033,803; 3085,490;   -0,545;    1,500
1034,349; 2802,126;   -1,364;    0,136
1034,895; 2950,490;    0,000;   -0,318
1035,441; 2940,854;   -0,818;    0,318
1035,987; 2953,672;   -2,364;   -0,682
1036,533; 2941,490;   -1,455;   -0,955
1037,078; 3149,672;    1,455;    1,682
1037,624; 2963,490;    2,455;   -0,955
1038,170; 2986,854;    0,455;   -0,318
1038,716; 2920,126;    1,636;   -0,409
1039,261; 2830,308;   -2,273;   -0,773
1039,807; 2763,308;   -0,091;    3,409
1040,352; 2818,126;   -1,909;   -0,318
1040,898; 2859,399;   -1,545;   -0,682
1041,443; 2750,854;   -1,455;   -2,591
1041,989; 2789,490;    1,091;    1,591
1042,534; 2679,490;   -0,364;    2,591
1043,079; 2776,944;    2,909;    0,955
1043,625; 2578,672;    1,818;    0,500
1044,170; 2615,490;   -1,364;    1,045
1044,715; 2887,126;    2,455;    0,955
1045,260; 2705,490;    2,182;   -0,955
1045,805; 2736,672;    1,182;   -0,591
1046,350; 2664,581;    1,364;   -0,409
1046,895; 2636,399;    2,909;    1,591
1047,440; 2594,854;    5,364;    0,409
1047,985; 2475,763;    2,818;   -0,955
1048,530; 2395,217;    1,545;    1,227
1049,074; 2476,763;    0,000;    0,318
1049,619; 2447,944;   -1,364;    1,955
1050,164; 2254,854;    0,455;    0,227
1050,708; 2284,854;   -0,455;    0,045
1051,253; 2656,854;    1,273;   -2,227
1051,797; 2366,763;    0,818;   -1,318
1052,342; 2379,763;   -1,182;    1,045
1052,886; 2371,490;    0,364;   -1,409
1053,430; 2253,126;   -1,364;    0,136
1053,975; 2278,854;   -0,818;   -0,318
1054,519; 2255,035;   -0,727;    3,227
1055,063; 2269,399;    0,909;    1,318
1055,607; 2149,035;   -0,182;    0,227
1056,151; 2182,399;    2,909;    1,682
1056,695; 2094,126;    2,273;   -1,136
1057,239; 2160,763;   -1,727;   -0,682
1057,783; 2192,490;    0,818;   -1,500
1058,327; 2122,399;    0,000;    1,409
1058,871; 2344,308;   -0,545;    1,318
1059,415; 2059,763;   -0,818;   -0,045
1059,958; 2339,490;    1,455;    2,591
1060,502; 2054,854;   -1,000;   -0,773
1061,046; 1944,490;    0,364;   -0,955
1061,589; 1921,308;   -3,000;   -1,136
1062,133; 1812,308;   -1,273;    1,864
1062,676; 1746,399;    1,182;    0,864
1063,220; 1753,763;    1,091;    0,500
1063,763; 1769,581;    0,909;    1,136
1064,306; 1875,126;   -0,909;    1,864
1064,849; 1757,672;   -0,909;    0,591
1065,393; 1747,944;    2,000;   -1,500
1065,936; 1869,763;    0,182;   -0,409
1066,479; 1746,035;   -1,455;    1,318
1067,022; 1769,944;   -0,273;   -0,227
1067,565; 1671,944;   -0,091;   -1,318
1068,108; 1709,944;    0,727;   -0,591
1068,651; 1676,490;   -0,636;    1,409
1069,194; 1598,399;   -0,455;   -1,682
1069,736; 1602,035;   -1,273;    0,955
1070,279; 1573,399;   -1,364;   -0,500
1070,822; 1633,490;   -2,000;   -0,318
1071,364; 1739,763;   -0,364;    1,318
1071,907; 1538,944;   -0,727;    3,227
1072,450; 1426,490;    0,000;   -0,045
1072,992; 1435,308;   -0,273;    3,136
1073,535; 1584,854;    2,091;    2,136
1074,077; 1363,399;   -0,727;    2,045
1074,619; 1350,944;   -1,364;    0,591
1075,161; 1372,581;   -1,091;    1,500
1075,704; 1560,126;    1,545;    1,227
1076,246; 1340,854;   -0,182;    0,682
1076,788; 1276,581;   -0,364;    1,773
1077,330; 1353,399;    1,273;    2,136
1077,872; 1333,944;    0,909;    0,955
1078,414; 1550,308;    2,727;    0,773
1078,956; 1287,490;    1,273;   -0,227
1079,498; 1565,581;    1,636;    0,318
1080,040; 1254,308;    1,909;   -1,318
1080,581; 1191,854;    1,636;   -0,318
1081,123; 1113,490;    0,091;   -0,773
1081,665; 1166,854;   -1,182;   -0,955
1082,206; 1481,763;    1,364;   -0,500
1082,748; 1315,308;    0,727;    2,045
1083,289; 1190,854;   -2,000;    1,318
1083,831; 1103,399;   -0,545;    0,227
1084,372; 1149,308;    0,000;    0,591
1084,913; 1161,308;    1,091;    0,864
1085,455; 1118,126;   -1,909;   -2,045
1085,996; 1094,581;   -2,273;    0,136
1086,537; 1108,035;   -0,091;    0,864
1087,078; 1137,854;   -0,909;   -2,136
1087,619; 1180,854;   -1,273;    0,227
1088,160; 1101,672;    0,000;    1,318
1088,701; 1085,308;   -1,091;    0,682
1089,242; 1026,490;    1,364;   -2,227
1089,783; 1123,308;   -0,273;    1,409
1090,324; 1092,854;    0,455;    0,682
1090,865;  970,581;    2,727;   -0,409
1091,405;  923,763;    0,727;    2,227
1091,946;  958,944;    0,182;   -0,955
1092,487;  886,308;    0,818;   -1,409
1093,027; 1067,217;   -1,364;   -1,500
1093,568;  912,490;   -0,364;    1,227
1094,108; 1015,763;    0,273;    1,773
1094,649;  948,672;   -1,182;    0,136
1095,189;  881,854;   -0,636;   -0,682
1095,729;  840,126;   -0,091;    0,955
1096,269;  835,126;    0,727;   -0,955
1096,810; 1160,763;   -1,364;    0,500
1097,350;  992,399;    1,364;   -0,773
1097,890;  894,399;    0,364;    1,227
1098,430; 1144,490;    2,364;    2,864
1098,970; 1026,944;    2,182;    1,682
1099,510;  869,944;    0,545;   -2,318
1100,050;  797,672;    1,000;   -1,591
1100,589;  775,217;   -0,727;   -0,318
1101,129;  901,581;    0,818;   -0,955
1101,669; 1063,854;    1,727;    2,136
1102,209;  878,490;   -0,091;    2,227
1102,748;  824,035;    0,000;    0,955
1103,288;  819,217;    1,273;   -1,227
1103,827;  857,035;    3,091;   -2,227
1104,367;  728,035;   -0,091;   -2,409
1104,906;  690,035;    1,364;   -1,136
1105,445;  765,854;    0,636;   -1,136
1105,985;  712,854;   -0,727;    1,500
1106,524;  754,854;   -1,727;   -0,682
1107,063;  733,126;   -2,727;    1,409
1107,602;  697,490;   -1,909;   -1,500
1108,141;  615,490;   -1,909;    1,500
1108,680;  736,490;   -3,455;   -0,591
1109,219;  652,126;   -0,909;   -0,500
1109,758;  658,763;    0,455;    0,682
1110,297;  636,490;    1,000;   -0,682
1110,836;  580,126;   -0,727;    0,955
1111,375;  756,399;   -2,545;    0,409
1111,913;  767,399;   -1,000;    0,773
1112,452;  685,126;   -0,273;    0,136
1112,991;  576,217;    1,091;    1,955
1113,529;  535,126;   -0,818;   -0,045
1114,068;  612,944;   -0,273;    2,955
1114,606;  512,035;   -0,364;   -0,955
1115,144;  685,944;   -1,273;    1,045
1115,683;  613,308;   -0,727;    0,318
1116,221;  659,763;   -0,455;   -0,864
1116,759;  571,490;    0,636;   -0,864
1117,297;  779,763;    0,000;    1,864
1117,836;  566,672;   -2,182;   -1,227
1118,374;  577,581;    0,182;   -0,682
1118,912;  530,490;    0,909;    2,682
1119,450;  512,944;    1,000;    0,864
1119,988;  566,854;    1,545;    2,136
1120,525; 1030,308;    5,091;    3,318
1121,063;  718,672;    1,182;    1,864
1121,601;  530,581;   -0,909;   -1,227
1122,139;  481,126;   -0,727;   -2,045
1122,676;  687,581;   -0,727;    2,773
1123,214;  621,763;   -1,182;    4,409
1123,751;  424,944;    1,727;    2,227
1124,289;  565,944;   -0,091;   -0,409
1124,826;  423,763;    1,727;    0,227
1125,364;  343,399;    1,727;   -0,955
1125,901;  540,763;    1,182;    1,227
1126,438;  665,126;    0,818;    0,955
1126,975;  386,490;   -0,727;   -0,773
1127,513;  452,944;    0,273;    2,136
1128,050;  342,399;    1,636;   -0,682
1128,587;  449,763;    2,000;   -0,227
1129,124;  488,854;    0,091;    1,318
1129,661;  359,581;    0,273;    0,227
1130,198;  536,399;    1,636;    0,773
1130,734;  482,035;    0,182;    1,409
1131,271;  330,035;   -0,909;    0,864
1131,808;  510,308;    2,909;    3,045
1132,345;  378,308;    1,545;    0,318
1132,881;  240,763;   -1,545;   -1,864
1133,418;  384,217;    0,727;   -1,136
1133,954;  323,217;    2,455;   -2,682
1134,491;  406,581;    1,364;   -0,773
1135,027;  295,490;    2,364;    0,864
1135,564;  394,763;    0,273;    2,955
1136,100;  380,854;    0,364;    2,136
1136,636;  254,490;   -1,273;   -1,045
1137,172;  360,308;    0,000;   -1,045
1137,708;  280,126;   -1,364;   -1,045
1138,245;  285,399;    1,273;   -1,227
1138,781;  238,672;    1,091;   -3,318
1139,317;  311,035;    1,273;   -1,409
1139,852;  289,763;    3,091;    0,136
1140,388;  427,490;   -1,182;   -0,409
1140,924;  297,763;   -1,091;   -2,227
1141,460;  221,308;   -1,636;    0,136
1141,996;  156,035;   -1,364;    2,682
1142,531;  209,308;    1,364;    3,318
1143,067;  441,490;    1,182;    1,045
1143,602;  500,763;   -0,091;   -0,318
1144,138;  341,126;   -2,636;    1,045
1144,673;  191,854;   -1,455;    1,409
1145,209;  266,854;   -1,909;   -0,318
1145,744;  187,763;   -0,727;    0,864
1146,279;  323,035;    1,818;   -0,136
1146,815;  233,672;    1,545;   -2,682
1147,350;  281,763;   -1,364;    0,045
1147,885;  190,490;   -0,818;   -1,318
1148,420;  195,126;   -2,273;    0,773
1148,955;  170,944;   -1,727;    1,864
1149,490;  198,217;   -0,909;   -1,591
1150,025;  178,217;    0,455;   -1,773
1150,560;  294,126;    1,091;   -0,955
1151,094;  258,308;    1,455;   -0,591
1151,629;  264,581;    1,636;    0,864
1152,164;  188,399;    1,364;    1,318
1152,698;  145,581;   -0,182;   -0,136
1153,233;   99,490;    0,091;   -0,682
1153,767;  152,490;   -3,000;   -2,318
1154,302;  211,581;   -1,455;    1,773
1154,836;  207,308;   -0,455;   -2,136
1155,371;  263,126;   -1,364;    3,682
1155,905;  208,308;   -0,636;    1,682
1156,439;  175,217;   -0,636;   -0,500
1156,973;  207,944;    0,364;    0,318
1157,507;  144,126;   -0,364;    0,682
1158,042;  169,944;   -0,727;    1,045
1158,576;  224,399;    0,182;    1,773
1159,110;  214,581;   -0,818;    2,409
1159,643;  186,308;    0,636;   -0,045
1160,177;  114,308;   -1,545;    1,500

