
Integration time [ms]:   0,040
Averaging Nr. [scans]: 11
Smoothing Nr. [pixels]: 0
Data measured with spectrometer [name]: 7318044SP
Wave   ;Sample   ;Dark     ;Reference
[nm]   ;[counts] ;[counts] ;[counts] 

186,757;   21,159;   31,551;    1,318
187,357;   61,823;   22,551;    0,955
187,958;   42,260;   15,460;   -1,591
188,558;   82,425;    8,915;   -1,227
189,159;   45,924;    6,733;   -4,500
189,759;   17,071;    7,278;   -3,591
190,360;   18,615;    2,824;   -2,136
190,960;   63,820;    2,915;   -4,136
191,560;   83,506;    3,189;   -6,591
192,161;  338,090;    4,372;   -3,500
192,761;  178,867;    4,010;   -3,227
193,361;  111,468;    1,556;   -3,773
193,962;  166,978;    2,010;   -2,682
194,562;   90,459;    1,189;   -3,955
195,162;  131,907;   -2,448;   -2,227
195,762;  308,601;   -3,176;   -0,045
196,362;  251,098;    1,370;   -2,500
196,963;   94,008;    2,006;   -0,864
197,563;  171,883;    1,551;   -0,955
198,163;  114,583;    0,096;   -0,682
198,763;  131,464;    1,733;   -0,500
199,363;  251,716;    3,096;   -0,500
199,963;  206,192;    0,369;    0,409
200,563;  172,997;    2,823;   -1,409
201,163;  151,267;    3,277;   -0,227
201,763;  251,885;    3,732;    0,318
202,363;  180,613;    1,459;    1,500
202,963;  304,914;    1,459;    1,045
203,563;  416,816;    0,277;    0,500
204,162;  257,830;    2,096;   -1,864
204,762;  244,164;    0,550;    0,591
205,362;  215,890;    3,004;    1,955
205,962;  327,536;    3,096;    1,955
206,562;  315,345;    1,823;    2,318
207,161;  290,898;   -0,087;    0,318
207,761;  454,194;    1,277;    2,409
208,361;  318,201;   -0,268;    1,409
208,960;  423,299;    0,459;    1,500
209,560;  502,083;    1,277;    1,591
210,160;  485,307;    0,550;    1,864
210,759;  443,212;    4,186;    1,227
211,359;  450,682;    1,459;    1,045
211,958;  725,499;    1,277;    2,045
212,558;  814,478;    1,732;    1,864
213,157;  647,524;    1,822;    1,500
213,757; 1106,885;    3,822;   -0,227
214,356;  800,951;    1,277;   -0,409
214,956; 1148,180;    3,095;    0,409
215,555;  754,357;    2,095;    2,136
216,154;  693,297;   -2,723;   -0,591
216,754;  694,381;    0,277;    0,773
217,353;  832,458;   -0,268;   -1,045
217,952;  683,581;   -0,178;    0,318
218,552;  941,767;    1,368;   -0,773
219,151;  840,295;    0,277;    0,955
219,750;  826,152;    0,004;   -0,227
220,349;  973,026;   -0,451;    1,045
220,948; 1036,348;   -1,360;    1,136
221,548; 1068,382;    0,913;    1,227
222,147; 1182,759;   -0,087;   -0,409
222,746; 1485,155;   -0,451;   -0,955
223,345; 1367,264;    0,731;    0,500
223,944; 1369,893;   -0,451;    0,773
224,543; 1558,574;    1,004;   -1,409
225,142; 1672,848;    0,094;    0,136
225,741; 1585,704;   -0,814;    1,045
226,340; 1629,026;   -0,451;   -0,955
226,939; 2090,298;   -0,996;   -0,136
227,538; 2071,998;   -0,360;   -0,773
228,137; 2221,238;   -0,814;    0,864
228,735; 2402,416;   -0,541;    1,227
229,334; 2125,137;   -0,905;   -0,227
229,933; 2511,297;    0,459;    0,591
230,532; 2628,073;    1,186;   -0,409
231,131; 2688,258;    1,732;    0,318
231,729; 2858,098;   -2,450;   -2,318
232,328; 3022,329;   -0,723;   -1,500
232,927; 3091,933;    1,004;   -0,500
233,525; 3244,749;    3,640;    0,045
234,124; 3467,951;    2,368;   -1,591
234,723; 3486,434;    0,913;   -1,045
235,321; 3632,004;    2,277;    0,136
235,920; 3919,647;    1,186;   -1,227
236,518; 4190,945;    3,459;    0,318
237,117; 4371,718;    0,004;   -0,227
237,715; 4568,290;    0,640;   -0,500
238,314; 4617,084;   -0,087;   -2,318
238,912; 4712,115;   -0,723;   -1,409
239,510; 4735,829;    0,459;   -1,227
240,109; 4927,573;    0,004;    3,773
240,707; 4977,195;   -0,996;    1,227
241,305; 5383,706;    0,550;    0,136
241,904; 5607,433;   -0,178;   -2,045
242,502; 5553,807;   -0,632;   -0,227
243,100; 5502,192;   -0,087;   -0,955
243,698; 5743,674;    0,732;    1,682
244,297; 5952,595;   -0,632;    0,682
244,895; 5781,633;   -0,269;   -2,318
245,493; 6141,910;    2,186;   -0,591
246,091; 6149,319;    1,368;   -1,318
246,689; 6154,043;    1,004;    0,591
247,287; 6331,735;    0,822;   -1,136
247,885; 6628,442;   -1,451;    1,227
248,483; 6723,700;    1,822;   -0,500
249,081; 6851,205;    0,185;    1,591
249,679; 7030,858;   -0,178;    1,682
250,277; 7284,599;   -1,723;    0,864
250,875; 7257,196;   -1,087;   -1,045
251,473; 7296,025;   -1,178;    0,500
252,071; 7538,427;    1,459;    1,045
252,669; 7701,074;   -1,814;    0,318
253,267; 7916,831;   -0,087;    0,773
253,864; 7889,280;   -0,360;    0,682
254,462; 7738,068;    1,640;    1,591
255,060; 7730,868;   -0,269;    1,318
255,658; 8085,893;    0,822;   -0,136
256,255; 8485,822;    0,186;   -2,045
256,853; 8352,533;   -0,269;    1,409
257,451; 8331,994;    0,822;    1,864
258,048; 8625,522;    1,822;    1,864
258,646; 8394,973;    1,731;   -1,045
259,243; 8607,533;   -0,087;    2,227
259,841; 8646,319;   -0,814;    0,318
260,438; 8511,050;   -0,087;    0,864
261,036; 9255,357;   -1,905;    1,409
261,633; 9127,718;   -0,087;    2,227
262,231; 8889,823;    2,731;   -0,045
262,828; 8948,423;   -0,905;    1,136
263,425; 9005,333;    0,913;   -0,591
264,023; 9293,141;    0,186;    0,045
264,620; 8823,693;   -0,360;   -0,318
265,217; 9221,078;   -2,087;    3,136
265,815; 9303,652;   -1,905;    2,136
266,412; 9056,721;    0,731;    0,136
267,009; 9141,718;   -1,451;    0,773
267,606; 9020,155;    0,822;   -0,955
268,203; 8977,766;   -0,269;   -0,591
268,801; 9293,739;    1,731;    0,591
269,398; 9603,666;   -0,360;    2,500
269,995; 9572,969;    0,277;    1,591
270,592; 9340,623;   -0,632;   -0,500
271,189; 9568,424;    0,186;    0,409
271,786; 9652,186;   -0,632;    1,227
272,383; 9514,091;   -1,087;    0,227
272,980; 9708,148;    0,277;    0,318
273,577;10182,671;    0,004;    1,227
274,174; 9740,808;    0,822;    2,591
274,771; 9730,165;   -0,814;   -0,773
275,367; 9888,031;    2,277;    1,409
275,964; 9844,227;    0,731;   -0,500
276,561; 9936,449;    1,549;   -1,045
277,158;10163,586;    0,095;   -1,773
277,755;10275,386;    2,185;    0,409
278,351; 9697,242;   -0,451;   -1,500
278,948;10002,988;   -0,815;    0,045
279,545; 9984,886;   -1,360;    2,318
280,141;10643,616;   -1,723;   -2,045
280,738;10519,340;   -0,451;   -0,136
281,334;10777,666;   -1,633;    0,591
281,931;10137,569;   -0,087;   -1,318
282,528;10242,401;    0,822;   -0,500
283,124;10971,522;   -1,087;   -0,500
283,721;10857,009;   -0,451;    1,409
284,317;10623,999;    0,185;    2,500
284,913;11225,530;   -1,360;    0,591
285,510;11427,439;    0,640;   -0,318
286,106;11466,635;   -2,269;   -0,955
286,703;11029,946;   -0,360;    1,955
287,299;11227,683;   -1,451;   -0,591
287,895;11445,089;    0,822;   -1,045
288,491;12034,302;    0,186;    2,136
289,088;11746,302;   -2,360;    2,409
289,684;11814,711;   -1,723;    1,500
290,280;11841,424;    0,368;    0,682
290,876;11901,204;    1,822;    5,500
291,472;11789,435;    1,276;    2,227
292,068;11922,005;    1,367;    0,227
292,665;11601,865;    2,095;    0,773
293,261;11187,613;    0,276;    2,136
293,857;11608,598;    2,913;    2,136
294,453;11550,294;    3,550;    0,955
295,049;11415,345;   -0,268;    1,955
295,644;11422,685;    0,095;    0,136
296,240;11329,957;   -0,905;   -0,136
296,836;11347,425;   -0,995;    0,318
297,432;11622,574;    1,096;   -0,500
298,028;11675,728;    0,732;    0,773
298,624;12096,072;    1,459;    1,864
299,220;12352,554;    2,368;    0,591
299,815;12035,568;    1,005;   -0,409
300,411;11817,981;    0,914;    1,773
301,007;11851,172;    1,368;    0,227
301,602;11878,855;   -0,541;   -2,318
302,198;12045,410;    0,732;   -0,773
302,794;12409,875;    1,187;   -0,500
303,389;12538,795;   -1,177;    1,045
303,985;12578,865;    0,550;    1,409
304,580;12542,781;    1,459;    1,591
305,176;12517,495;   -3,086;    0,136
305,771;12477,104;   -1,268;   -1,227
306,367;12302,006;    4,095;    0,136
306,962;12666,855;    0,641;    1,500
307,558;12365,155;   -0,450;    0,136
308,153;12280,408;    1,095;   -1,136
308,748;12518,719;   -0,814;    1,682
309,344;12510,037;   -0,632;   -1,318
309,939;12574,492;   -1,905;   -1,318
310,534;12840,901;   -0,086;   -1,682
311,130;12785,694;    0,459;   -2,500
311,725;12489,268;    1,004;   -0,500
312,320;12814,376;    2,459;    0,045
312,915;12688,814;    1,459;   -1,045
313,510;12785,212;    1,550;   -0,500
314,105;13277,641;    1,096;    1,409
314,700;12659,396;   -3,086;   -1,045
315,295;12276,508;   -0,904;    0,045
315,890;11810,575;    1,277;    0,864
316,485;12185,366;   -0,359;   -0,318
317,080;12319,407;   -3,086;    1,591
317,675;12907,834;    2,005;   -0,682
318,270;12318,064;    5,550;    3,318
318,865;12313,515;    3,278;    3,045
319,460;12128,369;   -0,904;    0,591
320,055;12336,906;   -0,541;   -1,227
320,650;12045,402;   -1,995;   -0,591
321,244;12064,651;   -0,177;   -1,409
321,839;12986,680;   -1,541;   -0,227
322,434;12871,830;   -1,086;   -1,591
323,029;12531,295;    1,732;    1,591
323,623;12349,446;    1,550;    0,773
324,218;12120,179;    2,368;    1,409
324,812;11976,424;    1,096;    1,591
325,407;11803,460;   -0,814;    2,045
326,002;11745,253;    0,277;   -0,409
326,596;12031,750;    0,914;    1,318
327,191;12210,054;    0,823;   -1,045
327,785;11770,840;   -0,813;   -0,227
328,379;11990,449;    1,368;    0,136
328,974;11833,026;    0,914;   -3,955
329,568;12017,914;    0,186;   -2,409
330,163;11813,879;    2,096;    1,045
330,757;12196,527;    2,459;    1,591
331,351;11507,519;    0,459;    0,682
331,945;11813,599;    0,914;    1,409
332,540;11417,159;   -1,723;   -0,591
333,134;11605,593;   -1,086;    0,773
333,728;11847,764;    0,005;    0,318
334,322;12133,201;   -1,177;   -0,864
334,916;11378,691;    0,277;    0,955
335,510;11719,453;   -0,450;   -0,136
336,105;11971,690;   -1,086;    1,591
336,699;11720,534;   -1,086;    0,591
337,293;11609,835;   -1,723;    0,318
337,887;11794,680;   -2,723;    1,955
338,481;11886,733;    0,459;    0,591
339,074;12014,961;   -0,359;    2,682
339,668;11839,548;   -1,632;    1,227
340,262;12143,446;    1,732;    3,227
340,856;11635,059;    1,822;   -0,682
341,450;10972,514;    1,004;    1,864
342,044;11831,835;    1,459;    0,136
342,637;11642,391;    0,913;   -2,136
343,231;11490,148;   -2,360;    0,682
343,825;11461,530;   -1,086;   -0,591
344,419;11407,166;   -1,995;    0,500
345,012;11202,529;    2,459;    4,045
345,606;11212,658;    4,641;    1,591
346,199;11031,553;   -1,813;   -0,227
346,793;10542,958;    1,914;    2,045
347,386;10738,298;   -0,813;   -1,136
347,980;10721,402;   -0,268;   -0,045
348,573;10512,587;    2,278;    0,409
349,167;10218,128;    5,278;    4,773
349,760;10531,076;    2,914;    2,682
350,354;10540,487;   -0,813;    1,136
350,947;10256,956;    1,096;    1,682
351,540; 9930,981;   -0,358;   -1,409
352,134; 9889,744;    1,096;    1,136
352,727; 9989,021;   -0,086;    1,136
353,320; 9749,611;    0,005;    0,591
353,913; 9597,118;   -1,995;    1,864
354,507; 9814,590;    0,823;   -1,227
355,100; 9782,297;    0,460;    0,864
355,693; 9043,893;    2,005;    2,409
356,286; 9058,286;    0,823;    2,773
356,879; 9408,083;   -0,722;    1,227
357,472; 9013,852;   -0,904;    1,500
358,065; 9225,673;   -0,722;    2,500
358,658; 9152,352;   -0,540;    2,318
359,251; 8776,177;   -1,631;   -0,591
359,844; 8234,572;   -1,904;   -1,136
360,437; 8437,908;   -2,995;    0,045
361,030; 8682,237;    1,369;   -0,682
361,623; 8268,173;    2,824;    0,318
362,215; 8333,058;   -0,086;    2,045
362,808; 8192,170;   -2,358;   -1,682
363,401; 8377,841;   -2,449;    0,136
363,994; 8106,868;   -0,631;   -1,500
364,586; 8021,888;    0,824;   -1,500
365,179; 8244,311;   -0,449;   -1,136
365,772; 7705,247;   -1,995;    2,045
366,364; 8044,650;    1,915;   -3,227
366,957; 8243,397;    2,279;   -0,045
367,549; 8250,114;    2,188;   -0,864
368,142; 7912,934;    1,825;   -1,500
368,734; 8118,062;    0,734;   -2,136
369,327; 8063,268;    1,643;   -0,500
369,919; 7974,029;   -1,538;    0,409
370,512; 7753,800;   -1,083;   -0,500
371,104; 7529,284;   -0,901;    1,591
371,696; 7704,319;    1,191;   -0,955
372,289; 7808,792;    0,373;    1,136
372,881; 7941,089;   -2,080;    1,318
373,473; 7869,943;   -2,170;    1,136
374,066; 7700,875;   -0,169;    0,500
374,658; 7508,797;    0,378;    1,136
375,250; 7874,304;    0,653;   -1,409
375,842; 7723,073;    0,473;   -0,045
376,434; 7620,175;   -0,435;   -0,409
377,026; 8173,146;    0,204;   -2,500
377,618; 8062,732;   -0,158;   -0,682
378,210; 7890,148;   -0,338;   -1,955
378,802; 7753,192;    0,754;   -0,591
379,394; 7743,397;    1,846;    0,682
379,986; 8321,475;    1,393;   -0,955
380,578; 8421,708;   -0,153;    0,773
381,170; 7781,263;   -0,972;    0,045
381,762; 7714,446;    0,755;    1,409
382,354; 7902,270;   -0,065;   -1,318
382,945; 8001,045;   -2,976;    0,318
383,537; 8154,587;   -2,705;   -1,955
384,129; 8175,431;   -2,160;   -1,136
384,721; 8374,328;   -0,252;    0,955
385,312; 8301,224;   -0,161;   -0,955
385,904; 8370,087;   -2,706;    1,591
386,496; 7775,603;   -0,979;    1,045
387,087; 7928,024;    1,022;    2,500
387,679; 7954,013;   -1,160;    0,045
388,270; 8089,477;    2,840;    2,045
388,862; 8199,292;    1,295;   -0,318
389,453; 8103,621;   -0,887;    1,045
390,045; 8390,044;   -0,705;   -2,682
390,636; 8328,281;    0,204;   -0,591
391,227; 8166,401;   -0,523;   -0,045
391,819; 8268,097;    0,204;    0,773
392,410; 8344,150;    1,022;    0,045
393,001; 8254,978;   -0,979;   -1,591
393,593; 8542,244;    1,930;   -0,045
394,184; 8444,439;    1,385;   -0,409
394,775; 8363,111;    1,839;    2,136
395,366; 8525,316;    1,385;    0,773
395,957; 8544,007;    0,113;    0,136
396,548; 8821,644;   -0,342;    2,682
397,139; 9168,139;   -2,433;    0,591
397,730; 8889,095;   -1,888;    0,955
398,321; 8947,271;   -1,252;    0,955
398,912; 8988,513;   -0,615;    0,136
399,503; 9055,810;   -3,524;   -1,409
400,094; 8490,079;    0,294;    1,682
400,685; 8333,016;   -0,433;    0,045
401,276; 8429,351;    0,930;   -0,955
401,867; 8740,782;   -0,888;    0,773
402,458; 8813,313;   -2,251;   -2,318
403,048; 8831,988;    1,112;    0,591
403,639; 8414,424;    0,840;    0,864
404,230; 8650,300;    2,476;    0,318
404,821; 8597,264;   -0,615;    0,045
405,411; 8731,087;    1,203;   -2,591
406,002; 8314,663;   -1,252;   -1,136
406,592; 8175,115;    2,294;    0,045
407,183; 8469,899;    0,566;   -1,500
407,774; 8383,640;    3,475;   -0,136
408,364; 8739,213;    0,930;    0,409
408,954; 8320,402;    0,384;    1,227
409,545; 8377,483;    1,021;    1,045
410,135; 7940,763;    1,293;    0,500
410,726; 8080,426;    1,838;    0,318
411,316; 8450,540;    0,111;    0,773
411,906; 8132,104;   -0,253;   -0,409
412,497; 7620,550;   -1,070;   -0,045
413,087; 8249,347;   -1,980;   -0,227
413,677; 8623,639;   -0,707;    3,864
414,267; 8459,775;    0,656;    1,409
414,857; 8464,433;   -2,980;    4,227
415,448; 8764,578;    0,839;    0,500
416,038; 8448,809;    0,020;   -0,591
416,628; 8434,629;   -0,889;    0,409
417,218; 7897,919;    0,565;    3,318
417,808; 8141,122;    0,202;   -0,409
418,398; 8648,339;    0,020;    2,682
418,988; 8647,598;    2,020;    0,591
419,578; 8902,447;   -0,707;    1,409
420,168; 9249,111;   -1,343;   -0,955
420,757; 8844,973;   -1,343;   -1,500
421,347; 8504,766;    0,111;   -0,227
421,937; 8676,878;    2,292;    1,409
422,527; 8652,288;    0,838;   -0,773
423,116; 8449,731;   -0,253;   -0,045
423,706; 8778,109;   -1,889;    0,318
424,296; 8786,283;    1,384;    0,682
424,885; 9232,738;   -0,071;   -3,045
425,475; 9487,609;    1,474;   -2,864
426,065; 9404,270;   -0,980;   -0,318
426,654; 9015,386;   -0,435;   -0,318
427,244; 9195,291;    0,020;    1,409
427,833; 8628,812;    1,383;   -0,500
428,423; 9103,134;   -0,526;    1,136
429,012; 9850,411;   -0,344;   -1,136
429,601; 9358,674;   -1,344;    0,136
430,191; 9576,887;    1,292;    4,318
430,780; 9216,292;   -0,344;   -0,409
431,369; 9165,678;    0,746;   -0,045
431,959; 9769,363;   -1,254;    0,500
432,548; 9580,314;   -1,163;   -0,045
433,137; 9678,811;   -1,254;   -1,318
433,726;10246,416;    0,292;    0,500
434,315; 9583,689;   -0,526;    2,409
434,905; 9666,589;   -1,254;    1,409
435,494; 9559,095;    0,746;    0,955
436,083;10008,675;   -0,981;   -0,955
436,672; 9921,626;    0,110;    0,500
437,261; 9461,945;    0,292;   -1,955
437,850; 9607,242;    1,383;    0,682
438,439; 9644,614;    3,291;    1,955
439,027; 9488,369;    3,655;    1,773
439,616; 9796,289;    2,927;    1,227
440,205; 9682,555;    0,200;   -2,136
440,794; 9757,580;    2,109;   -0,045
441,383;10013,273;   -1,346;   -0,591
441,971; 9837,350;   -2,436;    0,591
442,560; 9721,648;    0,563;   -1,773
443,149; 9468,129;    0,379;   -1,318
443,737; 9609,765;   -0,074;   -2,318
444,326; 9914,022;    0,018;    0,318
444,915; 9969,218;   -1,982;    0,864
445,503;10374,361;   -2,891;   -0,318
446,092; 9600,934;    0,382;    2,136
446,680;10152,987;    0,382;    0,318
447,269;10346,442;   -0,346;   -0,318
447,857;10115,785;    0,018;   -1,773
448,445;10233,387;    0,563;    1,318
449,034;10459,124;   -1,528;   -1,136
449,622;10611,946;   -1,073;    3,500
450,210; 9760,007;    2,017;    2,227
450,799;10363,304;    0,290;   -0,591
451,387;10310,637;    1,381;   -0,591
451,975; 9937,325;    2,654;    0,864
452,563;10011,958;    3,472;    2,318
453,151;10067,514;   -0,528;   -1,227
453,739;10034,264;   -1,347;    0,136
454,328; 9846,187;    2,381;   -2,136
454,916; 9564,184;    2,562;   -0,136
455,504; 9759,708;    1,017;    1,227
456,092; 9931,875;    0,017;   -1,591
456,679; 9935,309;    1,472;    0,682
457,267; 9863,016;    4,017;    1,045
457,855;10020,117;    1,017;    1,409
458,443; 9779,384;   -0,165;    1,682
459,031; 9903,058;    0,108;    2,409
459,619;10342,799;   -1,801;    2,864
460,206;10511,771;    0,835;    2,045
460,794;10619,761;   -2,983;   -0,227
461,382;10872,262;   -0,529;   -0,864
461,970;10420,654;    1,198;    1,864
462,557;10446,497;   -0,711;   -0,682
463,145;10667,517;   -3,165;   -1,682
463,732;10809,176;    2,016;   -1,045
464,320;10724,837;   -0,075;   -3,045
464,907;10400,228;    2,743;   -0,773
465,495;10256,821;    0,743;   -1,227
466,082;10411,767;   -1,984;   -0,045
466,670;10328,599;   -2,529;    1,227
467,257;10744,635;   -1,711;    2,045
467,844;10891,880;   -0,075;    0,045
468,432;10969,289;    0,834;    3,500
469,019;10379,175;    0,925;   -1,773
469,606;10902,087;    0,470;    3,682
470,193;10726,819;   -1,439;    0,227
470,780;10284,412;   -2,075;    0,864
471,368;10653,689;   -1,257;   -0,773
471,955;10470,475;    1,379;   -0,682
472,542;10078,053;    0,652;   -1,136
473,129;10299,465;   -0,166;    0,136
473,716;10056,409;    1,470;    0,591
474,303;10267,779;    0,652;   -0,864
474,890;10563,068;   -1,439;   -0,500
475,477;10600,446;   -1,621;    0,409
476,064;10492,639;    1,106;   -1,591
476,650;10415,638;    0,288;    0,318
477,237;10243,456;   -0,258;    0,955
477,824;10432,145;   -1,076;    0,864
478,411;10444,677;   -1,894;   -0,318
478,997;10647,485;    0,560;   -0,773
479,584;10742,196;    1,196;   -0,409
480,171;11479,517;   -0,440;   -0,773
480,757;11075,280;    2,651;    0,773
481,344;11397,947;    0,469;    0,409
481,931;10917,565;    1,105;    1,045
482,517;12024,900;   -1,258;    0,318
483,104;12641,619;    1,106;    2,864
483,690;12912,720;   -1,804;    0,045
484,276;13248,557;   -0,895;    0,227
484,863;12978,056;    2,469;    1,136
485,449;13584,166;   -0,077;    0,318
486,035;13558,939;   -1,986;   -0,136
486,622;13985,319;   -0,895;    0,045
487,208;13916,882;    1,378;    1,500
487,794;13774,254;    0,741;    0,318
488,380;13844,555;    0,105;   -1,409
488,967;13966,419;   -1,168;   -0,409
489,553;14015,576;   -1,895;   -1,409
490,139;14194,006;    1,559;    0,773
490,725;13577,115;    0,741;   -0,227
491,311;13073,884;    3,287;    3,045
491,897;12417,349;   -0,986;    1,500
492,483;12211,227;    0,105;    1,227
493,069;12034,968;    3,923;    0,864
493,655;12009,794;    1,650;    0,682
494,241;11912,927;    1,377;   -0,955
494,826;12366,482;    0,287;   -1,045
495,412;11832,241;    2,559;   -0,682
495,998;11967,602;   -0,805;   -0,318
496,584;12123,861;    0,377;    1,045
497,169;12092,959;    1,014;   -0,682
497,755;12049,782;    0,650;    1,227
498,341;12645,410;    0,559;    0,318
498,926;12237,617;    1,832;    1,955
499,512;12368,472;    1,286;    2,955
500,097;12519,989;    0,195;   -0,318
500,683;12463,037;   -0,350;    2,136
501,268;12833,803;   -0,169;   -0,955
501,854;12544,450;   -0,169;    1,227
502,439;12456,367;   -0,624;   -1,773
503,024;12649,174;    0,195;    0,500
503,610;12715,104;   -0,078;   -0,682
504,195;12741,266;    0,558;    1,955
504,780;12871,181;    2,922;    1,227
505,366;12712,887;    3,013;    2,864
505,951;12403,242;    0,740;    1,045
506,536;12410,798;   -3,260;   -3,682
507,121;12434,333;    0,285;   -0,318
507,706;12950,161;    2,376;    1,045
508,291;13355,064;    2,649;    1,136
508,876;12799,290;   -0,988;    2,591
509,461;12239,034;   -0,169;   -0,773
510,046;12653,233;    0,194;    0,318
510,631;12910,355;   -0,351;   -0,773
511,216;12588,736;    2,467;   -0,500
511,801;12948,868;   -0,442;    2,591
512,386;13254,261;    0,740;    0,500
512,971;13181,996;   -2,988;    0,955
513,555;12722,352;   -0,897;   -1,500
514,140;13496,044;   -0,442;   -3,136
514,725;13511,580;   -0,715;   -1,136
515,309;13610,832;   -0,533;    0,318
515,894;13074,615;   -0,624;   -2,227
516,479;13541,287;   -0,624;   -0,955
517,063;13380,073;    0,376;    1,227
517,648;13518,996;    1,012;   -1,136
518,232;13140,291;   -0,261;   -1,409
518,817;13524,267;   -0,079;    1,682
519,401;13747,487;    2,194;    0,591
519,985;13226,641;    1,103;    1,136
520,570;13107,736;    0,830;   -1,955
521,154;13440,117;    2,102;    0,591
521,738;13585,489;   -2,352;    2,409
522,323;14138,278;   -0,170;    1,682
522,907;13888,901;    0,466;   -0,136
523,491;13574,912;    0,557;    0,955
524,075;13566,433;    2,284;    0,591
524,659;13680,586;    1,466;    0,591
525,243;13151,177;    1,739;    0,409
525,827;13407,223;    0,648;   -0,045
526,411;14267,041;   -1,989;   -0,136
526,995;14455,590;   -0,352;    1,409
527,579;14060,448;   -0,443;   -1,045
528,163;14379,718;    0,375;   -1,500
528,747;14306,700;    2,466;   -0,773
529,331;14588,532;   -0,080;   -1,409
529,915;14776,483;    1,738;    0,955
530,499;14761,179;   -0,807;    1,227
531,082;14497,441;   -0,534;    1,591
531,666;13948,932;    1,374;    0,773
532,250;14610,130;    1,284;    2,682
532,833;14931,337;    0,920;    2,773
533,417;14774,012;   -1,807;    0,864
534,001;14782,383;    1,647;   -0,318
534,584;15489,943;    0,374;    0,500
535,168;15307,755;    0,465;    1,409
535,751;15396,239;    0,647;    0,045
536,334;14851,908;   -0,898;   -0,409
536,918;15379,838;    0,011;    1,591
537,501;15488,887;   -0,899;    1,318
538,085;15456,184;   -0,444;    1,045
538,668;15648,978;    0,829;    2,409
539,251;15997,136;    1,829;    3,773
539,834;15985,031;    0,101;    0,773
540,418;15923,706;   -1,990;    4,318
541,001;16050,283;   -0,990;    1,773
541,584;16019,872;    2,101;    2,227
542,167;15764,570;    1,374;    2,955
542,750;15883,815;    1,919;   -0,773
543,333;15477,173;    0,555;    2,136
543,916;16279,490;    0,192;    2,500
544,499;16907,403;   -1,354;    0,227
545,082;16875,019;    1,374;    3,591
545,665;17034,022;    1,919;    1,500
546,248;17346,627;    1,010;   -0,318
546,830;17013,215;   -0,445;    1,955
547,413;17441,991;    1,010;   -0,773
547,996;17971,551;    0,555;    0,500
548,579;17749,034;    0,919;    0,955
549,161;17547,104;    1,828;    2,682
549,744;17368,042;   -0,809;    0,409
550,326;17850,595;   -0,809;   -1,136
550,909;17637,431;    2,737;    0,591
551,492;17990,937;   -0,263;    0,227
552,074;17816,127;   -0,173;   -1,318
552,657;18376,462;    2,373;    0,045
553,239;18081,025;   -0,173;   -0,773
553,821;18006,319;   -1,082;    1,045
554,404;17528,518;    1,282;    1,136
554,986;17923,561;    0,464;    1,045
555,568;18503,760;    1,191;   -0,955
556,151;17732,645;    1,191;   -0,227
556,733;17917,179;   -0,264;   -0,864
557,315;18426,838;    0,100;    0,500
557,897;18223,883;    0,554;   -0,500
558,479;18304,376;   -1,991;    1,318
559,061;18494,755;   -0,719;   -0,864
559,643;18810,037;   -0,264;    0,045
560,225;19155,012;    1,645;    2,864
560,807;19188,401;    0,918;    0,318
561,389;18653,027;    0,554;    2,318
561,971;19464,979;    0,463;    2,136
562,553;19275,244;   -1,628;    1,591
563,135;19411,174;   -0,537;    1,136
563,717;19035,230;    3,372;    1,136
564,298;19726,297;    3,645;   -0,045
564,880;19439,326;    0,645;   -1,409
565,462;19600,690;    0,645;    1,318
566,043;20791,332;   -0,446;    2,318
566,625;20319,510;    1,918;    1,227
567,207;20179,847;    1,099;    1,682
567,788;21342,773;   -1,264;    1,500
568,370;22142,466;    1,917;   -0,500
568,951;21960,676;    0,190;    0,227
569,533;22868,516;   -0,628;   -0,500
570,114;23300,850;   -0,446;    0,682
570,695;23831,169;   -0,174;   -1,318
571,277;24376,212;   -0,265;   -1,682
571,858;25130,026;    2,008;   -1,136
572,439;26029,949;    1,554;   -1,045
573,021;26159,713;    2,099;   -2,773
573,602;26667,667;   -1,265;    0,318
574,183;27614,227;   -2,083;    2,227
574,764;27700,275;   -1,629;    0,409
575,345;28289,678;    0,917;   -0,136
575,926;28877,953;   -0,356;    0,136
576,507;28782,663;    1,099;   -0,227
577,088;29958,541;    3,099;    1,682
577,669;29984,122;    0,735;    1,955
578,250;30805,227;    0,644;   -1,045
578,831;31453,315;   -1,356;   -2,227
579,412;31627,734;   -0,810;    0,955
579,993;32501,531;    1,008;    0,227
580,573;32848,566;   -0,629;   -0,955
581,154;31820,702;    0,735;   -0,591
581,735;32736,451;    0,644;    0,773
582,315;32261,541;   -0,629;    2,136
582,896;32481,730;   -0,174;    1,227
583,477;31861,087;    0,189;    1,227
584,057;32051,954;    0,553;    0,955
584,638;32457,167;    2,553;    2,318
585,218;32378,038;   -0,538;    2,682
585,799;32571,859;    0,281;   -0,227
586,379;32564,086;    0,372;    1,591
586,959;31256,835;    0,735;    0,318
587,540;30555,937;   -0,629;    2,227
588,120;30153,431;    1,007;   -0,045
588,700;29145,745;    2,553;    2,136
589,281;29497,685;    0,462;   -0,955
589,861;29421,465;    0,099;   -1,682
590,441;29233,692;    2,371;   -2,682
591,021;28168,346;   -0,265;   -2,591
591,601;28390,002;   -0,537;    0,500
592,181;28369,292;   -0,719;   -0,773
592,761;27703,679;    0,007;    1,409
593,341;27581,618;   -0,901;    0,045
593,921;27629,873;   -0,265;    1,591
594,501;27528,139;   -0,538;    1,318
595,081;27375,807;    0,917;   -0,318
595,661;27722,087;   -1,447;    0,955
596,240;28237,488;   -0,537;    0,136
596,820;27917,544;    0,372;    1,955
597,400;28097,107;    2,008;    0,773
597,980;28284,582;    2,008;    1,045
598,559;28296,461;    2,735;   -0,227
599,139;28000,664;   -0,174;   -1,227
599,718;27878,482;   -0,174;   -0,409
600,298;28141,310;    0,735;    0,682
600,877;28428,775;    2,917;    1,409
601,457;28630,194;    2,281;    1,136
602,036;28571,726;    0,190;    2,045
602,616;28784,033;    0,644;    1,682
603,195;29176,190;   -0,355;    3,500
603,774;28714,998;   -0,901;    2,045
604,354;28610,337;    0,826;   -0,500
604,933;28097,355;    0,463;    1,864
605,512;28156,407;    3,554;    0,591
606,091;28168,861;   -0,537;    3,773
606,671;28998,348;    0,281;    0,773
607,250;28176,991;    1,644;    3,136
607,829;28398,364;    2,372;    3,227
608,408;28277,368;    1,190;    2,591
608,987;27216,441;    1,281;    3,409
609,566;27556,363;   -1,265;   -2,500
610,145;27693,060;   -1,082;    0,682
610,723;28055,105;    4,372;    6,864
611,302;27338,409;   -0,446;    1,682
611,881;26885,255;    5,008;   11,227
612,460;27692,689;    1,645;    3,955
613,039;28069,923;   -0,082;    2,045
613,617;26809,319;    1,736;    4,773
614,196;27014,630;    1,099;    1,227
614,775;27341,975;    1,009;    2,409
615,353;27293,905;    0,736;    0,864
615,932;27046,157;    0,100;    2,409
616,510;27596,062;    0,554;    0,591
617,089;27124,045;    7,100;   17,591
617,667;26868,796;    2,372;    6,136
618,246;26728,604;   -1,537;    1,318
618,824;26889,495;   -3,355;   -0,955
619,402;26469,135;   -2,900;   -1,773
619,981;26960,726;   -0,173;   -1,045
620,559;26740,935;    0,009;    1,682
621,137;26271,289;   -0,718;    1,864
621,715;26353,698;   -1,173;   -0,682
622,293;26269,072;   -0,537;   -0,773
622,871;26707,383;   -0,718;    0,500
623,450;26334,757;    0,373;   -0,864
624,028;26220,872;    0,191;   -0,955
624,606;25869,411;   -1,718;    1,682
625,183;26230,511;   -1,536;   -1,136
625,761;25820,053;    1,009;    1,136
626,339;26166,124;    1,373;    2,591
626,917;26509,797;   -0,172;   -0,045
627,495;26531,749;   -0,354;    1,318
628,073;25958,727;   -0,263;    2,864
628,650;25702,689;    0,100;    2,136
629,228;26066,501;    0,373;    4,409
629,806;25485,060;    2,282;    1,136
630,383;25826,969;    1,464;   -0,318
630,961;25528,273;    2,555;   -0,955
631,539;25272,203;    2,464;    0,227
632,116;24662,364;   11,373;   15,409
632,694;25284,249;    2,555;    6,500
633,271;25611,894;    0,828;    2,682
633,848;25554,853;    1,828;    2,045
634,426;25508,282;   -1,081;    1,773
635,003;24615,669;    1,101;   -0,409
635,580;24950,473;    1,192;    3,682
636,158;25527,177;    3,737;    1,227
636,735;25512,289;    0,555;   -0,500
637,312;25642,657;   -0,809;   -0,682
637,889;25756,688;   -4,354;   -0,682
638,466;25175,361;   -3,990;   -0,409
639,043;25145,563;    2,101;   -1,136
639,620;25548,983;   -2,262;   -0,955
640,197;25826,567;    1,100;    1,682
640,774;25917,803;   -0,172;    1,136
641,351;26315,585;    0,737;    1,136
641,928;25814,730;   -0,627;    1,409
642,505;25487,693;    0,828;   -0,500
643,082;25602,383;   -1,718;    1,227
643,658;24588,437;   -0,718;    1,500
644,235;25324,582;    1,191;    2,500
644,812;25647,545;    1,918;    0,773
645,388;25401,145;   -0,991;    1,409
645,965;25516,653;   -0,809;    1,682
646,542;25602,526;   -1,445;   -0,227
647,118;25556,489;    1,009;   -0,955
647,695;25838,270;   -0,263;    1,136
648,271;25710,960;   -0,536;    0,500
648,848;26009,378;    0,736;    2,227
649,424;25862,705;    0,827;    1,318
650,000;25630,941;   -0,354;   -1,045
650,577;25447,995;   -0,627;   -0,955
651,153;25898,503;   -1,809;    0,955
651,729;26915,375;    1,191;    0,864
652,305;27433,339;    0,645;    2,773
652,881;32519,302;   -0,082;    1,136
653,458;39382,719;    1,100;    0,227
654,034;42742,955;    0,282;    1,591
654,610;44017,918;    0,554;    0,773
655,186;45225,609;    0,645;    3,045
655,762;44840,390;   -0,991;    0,409
656,338;44855,808;    0,100;    0,136
656,913;45780,498;   -0,082;    0,409
657,489;44994,825;    0,827;   -0,318
658,065;44976,879;   -0,173;   -1,591
658,641;45527,479;   -0,900;   -0,864
659,217;44864,169;   -0,991;    0,409
659,792;44233,768;    0,645;   -0,409
660,368;44405,732;   -2,173;   -0,682
660,944;43866,786;   -2,082;    1,227
661,519;38728,385;   -0,628;    0,409
662,095;32852,257;   -1,719;    0,591
662,670;28660,402;    1,281;   -0,136
663,246;27781,093;    1,009;   -0,409
663,821;27184,510;    0,281;    1,682
664,396;26648,473;    0,009;    1,864
664,972;26957,255;    0,009;   -0,500
665,547;27242,581;    1,372;    0,136
666,122;27320,999;   -1,082;    0,318
666,698;27579,508;   -0,173;    0,318
667,273;26906,016;   -0,173;    0,136
667,848;27713,707;    2,372;    1,500
668,423;27566,852;    2,190;    2,318
668,998;28120,360;    2,827;   -0,682
669,573;28655,232;   -3,264;   -1,500
670,148;28491,650;   -1,446;   -0,682
670,723;28299,159;   -1,810;    0,318
671,298;28725,304;    2,372;    1,045
671,873;28789,630;   -0,082;   -0,136
672,448;28792,866;    0,645;    0,136
673,023;29024,375;   -1,992;   -0,227
673,597;29422,429;    0,827;    2,318
674,172;29207,756;   -0,355;    0,318
674,747;28621,355;    0,372;   -1,045
675,321;28453,955;   -0,628;    3,318
675,896;28053,645;    0,645;    1,045
676,471;29116,517;    2,645;    1,591
677,045;28870,753;   -1,264;    0,682
677,620;28871,625;    0,190;    1,136
678,194;29202,770;   -2,628;    1,136
678,769;28716,006;   -1,083;   -0,318
679,343;29081,333;   -0,628;    1,773
679,917;28955,114;   -1,446;    1,955
680,492;29038,532;    0,826;    3,227
681,066;29161,586;    3,372;    0,409
681,640;29203,731;    1,463;   -0,318
682,214;30022,876;    0,735;    0,500
682,788;29555,294;   -1,356;   -0,773
683,363;29530,075;   -1,810;    1,682
683,937;29196,765;   -1,719;   -0,318
684,511;29932,637;    0,463;   -0,591
685,085;29643,510;   -1,356;    0,318
685,659;29353,655;   -2,538;    0,864
686,232;29668,436;   -0,356;   -0,318
686,806;29328,854;   -0,901;    0,409
687,380;29985,635;   -0,174;    0,591
687,954;30175,144;   -1,174;    1,136
688,528;29870,470;   -0,719;    1,955
689,101;30657,070;   -3,992;    1,045
689,675;30300,487;   -0,356;   -0,136
690,249;29687,360;   -0,719;    0,409
690,822;29974,050;    0,280;    0,318
691,396;30060,650;   -0,265;    1,227
691,969;29496,067;    1,280;    0,136
692,543;29908,030;   -0,447;   -1,955
693,116;29572,903;   -0,265;   -1,409
693,690;29485,866;    0,099;    0,500
694,263;30005,374;   -1,083;    2,955
694,836;30057,247;    1,371;    3,591
695,410;28719,301;   -0,265;    1,773
695,983;29206,900;    0,189;    0,591
696,556;29120,227;   -0,447;   -1,045
697,129;29538,463;   -0,356;    1,409
697,703;29206,971;   -1,629;    1,955
698,276;29158,298;    1,462;   -0,773
698,849;29027,898;    1,280;    1,409
699,422;29311,679;   -1,083;    0,591
699,995;28966,733;    0,007;    0,136
700,568;29498,878;   -0,629;    3,045
701,140;29504,659;   -2,811;    1,682
701,713;29273,350;   -0,174;    2,409
702,286;29069,858;   -0,538;    0,864
702,859;28917,185;   -0,902;   -0,591
703,432;28029,966;    0,825;    0,682
704,004;28534,384;    0,462;    0,318
704,577;28444,711;   -0,629;    0,136
705,150;29045,856;    0,189;    2,500
705,722;28819,910;   -0,356;   -3,227
706,295;28619,509;   -0,175;   -0,591
706,867;28492,472;   -0,175;    1,955
707,440;28667,435;   -1,720;   -0,409
708,012;28909,762;    0,462;    0,591
708,584;28846,453;    2,462;    0,227
709,157;29098,325;    1,825;   -0,591
709,729;28774,924;    2,280;    2,045
710,301;29620,342;    0,734;    0,045
710,874;29639,578;   -1,447;   -0,227
711,446;28546,995;    0,371;    0,864
712,018;28388,322;    0,098;    0,500
712,590;28095,103;   -1,993;    1,682
713,162;28666,976;    0,825;    1,318
713,734;28926,484;    1,825;   -2,045
714,306;28821,084;   -1,902;   -0,409
714,878;27489,774;    0,825;    0,864
715,450;28307,192;    0,643;    0,864
716,022;28545,428;    1,552;    1,318
716,593;28667,664;    0,189;    0,591
717,165;28613,354;   -3,175;   -1,227
717,737;28338,226;    0,280;    0,409
718,309;27961,826;    0,280;   -0,045
718,880;27967,607;   -0,539;   -1,409
719,452;28203,570;   -0,175;   -1,591
720,024;27790,624;    0,734;   -0,591
720,595;28324,496;   -2,902;    0,955
721,167;27920,187;    0,370;   -2,045
721,738;27444,877;   -0,812;   -1,045
722,309;27433,931;   -0,993;   -1,227
722,881;27210,258;   -1,357;    0,773
723,452;27822,312;   -2,630;    2,864
724,023;28017,184;   -0,721;    2,682
724,595;27752,238;    0,007;    0,682
725,166;27431,111;    0,007;   -0,409
725,737;27164,346;    1,734;    0,227
726,308;27256,673;   -0,266;    0,318
726,879;27686,545;   -1,630;    1,227
727,450;27612,963;    0,552;   -0,045
728,021;27485,653;    3,097;    0,682
728,592;27262,707;    0,734;    0,500
729,163;27598,489;    0,643;   -0,136
729,734;27663,997;    0,188;   -0,227
730,305;28010,415;    1,734;    0,136
730,876;28349,651;    0,188;    2,955
731,447;28083,523;    2,188;    2,682
732,017;28201,395;    1,097;    1,864
732,588;27655,540;    0,734;    1,227
733,159;27849,958;    0,643;   -1,045
733,729;27659,467;    0,006;    0,409
734,300;26960,611;    0,915;    0,864
734,870;27354,847;    3,461;    0,591
735,441;27947,992;    0,370;   -0,591
736,011;27703,774;    0,643;   -1,591
736,582;27644,464;   -0,812;    0,045
737,152;27093,882;   -1,721;   -2,045
737,722;27529,390;   -0,267;   -0,682
738,293;27238,899;   -1,358;    1,318
738,863;27146,498;    2,461;    2,318
739,433;26914,734;    5,279;    0,318
740,003;27573,243;   -0,994;   -0,682
740,573;26956,751;    2,097;   -1,591
741,143;26907,714;   -1,085;    0,318
741,713;27733,223;    1,188;   -0,500
742,283;27438,913;    0,915;    1,591
742,853;27123,149;    1,915;    1,591
743,423;26561,658;    1,733;    0,045
743,993;26761,894;   -0,358;    1,500
744,563;26113,766;    0,097;   -0,864
745,133;26064,365;   -0,812;   -0,864
745,702;26790,056;   -0,267;    1,773
746,272;25990,564;   -0,176;    0,591
746,842;25787,073;   -1,358;   -0,591
747,411;26160,400;   -0,267;   -0,318
747,981;26389,090;    0,097;    0,500
748,551;26408,872;    2,278;   -1,045
749,120;26235,380;    0,642;   -0,227
749,690;26637,434;   -0,631;    2,409
750,259;26971,761;    1,369;    2,955
750,828;26890,269;    1,551;   -1,955
751,398;27166,960;    1,278;   -0,045
751,967;26710,014;    2,187;    0,409
752,536;26887,886;   -0,813;   -0,227
753,105;27313,940;    0,096;    0,227
753,675;27102,176;    0,096;    1,773
754,244;27024,866;   -0,904;    3,591
754,813;27074,011;    0,551;    1,227
755,382;26656,702;    0,460;    0,955
755,951;27256,847;    1,551;    3,682
756,520;26737,992;   -0,085;    1,864
757,089;27308,500;    0,278;    0,500
757,658;27460,918;    1,733;    1,227
758,227;27419,336;    1,096;    0,318
758,795;27736,208;    1,187;    1,136
759,364;27992,080;   -0,086;   -0,591
759,933;27007,952;   -1,176;   -0,045
760,501;26477,734;    0,733;   -1,318
761,070;26922,606;   -2,813;   -1,409
761,639;27673,933;   -1,904;    1,318
762,207;26996,714;    1,551;   -0,955
762,776;26919,586;    0,369;    0,864
763,344;26898,549;   -0,995;    0,591
763,913;26008,149;   -0,722;    1,409
764,481;26765,839;    1,005;   -0,136
765,049;26506,257;   -1,358;    1,409
765,618;26317,402;   -0,086;    0,318
766,186;26473,092;    0,278;    0,136
766,754;26719,601;    0,005;    1,864
767,322;25698,291;   -1,995;    0,409
767,890;25693,527;   -0,722;   -1,773
768,459;26148,217;   -2,177;   -0,318
769,027;26326,544;    1,641;    3,409
769,595;25253,053;    3,278;    2,591
770,163;25697,834;    3,823;    2,955
770,730;25414,434;    0,732;   -0,136
771,298;25278,760;    0,187;   -1,409
771,866;25351,632;   -1,541;    4,955
772,434;25660,959;   -0,631;   -1,864
773,002;25846,741;    0,005;    0,682
773,569;25502,976;    0,914;    1,682
774,137;25312,667;   -0,268;   -0,045
774,705;26066,994;    0,278;   -0,136
775,272;25580,866;    0,641;    0,682
775,840;25362,374;   -0,177;    2,682
776,407;24879,247;    0,277;    1,955
776,975;24517,482;   -0,632;    0,318
777,542;25495,991;   -1,086;   -0,045
778,110;25357,045;   -1,268;   -0,045
778,677;25027,463;   -2,359;   -0,864
779,244;24774,335;    2,186;    1,045
779,812;24887,662;    1,823;    0,864
780,379;24764,079;    0,005;    1,136
780,946;24958,770;    1,005;   -0,773
781,513;25325,460;   -1,450;    0,318
782,080;24702,787;   -0,086;    2,864
782,647;25415,386;   -0,268;    3,045
783,214;25059,168;   -0,177;    3,864
783,781;24672,676;   -0,723;   -0,682
784,348;24491,003;   -0,632;    1,500
784,915;24944,512;   -3,177;    0,318
785,482;24723,566;    1,368;    2,591
786,049;25181,802;    0,186;   -0,591
786,615;25292,401;    0,277;   -0,955
787,182;24946,637;    0,186;   -0,682
787,749;24680,873;   -2,814;    1,409
788,315;23990,927;   -1,632;   -0,409
788,882;24291,072;    1,550;   -1,227
789,448;25060,489;    1,732;   -0,955
790,015;25071,634;    1,095;    3,227
790,581;24634,598;    1,459;    0,227
791,148;24520,106;    0,641;    1,045
791,714;24710,069;   -0,541;    3,136
792,280;24356,396;    0,186;    1,591
792,847;23904,905;    0,550;    2,500
793,413;24495,231;   -0,269;   -0,318
793,979;24041,922;    3,459;   -1,318
794,545;24166,976;    4,459;    2,682
795,111;23576,212;    2,186;    1,318
795,678;23717,266;    0,731;   -1,682
796,244;23367,138;    3,368;    0,136
796,810;23930,283;    1,731;    0,773
797,375;23609,973;    0,549;   -2,136
797,941;23654,573;   -0,541;    0,591
798,507;23782,809;   -0,451;   -0,955
799,073;23370,681;   -0,360;    0,591
799,639;23417,826;   -2,632;    3,136
800,205;23411,789;    0,095;    2,682
800,770;22981,025;    0,640;    1,773
801,336;23097,170;    1,368;   -0,955
801,901;22740,496;    4,549;    3,136
802,467;23281,914;   -0,542;    2,045
803,033;22653,332;   -0,087;    0,864
803,598;22883,204;    1,913;   -1,045
804,163;22915,531;    1,095;   -0,318
804,729;22909,221;   -0,178;    1,136
805,294;23283,184;    0,822;    2,227
805,859;23054,784;    0,731;   -0,409
806,425;22546,202;    1,186;    2,682
806,990;22168,801;    2,186;    4,318
807,555;22696,582;   -1,451;    2,591
808,120;22605,727;    0,822;   -0,409
808,685;22600,236;    0,185;   -2,500
809,250;22104,744;    0,004;   -0,500
809,815;22433,344;    1,913;    0,682
810,380;22981,216;   -0,269;    1,591
810,945;23536,361;   -1,087;    2,045
811,510;22713,506;    2,094;    1,591
812,075;22359,742;   -0,633;   -1,409
812,640;22434,341;    2,003;    1,409
813,204;22447,395;    0,822;   -0,227
813,769;22942,813;    2,094;   -0,045
814,334;22363,049;    0,458;    0,864
814,898;22431,012;    0,367;    0,591
815,463;22307,793;    1,276;   -0,773
816,027;22299,938;   -0,724;   -2,318
816,592;22330,447;    0,640;   -2,045
817,156;21864,865;    2,094;    1,136
817,721;21757,828;    4,276;    2,318
818,285;21717,245;    2,912;    1,500
818,849;22326,845;   -1,451;    1,682
819,414;22259,353;   -0,269;    2,955
819,978;21793,953;   -1,269;    1,773
820,542;22384,552;    2,003;    0,500
821,106;22075,607;   -0,815;    0,682
821,670;22213,297;   -0,815;    2,591
822,234;21918,169;   -0,270;    1,409
822,798;21297,041;    0,003;    0,500
823,362;21252,004;   -0,633;    4,227
823,926;20571,786;    0,094;    1,136
824,490;20790,294;   -0,997;   -0,682
825,054;21289,167;   -0,088;   -1,136
825,618;20963,857;   -1,542;   -1,500
826,181;20895,820;    0,458;   -1,318
826,745;20787,147;    1,367;   -1,045
827,309;21125,292;    1,185;    1,318
827,872;20490,346;    1,367;    0,955
828,436;21466,945;    1,185;   -0,773
828,999;21491,090;   -0,997;    1,227
829,563;20300,963;   -0,179;    1,136
830,126;20095,289;   -0,179;   -0,591
830,690;20152,980;   -1,997;    2,864
831,253;19686,943;   -0,543;    2,227
831,816;19859,542;   -1,906;    0,500
832,380;19751,142;    0,185;    0,864
832,943;19950,287;   -1,361;   -0,500
833,506;19434,704;    2,639;   -1,227
834,069;20191,486;    3,912;   -0,955
834,632;20269,994;    1,730;    1,318
835,195;20189,048;    1,003;    0,955
835,758;19351,739;   -0,997;    1,955
836,321;19225,520;    0,730;   -1,045
836,884;19304,301;   -0,725;   -0,955
837,447;19353,355;   -2,816;    1,773
838,010;19635,591;    0,366;    3,227
838,573;19960,100;   -1,179;    0,773
839,135;19905,518;   -1,361;   -0,955
839,698;19344,208;    1,275;    0,409
840,261;18870,807;    1,003;   -0,227
840,823;18661,498;   -0,543;    0,864
841,386;18923,279;   -0,452;   -2,409
841,948;18873,242;   -1,361;    1,773
842,511;18574,751;    0,912;    1,682
843,073;18745,896;    1,912;    0,227
843,636;18547,313;   -0,361;   -0,227
844,198;18526,277;    0,911;    0,591
844,760;18636,149;    1,093;    1,955
845,322;18255,748;    0,548;    1,136
845,885;18740,257;    0,730;    0,591
846,447;19146,584;   -1,998;    0,227
847,009;18711,820;    1,911;   -0,682
847,571;19076,055;    0,820;   -2,045
848,133;19167,837;   -1,089;   -1,864
848,695;18966,163;   -0,543;    1,409
849,257;18492,581;   -1,089;   -1,682
849,819;18694,726;   -0,998;   -0,409
850,381;18691,326;   -0,725;   -0,864
850,942;19082,289;    1,093;   -0,591
851,504;19058,434;    1,184;    0,227
852,066;19102,215;    1,275;   -1,591
852,628;18641,451;   -0,180;    1,955
853,189;18130,959;    1,638;    2,682
853,751;18239,559;   -0,907;    1,409
854,312;18066,886;   -0,453;   -1,682
854,874;18593,576;   -2,089;   -0,773
855,435;19156,176;   -0,907;   -1,682
855,997;19291,320;   -1,816;   -0,136
856,558;18566,556;    0,366;    1,773
857,119;18681,519;    0,820;    2,864
857,681;18351,210;    0,002;    0,318
858,242;18359,809;    1,911;   -2,136
858,803;18827,682;    0,456;   -0,773
859,364;19434,917;    0,184;   -4,773
859,925;18725,062;   -2,453;   -0,955
860,486;18575,935;   -0,453;   -0,955
861,047;18266,261;   -0,544;   -1,227
861,608;18120,861;   -1,089;   -0,773
862,169;18267,642;    0,638;   -0,045
862,730;18069,242;    0,456;    1,409
863,291;18318,841;   -0,635;   -0,500
863,852;18659,350;   -0,635;    1,955
864,412;18151,858;   -0,271;   -0,864
864,973;16742,549;   -0,089;    0,500
865,534;16591,694;   -1,726;    0,227
866,094;18112,202;    1,820;    0,227
866,655;17769,347;    1,274;    3,318
867,215;17981,219;    0,274;    0,136
867,776;17851,910;    0,547;   -0,136
868,336;17967,873;   -1,453;    0,136
868,897;17451,382;    2,638;    1,682
869,457;17198,163;    1,365;    0,318
870,017;17439,944;    0,547;   -1,227
870,578;17955,089;   -0,817;    0,773
871,138;17598,779;   -2,089;   -0,955
871,698;17144,197;   -0,817;   -1,318
872,258;17043,160;   -0,453;   -2,864
872,818;17434,760;    2,729;    0,045
873,378;17372,814;    0,638;    1,045
873,938;16876,686;    0,547;    0,500
874,498;17227,558;    0,274;   -1,955
875,058;17177,158;    2,183;    1,773
875,618;17005,485;    1,910;   -2,682
876,177;16898,448;    1,274;    0,136
876,737;16524,684;   -0,090;    1,955
877,297;16589,192;    0,183;    1,955
877,856;16611,882;   -0,362;    0,318
878,416;16529,482;    1,183;   -0,136
878,976;16703,354;   -1,817;    0,409
879,535;16896,772;    0,092;    3,136
880,095;16611,099;   -0,544;    0,045
880,654;16732,607;   -1,090;    1,318
881,213;16841,479;    2,456;    1,500
881,773;16492,806;    2,637;    2,682
882,332;16917,769;    3,365;    5,136
882,891;16740,096;    3,092;    2,136
883,451;17223,423;   -1,272;    1,682
884,010;16630,477;   -2,908;   -0,409
884,569;16727,167;   -0,999;   -0,045
885,128;16886,403;    2,819;   -1,864
885,687;16997,275;    4,455;    0,682
886,246;16632,784;    1,455;    2,136
886,805;16409,656;    2,455;    2,045
887,364;16673,619;   -0,999;   -0,500
887,922;17078,219;   -1,181;    0,045
888,481;16562,091;   -1,545;    0,591
889,040;16867,418;    1,183;    2,136
889,599;17549,835;    2,455;    1,409
890,157;17622,526;    1,455;    2,409
890,716;17244,125;   -0,090;    0,227
891,274;17057,998;    0,092;   -1,136
891,833;17478,052;    1,546;    0,864
892,391;17338,015;   -0,454;    0,500
892,950;17413,432;    1,819;   -0,773
893,508;17782,850;    0,455;   -0,409
894,067;17121,450;    0,637;    0,136
894,625;17064,049;   -0,636;   -1,500
895,183;17324,558;   -0,363;   -0,682
895,741;17148,703;    1,728;   -1,773
896,299;16967,120;   -0,545;   -2,409
896,858;17153,629;    0,819;   -1,591
897,416;17281,592;    2,728;   -1,318
897,974;17013,737;    1,819;    0,318
898,532;17216,427;    6,091;    2,682
899,089;17126,481;    2,091;   -0,682
899,647;17156,172;   -1,454;    1,318
900,205;16878,680;    1,182;    1,045
900,763;17074,553;   -0,454;    0,227
901,321;17056,061;    2,364;   -1,409
901,878;16520,206;   -1,000;   -0,773
902,436;16397,533;   -1,363;    1,318
902,994;16795,041;    4,728;    3,682
903,551;16205,823;    0,728;    0,409
904,109;16583,877;    0,182;   -1,409
904,666;16200,567;    2,455;    1,045
905,224;16014,985;    0,182;   -0,409
905,781;15738,130;    0,727;   -0,318
906,338;15811,002;   -1,363;    1,045
906,895;15747,238;    0,637;    2,045
907,453;15702,928;    1,727;    1,136
908,010;15753,619;   -0,909;    0,409
908,567;15369,764;    1,273;    0,591
909,124;14858,090;    0,364;   -1,500
909,681;14976,599;   -2,909;    0,682
910,238;15110,108;    0,636;   -1,318
910,795;15419,707;   -0,273;   -1,136
911,352;15046,525;   -2,909;   -2,682
911,909;14442,071;   -1,364;   -0,864
912,466;14961,707;   -3,182;    1,500
913,022;14518,434;   -1,636;    0,500
913,579;14885,343;   -0,909;    2,045
914,136;14557,525;    1,636;    0,955
914,692;14896,253;    0,091;   -1,227
915,249;14528,434;    1,455;    0,409
915,806;14721,343;    0,182;    1,955
916,362;14461,434;    1,909;    1,864
916,918;14055,980;    2,000;    1,045
917,475;14024,434;   -1,182;    0,955
918,031;14110,889;    3,364;   -0,045
918,587;13547,798;   -0,909;   -0,318
919,144;13761,343;   -2,273;    0,227
919,700;14091,343;    1,727;    0,773
920,256;13638,071;    0,727;    0,045
920,812;13258,980;   -0,727;   -1,045
921,368;13283,798;   -1,727;   -1,045
921,924;12895,707;    0,182;   -0,136
922,480;12514,434;   -0,545;    1,227
923,036;13115,343;    1,273;    1,955
923,592;13033,162;    0,455;    0,318
924,148;12946,071;    0,455;   -0,955
924,704;12225,707;   -1,364;   -0,409
925,259;12507,525;   -0,273;    0,591
925,815;12324,253;    1,455;    0,500
926,371;11833,071;    2,909;    1,409
926,926;11698,889;    2,091;    0,591
927,482;11344,616;   -1,364;    0,773
928,037;11226,889;    0,909;    2,045
928,593;11525,162;    1,636;    1,045
929,148;11298,071;   -1,818;   -1,500
929,704;10832,343;   -1,455;   -0,500
930,259;11032,980;    0,091;   -0,136
930,814;10104,798;   -0,818;    1,955
931,369; 9755,707;    1,091;   -0,773
931,925; 9653,707;   -0,091;    0,136
932,480; 9566,798;   -2,818;   -2,591
933,035; 9492,343;    0,545;   -0,318
933,590; 9239,162;    0,364;   -1,773
934,145; 8869,525;   -1,364;   -0,318
934,700; 9226,707;    0,455;   -0,591
935,255; 9028,434;   -0,091;    0,045
935,809; 8334,071;    3,182;    0,864
936,364; 7443,707;   -0,455;   -0,136
936,919; 7430,253;    0,455;   -1,773
937,474; 7306,434;    1,455;    0,136
938,028; 7061,162;   -1,636;    1,136
938,583; 6530,707;    1,818;    4,682
939,138; 6809,071;    2,091;    2,136
939,692; 6243,525;    1,636;   -1,136
940,247; 5961,616;   -0,727;   -1,045
940,801; 5535,889;   -0,636;    0,227
941,355; 5393,616;   -0,364;    2,591
941,910; 5041,253;   -0,273;   -2,136
942,464; 5146,889;   -0,818;   -0,318
943,018; 4961,889;    1,000;   -0,227
943,572; 4879,434;    2,545;   -0,682
944,126; 4315,434;    0,091;   -0,409
944,681; 4230,525;    3,091;    0,227
945,235; 4211,071;    1,000;   -0,591
945,789; 4147,889;    0,364;   -1,864
946,342; 4269,980;    0,455;   -0,591
946,896; 4065,707;   -2,273;    0,955
947,450; 3799,616;    1,545;   -0,227
948,004; 3991,525;    1,727;   -0,045
948,558; 4014,343;    0,273;   -0,864
949,111; 3944,434;   -0,273;   -0,318
949,665; 3983,071;    1,636;   -0,682
950,219; 3852,071;   -0,091;   -1,045
950,772; 3943,071;   -1,909;    1,864
951,326; 3839,525;    0,545;   -0,955
951,879; 3926,162;    0,727;   -2,318
952,433; 3958,980;    0,000;    2,227
952,986; 3777,798;    2,909;    0,682
953,539; 3746,343;   -0,273;    0,591
954,093; 3681,253;    0,545;   -1,318
954,646; 3820,980;    0,909;    1,318
955,199; 3635,434;    0,000;   -0,500
955,752; 3524,162;   -0,455;    1,773
956,305; 3475,071;   -0,091;    2,955
956,858; 3641,616;    0,818;   -0,318
957,411; 3808,980;   -0,545;    2,136
957,964; 3660,253;    1,364;    2,136
958,517; 3631,980;   -1,545;    3,136
959,070; 3471,980;   -0,455;    1,955
959,623; 3565,798;    1,091;    1,500
960,176; 3314,889;    1,727;    2,045
960,728; 3292,616;   -2,727;    0,773
961,281; 3354,707;    0,545;    0,500
961,834; 3397,707;   -0,909;    0,864
962,386; 3303,343;    1,727;    1,045
962,939; 3229,798;    0,364;   -0,318
963,491; 3386,889;    0,455;    1,136
964,043; 3260,798;    1,182;    2,409
964,596; 3380,071;   -1,000;    2,227
965,148; 3207,162;   -1,000;    1,773
965,700; 3102,434;    1,091;   -0,227
966,253; 3259,343;   -0,636;    0,318
966,805; 3122,616;   -2,273;    0,773
967,357; 3162,889;    1,091;   -1,500
967,909; 3120,434;    0,455;   -1,227
968,461; 3226,707;    0,545;    3,136
969,013; 3168,071;   -0,182;   -0,864
969,565; 3252,616;   -0,455;   -1,136
970,117; 3323,889;   -0,364;    1,045
970,669; 3140,343;    0,182;   -0,136
971,220; 3002,434;   -0,455;   -1,500
971,772; 2932,253;   -0,636;   -0,318
972,324; 3051,343;    0,091;   -0,500
972,876; 2977,525;    0,818;   -0,045
973,427; 3141,616;    1,909;   -1,045
973,979; 3100,889;   -0,727;   -2,500
974,530; 3134,343;    1,818;    1,318
975,082; 3128,162;   -0,545;    1,682
975,633; 3030,343;    1,091;    1,682
976,184; 3178,980;    0,909;    0,773
976,736; 2957,434;    0,091;    0,227
977,287; 2777,889;   -0,909;   -0,500
977,838; 2956,343;    0,909;   -0,318
978,389; 3021,253;   -1,000;   -0,500
978,940; 2876,525;    0,545;   -0,409
979,491; 2912,980;    0,091;   -0,500
980,042; 2880,889;    0,182;    3,045
980,593; 2921,162;   -2,545;    0,227
981,144; 2977,707;    2,545;   -0,500
981,695; 2949,889;    1,455;    1,500
982,246; 2909,071;   -0,273;    1,045
982,797; 3042,616;   -1,727;    0,682
983,347; 3153,525;    0,364;    0,591
983,898; 3335,343;    3,091;    0,409
984,449; 3151,980;    2,182;    0,773
984,999; 3039,525;    1,455;   -1,136
985,550; 2823,162;    0,182;   -0,318
986,100; 2862,980;   -0,455;   -0,318
986,651; 2885,434;   -0,818;    0,045
987,201; 2863,980;   -1,000;   -0,591
987,751; 2944,162;    0,818;    2,864
988,302; 2940,980;    2,636;    1,500
988,852; 2961,434;    0,455;   -1,136
989,402; 3008,253;    0,091;    0,682
989,952; 2935,525;   -2,182;    0,864
990,502; 3031,525;   -0,091;    0,682
991,052; 2970,707;   -0,727;    0,045
991,602; 2861,343;   -2,909;    1,318
992,152; 2861,980;    0,455;    0,682
992,702; 2845,616;    1,364;   -0,045
993,252; 2776,525;   -3,000;   -0,500
993,802; 2868,889;   -0,273;    1,318
994,352; 3093,071;   -1,545;    1,136
994,901; 3157,798;   -0,182;    3,227
995,451; 3101,707;   -0,182;    0,318
996,000; 3192,889;    1,636;    0,318
996,550; 2896,071;    2,273;    0,227
997,100; 2881,162;    1,273;   -0,045
997,649; 3172,980;    2,182;    0,955
998,198; 2786,343;    1,727;   -1,500
998,748; 3007,343;    1,091;   -2,318
999,297; 2897,798;   -0,818;   -0,409
999,846; 2966,343;    1,000;   -0,773
1000,395; 3021,071;   -0,818;    0,500
1000,945; 2960,889;    1,818;   -0,773
1001,494; 3059,434;    2,364;    0,682
1002,043; 3050,525;    4,636;    0,864
1002,592; 2887,889;   -1,091;    1,955
1003,141; 3030,162;   -0,455;   -0,682
1003,690; 2905,616;    1,727;    0,500
1004,238; 2980,525;    1,455;   -0,045
1004,787; 2619,616;    1,364;    1,227
1005,336; 2856,253;    0,364;    0,682
1005,885; 3000,253;    1,364;   -2,773
1006,433; 3115,071;    0,545;    0,955
1006,982; 3188,343;    0,455;    1,682
1007,531; 3098,343;   -1,818;   -0,227
1008,079; 3048,707;   -2,273;    0,500
1008,627; 3195,343;   -1,455;    0,409
1009,176; 2927,707;    0,000;   -1,955
1009,724; 2959,434;    1,091;    0,864
1010,273; 3028,253;    1,273;    0,500
1010,821; 3113,980;    0,091;    1,409
1011,369; 2854,980;   -1,364;    1,318
1011,917; 2838,071;   -1,364;   -0,591
1012,465; 3112,343;    1,273;   -1,591
1013,013; 3222,253;    2,091;   -1,682
1013,561; 3124,889;    0,455;   -0,773
1014,109; 3174,343;   -1,909;    1,682
1014,657; 3053,434;    0,364;    0,591
1015,205; 3164,071;    1,636;   -0,955
1015,753; 3180,798;   -0,545;   -1,409
1016,301; 3231,253;   -2,636;    3,045
1016,848; 3233,798;   -1,273;    0,409
1017,396; 3276,616;    2,545;    0,045
1017,944; 3409,343;    1,182;    1,864
1018,491; 3151,889;    0,273;    1,409
1019,039; 3320,889;    0,455;    0,591
1019,586; 3214,798;   -1,364;    1,682
1020,134; 3308,162;    0,455;    1,500
1020,681; 3330,798;    0,182;   -1,136
1021,228; 3342,980;    2,909;   -2,227
1021,776; 3176,616;    1,182;   -1,136
1022,323; 3406,343;    0,455;    0,773
1022,870; 3329,434;   -1,000;   -0,045
1023,417; 3226,889;    2,636;    1,864
1023,964; 3370,525;    2,636;    1,227
1024,511; 3201,071;    1,000;    0,773
1025,058; 3004,798;    3,182;   -0,045
1025,605; 3032,525;   -2,273;    3,136
1026,152; 3277,707;    1,727;   -0,591
1026,699; 3009,434;    1,818;    1,318
1027,245; 3165,253;   -0,091;    0,318
1027,792; 3363,980;   -1,000;    1,409
1028,339; 3265,343;    2,364;   -0,045
1028,885; 3109,162;    1,000;   -0,227
1029,432; 3032,616;   -0,091;    0,227
1029,978; 3106,707;   -1,000;   -1,591
1030,525; 3028,616;    1,000;    0,409
1031,071; 3259,525;   -1,364;    1,136
1031,618; 3374,071;    0,364;    1,682
1032,164; 3159,434;   -0,091;    3,045
1032,710; 3200,071;    1,636;   -1,500
1033,256; 3109,525;   -0,636;   -0,136
1033,803; 3075,889;   -0,545;    1,500
1034,349; 2789,343;   -1,364;    0,136
1034,895; 2959,071;    0,000;   -0,318
1035,441; 2951,616;   -0,818;    0,318
1035,987; 2947,071;   -2,364;   -0,682
1036,533; 2945,525;   -1,455;   -0,955
1037,078; 3138,434;    1,455;    1,682
1037,624; 2965,980;    2,455;   -0,955
1038,170; 2998,889;    0,455;   -0,318
1038,716; 2906,434;    1,636;   -0,409
1039,261; 2824,707;   -2,273;   -0,773
1039,807; 2741,707;   -0,091;    3,409
1040,352; 2804,071;   -1,909;   -0,318
1040,898; 2841,253;   -1,545;   -0,682
1041,443; 2762,162;   -1,455;   -2,591
1041,989; 2798,889;    1,091;    1,591
1042,534; 2675,071;   -0,364;    2,591
1043,079; 2774,434;    2,909;    0,955
1043,625; 2582,253;    1,818;    0,500
1044,170; 2634,525;   -1,364;    1,045
1044,715; 2890,707;    2,455;    0,955
1045,260; 2709,798;    2,182;   -0,955
1045,805; 2735,889;    1,182;   -0,591
1046,350; 2669,434;    1,364;   -0,409
1046,895; 2634,616;    2,909;    1,591
1047,440; 2586,253;    5,364;    0,409
1047,985; 2494,525;    2,818;   -0,955
1048,530; 2408,162;    1,545;    1,227
1049,074; 2471,798;    0,000;    0,318
1049,619; 2437,798;   -1,364;    1,955
1050,164; 2263,616;    0,455;    0,227
1050,708; 2302,798;   -0,455;    0,045
1051,253; 2677,253;    1,273;   -2,227
1051,797; 2388,071;    0,818;   -1,318
1052,342; 2366,980;   -1,182;    1,045
1052,886; 2377,707;    0,364;   -1,409
1053,430; 2257,343;   -1,364;    0,136
1053,975; 2261,616;   -0,818;   -0,318
1054,519; 2238,980;   -0,727;    3,227
1055,063; 2272,434;    0,909;    1,318
1055,607; 2168,889;   -0,182;    0,227
1056,151; 2190,434;    2,909;    1,682
1056,695; 2089,253;    2,273;   -1,136
1057,239; 2152,707;   -1,727;   -0,682
1057,783; 2162,434;    0,818;   -1,500
1058,327; 2119,162;    0,000;    1,409
1058,871; 2345,253;   -0,545;    1,318
1059,415; 2048,434;   -0,818;   -0,045
1059,958; 2341,616;    1,455;    2,591
1060,502; 2065,343;   -1,000;   -0,773
1061,046; 1933,889;    0,364;   -0,955
1061,589; 1918,525;   -3,000;   -1,136
1062,133; 1796,798;   -1,273;    1,864
1062,676; 1746,707;    1,182;    0,864
1063,220; 1755,616;    1,091;    0,500
1063,763; 1779,434;    0,909;    1,136
1064,306; 1852,525;   -0,909;    1,864
1064,849; 1749,980;   -0,909;    0,591
1065,393; 1758,434;    2,000;   -1,500
1065,936; 1853,616;    0,182;   -0,409
1066,479; 1739,343;   -1,455;    1,318
1067,022; 1784,253;   -0,273;   -0,227
1067,565; 1677,798;   -0,091;   -1,318
1068,108; 1683,434;    0,727;   -0,591
1068,651; 1658,071;   -0,636;    1,409
1069,194; 1598,707;   -0,455;   -1,682
1069,736; 1591,253;   -1,273;    0,955
1070,279; 1569,071;   -1,364;   -0,500
1070,822; 1633,889;   -2,000;   -0,318
1071,364; 1730,525;   -0,364;    1,318
1071,907; 1548,343;   -0,727;    3,227
1072,450; 1434,162;    0,000;   -0,045
1072,992; 1429,525;   -0,273;    3,136
1073,535; 1588,798;    2,091;    2,136
1074,077; 1364,525;   -0,727;    2,045
1074,619; 1337,980;   -1,364;    0,591
1075,161; 1383,616;   -1,091;    1,500
1075,704; 1566,071;    1,545;    1,227
1076,246; 1356,616;   -0,182;    0,682
1076,788; 1287,798;   -0,364;    1,773
1077,330; 1356,525;    1,273;    2,136
1077,872; 1321,434;    0,909;    0,955
1078,414; 1546,071;    2,727;    0,773
1078,956; 1282,434;    1,273;   -0,227
1079,498; 1552,798;    1,636;    0,318
1080,040; 1251,798;    1,909;   -1,318
1080,581; 1188,071;    1,636;   -0,318
1081,123; 1106,253;    0,091;   -0,773
1081,665; 1138,616;   -1,182;   -0,955
1082,206; 1468,798;    1,364;   -0,500
1082,748; 1319,071;    0,727;    2,045
1083,289; 1197,525;   -2,000;    1,318
1083,831; 1102,707;   -0,545;    0,227
1084,372; 1145,343;    0,000;    0,591
1084,913; 1156,616;    1,091;    0,864
1085,455; 1105,071;   -1,909;   -2,045
1085,996; 1087,616;   -2,273;    0,136
1086,537; 1121,343;   -0,091;    0,864
1087,078; 1147,162;   -0,909;   -2,136
1087,619; 1193,162;   -1,273;    0,227
1088,160; 1099,889;    0,000;    1,318
1088,701; 1094,162;   -1,091;    0,682
1089,242; 1018,707;    1,364;   -2,227
1089,783; 1130,980;   -0,273;    1,409
1090,324; 1093,162;    0,455;    0,682
1090,865;  965,798;    2,727;   -0,409
1091,405;  924,889;    0,727;    2,227
1091,946;  961,162;    0,182;   -0,955
1092,487;  880,980;    0,818;   -1,409
1093,027; 1059,525;   -1,364;   -1,500
1093,568;  904,071;   -0,364;    1,227
1094,108; 1017,889;    0,273;    1,773
1094,649;  946,525;   -1,182;    0,136
1095,189;  881,525;   -0,636;   -0,682
1095,729;  838,616;   -0,091;    0,955
1096,269;  832,889;    0,727;   -0,955
1096,810; 1165,343;   -1,364;    0,500
1097,350;  990,980;    1,364;   -0,773
1097,890;  891,798;    0,364;    1,227
1098,430; 1147,071;    2,364;    2,864
1098,970; 1022,889;    2,182;    1,682
1099,510;  872,434;    0,545;   -2,318
1100,050;  802,071;    1,000;   -1,591
1100,589;  764,253;   -0,727;   -0,318
1101,129;  892,889;    0,818;   -0,955
1101,669; 1050,525;    1,727;    2,136
1102,209;  867,889;   -0,091;    2,227
1102,748;  819,980;    0,000;    0,955
1103,288;  821,616;    1,273;   -1,227
1103,827;  838,707;    3,091;   -2,227
1104,367;  709,889;   -0,091;   -2,409
1104,906;  686,980;    1,364;   -1,136
1105,445;  764,525;    0,636;   -1,136
1105,985;  699,798;   -0,727;    1,500
1106,524;  757,980;   -1,727;   -0,682
1107,063;  730,071;   -2,727;    1,409
1107,602;  688,889;   -1,909;   -1,500
1108,141;  616,980;   -1,909;    1,500
1108,680;  732,343;   -3,455;   -0,591
1109,219;  653,253;   -0,909;   -0,500
1109,758;  646,707;    0,455;    0,682
1110,297;  633,616;    1,000;   -0,682
1110,836;  579,525;   -0,727;    0,955
1111,375;  750,798;   -2,545;    0,409
1111,913;  764,616;   -1,000;    0,773
1112,452;  698,162;   -0,273;    0,136
1112,991;  571,889;    1,091;    1,955
1113,529;  536,253;   -0,818;   -0,045
1114,068;  605,343;   -0,273;    2,955
1114,606;  502,253;   -0,364;   -0,955
1115,144;  685,525;   -1,273;    1,045
1115,683;  601,071;   -0,727;    0,318
1116,221;  650,616;   -0,455;   -0,864
1116,759;  558,343;    0,636;   -0,864
1117,297;  766,798;    0,000;    1,864
1117,836;  561,525;   -2,182;   -1,227
1118,374;  574,798;    0,182;   -0,682
1118,912;  515,525;    0,909;    2,682
1119,450;  513,253;    1,000;    0,864
1119,988;  572,071;    1,545;    2,136
1120,525; 1025,980;    5,091;    3,318
1121,063;  718,980;    1,182;    1,864
1121,601;  525,071;   -0,909;   -1,227
1122,139;  488,253;   -0,727;   -2,045
1122,676;  699,071;   -0,727;    2,773
1123,214;  618,707;   -1,182;    4,409
1123,751;  416,253;    1,727;    2,227
1124,289;  560,616;   -0,091;   -0,409
1124,826;  422,525;    1,727;    0,227
1125,364;  345,162;    1,727;   -0,955
1125,901;  539,343;    1,182;    1,227
1126,438;  653,980;    0,818;    0,955
1126,975;  369,525;   -0,727;   -0,773
1127,513;  445,889;    0,273;    2,136
1128,050;  330,616;    1,636;   -0,682
1128,587;  444,889;    2,000;   -0,227
1129,124;  492,343;    0,091;    1,318
1129,661;  351,525;    0,273;    0,227
1130,198;  528,889;    1,636;    0,773
1130,734;  466,707;    0,182;    1,409
1131,271;  326,162;   -0,909;    0,864
1131,808;  504,343;    2,909;    3,045
1132,345;  380,253;    1,545;    0,318
1132,881;  237,616;   -1,545;   -1,864
1133,418;  380,616;    0,727;   -1,136
1133,954;  317,434;    2,455;   -2,682
1134,491;  402,889;    1,364;   -0,773
1135,027;  294,434;    2,364;    0,864
1135,564;  386,707;    0,273;    2,955
1136,100;  370,162;    0,364;    2,136
1136,636;  251,071;   -1,273;   -1,045
1137,172;  346,798;    0,000;   -1,045
1137,708;  271,162;   -1,364;   -1,045
1138,245;  288,798;    1,273;   -1,227
1138,781;  233,162;    1,091;   -3,318
1139,317;  313,616;    1,273;   -1,409
1139,852;  292,525;    3,091;    0,136
1140,388;  410,616;   -1,182;   -0,409
1140,924;  290,071;   -1,091;   -2,227
1141,460;  227,525;   -1,636;    0,136
1141,996;  161,798;   -1,364;    2,682
1142,531;  215,071;    1,364;    3,318
1143,067;  436,707;    1,182;    1,045
1143,602;  491,343;   -0,091;   -0,318
1144,138;  332,253;   -2,636;    1,045
1144,673;  194,616;   -1,455;    1,409
1145,209;  265,707;   -1,909;   -0,318
1145,744;  178,980;   -0,727;    0,864
1146,279;  322,707;    1,818;   -0,136
1146,815;  238,434;    1,545;   -2,682
1147,350;  265,707;   -1,364;    0,045
1147,885;  187,980;   -0,818;   -1,318
1148,420;  186,889;   -2,273;    0,773
1148,955;  172,525;   -1,727;    1,864
1149,490;  193,434;   -0,909;   -1,591
1150,025;  174,980;    0,455;   -1,773
1150,560;  298,525;    1,091;   -0,955
1151,094;  262,525;    1,455;   -0,591
1151,629;  266,253;    1,636;    0,864
1152,164;  184,434;    1,364;    1,318
1152,698;  155,525;   -0,182;   -0,136
1153,233;  104,253;    0,091;   -0,682
1153,767;  160,798;   -3,000;   -2,318
1154,302;  218,071;   -1,455;    1,773
1154,836;  197,343;   -0,455;   -2,136
1155,371;  252,616;   -1,364;    3,682
1155,905;  214,434;   -0,636;    1,682
1156,439;  179,707;   -0,636;   -0,500
1156,973;  209,525;    0,364;    0,318
1157,507;  144,798;   -0,364;    0,682
1158,042;  166,707;   -0,727;    1,045
1158,576;  218,980;    0,182;    1,773
1159,110;  210,434;   -0,818;    2,409
1159,643;  178,525;    0,636;   -0,045
1160,177;  119,343;   -1,545;    1,500

