
Integration time [ms]:   0,040
Averaging Nr. [scans]: 11
Smoothing Nr. [pixels]: 0
Data measured with spectrometer [name]: 7318044SP
Wave   ;Sample   ;Dark     ;Reference
[nm]   ;[counts] ;[counts] ;[counts] 

186,757;    4,664;   31,551;    1,318
187,357;   31,155;   22,551;    0,955
187,958;   11,500;   15,460;   -1,591
188,558;   53,749;    8,915;   -1,227
189,159;   10,346;    6,733;   -4,500
189,759;  -17,143;    7,278;   -3,591
190,360;   -5,402;    2,824;   -2,136
190,960;   20,454;    2,915;   -4,136
191,560;   24,082;    3,189;   -6,591
192,161;  247,462;    4,372;   -3,500
192,761;  108,303;    4,010;   -3,227
193,361;   43,456;    1,556;   -3,773
193,962;   75,475;    2,010;   -2,682
194,562;    8,414;    1,189;   -3,955
195,162;   16,183;   -2,448;   -2,227
195,762;  137,403;   -3,176;   -0,045
196,362;   84,442;    1,370;   -2,500
196,963;    6,618;    2,006;   -0,864
197,563;   48,298;    1,551;   -0,955
198,163;    5,623;    0,096;   -0,682
198,763;    9,327;    1,733;   -0,500
199,363;   54,123;    3,096;   -0,500
199,963;   26,862;    0,369;    0,409
200,563;   16,026;    2,823;   -1,409
201,163;    0,381;    3,277;   -0,227
201,763;   30,910;    3,732;    0,318
202,363;    9,180;    1,459;    1,500
202,963;   39,476;    1,459;    1,045
203,563;   87,200;    0,277;    0,500
204,162;   23,212;    2,096;   -1,864
204,762;   10,804;    0,550;    0,591
205,362;   -6,736;    3,004;    1,955
205,962;   22,378;    3,096;    1,955
206,562;   15,903;    1,823;    2,318
207,161;    1,990;   -0,087;    0,318
207,761;   76,753;    1,277;    2,409
208,361;    6,764;   -0,268;    1,409
208,960;   31,950;    0,459;    1,500
209,560;   24,814;    1,277;    1,591
210,160;   45,315;    0,550;    1,864
210,759;   14,587;    4,186;    1,227
211,359;   -2,956;    1,459;    1,045
211,958;  100,142;    1,277;    2,045
212,558;  113,032;    1,732;    1,864
213,157;   41,074;    1,822;    1,500
213,757;  180,426;    3,822;   -0,227
214,356;   70,407;    1,277;   -0,409
214,956;  173,464;    3,095;    0,409
215,555;   45,442;    2,095;    2,136
216,154;    7,474;   -2,723;   -0,591
216,754;   13,467;    0,277;    0,773
217,353;   23,005;   -0,268;   -1,045
217,952;  -19,613;   -0,178;    0,318
218,552;   41,481;    1,368;   -0,773
219,151;    5,460;    0,277;    0,955
219,750;    1,856;    0,004;   -0,227
220,349;  -15,534;   -0,451;    1,045
220,948;   50,147;   -1,360;    1,136
221,548;    2,280;    0,913;    1,227
222,147;   14,114;   -0,087;   -0,409
222,746;   91,046;   -0,451;   -0,955
223,345;   30,699;    0,731;    0,500
223,944;   35,061;   -0,451;    0,773
224,543;   40,292;    1,004;   -1,409
225,142;   19,186;    0,094;    0,136
225,741;   26,507;   -0,814;    1,045
226,340;   17,736;   -0,451;   -0,955
226,939;   73,562;   -0,996;   -0,136
227,538;   12,074;   -0,360;   -0,773
228,137;   75,141;   -0,814;    0,864
228,735;   43,865;   -0,541;    1,227
229,334;  -15,323;   -0,905;   -0,227
229,933;   79,655;    0,459;    0,591
230,532;   79,435;    1,186;   -0,409
231,131;  115,168;    1,732;    0,318
231,729;   50,458;   -2,450;   -2,318
232,328;   21,508;   -0,723;   -1,500
232,927;   30,936;    1,004;   -0,500
233,525;   19,011;    3,640;    0,045
234,124;   38,040;    2,368;   -1,591
234,723;   -0,025;    0,913;   -1,045
235,321;  -10,096;    2,277;    0,136
235,920;    7,825;    1,186;   -1,227
236,518;   79,117;    3,459;    0,318
237,117;    5,161;    0,004;   -0,227
237,715;   19,558;    0,640;   -0,500
238,314;   21,354;   -0,087;   -2,318
238,912;   78,931;   -0,723;   -1,409
239,510;   32,282;    0,459;   -1,227
240,109;   92,215;    0,004;    3,773
240,707;   69,836;   -0,996;    1,227
241,305;   -0,111;    0,550;    0,136
241,904;   37,980;   -0,178;   -2,045
242,502;  105,626;   -0,632;   -0,227
243,100;   48,188;   -0,087;   -0,955
243,698;    1,222;    0,732;    1,682
244,297;   26,317;   -0,632;    0,682
244,895;   23,170;   -0,269;   -2,318
245,493;   92,262;    2,186;   -0,591
246,091;  103,399;    1,368;   -1,318
246,689;   65,123;    1,004;    0,591
247,287;   52,271;    0,822;   -1,136
247,885;   24,244;   -1,451;    1,227
248,483;   10,963;    1,822;   -0,500
249,081;   52,909;    0,185;    1,591
249,679;   58,201;   -0,178;    1,682
250,277;    9,403;   -1,723;    0,864
250,875;   45,100;   -1,087;   -1,045
251,473;   11,196;   -1,178;    0,500
252,071;   60,691;    1,459;    1,045
252,669;   26,334;   -1,814;    0,318
253,267;    9,988;   -0,087;    0,773
253,864;   21,816;   -0,360;    0,682
254,462;   66,416;    1,640;    1,591
255,060;   -4,964;   -0,269;    1,318
255,658;   -8,848;    0,822;   -0,136
256,255;   12,449;    0,186;   -2,045
256,853;   40,880;   -0,269;    1,409
257,451;   19,619;    0,822;    1,864
258,048;  190,057;    1,822;    1,864
258,646;   76,685;    1,731;   -1,045
259,243;  111,607;   -0,087;    2,227
259,841;   57,488;   -0,814;    0,318
260,438;    5,761;   -0,087;    0,864
261,036;   52,442;   -1,905;    1,409
261,633;    4,795;   -0,087;    2,227
262,231;  -11,099;    2,731;   -0,045
262,828;  -16,944;   -0,905;    1,136
263,425;    2,415;    0,913;   -0,591
264,023;    5,127;    0,186;    0,045
264,620;   52,497;   -0,360;   -0,318
265,217;   95,246;   -2,087;    3,136
265,815;   17,994;   -1,905;    2,136
266,412;   42,343;    0,731;    0,136
267,009;   39,161;   -1,451;    0,773
267,606;   76,140;    0,822;   -0,955
268,203;   17,123;   -0,269;   -0,591
268,801;   19,089;    1,731;    0,591
269,398;   -2,261;   -0,360;    2,500
269,995;   47,784;    0,277;    1,591
270,592;   25,436;   -0,632;   -0,500
271,189;   -5,957;    0,186;    0,409
271,786;  -17,005;   -0,632;    1,227
272,383;   51,994;   -1,087;    0,227
272,980;   19,591;    0,277;    0,318
273,577;   -5,602;    0,004;    1,227
274,174;   -6,922;    0,822;    2,591
274,771;   36,516;   -0,814;   -0,773
275,367;  202,213;    2,277;    1,409
275,964;   91,405;    0,731;   -0,500
276,561;   21,980;    1,549;   -1,045
277,158;  -13,072;    0,095;   -1,773
277,755;   80,546;    2,185;    0,409
278,351;   35,864;   -0,451;   -1,500
278,948;   57,329;   -0,815;    0,045
279,545;   38,686;   -1,360;    2,318
280,141;   85,152;   -1,723;   -2,045
280,738;   89,418;   -0,451;   -0,136
281,334;   13,739;   -1,633;    0,591
281,931;    5,268;   -0,087;   -1,318
282,528;   62,192;    0,822;   -0,500
283,124;   84,507;   -1,087;   -0,500
283,721;   79,982;   -0,451;    1,409
284,317;   31,879;    0,185;    2,500
284,913;   87,230;   -1,360;    0,591
285,510;  137,866;    0,640;   -0,318
286,106;   94,975;   -2,269;   -0,955
286,703;   47,652;   -0,360;    1,955
287,299;   17,215;   -1,451;   -0,591
287,895;   12,710;    0,822;   -1,045
288,491;    3,375;    0,186;    2,136
289,088;   35,009;   -2,360;    2,409
289,684;   35,152;   -1,723;    1,500
290,280;  105,142;    0,368;    0,682
290,876;   79,826;    1,822;    5,500
291,472;   61,232;    1,276;    2,227
292,068;   67,709;    1,367;    0,227
292,665;   25,124;    2,095;    0,773
293,261;   -5,950;    0,276;    2,136
293,857;   50,136;    2,913;    2,136
294,453;   31,107;    3,550;    0,955
295,049;  113,903;   -0,268;    1,955
295,644;   48,779;    0,095;    0,136
296,240;    3,330;   -0,905;   -0,136
296,836;   31,987;   -0,995;    0,318
297,432;   78,143;    1,096;   -0,500
298,028;   73,842;    0,732;    0,773
298,624;   34,269;    1,459;    1,864
299,220;   37,664;    2,368;    0,591
299,815;   14,038;    1,005;   -0,409
300,411;   52,630;    0,914;    1,773
301,007;   77,287;    1,368;    0,227
301,602;   22,326;   -0,541;   -2,318
302,198;   75,437;    0,732;   -0,773
302,794;   30,259;    1,187;   -0,500
303,389;    5,632;   -1,177;    1,045
303,985;   11,792;    0,550;    1,409
304,580;   69,801;    1,459;    1,591
305,176;   30,599;   -3,086;    0,136
305,771;  -25,614;   -1,268;   -1,227
306,367;  148,559;    4,095;    0,136
306,962;   47,598;    0,641;    1,500
307,558;   65,263;   -0,450;    0,136
308,153;   52,875;    1,095;   -1,136
308,748;    1,370;   -0,814;    1,682
309,344;  143,590;   -0,632;   -1,318
309,939;  124,684;   -1,905;   -1,318
310,534;   20,455;   -0,086;   -1,682
311,130;   20,527;    0,459;   -2,500
311,725;   10,461;    1,004;   -0,500
312,320;   20,755;    2,459;    0,045
312,915;   52,368;    1,459;   -1,045
313,510;  142,041;    1,550;   -0,500
314,105;   24,663;    1,096;    1,409
314,700;  -20,220;   -3,086;   -1,045
315,295;    8,711;   -0,904;    0,045
315,890;   -2,317;    1,277;    0,864
316,485;   37,922;   -0,359;   -0,318
317,080;    1,514;   -3,086;    1,591
317,675;  131,486;    2,005;   -0,682
318,270;  229,544;    5,550;    3,318
318,865;  151,631;    3,278;    3,045
319,460;   90,931;   -0,904;    0,591
320,055;   26,389;   -0,541;   -1,227
320,650;   16,251;   -1,995;   -0,591
321,244;   24,678;   -0,177;   -1,409
321,839;   20,153;   -1,541;   -0,227
322,434;   35,482;   -1,086;   -1,591
323,029;   10,864;    1,732;    1,591
323,623;   -0,448;    1,550;    0,773
324,218;   91,023;    2,368;    1,409
324,812;   53,990;    1,096;    1,591
325,407;   45,385;   -0,814;    2,045
326,002;  117,542;    0,277;   -0,409
326,596;   74,861;    0,914;    1,318
327,191;   14,799;    0,823;   -1,045
327,785;   28,952;   -0,813;   -0,227
328,379;   13,285;    1,368;    0,136
328,974;   20,225;    0,914;   -3,955
329,568;   40,115;    0,186;   -2,409
330,163;   85,629;    2,096;    1,045
330,757;   17,900;    2,459;    1,591
331,351;   -6,012;    0,459;    0,682
331,945;  -11,926;    0,914;    1,409
332,540;   40,536;   -1,723;   -0,591
333,134;   38,148;   -1,086;    0,773
333,728;   47,323;    0,005;    0,318
334,322;    1,310;   -1,177;   -0,864
334,916;   -0,394;    0,277;    0,955
335,510;   57,467;   -0,450;   -0,136
336,105;   36,981;   -1,086;    1,591
336,699;   -3,363;   -1,086;    0,591
337,293;   29,660;   -1,723;    0,318
337,887;   11,877;   -2,723;    1,955
338,481;   48,019;    0,459;    0,591
339,074;   92,967;   -0,359;    2,682
339,668;   79,010;   -1,632;    1,227
340,262;  349,819;    1,732;    3,227
340,856;  140,243;    1,822;   -0,682
341,450;   18,423;    1,004;    1,864
342,044;   47,114;    1,459;    0,136
342,637;   90,851;    0,913;   -2,136
343,231;   41,409;   -2,360;    0,682
343,825;   25,815;   -1,086;   -0,591
344,419;   31,184;   -1,995;    0,500
345,012;  283,550;    2,459;    4,045
345,606;  169,682;    4,641;    1,591
346,199;   33,490;   -1,813;   -0,227
346,793;   83,715;    1,914;    2,045
347,386;   18,319;   -0,813;   -1,136
347,980;  -13,383;   -0,268;   -0,045
348,573;   17,626;    2,278;    0,409
349,167;  182,628;    5,278;    4,773
349,760;   88,666;    2,914;    2,682
350,354;   68,638;   -0,813;    1,136
350,947;   84,736;    1,096;    1,682
351,540;   47,943;   -0,358;   -1,409
352,134;  -11,939;    1,096;    1,136
352,727;   -0,308;   -0,086;    1,136
353,320;    3,562;    0,005;    0,591
353,913;  -22,114;   -1,995;    1,864
354,507;   63,084;    0,823;   -1,227
355,100;   12,428;    0,460;    0,864
355,693;  228,946;    2,005;    2,409
356,286;   95,330;    0,823;    2,773
356,879;   31,127;   -0,722;    1,227
357,472;   35,077;   -0,904;    1,500
358,065;   41,994;   -0,722;    2,500
358,658;  -10,422;   -0,540;    2,318
359,251;  -12,052;   -1,631;   -0,591
359,844;   64,257;   -1,904;   -1,136
360,437;   88,948;   -2,995;    0,045
361,030;   20,917;    1,369;   -0,682
361,623;   30,134;    2,824;    0,318
362,215;  151,016;   -0,086;    2,045
362,808;   54,944;   -2,358;   -1,682
363,401;   15,259;   -2,449;    0,136
363,994;  137,745;   -0,631;   -1,500
364,586;   38,774;    0,824;   -1,500
365,179;   11,930;   -0,449;   -1,136
365,772;  -35,793;   -1,995;    2,045
366,364;   21,266;    1,915;   -3,227
366,957;   30,483;    2,279;   -0,045
367,549;   17,203;    2,188;   -0,864
368,142;   32,942;    1,825;   -1,500
368,734;    1,813;    0,734;   -2,136
369,327;  -20,793;    1,643;   -0,500
369,919;    5,798;   -1,538;    0,409
370,512;   19,858;   -1,083;   -0,500
371,104;  205,461;   -0,901;    1,591
371,696;  211,166;    1,191;   -0,955
372,289;  106,752;    0,373;    1,136
372,881;   77,087;   -2,080;    1,318
373,473;    8,790;   -2,170;    1,136
374,066;   71,871;   -0,169;    0,500
374,658;   53,688;    0,378;    1,136
375,250;   -8,550;    0,653;   -1,409
375,842;   24,846;    0,473;   -0,045
376,434;  -12,077;   -0,435;   -0,409
377,026;  -33,018;    0,204;   -2,500
377,618;   13,654;   -0,158;   -0,682
378,210;  -55,855;   -0,338;   -1,955
378,802;  -59,394;    0,754;   -0,591
379,394;  313,128;    1,846;    0,682
379,986;   68,693;    1,393;   -0,955
380,578;  -23,064;   -0,153;    0,773
381,170;  229,186;   -0,972;    0,045
381,762;  137,053;    0,755;    1,409
382,354;   99,725;   -0,065;   -1,318
382,945;   24,983;   -2,976;    0,318
383,537;  -20,998;   -2,705;   -1,955
384,129;  -21,572;   -2,160;   -1,136
384,721;   90,215;   -0,252;    0,955
385,312;   28,371;   -0,161;   -0,955
385,904;  103,607;   -2,706;    1,591
386,496;   34,772;   -0,979;    1,045
387,087;  158,668;    1,022;    2,500
387,679;   98,666;   -1,160;    0,045
388,270;   73,138;    2,840;    2,045
388,862;   52,311;    1,295;   -0,318
389,453;   24,552;   -0,887;    1,045
390,045;   32,975;   -0,705;   -2,682
390,636;  -68,597;    0,204;   -0,591
391,227;   -6,397;   -0,523;   -0,045
391,819;  -26,070;    0,204;    0,773
392,410;  212,157;    1,022;    0,045
393,001;   25,688;   -0,979;   -1,591
393,593;   91,403;    1,930;   -0,045
394,184;  136,239;    1,385;   -0,409
394,775;   27,092;    1,839;    2,136
395,366;  -56,418;    1,385;    0,773
395,957;  113,558;    0,113;    0,136
396,548;   -0,541;   -0,342;    2,682
397,139;  101,786;   -2,433;    0,591
397,730;   27,090;   -1,888;    0,955
398,321;   39,621;   -1,252;    0,955
398,912;   -9,867;   -0,615;    0,136
399,503;  -15,752;   -3,524;   -1,409
400,094;   31,058;    0,294;    1,682
400,685;   26,549;   -0,433;    0,045
401,276;  -26,113;    0,930;   -0,955
401,867;  -39,325;   -0,888;    0,773
402,458;  -83,242;   -2,251;   -2,318
403,048;   51,333;    1,112;    0,591
403,639;   -1,129;    0,840;    0,864
404,230;  100,462;    2,476;    0,318
404,821;  158,976;   -0,615;    0,045
405,411;   64,337;    1,203;   -2,591
406,002;   -9,629;   -1,252;   -1,136
406,592;  197,360;    2,294;    0,045
407,183;   60,224;    0,566;   -1,500
407,774;   38,424;    3,475;   -0,136
408,364;   11,455;    0,930;    0,409
408,954;  124,731;    0,384;    1,227
409,545;  115,540;    1,021;    1,045
410,135;   86,266;    1,293;    0,500
410,726;   29,457;    1,838;    0,318
411,316;  206,765;    0,111;    0,773
411,906;   55,503;   -0,253;   -0,409
412,497;   64,598;   -1,070;   -0,045
413,087;   11,576;   -1,980;   -0,227
413,677;  -52,421;   -0,707;    3,864
414,267;  -53,283;    0,656;    1,409
414,857;  -75,719;   -2,980;    4,227
415,448;  -76,104;    0,839;    0,500
416,038;  -33,056;    0,020;   -0,591
416,628;    0,933;   -0,889;    0,409
417,218;   63,492;    0,565;    3,318
417,808;  204,238;    0,202;   -0,409
418,398;   81,273;    0,020;    2,682
418,988;  -27,015;    2,020;    0,591
419,578;   56,749;   -0,707;    1,409
420,168;  -15,218;   -1,343;   -0,955
420,757;  127,019;   -1,343;   -1,500
421,347;   25,782;    0,111;   -0,227
421,937;   -2,560;    2,292;    1,409
422,527;  128,391;    0,838;   -0,773
423,116;  267,210;   -0,253;   -0,045
423,706;    2,766;   -1,889;    0,318
424,296;  -39,332;    1,384;    0,682
424,885;   77,032;   -0,071;   -3,045
425,475;   52,625;    1,474;   -2,864
426,065;  -44,804;   -0,980;   -0,318
426,654;  -58,974;   -0,435;   -0,318
427,244;  184,033;    0,020;    1,409
427,833;  152,647;    1,383;   -0,500
428,423;   32,141;   -0,526;    1,136
429,012;   32,046;   -0,344;   -1,136
429,601;  160,576;   -1,344;    0,136
430,191;   51,797;    1,292;    4,318
430,780;  -41,975;   -0,344;   -0,409
431,369;  138,307;    0,746;   -0,045
431,959;   31,990;   -1,254;    0,500
432,548;  -23,151;   -1,163;   -0,045
433,137;  -86,567;   -1,254;   -1,318
433,726;  -21,050;    0,292;    0,500
434,315;   11,766;   -0,526;    2,409
434,905;  117,106;   -1,254;    1,409
435,494;  112,529;    0,746;    0,955
436,083;  -16,520;   -0,981;   -0,955
436,672;   70,609;    0,110;    0,500
437,261;   14,103;    0,292;   -1,955
437,850;  248,039;    1,383;    0,682
438,439;  286,308;    3,291;    1,955
439,027;  394,334;    3,655;    1,773
439,616;  321,429;    2,927;    1,227
440,205;  100,973;    0,200;   -2,136
440,794;   52,536;    2,109;   -0,045
441,383;  -21,143;   -1,346;   -0,591
441,971;  -29,429;   -2,436;    0,591
442,560;  -22,684;    0,563;   -1,773
443,149; -118,389;    0,379;   -1,318
443,737;  -67,501;   -0,074;   -2,318
444,326;  -40,038;    0,018;    0,318
444,915;   10,250;   -1,982;    0,864
445,503;    9,487;   -2,891;   -0,318
446,092;  261,422;    0,382;    2,136
446,680;  203,288;    0,382;    0,318
447,269;  107,013;   -0,346;   -0,318
447,857;   86,804;    0,018;   -1,773
448,445;   48,585;    0,563;    1,318
449,034;  -14,676;   -1,528;   -1,136
449,622;   -6,854;   -1,073;    3,500
450,210;  277,465;    2,017;    2,227
450,799;  189,669;    0,290;   -0,591
451,387;  146,271;    1,381;   -0,591
451,975;  135,691;    2,654;    0,864
452,563;  209,056;    3,472;    2,318
453,151;   32,240;   -0,528;   -1,227
453,739;   69,158;   -1,347;    0,136
454,328;  185,539;    2,381;   -2,136
454,916;  105,258;    2,562;   -0,136
455,504;  128,242;    1,017;    1,227
456,092;   17,777;    0,017;   -1,591
456,679;  -10,245;    1,472;    0,682
457,267;  394,728;    4,017;    1,045
457,855;   82,826;    1,017;    1,409
458,443;  -66,370;   -0,165;    1,682
459,031;  100,673;    0,108;    2,409
459,619;   59,236;   -1,801;    2,864
460,206;  -40,703;    0,835;    2,045
460,794;  -36,173;   -2,983;   -0,227
461,382;   12,773;   -0,529;   -0,864
461,970;   15,619;    1,198;    1,864
462,557;  -56,356;   -0,711;   -0,682
463,145;   58,214;   -3,165;   -1,682
463,732;  307,770;    2,016;   -1,045
464,320;   80,969;   -0,075;   -3,045
464,907;  214,000;    2,743;   -0,773
465,495;  133,395;    0,743;   -1,227
466,082;   53,355;   -1,984;   -0,045
466,670;   83,731;   -2,529;    1,227
467,257;  -32,964;   -1,711;    2,045
467,844;   75,005;   -0,075;    0,045
468,432;   43,595;    0,834;    3,500
469,019;    1,380;    0,925;   -1,773
469,606;   86,752;    0,470;    3,682
470,193;  118,017;   -1,439;    0,227
470,780;   68,439;   -2,075;    0,864
471,368;    5,801;   -1,257;   -0,773
471,955;  117,135;    1,379;   -0,682
472,542;   76,977;    0,652;   -1,136
473,129;  -38,604;   -0,166;    0,136
473,716;  -29,840;    1,470;    0,591
474,303;    4,894;    0,652;   -0,864
474,890;   16,439;   -1,439;   -0,500
475,477;  111,177;   -1,621;    0,409
476,064;   16,633;    1,106;   -1,591
476,650;  140,095;    0,288;    0,318
477,237;   43,186;   -0,258;    0,955
477,824;   21,146;   -1,076;    0,864
478,411;  -66,503;   -1,894;   -0,318
478,997;  -70,430;    0,560;   -0,773
479,584; -117,093;    1,196;   -0,409
480,171;   59,596;   -0,440;   -0,773
480,757;  119,532;    2,651;    0,773
481,344;    9,662;    0,469;    0,409
481,931;  -76,111;    1,105;    1,045
482,517;   44,326;   -1,258;    0,318
483,104;  131,058;    1,106;    2,864
483,690;   -4,751;   -1,804;    0,045
484,276;  -22,558;   -0,895;    0,227
484,863;  181,855;    2,469;    1,136
485,449;   28,772;   -0,077;    0,318
486,035;  -13,911;   -1,986;   -0,136
486,622;   81,203;   -0,895;    0,045
487,208;   -2,056;    1,378;    1,500
487,794;  -78,873;    0,741;    0,318
488,380;  -69,484;    0,105;   -1,409
488,967;  -70,268;   -1,168;   -0,409
489,553;  -57,288;   -1,895;   -1,409
490,139;   25,141;    1,559;    0,773
490,725;  -50,570;    0,741;   -0,227
491,311;   -1,254;    3,287;    3,045
491,897;  -18,880;   -0,986;    1,500
492,483;   -9,096;    0,105;    1,227
493,069;  406,556;    3,923;    0,864
493,655;  129,466;    1,650;    0,682
494,241;   11,418;    1,377;   -0,955
494,826;   20,891;    0,287;   -1,045
495,412;   88,376;    2,559;   -0,682
495,998;   -4,824;   -0,805;   -0,318
496,584;   49,347;    0,377;    1,045
497,169;   63,533;    1,014;   -0,682
497,755;    3,344;    0,650;    1,227
498,341;  131,984;    0,559;    0,318
498,926;  253,095;    1,832;    1,955
499,512;  -11,803;    1,286;    2,955
500,097;    3,815;    0,195;   -0,318
500,683;   18,504;   -0,350;    2,136
501,268;  -45,094;   -0,169;   -0,955
501,854;   -9,451;   -0,169;    1,227
502,439;  -17,362;   -0,624;   -1,773
503,024;   -9,093;    0,195;    0,500
503,610;   27,929;   -0,078;   -0,682
504,195;  -32,459;    0,558;    1,955
504,780;   57,373;    2,922;    1,227
505,366;  147,172;    3,013;    2,864
505,951;   78,960;    0,740;    1,045
506,536;    4,790;   -3,260;   -3,682
507,121;   63,510;    0,285;   -0,318
507,706;   18,702;    2,376;    1,045
508,291;  -37,855;    2,649;    1,136
508,876;  -39,285;   -0,988;    2,591
509,461;    2,648;   -0,169;   -0,773
510,046;   41,030;    0,194;    0,318
510,631;   51,158;   -0,351;   -0,773
511,216;  -24,920;    2,467;   -0,500
511,801;   27,223;   -0,442;    2,591
512,386;   40,152;    0,740;    0,500
512,971;   50,605;   -2,988;    0,955
513,555;   78,786;   -0,897;   -1,500
514,140;   54,476;   -0,442;   -3,136
514,725;  157,729;   -0,715;   -1,136
515,309;   68,073;   -0,533;    0,318
515,894;  -13,689;   -0,624;   -2,227
516,479;   23,889;   -0,624;   -0,955
517,063;   23,860;    0,376;    1,227
517,648;  -18,036;    1,012;   -1,136
518,232;  -42,939;   -0,261;   -1,409
518,817;   39,672;   -0,079;    1,682
519,401;  126,440;    2,194;    0,591
519,985;  110,687;    1,103;    1,136
520,570;    7,957;    0,830;   -1,955
521,154;   83,607;    2,102;    0,591
521,738;  211,424;   -2,352;    2,409
522,323;   70,588;   -0,170;    1,682
522,907;   94,656;    0,466;   -0,136
523,491;   45,574;    0,557;    0,955
524,075;   33,004;    2,284;    0,591
524,659;  238,072;    1,466;    0,591
525,243;  215,570;    1,739;    0,409
525,827;  206,521;    0,648;   -0,045
526,411;  261,799;   -1,989;   -0,136
526,995;  441,163;   -0,352;    1,409
527,579;  597,554;   -0,443;   -1,045
528,163;  617,182;    0,375;   -1,500
528,747;  881,348;    2,466;   -0,773
529,331;  926,545;   -0,080;   -1,409
529,915;  822,674;    1,738;    0,955
530,499; 1119,098;   -0,807;    1,227
531,082; 1435,911;   -0,534;    1,591
531,666; 1680,296;    1,374;    0,773
532,250; 1861,959;    1,284;    2,682
532,833; 2266,613;    0,920;    2,773
533,417; 2353,741;   -1,807;    0,864
534,001; 2655,833;    1,647;   -0,318
534,584; 3205,386;    0,374;    0,500
535,168; 3418,835;    0,465;    1,409
535,751; 3965,240;    0,647;    0,045
536,334; 3931,905;   -0,898;   -0,409
536,918; 4686,200;    0,011;    1,591
537,501; 5078,972;   -0,899;    1,318
538,085; 5482,176;   -0,444;    1,045
538,668; 5901,878;    0,829;    2,409
539,251; 6602,944;    1,829;    3,773
539,834; 6985,022;    0,101;    0,773
540,418; 7363,143;   -1,990;    4,318
541,001; 7749,722;   -0,990;    1,773
541,584; 8069,932;    2,101;    2,227
542,167; 8190,824;    1,374;    2,955
542,750; 8535,429;    1,919;   -0,773
543,333; 8509,594;    0,555;    2,136
543,916; 9477,646;    0,192;    2,500
544,499;10124,556;   -1,354;    0,227
545,082;10430,261;    1,374;    3,591
545,665;10822,631;    1,919;    1,500
546,248;11288,049;    1,010;   -0,318
546,830;11252,728;   -0,445;    1,955
547,413;11858,316;    1,010;   -0,773
547,996;12519,417;    0,555;    0,500
548,579;12495,076;    0,919;    0,955
549,161;12474,327;    1,828;    2,682
549,744;12411,987;   -0,809;    0,409
550,326;13044,084;   -0,809;   -1,136
550,909;13073,370;    2,737;    0,591
551,492;13551,610;   -0,263;    0,227
552,074;13494,245;   -0,173;   -1,318
552,657;14172,853;    2,373;    0,045
553,239;14074,960;   -0,173;   -0,773
553,821;14060,442;   -1,082;    1,045
554,404;13724,000;    1,282;    1,136
554,986;14191,402;    0,464;    1,045
555,568;14871,146;    1,191;   -0,955
556,151;14235,666;    1,191;   -0,227
556,733;14481,023;   -0,264;   -0,864
557,315;15051,852;    0,100;    0,500
557,897;14895,444;    0,554;   -0,500
558,479;15061,573;   -1,991;    1,318
559,061;15286,669;   -0,719;   -0,864
559,643;15716,411;   -0,264;    0,045
560,225;16066,760;    1,645;    2,864
560,807;16123,138;    0,918;    0,318
561,389;15700,126;    0,554;    2,318
561,971;16479,975;    0,463;    2,136
562,553;16359,703;   -1,628;    1,591
563,135;16549,089;   -0,537;    1,136
563,717;16216,509;    3,372;    1,136
564,298;16909,118;    3,645;   -0,045
564,880;16692,042;    0,645;   -1,409
565,462;16881,587;    0,645;    1,318
566,043;18030,422;   -0,446;    2,318
566,625;17645,328;    1,918;    1,227
567,207;17504,113;    1,099;    1,682
567,788;18615,129;   -1,264;    1,500
568,370;19377,359;    1,917;   -0,500
568,951;19236,120;    0,190;    0,227
569,533;20131,768;   -0,628;   -0,500
570,114;20591,755;   -0,446;    0,682
570,695;21115,062;   -0,174;   -1,318
571,277;21599,373;   -0,265;   -1,682
571,858;22318,554;    2,008;   -1,136
572,439;23142,663;    1,554;   -1,045
573,021;23348,682;    2,099;   -2,773
573,602;23839,004;   -1,265;    0,318
574,183;24763,287;   -2,083;    2,227
574,764;24846,064;   -1,629;    0,409
575,345;25435,735;    0,917;   -0,136
575,926;25993,928;   -0,356;    0,136
576,507;25959,637;    1,099;   -0,227
577,088;27137,605;    3,099;    1,682
577,669;27150,726;    0,735;    1,955
578,250;28001,741;    0,644;   -1,045
578,831;28593,182;   -1,356;   -2,227
579,412;28785,246;   -0,810;    0,955
579,993;29683,315;    1,008;    0,227
580,573;30025,623;   -0,629;   -0,955
581,154;29066,487;    0,735;   -0,591
581,735;29961,327;    0,644;    0,773
582,315;29518,509;   -0,629;    2,136
582,896;29796,155;   -0,174;    1,227
583,477;29247,413;    0,189;    1,227
584,057;29523,011;    0,553;    0,955
584,638;29896,679;    2,553;    2,318
585,218;29943,096;   -0,538;    2,682
585,799;30119,920;    0,281;   -0,227
586,379;30051,242;    0,372;    1,591
586,959;28842,531;    0,735;    0,318
587,540;28247,987;   -0,629;    2,227
588,120;27866,199;    1,007;   -0,045
588,700;26954,611;    2,553;    2,136
589,281;27366,105;    0,462;   -0,955
589,861;27384,974;    0,099;   -1,682
590,441;27177,657;    2,371;   -2,682
591,021;26224,585;   -0,265;   -2,591
591,601;26477,524;   -0,537;    0,500
592,181;26469,815;   -0,719;   -0,773
592,761;25761,270;    0,007;    1,409
593,341;25784,951;   -0,901;    0,045
593,921;25800,756;   -0,265;    1,591
594,501;25735,744;   -0,538;    1,318
595,081;25653,417;    0,917;   -0,318
595,661;26039,876;   -1,447;    0,955
596,240;26546,737;   -0,537;    0,136
596,820;26261,889;    0,372;    1,955
597,400;26424,352;    2,008;    0,773
597,980;26633,561;    2,008;    1,045
598,559;26665,979;    2,735;   -0,227
599,139;26412,725;   -0,174;   -1,227
599,718;26290,907;   -0,174;   -0,409
600,298;26597,374;    0,735;    0,682
600,877;26873,207;    2,917;    1,409
601,457;27170,723;    2,281;    1,136
602,036;27035,066;    0,190;    2,045
602,616;27303,012;    0,644;    1,682
603,195;27684,447;   -0,355;    3,500
603,774;27245,617;   -0,901;    2,045
604,354;27052,682;    0,826;   -0,500
604,933;26616,241;    0,463;    1,864
605,512;26723,570;    3,554;    0,591
606,091;26839,848;   -0,537;    3,773
606,671;27655,240;    0,281;    0,773
607,250;26766,156;    1,644;    3,136
607,829;27033,991;    2,372;    3,227
608,408;26930,810;    1,190;    2,591
608,987;25969,256;    1,281;    3,409
609,566;26258,242;   -1,265;   -2,500
610,145;26456,692;   -1,082;    0,682
610,723;26821,100;    4,372;    6,864
611,302;26139,137;   -0,446;    1,682
611,881;25664,435;    5,008;   11,227
612,460;26517,322;    1,645;    3,955
613,039;26905,199;   -0,082;    2,045
613,617;25658,308;    1,736;    4,773
614,196;25868,263;    1,099;    1,227
614,775;26276,070;    1,009;    2,409
615,353;26198,913;    0,736;    0,864
615,932;25962,437;    0,100;    2,409
616,510;26542,613;    0,554;    0,591
617,089;26108,142;    7,100;   17,591
617,667;25850,076;    2,372;    6,136
618,246;25721,524;   -1,537;    1,318
618,824;25929,142;   -3,355;   -0,955
619,402;25504,781;   -2,900;   -1,773
619,981;26039,285;   -0,173;   -1,045
620,559;25861,679;    0,009;    1,682
621,137;25311,940;   -0,718;    1,864
621,715;25414,620;   -1,173;   -0,682
622,293;25326,178;   -0,537;   -0,773
622,871;25838,670;   -0,718;    0,500
623,450;25421,233;    0,373;   -0,864
624,028;25304,799;    0,191;   -0,955
624,606;24948,249;   -1,718;    1,682
625,183;25340,810;   -1,536;   -1,136
625,761;24960,716;    1,009;    1,136
626,339;25313,052;    1,373;    2,591
626,917;25755,285;   -0,172;   -0,045
627,495;25699,508;   -0,354;    1,318
628,073;25171,491;   -0,263;    2,864
628,650;24873,900;    0,100;    2,136
629,228;25347,434;    0,373;    4,409
629,806;24745,270;    2,282;    1,136
630,383;25021,457;    1,464;   -0,318
630,961;24871,574;    2,555;   -0,955
631,539;24564,965;    2,464;    0,227
632,116;24038,847;   11,373;   15,409
632,694;24540,554;    2,555;    6,500
633,271;24861,302;    0,828;    2,682
633,848;24822,528;    1,828;    2,045
634,426;24844,875;   -1,081;    1,773
635,003;23911,819;    1,101;   -0,409
635,580;24253,079;    1,192;    3,682
636,158;24830,228;    3,737;    1,227
636,735;24845,242;    0,555;   -0,500
637,312;25004,786;   -0,809;   -0,682
637,889;25080,646;   -4,354;   -0,682
638,466;24539,606;   -3,990;   -0,409
639,043;24608,544;    2,101;   -1,136
639,620;24912,692;   -2,262;   -0,955
640,197;25185,154;    1,100;    1,682
640,774;25316,116;   -0,172;    1,136
641,351;25752,260;    0,737;    1,136
641,928;25173,495;   -0,627;    1,409
642,505;24862,912;    0,828;   -0,500
643,082;24963,420;   -1,718;    1,227
643,658;23944,200;   -0,718;    1,500
644,235;24736,071;    1,191;    2,500
644,812;25106,943;    1,918;    0,773
645,388;24835,087;   -0,991;    1,409
645,965;24973,867;   -0,809;    1,682
646,542;25057,648;   -1,445;   -0,227
647,118;25018,519;    1,009;   -0,955
647,695;25299,209;   -0,263;    1,136
648,271;25216,353;   -0,536;    0,500
648,848;25546,133;    0,736;    2,227
649,424;25373,914;    0,827;    1,318
650,000;25149,785;   -0,354;   -1,045
650,577;24963,020;   -0,627;   -0,955
651,153;25437,892;   -1,809;    0,955
651,729;26441,672;    1,191;    0,864
652,305;27035,907;    0,645;    2,773
652,881;32110,779;   -0,082;    1,136
653,458;38810,014;    1,100;    0,227
654,034;42035,521;    0,282;    1,591
654,610;43201,847;    0,554;    0,773
655,186;44434,264;    0,645;    3,045
655,762;44089,317;   -0,991;    0,409
656,338;44017,189;    0,100;    0,136
656,913;44974,696;   -0,082;    0,409
657,489;44193,022;    0,827;   -0,318
658,065;44156,803;   -0,173;   -1,591
658,641;44767,856;   -0,900;   -0,864
659,217;44066,637;   -0,991;    0,409
659,792;43431,053;    0,645;   -0,409
660,368;43615,288;   -2,173;   -0,682
660,944;43051,978;   -2,082;    1,227
661,519;37966,122;   -0,628;    0,409
662,095;32204,448;   -1,719;    0,591
662,670;28227,683;    1,281;   -0,136
663,246;27374,463;    1,009;   -0,409
663,821;26802,244;    0,281;    1,682
664,396;26305,206;    0,009;    1,864
664,972;26578,805;    0,009;   -0,500
665,547;26879,676;    1,372;    0,136
666,122;26968,911;   -1,082;    0,318
666,698;27289,965;   -0,173;    0,318
667,273;26578,200;   -0,173;    0,136
667,848;27427,798;    2,372;    1,500
668,423;27229,670;    2,190;    2,318
668,998;27806,905;    2,827;   -0,682
669,573;28325,503;   -3,264;   -1,500
670,148;28133,102;   -1,446;   -0,682
670,723;27965,882;   -1,810;    0,318
671,298;28347,845;    2,372;    1,045
671,873;28455,080;   -0,082;   -0,136
672,448;28436,587;    0,645;    0,136
673,023;28704,459;   -1,992;   -0,227
673,597;29071,876;    0,827;    2,318
674,172;28843,474;   -0,355;    0,318
674,747;28350,800;    0,372;   -1,045
675,321;28126,308;   -0,628;    3,318
675,896;27684,543;    0,645;    1,045
676,471;28713,505;    2,645;    1,591
677,045;28471,558;   -1,264;    0,682
677,620;28569,339;    0,190;    1,136
678,194;28859,756;   -2,628;    1,136
678,769;28440,900;   -1,083;   -0,318
679,343;28752,771;   -0,628;    1,773
679,917;28614,643;   -1,446;    1,955
680,492;28717,969;    0,826;    3,227
681,066;28819,931;    3,372;    0,409
681,640;28903,075;    1,463;   -0,318
682,214;29729,492;    0,735;    0,500
682,788;29221,000;   -1,356;   -0,773
683,363;29158,598;   -1,810;    1,682
683,937;28849,015;   -1,719;   -0,318
684,511;29631,977;    0,463;   -0,591
685,085;29313,849;   -1,356;    0,318
685,659;29071,356;   -2,538;    0,864
686,232;29382,046;   -0,356;   -0,318
686,806;29070,645;   -0,901;    0,409
687,380;29705,243;   -0,174;    0,591
687,954;29877,569;   -1,174;    1,136
688,528;29625,532;   -0,719;    1,955
689,101;30421,221;   -3,992;    1,045
689,675;29965,820;   -0,356;   -0,136
690,249;29373,873;   -0,719;    0,409
690,822;29665,381;    0,280;    0,318
691,396;29764,070;   -0,265;    1,227
691,969;29241,851;    1,280;    0,136
692,543;29680,359;   -0,447;   -1,955
693,116;29263,048;   -0,265;   -1,409
693,690;29202,919;    0,099;    0,500
694,263;29775,518;   -1,083;    2,955
694,836;29788,480;    1,371;    3,591
695,410;28457,897;   -0,265;    1,773
695,983;28988,496;    0,189;    0,591
696,556;28908,913;   -0,447;   -1,045
697,129;29265,330;   -0,356;    1,409
697,703;28892,292;   -1,629;    1,955
698,276;28903,345;    1,462;   -0,773
698,849;28735,944;    1,280;    1,409
699,422;29103,361;   -1,083;    0,591
699,995;28797,868;    0,007;    0,136
700,568;29305,558;   -0,629;    3,045
701,140;29294,338;   -2,811;    1,682
701,713;29020,119;   -0,174;    2,409
702,286;28794,445;   -0,538;    0,864
702,859;28667,407;   -0,902;   -0,591
703,432;27893,460;    0,825;    0,682
704,004;28373,513;    0,462;    0,318
704,577;28212,203;   -0,629;    0,136
705,150;28797,074;    0,189;    2,500
705,722;28602,764;   -0,356;   -3,227
706,295;28365,544;   -0,175;   -0,591
706,867;28235,234;   -0,175;    1,955
707,440;28485,833;   -1,720;   -0,409
708,012;28760,159;    0,462;    0,591
708,584;28639,394;    2,462;    0,227
709,157;28904,810;    1,825;   -0,591
709,729;28593,409;    2,280;    2,045
710,301;29436,917;    0,734;    0,045
710,874;29435,061;   -1,447;   -0,227
711,446;28294,841;    0,371;    0,864
712,018;28153,349;    0,098;    0,500
712,590;27925,130;   -1,993;    1,682
713,162;28459,092;    0,825;    1,318
713,734;28732,691;    1,825;   -2,045
714,306;28555,017;   -1,902;   -0,409
714,878;27269,797;    0,825;    0,864
715,450;28093,396;    0,643;    0,864
716,022;28352,903;    1,552;    1,318
716,593;28523,138;    0,189;    0,591
717,165;28453,646;   -3,175;   -1,227
717,737;28207,336;    0,280;    0,409
718,309;27821,389;    0,280;   -0,045
718,880;27816,715;   -0,539;   -1,409
719,452;28050,313;   -0,175;   -1,591
720,024;27604,185;    0,734;   -0,591
720,595;28147,329;   -2,902;    0,955
721,167;27706,837;    0,370;   -2,045
721,738;27240,072;   -0,812;   -1,045
722,309;27256,398;   -0,993;   -1,227
722,881;26989,815;   -1,357;    0,773
723,452;27628,777;   -2,630;    2,864
724,023;27800,648;   -0,721;    2,682
724,595;27530,429;    0,007;    0,682
725,166;27271,482;    0,007;   -0,409
725,737;27072,171;    1,734;    0,227
726,308;27106,225;   -0,266;    0,318
726,879;27535,732;   -1,630;    1,227
727,450;27353,786;    0,552;   -0,045
728,021;27307,021;    3,097;    0,682
728,592;27106,256;    0,734;    0,500
729,163;27498,582;    0,643;   -0,136
729,734;27473,998;    0,188;   -0,227
730,305;27822,870;    1,734;    0,136
730,876;28209,650;    0,188;    2,955
731,447;27921,885;    2,188;    2,682
732,017;28040,484;    1,097;    1,864
732,588;27447,264;    0,734;    1,227
733,159;27673,772;    0,643;   -1,045
733,729;27467,371;    0,006;    0,409
734,300;26727,333;    0,915;    0,864
734,870;27140,568;    3,461;    0,591
735,441;27733,349;    0,370;   -0,591
736,011;27500,402;    0,643;   -1,591
736,582;27449,637;   -0,812;    0,045
737,152;26895,054;   -1,721;   -2,045
737,722;27347,470;   -0,267;   -0,682
738,293;27045,887;   -1,358;    1,318
738,863;26984,486;    2,461;    2,318
739,433;26783,812;    5,279;    0,318
740,003;27380,956;   -0,994;   -0,682
740,573;26849,918;    2,097;   -1,591
741,143;26779,971;   -1,085;    0,318
741,713;27562,116;    1,188;   -0,500
742,283;27250,714;    0,915;    1,591
742,853;27023,222;    1,915;    1,591
743,423;26466,002;    1,733;    0,045
743,993;26615,692;   -0,358;    1,500
744,563;26002,473;    0,097;   -0,864
745,133;25946,162;   -0,812;   -0,864
745,702;26582,761;   -0,267;    1,773
746,272;25830,541;   -0,176;    0,591
746,842;25595,322;   -1,358;   -0,591
747,411;26042,284;   -0,267;   -0,318
747,981;26224,246;    0,097;    0,500
748,551;26301,936;    2,278;   -1,045
749,120;26149,171;    0,642;   -0,227
749,690;26509,315;   -0,631;    2,409
750,259;26840,095;    1,369;    2,955
750,828;26770,421;    1,551;   -1,955
751,398;27056,747;    1,278;   -0,045
751,967;26559,710;    2,187;    0,409
752,536;26756,217;   -0,813;   -0,227
753,105;27188,816;    0,096;    0,227
753,675;26958,415;    0,096;    1,773
754,244;26877,650;   -0,904;    3,591
754,813;26918,612;    0,551;    1,227
755,382;26496,938;    0,460;    0,955
755,951;27103,809;    1,551;    3,682
756,520;26624,681;   -0,085;    1,864
757,089;27190,279;    0,278;    0,500
757,658;27313,878;    1,733;    1,227
758,227;27292,840;    1,096;    0,318
758,795;27608,621;    1,187;    1,136
759,364;27785,856;   -0,086;   -0,591
759,933;26828,363;   -1,176;   -0,045
760,501;26352,871;    0,733;   -1,318
761,070;26836,652;   -2,813;   -1,409
761,639;27530,887;   -1,904;    1,318
762,207;26891,031;    1,551;   -0,955
762,776;26825,811;    0,369;    0,864
763,344;26781,319;   -0,995;    0,591
763,913;25815,554;   -0,722;    1,409
764,481;26602,971;    1,005;   -0,136
765,049;26390,388;   -1,358;    1,409
765,618;26272,532;   -0,086;    0,318
766,186;26385,130;    0,278;    0,136
766,754;26576,002;    0,005;    1,864
767,322;25573,691;   -1,995;    0,409
767,890;25619,472;   -0,722;   -1,773
768,459;26024,525;   -2,177;   -0,318
769,027;26242,306;    1,641;    3,409
769,595;25149,359;    3,278;    2,591
770,163;25588,230;    3,823;    2,955
770,730;25399,829;    0,732;   -0,136
771,298;25192,973;    0,187;   -1,409
771,866;25262,208;   -1,541;    4,955
772,434;25635,534;   -0,631;   -1,864
773,002;25807,314;    0,005;    0,682
773,569;25410,640;    0,914;    1,682
774,137;25291,330;   -0,268;   -0,045
774,705;26048,110;    0,278;   -0,136
775,272;25522,709;    0,641;    0,682
775,840;25308,217;   -0,177;    2,682
776,407;24891,815;    0,277;    1,955
776,975;24415,141;   -0,632;    0,318
777,542;25420,922;   -1,086;   -0,045
778,110;25247,339;   -1,268;   -0,045
778,677;24933,028;   -2,359;   -0,864
779,244;24714,718;    2,186;    1,045
779,812;24842,044;    1,823;    0,864
780,379;24659,279;    0,005;    1,136
780,946;24936,968;    1,005;   -0,773
781,513;25283,021;   -1,450;    0,318
782,080;24588,075;   -0,086;    2,864
782,647;25376,764;   -0,268;    3,045
783,214;24943,090;   -0,177;    3,864
783,781;24594,052;   -0,723;   -0,682
784,348;24448,651;   -0,632;    1,500
784,915;24860,795;   -3,177;    0,318
785,482;24669,394;    1,368;    2,591
786,049;25089,720;    0,186;   -0,591
786,615;25215,500;    0,277;   -0,955
787,182;24900,553;    0,186;   -0,682
787,749;24584,788;   -2,814;    1,409
788,315;23954,478;   -1,632;   -0,409
788,882;24245,895;    1,550;   -1,227
789,448;24928,584;    1,732;   -0,955
790,015;24954,183;    1,095;    3,227
790,581;24489,509;    1,459;    0,227
791,148;24388,926;    0,641;    1,045
791,714;24600,888;   -0,541;    3,136
792,280;24281,578;    0,186;    1,591
792,847;23864,085;    0,550;    2,500
793,413;24403,230;   -0,269;   -0,318
793,979;23961,101;    3,459;   -1,318
794,545;24065,427;    4,459;    2,682
795,111;23457,662;    2,186;    1,318
795,678;23634,806;    0,731;   -1,682
796,244;23305,041;    3,368;    0,136
796,810;23821,276;    1,731;    0,773
797,375;23579,238;    0,549;   -2,136
797,941;23574,564;   -0,541;    0,591
798,507;23757,799;   -0,451;   -0,955
799,073;23255,489;   -0,360;    0,591
799,639;23329,451;   -2,632;    3,136
800,205;23401,777;    0,095;    2,682
800,770;22972,921;    0,640;    1,773
801,336;23030,247;    1,368;   -0,955
801,901;22753,664;    4,549;    3,136
802,467;23260,717;   -0,542;    2,045
803,033;22577,589;   -0,087;    0,864
803,598;22841,642;    1,913;   -1,045
804,163;22817,695;    1,095;   -0,318
804,729;22834,203;   -0,178;    1,136
805,294;23236,892;    0,822;    2,227
805,859;23000,491;    0,731;   -0,409
806,425;22490,453;    1,186;    2,682
806,990;22121,688;    2,186;    4,318
807,555;22654,832;   -1,451;    2,591
808,120;22497,158;    0,822;   -0,409
808,685;22567,939;    0,185;   -2,500
809,250;22043,810;    0,004;   -0,500
809,815;22369,681;    1,913;    0,682
810,380;22973,007;   -0,269;    1,591
810,945;23491,879;   -1,087;    2,045
811,510;22644,932;    2,094;    1,591
812,075;22327,258;   -0,633;   -1,409
812,640;22371,402;    2,003;    1,409
813,204;22439,546;    0,822;   -0,227
813,769;22880,781;    2,094;   -0,045
814,334;22308,471;    0,458;    0,864
814,898;22383,978;    0,367;    0,591
815,463;22214,395;    1,276;   -0,773
816,027;22213,812;   -0,724;   -2,318
816,592;22266,411;    0,640;   -2,045
817,156;21796,100;    2,094;    1,136
817,721;21724,244;    4,276;    2,318
818,285;21672,389;    2,912;    1,500
818,849;22276,442;   -1,451;    1,682
819,414;22201,768;   -0,269;    2,955
819,978;21752,639;   -1,269;    1,773
820,542;22347,056;    2,003;    0,500
821,106;22040,655;   -0,815;    0,682
821,670;22189,526;   -0,815;    2,591
822,234;21865,579;   -0,270;    1,409
822,798;21256,632;    0,003;    0,500
823,362;21241,867;   -0,633;    4,227
823,926;20549,557;    0,094;    1,136
824,490;20798,428;   -0,997;   -0,682
825,054;21215,936;   -0,088;   -1,136
825,618;20820,807;   -1,542;   -1,500
826,181;20770,406;    0,458;   -1,318
826,745;20733,368;    1,367;   -1,045
827,309;21124,967;    1,185;    1,318
827,872;20474,384;    1,367;    0,955
828,436;21407,619;    1,185;   -0,773
828,999;21438,218;   -0,997;    1,227
829,563;20245,816;   -0,179;    1,136
830,126;20115,415;   -0,179;   -0,591
830,690;20120,286;   -1,997;    2,864
831,253;19640,612;   -0,543;    2,227
831,816;19788,484;   -1,906;    0,500
832,380;19666,173;    0,185;    0,864
832,943;19907,045;   -1,361;   -0,500
833,506;19416,643;    2,639;   -1,227
834,069;20163,333;    3,912;   -0,955
834,632;20248,113;    1,730;    1,318
835,195;20146,257;    1,003;    0,955
835,758;19344,492;   -0,997;    1,955
836,321;19171,364;    0,730;   -1,045
836,884;19308,144;   -0,725;   -0,955
837,447;19282,743;   -2,816;    1,773
838,010;19582,887;    0,366;    3,227
838,573;19861,213;   -1,179;    0,773
839,135;19818,175;   -1,361;   -0,955
839,698;19325,047;    1,275;    0,409
840,261;18847,191;    1,003;   -0,227
840,823;18643,608;   -0,543;    0,864
841,386;18919,024;   -0,452;   -2,409
841,948;18854,714;   -1,361;    1,773
842,511;18567,131;    0,912;    1,682
843,073;18736,548;    1,912;    0,227
843,636;18531,964;   -0,361;   -0,227
844,198;18523,290;    0,911;    0,591
844,760;18661,980;    1,093;    1,955
845,322;18246,760;    0,548;    1,136
845,885;18702,723;    0,730;    0,591
846,447;19078,867;   -1,998;    0,227
847,009;18700,193;    1,911;   -0,682
847,571;18978,973;    0,820;   -2,045
848,133;19081,299;   -1,089;   -1,864
848,695;18926,443;   -0,543;    1,409
849,257;18496,406;   -1,089;   -1,682
849,819;18668,731;   -0,998;   -0,409
850,381;18689,966;   -0,725;   -0,864
850,942;19104,201;    1,093;   -0,591
851,504;19044,800;    1,184;    0,227
852,066;19019,581;    1,275;   -1,591
852,628;18558,907;   -0,180;    1,955
853,189;18136,960;    1,638;    2,682
853,751;18237,558;   -0,907;    1,409
854,312;18081,248;   -0,453;   -1,682
854,874;18555,392;   -2,089;   -0,773
855,435;19047,445;   -0,907;   -1,682
855,997;19229,498;   -1,816;   -0,136
856,558;18532,552;    0,366;    1,773
857,119;18634,787;    0,820;    2,864
857,681;18293,840;    0,002;    0,318
858,242;18382,620;    1,911;   -2,136
858,803;18834,674;    0,456;   -0,773
859,364;19369,090;    0,184;   -4,773
859,925;18679,416;   -2,453;   -0,955
860,486;18565,288;   -0,453;   -0,955
861,047;18285,795;   -0,544;   -1,227
861,608;18119,576;   -1,089;   -0,773
862,169;18232,265;    0,638;   -0,045
862,730;18031,228;    0,456;    1,409
863,291;18279,917;   -0,635;   -0,500
863,852;18646,152;   -0,635;    1,955
864,412;18113,296;   -0,271;   -0,864
864,973;16672,895;   -0,089;    0,500
865,534;16577,494;   -1,726;    0,227
866,094;18066,183;    1,820;    0,227
866,655;17722,055;    1,274;    3,318
867,215;17991,199;    0,274;    0,136
867,776;17847,797;    0,547;   -0,136
868,336;17949,760;   -1,453;    0,136
868,897;17436,086;    2,638;    1,682
869,457;17147,139;    1,365;    0,318
870,017;17360,828;    0,547;   -1,227
870,578;17890,154;   -0,817;    0,773
871,138;17600,026;   -2,089;   -0,955
871,698;17098,988;   -0,817;   -1,318
872,258;17035,950;   -0,453;   -2,864
872,818;17394,185;    2,729;    0,045
873,378;17352,239;    0,638;    1,045
873,938;16866,474;    0,547;    0,500
874,498;17194,436;    0,274;   -1,955
875,058;17127,489;    2,183;    1,773
875,618;16940,179;    1,910;   -2,682
876,177;16881,050;    1,274;    0,136
876,737;16512,012;   -0,090;    1,955
877,297;16518,611;    0,183;    1,955
877,856;16554,937;   -0,362;    0,318
878,416;16486,445;    1,183;   -0,136
878,976;16714,498;   -1,817;    0,409
879,535;16881,187;    0,092;    3,136
880,095;16616,422;   -0,544;    0,045
880,654;16741,657;   -1,090;    1,318
881,213;16832,983;    2,456;    1,500
881,773;16501,491;    2,637;    2,682
882,332;16881,726;    3,365;    5,136
882,891;16707,598;    3,092;    2,136
883,451;17118,287;   -1,272;    1,682
884,010;16539,613;   -2,908;   -0,409
884,569;16653,030;   -0,999;   -0,045
885,128;16850,447;    2,819;   -1,864
885,687;16966,773;    4,455;    0,682
886,246;16624,826;    1,455;    2,136
886,805;16401,424;    2,455;    2,045
887,364;16665,387;   -0,999;   -0,500
887,922;17005,349;   -1,181;    0,045
888,481;16539,766;   -1,545;    0,591
889,040;16833,092;    1,183;    2,136
889,599;17513,145;    2,455;    1,409
890,157;17576,289;    1,455;    2,409
890,716;17205,979;   -0,090;    0,227
891,274;17001,941;    0,092;   -1,136
891,833;17488,449;    1,546;    0,864
892,391;17337,866;   -0,454;    0,500
892,950;17426,010;    1,819;   -0,773
893,508;17790,154;    0,455;   -0,409
894,067;17117,389;    0,637;    0,136
894,625;17032,897;   -0,636;   -1,500
895,183;17235,223;   -0,363;   -0,682
895,741;17138,276;    1,728;   -1,773
896,299;16968,874;   -0,545;   -2,409
896,858;17186,655;    0,819;   -1,591
897,416;17302,981;    2,728;   -1,318
897,974;17036,943;    1,819;    0,318
898,532;17196,814;    6,091;    2,682
899,089;17108,504;    2,091;   -0,682
899,647;17145,739;   -1,454;    1,318
900,205;16895,247;    1,182;    1,045
900,763;17057,936;   -0,454;    0,227
901,321;17066,808;    2,364;   -1,409
901,878;16471,770;   -1,000;   -0,773
902,436;16350,550;   -1,363;    1,318
902,994;16778,785;    4,728;    3,682
903,551;16218,657;    0,728;    0,409
904,109;16558,165;    0,182;   -1,409
904,666;16137,945;    2,455;    1,045
905,224;15973,362;    0,182;   -0,409
905,781;15720,051;    0,727;   -0,318
906,338;15772,287;   -1,363;    1,045
906,895;15698,885;    0,637;    2,045
907,453;15664,757;    1,727;    1,136
908,010;15723,810;   -0,909;    0,409
908,567;15383,681;    1,273;    0,591
909,124;14845,007;    0,364;   -1,500
909,681;14938,788;   -2,909;    0,682
910,238;15071,204;    0,636;   -1,318
910,795;15394,621;   -0,273;   -1,136
911,352;15013,712;   -2,909;   -2,682
911,909;14423,258;   -1,364;   -0,864
912,466;14971,439;   -3,182;    1,500
913,022;14514,348;   -1,636;    0,500
913,579;14867,258;   -0,909;    2,045
914,136;14548,076;    1,636;    0,955
914,692;14889,167;    0,091;   -1,227
915,249;14481,985;    1,455;    0,409
915,806;14737,712;    0,182;    1,955
916,362;14465,803;    1,909;    1,864
916,918;14041,530;    2,000;    1,045
917,475;14020,803;   -1,182;    0,955
918,031;14059,894;    3,364;   -0,045
918,587;13490,621;   -0,909;   -0,318
919,144;13741,530;   -2,273;    0,227
919,700;14045,348;    1,727;    0,773
920,256;13628,076;    0,727;    0,045
920,812;13226,167;   -0,727;   -1,045
921,368;13249,348;   -1,727;   -1,045
921,924;12871,076;    0,182;   -0,136
922,480;12493,894;   -0,545;    1,227
923,036;13145,621;    1,273;    1,955
923,592;13036,803;    0,455;    0,318
924,148;12942,258;    0,455;   -0,955
924,704;12263,076;   -1,364;   -0,409
925,259;12493,530;   -0,273;    0,591
925,815;12254,803;    1,455;    0,500
926,371;11795,985;    2,909;    1,409
926,926;11667,894;    2,091;    0,591
927,482;11340,894;   -1,364;    0,773
928,037;11229,167;    0,909;    2,045
928,593;11499,894;    1,636;    1,045
929,148;11330,167;   -1,818;   -1,500
929,704;10810,076;   -1,455;   -0,500
930,259;11050,258;    0,091;   -0,136
930,814;10082,439;   -0,818;    1,955
931,369; 9760,530;    1,091;   -0,773
931,925; 9655,167;   -0,091;    0,136
932,480; 9565,621;   -2,818;   -2,591
933,035; 9464,167;    0,545;   -0,318
933,590; 9236,167;    0,364;   -1,773
934,145; 8838,258;   -1,364;   -0,318
934,700; 9174,712;    0,455;   -0,591
935,255; 8993,439;   -0,091;    0,045
935,809; 8292,894;    3,182;    0,864
936,364; 7431,712;   -0,455;   -0,136
936,919; 7381,258;    0,455;   -1,773
937,474; 7257,348;    1,455;    0,136
938,028; 7025,712;   -1,636;    1,136
938,583; 6523,712;    1,818;    4,682
939,138; 6764,621;    2,091;    2,136
939,692; 6199,621;    1,636;   -1,136
940,247; 5932,803;   -0,727;   -1,045
940,801; 5510,439;   -0,636;    0,227
941,355; 5375,621;   -0,364;    2,591
941,910; 5044,348;   -0,273;   -2,136
942,464; 5147,439;   -0,818;   -0,318
943,018; 4943,621;    1,000;   -0,227
943,572; 4895,894;    2,545;   -0,682
944,126; 4331,076;    0,091;   -0,409
944,681; 4219,076;    3,091;    0,227
945,235; 4200,348;    1,000;   -0,591
945,789; 4156,894;    0,364;   -1,864
946,342; 4267,894;    0,455;   -0,591
946,896; 4049,894;   -2,273;    0,955
947,450; 3802,076;    1,545;   -0,227
948,004; 4007,530;    1,727;   -0,045
948,558; 4006,258;    0,273;   -0,864
949,111; 3958,348;   -0,273;   -0,318
949,665; 3967,894;    1,636;   -0,682
950,219; 3871,530;   -0,091;   -1,045
950,772; 3912,167;   -1,909;    1,864
951,326; 3822,803;    0,545;   -0,955
951,879; 3911,530;    0,727;   -2,318
952,433; 3949,621;    0,000;    2,227
952,986; 3787,803;    2,909;    0,682
953,539; 3738,712;   -0,273;    0,591
954,093; 3673,712;    0,545;   -1,318
954,646; 3834,167;    0,909;    1,318
955,199; 3645,076;    0,000;   -0,500
955,752; 3514,076;   -0,455;    1,773
956,305; 3452,258;   -0,091;    2,955
956,858; 3642,439;    0,818;   -0,318
957,411; 3809,439;   -0,545;    2,136
957,964; 3627,439;    1,364;    2,136
958,517; 3599,985;   -1,545;    3,136
959,070; 3432,712;   -0,455;    1,955
959,623; 3530,258;    1,091;    1,500
960,176; 3298,076;    1,727;    2,045
960,728; 3273,439;   -2,727;    0,773
961,281; 3334,439;    0,545;    0,500
961,834; 3388,167;   -0,909;    0,864
962,386; 3280,439;    1,727;    1,045
962,939; 3203,803;    0,364;   -0,318
963,491; 3350,258;    0,455;    1,136
964,043; 3229,894;    1,182;    2,409
964,596; 3354,894;   -1,000;    2,227
965,148; 3187,348;   -1,000;    1,773
965,700; 3115,076;    1,091;   -0,227
966,253; 3266,530;   -0,636;    0,318
966,805; 3109,985;   -2,273;    0,773
967,357; 3153,621;    1,091;   -1,500
967,909; 3120,803;    0,455;   -1,227
968,461; 3228,530;    0,545;    3,136
969,013; 3166,712;   -0,182;   -0,864
969,565; 3244,167;   -0,455;   -1,136
970,117; 3306,258;   -0,364;    1,045
970,669; 3117,621;    0,182;   -0,136
971,220; 2989,439;   -0,455;   -1,500
971,772; 2915,439;   -0,636;   -0,318
972,324; 3042,803;    0,091;   -0,500
972,876; 2983,258;    0,818;   -0,045
973,427; 3132,530;    1,909;   -1,045
973,979; 3074,712;   -0,727;   -2,500
974,530; 3117,348;    1,818;    1,318
975,082; 3120,985;   -0,545;    1,682
975,633; 3027,348;    1,091;    1,682
976,184; 3178,076;    0,909;    0,773
976,736; 2972,803;    0,091;    0,227
977,287; 2768,803;   -0,909;   -0,500
977,838; 2937,530;    0,909;   -0,318
978,389; 3013,621;   -1,000;   -0,500
978,940; 2870,803;    0,545;   -0,409
979,491; 2901,894;    0,091;   -0,500
980,042; 2869,712;    0,182;    3,045
980,593; 2909,530;   -2,545;    0,227
981,144; 2962,439;    2,545;   -0,500
981,695; 2938,167;    1,455;    1,500
982,246; 2899,167;   -0,273;    1,045
982,797; 3043,530;   -1,727;    0,682
983,347; 3143,076;    0,364;    0,591
983,898; 3322,348;    3,091;    0,409
984,449; 3131,076;    2,182;    0,773
984,999; 3040,803;    1,455;   -1,136
985,550; 2826,258;    0,182;   -0,318
986,100; 2862,167;   -0,455;   -0,318
986,651; 2890,258;   -0,818;    0,045
987,201; 2861,439;   -1,000;   -0,591
987,751; 2957,348;    0,818;    2,864
988,302; 2946,985;    2,636;    1,500
988,852; 2961,076;    0,455;   -1,136
989,402; 3020,530;    0,091;    0,682
989,952; 2931,167;   -2,182;    0,864
990,502; 3037,439;   -0,091;    0,682
991,052; 2975,167;   -0,727;    0,045
991,602; 2859,894;   -2,909;    1,318
992,152; 2849,076;    0,455;    0,682
992,702; 2830,530;    1,364;   -0,045
993,252; 2750,985;   -3,000;   -0,500
993,802; 2865,348;   -0,273;    1,318
994,352; 3093,712;   -1,545;    1,136
994,901; 3162,621;   -0,182;    3,227
995,451; 3081,258;   -0,182;    0,318
996,000; 3166,258;    1,636;    0,318
996,550; 2889,076;    2,273;    0,227
997,100; 2875,348;    1,273;   -0,045
997,649; 3172,348;    2,182;    0,955
998,198; 2809,530;    1,727;   -1,500
998,748; 3000,348;    1,091;   -2,318
999,297; 2903,803;   -0,818;   -0,409
999,846; 2958,985;    1,000;   -0,773
1000,395; 3014,621;   -0,818;    0,500
1000,945; 2974,621;    1,818;   -0,773
1001,494; 3061,439;    2,364;    0,682
1002,043; 3041,348;    4,636;    0,864
1002,592; 2893,348;   -1,091;    1,955
1003,141; 3036,712;   -0,455;   -0,682
1003,690; 2896,439;    1,727;    0,500
1004,238; 2970,894;    1,455;   -0,045
1004,787; 2604,621;    1,364;    1,227
1005,336; 2846,348;    0,364;    0,682
1005,885; 2983,621;    1,364;   -2,773
1006,433; 3119,076;    0,545;    0,955
1006,982; 3198,439;    0,455;    1,682
1007,531; 3083,712;   -1,818;   -0,227
1008,079; 3028,076;   -2,273;    0,500
1008,627; 3162,621;   -1,455;    0,409
1009,176; 2918,167;    0,000;   -1,955
1009,724; 2957,894;    1,091;    0,864
1010,273; 3014,621;    1,273;    0,500
1010,821; 3117,530;    0,091;    1,409
1011,369; 2843,348;   -1,364;    1,318
1011,917; 2844,621;   -1,364;   -0,591
1012,465; 3115,621;    1,273;   -1,591
1013,013; 3233,712;    2,091;   -1,682
1013,561; 3116,167;    0,455;   -0,773
1014,109; 3167,258;   -1,909;    1,682
1014,657; 3049,712;    0,364;    0,591
1015,205; 3160,258;    1,636;   -0,955
1015,753; 3185,439;   -0,545;   -1,409
1016,301; 3225,621;   -2,636;    3,045
1016,848; 3226,258;   -1,273;    0,409
1017,396; 3261,530;    2,545;    0,045
1017,944; 3366,803;    1,182;    1,864
1018,491; 3136,439;    0,273;    1,409
1019,039; 3304,712;    0,455;    0,591
1019,586; 3213,894;   -1,364;    1,682
1020,134; 3305,439;    0,455;    1,500
1020,681; 3336,712;    0,182;   -1,136
1021,228; 3336,803;    2,909;   -2,227
1021,776; 3167,712;    1,182;   -1,136
1022,323; 3396,348;    0,455;    0,773
1022,870; 3325,621;   -1,000;   -0,045
1023,417; 3225,530;    2,636;    1,864
1023,964; 3358,985;    2,636;    1,227
1024,511; 3202,712;    1,000;    0,773
1025,058; 2997,076;    3,182;   -0,045
1025,605; 3044,167;   -2,273;    3,136
1026,152; 3274,985;    1,727;   -0,591
1026,699; 2991,258;    1,818;    1,318
1027,245; 3148,530;   -0,091;    0,318
1027,792; 3357,348;   -1,000;    1,409
1028,339; 3272,439;    2,364;   -0,045
1028,885; 3112,712;    1,000;   -0,227
1029,432; 3042,894;   -0,091;    0,227
1029,978; 3115,894;   -1,000;   -1,591
1030,525; 3018,621;    1,000;    0,409
1031,071; 3243,530;   -1,364;    1,136
1031,618; 3371,167;    0,364;    1,682
1032,164; 3135,348;   -0,091;    3,045
1032,710; 3198,894;    1,636;   -1,500
1033,256; 3124,621;   -0,636;   -0,136
1033,803; 3080,167;   -0,545;    1,500
1034,349; 2790,348;   -1,364;    0,136
1034,895; 2957,985;    0,000;   -0,318
1035,441; 2932,803;   -0,818;    0,318
1035,987; 2916,167;   -2,364;   -0,682
1036,533; 2928,894;   -1,455;   -0,955
1037,078; 3149,076;    1,455;    1,682
1037,624; 2960,348;    2,455;   -0,955
1038,170; 2980,076;    0,455;   -0,318
1038,716; 2902,167;    1,636;   -0,409
1039,261; 2811,530;   -2,273;   -0,773
1039,807; 2736,076;   -0,091;    3,409
1040,352; 2808,621;   -1,909;   -0,318
1040,898; 2835,803;   -1,545;   -0,682
1041,443; 2752,076;   -1,455;   -2,591
1041,989; 2801,348;    1,091;    1,591
1042,534; 2670,985;   -0,364;    2,591
1043,079; 2763,712;    2,909;    0,955
1043,625; 2564,894;    1,818;    0,500
1044,170; 2609,167;   -1,364;    1,045
1044,715; 2876,985;    2,455;    0,955
1045,260; 2707,894;    2,182;   -0,955
1045,805; 2737,712;    1,182;   -0,591
1046,350; 2655,894;    1,364;   -0,409
1046,895; 2635,076;    2,909;    1,591
1047,440; 2594,348;    5,364;    0,409
1047,985; 2473,712;    2,818;   -0,955
1048,530; 2400,167;    1,545;    1,227
1049,074; 2478,076;    0,000;    0,318
1049,619; 2446,076;   -1,364;    1,955
1050,164; 2247,621;    0,455;    0,227
1050,708; 2269,076;   -0,455;    0,045
1051,253; 2671,439;    1,273;   -2,227
1051,797; 2377,076;    0,818;   -1,318
1052,342; 2358,803;   -1,182;    1,045
1052,886; 2372,167;    0,364;   -1,409
1053,430; 2239,530;   -1,364;    0,136
1053,975; 2265,530;   -0,818;   -0,318
1054,519; 2240,076;   -0,727;    3,227
1055,063; 2266,348;    0,909;    1,318
1055,607; 2159,348;   -0,182;    0,227
1056,151; 2179,530;    2,909;    1,682
1056,695; 2095,985;    2,273;   -1,136
1057,239; 2155,258;   -1,727;   -0,682
1057,783; 2165,621;    0,818;   -1,500
1058,327; 2119,348;    0,000;    1,409
1058,871; 2340,530;   -0,545;    1,318
1059,415; 2046,439;   -0,818;   -0,045
1059,958; 2332,258;    1,455;    2,591
1060,502; 2047,621;   -1,000;   -0,773
1061,046; 1931,803;    0,364;   -0,955
1061,589; 1916,348;   -3,000;   -1,136
1062,133; 1803,076;   -1,273;    1,864
1062,676; 1746,530;    1,182;    0,864
1063,220; 1749,712;    1,091;    0,500
1063,763; 1772,258;    0,909;    1,136
1064,306; 1858,167;   -0,909;    1,864
1064,849; 1744,621;   -0,909;    0,591
1065,393; 1749,712;    2,000;   -1,500
1065,936; 1863,439;    0,182;   -0,409
1066,479; 1732,167;   -1,455;    1,318
1067,022; 1747,621;   -0,273;   -0,227
1067,565; 1654,894;   -0,091;   -1,318
1068,108; 1683,167;    0,727;   -0,591
1068,651; 1643,803;   -0,636;    1,409
1069,194; 1581,258;   -0,455;   -1,682
1069,736; 1591,803;   -1,273;    0,955
1070,279; 1572,167;   -1,364;   -0,500
1070,822; 1625,530;   -2,000;   -0,318
1071,364; 1720,894;   -0,364;    1,318
1071,907; 1528,258;   -0,727;    3,227
1072,450; 1422,439;    0,000;   -0,045
1072,992; 1423,348;   -0,273;    3,136
1073,535; 1581,621;    2,091;    2,136
1074,077; 1370,439;   -0,727;    2,045
1074,619; 1330,076;   -1,364;    0,591
1075,161; 1383,167;   -1,091;    1,500
1075,704; 1558,530;    1,545;    1,227
1076,246; 1343,076;   -0,182;    0,682
1076,788; 1278,167;   -0,364;    1,773
1077,330; 1333,803;    1,273;    2,136
1077,872; 1303,258;    0,909;    0,955
1078,414; 1553,439;    2,727;    0,773
1078,956; 1269,348;    1,273;   -0,227
1079,498; 1554,985;    1,636;    0,318
1080,040; 1246,894;    1,909;   -1,318
1080,581; 1183,258;    1,636;   -0,318
1081,123; 1102,439;    0,091;   -0,773
1081,665; 1159,530;   -1,182;   -0,955
1082,206; 1466,894;    1,364;   -0,500
1082,748; 1316,167;    0,727;    2,045
1083,289; 1186,712;   -2,000;    1,318
1083,831; 1105,348;   -0,545;    0,227
1084,372; 1150,894;    0,000;    0,591
1084,913; 1146,258;    1,091;    0,864
1085,455; 1105,894;   -1,909;   -2,045
1085,996; 1085,076;   -2,273;    0,136
1086,537; 1114,712;   -0,091;    0,864
1087,078; 1135,258;   -0,909;   -2,136
1087,619; 1181,530;   -1,273;    0,227
1088,160; 1096,076;    0,000;    1,318
1088,701; 1080,621;   -1,091;    0,682
1089,242; 1021,621;    1,364;   -2,227
1089,783; 1123,076;   -0,273;    1,409
1090,324; 1077,076;    0,455;    0,682
1090,865;  956,803;    2,727;   -0,409
1091,405;  924,167;    0,727;    2,227
1091,946;  952,076;    0,182;   -0,955
1092,487;  877,076;    0,818;   -1,409
1093,027; 1052,076;   -1,364;   -1,500
1093,568;  902,167;   -0,364;    1,227
1094,108; 1020,348;    0,273;    1,773
1094,649;  946,712;   -1,182;    0,136
1095,189;  871,258;   -0,636;   -0,682
1095,729;  832,167;   -0,091;    0,955
1096,269;  833,985;    0,727;   -0,955
1096,810; 1160,439;   -1,364;    0,500
1097,350;  979,985;    1,364;   -0,773
1097,890;  880,803;    0,364;    1,227
1098,430; 1146,258;    2,364;    2,864
1098,970; 1007,348;    2,182;    1,682
1099,510;  856,712;    0,545;   -2,318
1100,050;  787,076;    1,000;   -1,591
1100,589;  756,621;   -0,727;   -0,318
1101,129;  899,167;    0,818;   -0,955
1101,669; 1050,076;    1,727;    2,136
1102,209;  872,621;   -0,091;    2,227
1102,748;  823,439;    0,000;    0,955
1103,288;  808,985;    1,273;   -1,227
1103,827;  834,258;    3,091;   -2,227
1104,367;  706,712;   -0,091;   -2,409
1104,906;  678,894;    1,364;   -1,136
1105,445;  750,621;    0,636;   -1,136
1105,985;  702,258;   -0,727;    1,500
1106,524;  748,258;   -1,727;   -0,682
1107,063;  718,258;   -2,727;    1,409
1107,602;  685,621;   -1,909;   -1,500
1108,141;  611,167;   -1,909;    1,500
1108,680;  735,348;   -3,455;   -0,591
1109,219;  658,894;   -0,909;   -0,500
1109,758;  643,621;    0,455;    0,682
1110,297;  628,621;    1,000;   -0,682
1110,836;  579,894;   -0,727;    0,955
1111,375;  745,985;   -2,545;    0,409
1111,913;  755,712;   -1,000;    0,773
1112,452;  687,712;   -0,273;    0,136
1112,991;  569,803;    1,091;    1,955
1113,529;  534,258;   -0,818;   -0,045
1114,068;  604,258;   -0,273;    2,955
1114,606;  495,712;   -0,364;   -0,955
1115,144;  674,439;   -1,273;    1,045
1115,683;  602,439;   -0,727;    0,318
1116,221;  648,258;   -0,455;   -0,864
1116,759;  554,439;    0,636;   -0,864
1117,297;  765,530;    0,000;    1,864
1117,836;  568,076;   -2,182;   -1,227
1118,374;  583,985;    0,182;   -0,682
1118,912;  517,530;    0,909;    2,682
1119,450;  506,621;    1,000;    0,864
1119,988;  565,076;    1,545;    2,136
1120,525; 1015,530;    5,091;    3,318
1121,063;  716,803;    1,182;    1,864
1121,601;  521,712;   -0,909;   -1,227
1122,139;  475,439;   -0,727;   -2,045
1122,676;  683,258;   -0,727;    2,773
1123,214;  616,621;   -1,182;    4,409
1123,751;  423,167;    1,727;    2,227
1124,289;  553,530;   -0,091;   -0,409
1124,826;  417,894;    1,727;    0,227
1125,364;  335,167;    1,727;   -0,955
1125,901;  530,894;    1,182;    1,227
1126,438;  652,167;    0,818;    0,955
1126,975;  366,712;   -0,727;   -0,773
1127,513;  439,803;    0,273;    2,136
1128,050;  343,076;    1,636;   -0,682
1128,587;  442,530;    2,000;   -0,227
1129,124;  492,712;    0,091;    1,318
1129,661;  346,348;    0,273;    0,227
1130,198;  522,712;    1,636;    0,773
1130,734;  469,439;    0,182;    1,409
1131,271;  316,803;   -0,909;    0,864
1131,808;  506,258;    2,909;    3,045
1132,345;  377,439;    1,545;    0,318
1132,881;  235,621;   -1,545;   -1,864
1133,418;  384,985;    0,727;   -1,136
1133,954;  322,803;    2,455;   -2,682
1134,491;  408,621;    1,364;   -0,773
1135,027;  302,894;    2,364;    0,864
1135,564;  392,803;    0,273;    2,955
1136,100;  376,167;    0,364;    2,136
1136,636;  258,894;   -1,273;   -1,045
1137,172;  358,712;    0,000;   -1,045
1137,708;  281,348;   -1,364;   -1,045
1138,245;  278,439;    1,273;   -1,227
1138,781;  223,258;    1,091;   -3,318
1139,317;  299,985;    1,273;   -1,409
1139,852;  289,167;    3,091;    0,136
1140,388;  409,439;   -1,182;   -0,409
1140,924;  279,621;   -1,091;   -2,227
1141,460;  220,803;   -1,636;    0,136
1141,996;  157,258;   -1,364;    2,682
1142,531;  207,076;    1,364;    3,318
1143,067;  430,621;    1,182;    1,045
1143,602;  489,530;   -0,091;   -0,318
1144,138;  324,439;   -2,636;    1,045
1144,673;  187,348;   -1,455;    1,409
1145,209;  261,712;   -1,909;   -0,318
1145,744;  176,985;   -0,727;    0,864
1146,279;  321,712;    1,818;   -0,136
1146,815;  227,439;    1,545;   -2,682
1147,350;  272,076;   -1,364;    0,045
1147,885;  177,076;   -0,818;   -1,318
1148,420;  177,712;   -2,273;    0,773
1148,955;  163,258;   -1,727;    1,864
1149,490;  188,439;   -0,909;   -1,591
1150,025;  182,258;    0,455;   -1,773
1150,560;  296,530;    1,091;   -0,955
1151,094;  261,803;    1,455;   -0,591
1151,629;  259,258;    1,636;    0,864
1152,164;  184,348;    1,364;    1,318
1152,698;  138,167;   -0,182;   -0,136
1153,233;   95,894;    0,091;   -0,682
1153,767;  148,985;   -3,000;   -2,318
1154,302;  207,439;   -1,455;    1,773
1154,836;  205,621;   -0,455;   -2,136
1155,371;  262,439;   -1,364;    3,682
1155,905;  209,985;   -0,636;    1,682
1156,439;  172,076;   -0,636;   -0,500
1156,973;  201,985;    0,364;    0,318
1157,507;  139,985;   -0,364;    0,682
1158,042;  173,803;   -0,727;    1,045
1158,576;  228,712;    0,182;    1,773
1159,110;  212,258;   -0,818;    2,409
1159,643;  179,985;    0,636;   -0,045
1160,177;  112,894;   -1,545;    1,500

