
Integration time [ms]:   0,040
Averaging Nr. [scans]: 11
Smoothing Nr. [pixels]: 0
Data measured with spectrometer [name]: 7318044SP
Wave   ;Sample   ;Dark     ;Reference
[nm]   ;[counts] ;[counts] ;[counts] 

186,757;   14,989;   31,551;    1,318
187,357;   57,208;   22,551;    0,955
187,958;   30,280;   15,460;   -1,591
188,558;   70,619;    8,915;   -1,227
189,159;   36,126;    6,733;   -4,500
189,759;    9,819;    7,278;   -3,591
190,360;   11,652;    2,824;   -2,136
190,960;   47,510;    2,915;   -4,136
191,560;   61,504;    3,189;   -6,591
192,161;  313,800;    4,372;   -3,500
192,761;  143,465;    4,010;   -3,227
193,361;   97,255;    1,556;   -3,773
193,962;  142,270;    2,010;   -2,682
194,562;   61,929;    1,189;   -3,955
195,162;   93,512;   -2,448;   -2,227
195,762;  260,457;   -3,176;   -0,045
196,362;  199,132;    1,370;   -2,500
196,963;   64,490;    2,006;   -0,864
197,563;  136,531;    1,551;   -0,955
198,163;   70,764;    0,096;   -0,682
198,763;   90,833;    1,733;   -0,500
199,363;  191,175;    3,096;   -0,500
199,963;  155,639;    0,369;    0,409
200,563;  121,985;    2,823;   -1,409
201,163;   96,703;    3,277;   -0,227
201,763;  189,142;    3,732;    0,318
202,363;  118,411;    1,459;    1,500
202,963;  221,343;    1,459;    1,045
203,563;  325,340;    0,277;    0,500
204,162;  178,079;    2,096;   -1,864
204,762;  174,034;    0,550;    0,591
205,362;  140,585;    3,004;    1,955
205,962;  226,973;    3,096;    1,955
206,562;  227,588;    1,823;    2,318
207,161;  191,310;   -0,087;    0,318
207,761;  338,528;    1,277;    2,409
208,361;  223,995;   -0,268;    1,409
208,960;  321,089;    0,459;    1,500
209,560;  386,043;    1,277;    1,591
210,160;  358,181;    0,550;    1,864
210,759;  313,635;    4,186;    1,227
211,359;  323,818;    1,459;    1,045
211,958;  577,190;    1,277;    2,045
212,558;  648,353;    1,732;    1,864
213,157;  488,030;    1,822;    1,500
213,757;  919,109;    3,822;   -0,227
214,356;  617,272;    1,277;   -0,409
214,956;  937,149;    3,095;    0,409
215,555;  572,853;    2,095;    2,136
216,154;  515,338;   -2,723;   -0,591
216,754;  512,423;    0,277;    0,773
217,353;  633,962;   -0,268;   -1,045
217,952;  477,706;   -0,178;    0,318
218,552;  714,982;    1,368;   -0,773
219,151;  609,960;    0,277;    0,955
219,750;  601,628;    0,004;   -0,227
220,349;  656,239;   -0,451;    1,045
220,948;  777,101;   -1,360;    1,136
221,548;  746,417;    0,913;    1,227
222,147;  843,433;   -0,087;   -0,409
222,746; 1113,728;   -0,451;   -0,955
223,345;  969,744;    0,731;    0,500
223,944;  965,107;   -0,451;    0,773
224,543; 1083,611;    1,004;   -1,409
225,142; 1194,230;    0,094;    0,136
225,741; 1076,734;   -0,814;    1,045
226,340; 1091,418;   -0,451;   -0,955
226,939; 1483,699;   -0,996;   -0,136
227,538; 1318,847;   -0,360;   -0,773
228,137; 1499,370;   -0,814;    0,864
228,735; 1505,821;   -0,541;    1,227
229,334; 1294,088;   -0,905;   -0,227
229,933; 1660,248;    0,459;    0,591
230,532; 1742,391;    1,186;   -0,409
231,131; 1813,852;    1,732;    0,318
231,729; 1798,686;   -2,450;   -2,318
232,328; 1785,827;   -0,723;   -1,500
232,927; 1783,256;    1,004;   -0,500
233,525; 1834,693;    3,640;    0,045
234,124; 1983,178;    2,368;   -1,591
234,723; 1931,385;    0,913;   -1,045
235,321; 2004,314;    2,277;    0,136
235,920; 2147,962;    1,186;   -1,227
236,518; 2397,254;    3,459;    0,318
237,117; 2395,480;    0,004;   -0,227
237,715; 2495,514;    0,640;   -0,500
238,314; 2546,946;   -0,087;   -2,318
238,912; 2697,069;   -0,723;   -1,409
239,510; 2657,692;    0,459;   -1,227
240,109; 2816,444;    0,004;    3,773
240,707; 2810,974;   -0,996;    1,227
241,305; 3013,391;    0,550;    0,136
241,904; 3218,573;   -0,178;   -2,045
242,502; 3258,492;   -0,632;   -0,227
243,100; 3190,144;   -0,087;   -0,955
243,698; 3421,905;    0,732;    1,682
244,297; 3590,000;   -0,632;    0,682
244,895; 3509,398;   -0,269;   -2,318
245,493; 3854,308;    2,186;   -0,591
246,091; 3878,536;    1,368;   -1,318
246,689; 3881,624;    1,004;    0,591
247,287; 4055,499;    0,822;   -1,136
247,885; 4343,653;   -1,451;    1,227
248,483; 4447,373;    1,822;   -0,500
249,081; 4589,045;    0,185;    1,591
249,679; 4760,518;   -0,178;    1,682
250,277; 5040,085;   -1,723;    0,864
250,875; 5046,329;   -1,087;   -1,045
251,473; 5083,242;   -1,178;    0,500
252,071; 5310,464;    1,459;    1,045
252,669; 5449,471;   -1,814;    0,318
253,267; 5680,851;   -0,087;    0,773
253,864; 5669,680;   -0,360;    0,682
254,462; 5655,734;    1,640;    1,591
255,060; 5599,446;   -0,269;    1,318
255,658; 5880,198;    0,822;   -0,136
256,255; 6297,314;    0,186;   -2,045
256,853; 6206,471;   -0,269;    1,409
257,451; 6219,210;    0,822;    1,864
258,048; 6536,013;    1,822;    1,864
258,646; 6251,640;    1,731;   -1,045
259,243; 6446,835;   -0,087;    2,227
259,841; 6487,079;   -0,814;    0,318
260,438; 6381,534;   -0,087;    0,864
261,036; 7034,580;   -1,905;    1,409
261,633; 6954,568;   -0,087;    2,227
262,231; 6774,220;    2,731;   -0,045
262,828; 6889,194;   -0,905;    1,136
263,425; 6970,097;    0,913;   -0,591
264,023; 7252,173;    0,186;    0,045
264,620; 6821,543;   -0,360;   -0,318
265,217; 7162,019;   -2,087;    3,136
265,815; 7238,675;   -1,905;    2,136
266,412; 7088,844;    0,731;    0,136
267,009; 7132,934;   -1,451;    0,773
267,606; 7111,822;    0,822;   -0,955
268,203; 7062,442;   -0,269;   -0,591
268,801; 7323,681;    1,731;    0,591
269,398; 7606,875;   -0,360;    2,500
269,995; 7560,467;    0,277;    1,591
270,592; 7371,028;   -0,632;   -0,500
271,189; 7518,634;    0,186;    0,409
271,786; 7647,859;   -0,632;    1,227
272,383; 7539,495;   -1,087;    0,227
272,980; 7697,364;    0,277;    0,318
273,577; 8107,626;    0,004;    1,227
274,174; 7685,034;    0,822;    2,591
274,771; 7670,471;   -0,814;   -0,773
275,367; 7866,441;    2,277;    1,409
275,964; 7808,724;    0,731;   -0,500
276,561; 7876,298;    1,549;   -1,045
277,158; 8078,882;    0,095;   -1,773
277,755; 8210,500;    2,185;    0,409
278,351; 7633,819;   -0,451;   -1,500
278,948; 7931,556;   -0,815;    0,045
279,545; 7907,913;   -1,360;    2,318
280,141; 8545,834;   -1,723;   -2,045
280,738; 8397,646;   -0,451;   -0,136
281,334; 8623,966;   -1,633;    0,591
281,931; 8038,494;   -0,087;   -1,318
282,528; 8147,328;    0,822;   -0,500
283,124; 8852,189;   -1,087;   -0,500
283,721; 8776,027;   -0,451;    1,409
284,317; 8576,105;    0,185;    2,500
284,913; 9128,002;   -1,360;    0,591
285,510; 9358,638;    0,640;   -0,318
286,106; 9382,293;   -2,269;   -0,955
286,703; 8982,061;   -0,360;    1,955
287,299; 9185,261;   -1,451;   -0,591
287,895; 9390,847;    0,822;   -1,045
288,491; 9959,694;    0,186;    2,136
289,088; 9772,782;   -2,360;    2,409
289,684; 9865,925;   -1,723;    1,500
290,280; 9896,188;    0,368;    0,682
290,876;10051,236;    1,822;    5,500
291,472; 9935,822;    1,276;    2,227
292,068;10066,663;    1,367;    0,227
292,665; 9783,170;    2,095;    0,773
293,261; 9511,004;    0,276;    2,136
293,857; 9919,909;    2,913;    2,136
294,453; 9886,063;    3,550;    0,955
295,049; 9769,588;   -0,268;    1,955
295,644; 9840,645;    0,095;    0,136
296,240; 9810,833;   -0,905;   -0,136
296,836; 9896,218;   -0,995;    0,318
297,432;10199,101;    1,096;   -0,500
298,028;10258,527;    0,732;    0,773
298,624;10682,318;    1,459;    1,864
299,220;10924,531;    2,368;    0,591
299,815;10643,813;    1,005;   -0,409
300,411;10448,315;    0,914;    1,773
301,007;10502,700;    1,368;    0,227
301,602;10552,283;   -0,541;   -2,318
302,198;10685,850;    0,732;   -0,773
302,794;11075,490;    1,187;   -0,500
303,389;11176,954;   -1,177;    1,045
303,985;11269,296;    0,550;    1,409
304,580;11269,941;    1,459;    1,591
305,176;11214,102;   -3,086;    0,136
305,771;11119,798;   -1,268;   -1,227
306,367;11022,789;    4,095;    0,136
306,962;11347,920;    0,641;    1,500
307,558;11065,221;   -0,450;    0,136
308,153;11021,105;    1,095;   -1,136
308,748;11208,146;   -0,814;    1,682
309,344;11185,638;   -0,632;   -1,318
309,939;11281,278;   -1,905;   -1,318
310,534;11484,685;   -0,086;   -1,682
311,130;11441,666;    0,459;   -2,500
311,725;11178,146;    1,004;   -0,500
312,320;11468,986;    2,459;    0,045
312,915;11304,688;    1,459;   -1,045
313,510;11364,180;    1,550;   -0,500
314,105;11822,076;    1,096;    1,409
314,700;11236,101;   -3,086;   -1,045
315,295;10875,487;   -0,904;    0,045
315,890;10420,368;    1,277;    0,864
316,485;10762,425;   -0,359;   -0,318
317,080;10868,472;   -3,086;    1,591
317,675;11415,171;    2,005;   -0,682
318,270;10883,139;    5,550;    3,318
318,865;10807,681;    3,278;    3,045
319,460;10619,616;   -0,904;    0,591
320,055;10823,166;   -0,541;   -1,227
320,650;10509,210;   -1,995;   -0,591
321,244;10588,273;   -0,177;   -1,409
321,839;11427,384;   -1,541;   -0,227
322,434;11338,986;   -1,086;   -1,591
323,029;10972,822;    1,732;    1,591
323,623;10813,055;    1,550;    0,773
324,218;10572,982;    2,368;    1,409
324,812;10450,130;    1,096;    1,591
325,407;10317,161;   -0,814;    2,045
326,002;10266,409;    0,277;   -0,409
326,596;10580,365;    0,914;    1,318
327,191;10735,848;    0,823;   -1,045
327,785;10336,365;   -0,813;   -0,227
328,379;10565,243;    1,368;    0,136
328,974;10405,638;    0,914;   -3,955
329,568;10645,891;    0,186;   -2,409
330,163;10472,678;    2,096;    1,045
330,757;10819,858;    2,459;    1,591
331,351;10173,763;    0,459;    0,682
331,945;10496,305;    0,914;    1,409
332,540;10181,585;   -1,723;   -0,591
333,134;10347,378;   -1,086;    0,773
333,728;10591,917;    0,005;    0,318
334,322;10919,086;   -1,177;   -0,864
334,916;10254,836;    0,277;    0,955
335,510;10632,243;   -0,450;   -0,136
336,105;10891,302;   -1,086;    1,591
336,699;10631,503;   -1,086;    0,591
337,293;10570,526;   -1,723;    0,318
337,887;10743,290;   -2,723;    1,955
338,481;10873,886;    0,459;    0,591
339,074;11080,924;   -0,359;    2,682
339,668;10891,967;   -1,632;    1,227
340,262;11179,322;    1,732;    3,227
340,856;10713,200;    1,822;   -0,682
341,450;10067,106;    1,004;    1,864
342,044;10980,707;    1,459;    0,136
342,637;10799,262;    0,913;   -2,136
343,231;10703,909;   -2,360;    0,682
343,825;10678,591;   -1,086;   -0,591
344,419;10652,960;   -1,995;    0,500
345,012;10486,872;    2,459;    4,045
345,606;10500,277;    4,641;    1,591
346,199;10366,812;   -1,813;   -0,227
346,793; 9921,038;    1,914;    2,045
347,386;10077,095;   -0,813;   -1,136
347,980;10080,031;   -0,268;   -0,045
348,573; 9873,495;    2,278;    0,409
349,167; 9583,497;    5,278;    4,773
349,760; 9941,808;    2,914;    2,682
350,354; 9931,691;   -0,813;    1,136
350,947; 9677,425;    1,096;    1,682
351,540; 9377,450;   -0,358;   -1,409
352,134; 9305,930;    1,096;    1,136
352,727; 9402,925;   -0,086;    1,136
353,320; 9188,886;    0,005;    0,591
353,913; 9043,028;   -1,995;    1,864
354,507; 9250,862;    0,823;   -1,227
355,100; 9266,479;    0,460;    0,864
355,693; 8528,817;    2,005;    2,409
356,286; 8539,563;    0,823;    2,773
356,879; 8883,814;   -0,722;    1,227
357,472; 8485,128;   -0,904;    1,500
358,065; 8690,319;   -0,722;    2,500
358,658; 8598,447;   -0,540;    2,318
359,251; 8235,817;   -1,631;   -0,591
359,844; 7765,036;   -1,904;   -1,136
360,437; 7975,181;   -2,995;    0,045
361,030; 8214,968;    1,369;   -0,682
361,623; 7813,732;    2,824;    0,318
362,215; 7860,977;   -0,086;    2,045
362,808; 7686,450;   -2,358;   -1,682
363,401; 7877,312;   -2,449;    0,136
363,994; 7615,979;   -0,631;   -1,500
364,586; 7517,737;    0,824;   -1,500
365,179; 7704,621;   -0,449;   -1,136
365,772; 7230,531;   -1,995;    2,045
366,364; 7533,229;    1,915;   -3,227
366,957; 7712,993;    2,279;   -0,045
367,549; 7706,441;    2,188;   -0,864
368,142; 7345,271;    1,825;   -1,500
368,734; 7560,417;    0,734;   -2,136
369,327; 7521,357;    1,643;   -0,500
369,919; 7431,039;   -1,538;    0,409
370,512; 7205,373;   -1,083;   -0,500
371,104; 7016,161;   -0,901;    1,591
371,696; 7188,688;    1,191;   -0,955
372,289; 7261,094;    0,373;    1,136
372,881; 7380,160;   -2,080;    1,318
373,473; 7314,411;   -2,170;    1,136
374,066; 7128,589;   -0,169;    0,500
374,658; 6960,231;    0,378;    1,136
375,250; 7303,091;    0,653;   -1,409
375,842; 7159,404;    0,473;   -0,045
376,434; 7054,032;   -0,435;   -0,409
377,026; 7629,191;    0,204;   -2,500
377,618; 7496,235;   -0,158;   -0,682
378,210; 7301,370;   -0,338;   -1,955
378,802; 7163,563;    0,754;   -0,591
379,394; 7183,453;    1,846;    0,682
379,986; 7715,839;    1,393;   -0,955
380,578; 7811,174;   -0,153;    0,773
381,170; 7168,966;   -0,972;    0,045
381,762; 7123,283;    0,755;    1,409
382,354; 7317,768;   -0,065;   -1,318
382,945; 7415,202;   -2,976;    0,318
383,537; 7527,396;   -2,705;   -1,955
384,129; 7554,817;   -2,160;   -1,136
384,721; 7743,511;   -0,252;    0,955
385,312; 7658,120;   -0,161;   -0,955
385,904; 7751,721;   -2,706;    1,591
386,496; 7133,705;   -0,979;    1,045
387,087; 7289,967;    1,022;    2,500
387,679; 7327,966;   -1,160;    0,045
388,270; 7471,893;    2,840;    2,045
388,862; 7587,066;    1,295;   -0,318
389,453; 7475,943;   -0,887;    1,045
390,045; 7749,276;   -0,705;   -2,682
390,636; 7646,432;    0,204;   -0,591
391,227; 7522,448;   -0,523;   -0,045
391,819; 7623,320;    0,204;    0,773
392,410; 7702,546;    1,022;    0,045
393,001; 7627,075;   -0,979;   -1,591
393,593; 7911,699;    1,930;   -0,045
394,184; 7768,445;    1,385;   -0,409
394,775; 7671,025;    1,839;    2,136
395,366; 7862,334;    1,385;    0,773
395,957; 7864,857;    0,113;    0,136
396,548; 8149,485;   -0,342;    2,682
397,139; 8465,449;   -2,433;    0,591
397,730; 8207,206;   -1,888;    0,955
398,321; 8266,009;   -1,252;    0,955
398,912; 8284,338;   -0,615;    0,136
399,503; 8358,636;   -3,524;   -1,409
400,094; 7807,445;    0,294;    1,682
400,685; 7677,755;   -0,433;    0,045
401,276; 7732,002;    0,930;   -0,955
401,867; 8027,699;   -0,888;    0,773
402,458; 8115,692;   -2,251;   -2,318
403,048; 8106,357;    1,112;    0,591
403,639; 7725,168;    0,840;    0,864
404,230; 7957,304;    2,476;    0,318
404,821; 7894,636;   -0,615;    0,045
405,411; 8013,906;    1,203;   -2,591
406,002; 7636,031;   -1,252;   -1,136
406,592; 7478,110;    2,294;    0,045
407,183; 7771,246;    0,566;   -1,500
407,774; 7679,992;    3,475;   -0,136
408,364; 7987,477;    0,930;    0,409
408,954; 7606,572;    0,384;    1,227
409,545; 7623,380;    1,021;    1,045
410,135; 7179,833;    1,293;    0,500
410,726; 7324,658;    1,838;    0,318
411,316; 7687,968;    0,111;    0,773
411,906; 7339,341;   -0,253;   -0,409
412,497; 6840,619;   -1,070;   -0,045
413,087; 7390,870;   -1,980;   -0,227
413,677; 7763,599;   -0,707;    3,864
414,267; 7623,009;    0,656;    1,409
414,857; 7562,210;   -2,980;    4,227
415,448; 7824,372;    0,839;    0,500
416,038; 7489,965;    0,020;   -0,591
416,628; 7454,862;   -0,889;    0,409
417,218; 6950,511;    0,565;    3,318
417,808; 7177,439;    0,202;   -0,409
418,398; 7603,110;    0,020;    2,682
418,988; 7578,186;    2,020;    0,591
419,578; 7784,405;   -0,707;    1,409
420,168; 8098,529;   -1,343;   -0,955
420,757; 7706,403;   -1,343;   -1,500
421,347; 7340,892;    0,111;   -0,227
421,937; 7462,186;    2,292;    1,409
422,527; 7420,136;    0,838;   -0,773
423,116; 7215,957;   -0,253;   -0,045
423,706; 7481,330;   -1,889;    0,318
424,296; 7430,960;    1,384;    0,682
424,885; 7829,051;   -0,071;   -3,045
425,475; 8073,462;    1,474;   -2,864
426,065; 7926,305;   -0,980;   -0,318
426,654; 7537,861;   -0,435;   -0,318
427,244; 7663,961;    0,020;    1,409
427,833; 7150,484;    1,383;   -0,500
428,423; 7520,613;   -0,526;    1,136
429,012; 8180,699;   -0,344;   -1,136
429,601; 7686,320;   -1,344;    0,136
430,191; 7878,723;    1,292;    4,318
430,780; 7487,952;   -0,344;   -0,409
431,369; 7448,686;    0,746;   -0,045
431,959; 7972,461;   -1,254;    0,500
432,548; 7735,138;   -1,163;   -0,045
433,137; 7803,631;   -1,254;   -1,318
433,726; 8255,148;    0,292;    0,500
434,315; 7636,781;   -0,526;    2,409
434,905; 7690,575;   -1,254;    1,409
435,494; 7563,180;    0,746;    0,955
436,083; 7918,132;   -0,981;   -0,955
436,672; 7795,261;    0,110;    0,500
437,261; 7384,935;    0,292;   -1,955
437,850; 7466,509;    1,383;    0,682
438,439; 7418,140;    3,291;    1,955
439,027; 7254,620;    3,655;    1,773
439,616; 7488,896;    2,927;    1,227
440,205; 7270,532;    0,200;   -2,136
440,794; 7265,730;    2,109;   -0,045
441,383; 7459,687;   -1,346;   -0,591
441,971; 7259,947;   -2,436;    0,591
442,560; 7050,509;    0,563;   -1,773
443,149; 6775,977;    0,379;   -1,318
443,737; 6861,417;   -0,074;   -2,318
444,326; 7042,609;    0,018;    0,318
444,915; 7024,261;   -1,982;    0,864
445,503; 7279,044;   -2,891;   -0,318
446,092; 6631,524;    0,382;    2,136
446,680; 7055,208;    0,382;    0,318
447,269; 7113,114;   -0,346;   -0,318
447,857; 6867,268;    0,018;   -1,773
448,445; 6909,685;    0,563;    1,318
449,034; 7029,789;   -1,528;   -1,136
449,622; 7037,519;   -1,073;    3,500
450,210; 6478,564;    2,017;    2,227
450,799; 6892,495;    0,290;   -0,591
451,387; 6726,188;    1,381;   -0,591
451,975; 6389,790;    2,654;    0,864
452,563; 6491,065;    3,472;    2,318
453,151; 6399,884;   -0,528;   -1,227
453,739; 6256,528;   -1,347;    0,136
454,328; 6154,637;    2,381;   -2,136
454,916; 5881,174;    2,562;   -0,136
455,504; 5976,340;    1,017;    1,227
456,092; 6054,875;    0,017;   -1,591
456,679; 5936,763;    1,472;    0,682
457,267; 6048,280;    4,017;    1,045
457,855; 6024,014;    1,017;    1,409
458,443; 5697,181;   -0,165;    1,682
459,031; 5869,588;    0,108;    2,409
459,619; 6147,516;   -1,801;    2,864
460,206; 6097,303;    0,835;    2,045
460,794; 6161,651;   -2,983;   -0,227
461,382; 6311,141;   -0,529;   -0,864
461,970; 5934,987;    1,198;    1,864
462,557; 5933,649;   -0,711;   -0,682
463,145; 6072,674;   -3,165;   -1,682
463,732; 6138,320;    2,016;   -1,045
464,320; 5997,427;   -0,075;   -3,045
464,907; 5771,368;    2,743;   -0,773
465,495; 5616,306;    0,743;   -1,227
466,082; 5660,177;   -1,984;   -0,045
466,670; 5514,462;   -2,529;    1,227
467,257; 5802,221;   -1,711;    2,045
467,844; 5942,099;   -0,075;    0,045
468,432; 5938,325;    0,834;    3,500
469,019; 5549,018;    0,925;   -1,773
469,606; 5835,572;    0,470;    3,682
470,193; 5693,019;   -1,439;    0,227
470,780; 5364,168;   -2,075;    0,864
471,368; 5529,620;   -1,257;   -0,773
471,955; 5356,501;    1,379;   -0,682
472,542; 5037,342;    0,652;   -1,136
473,129; 5090,488;   -0,166;    0,136
473,716; 4842,435;    1,470;    0,591
474,303; 4889,896;    0,652;   -0,864
474,890; 5019,985;   -1,439;   -0,500
475,477; 5050,904;   -1,621;    0,409
476,064; 4871,995;    1,106;   -1,591
476,650; 4710,822;    0,288;    0,318
477,237; 4545,731;   -0,258;    0,955
477,824; 4590,509;   -1,076;    0,864
478,411; 4434,133;   -1,894;   -0,318
478,997; 4512,842;    0,560;   -0,773
479,584; 4449,360;    1,196;   -0,409
480,171; 4860,867;   -0,440;   -0,773
480,757; 4638,529;    2,651;    0,773
481,344; 4620,842;    0,469;    0,409
481,931; 4185,885;    1,105;    1,045
482,517; 4710,687;   -1,258;    0,318
483,104; 4868,056;    1,106;    2,864
483,690; 4807,974;   -1,804;    0,045
484,276; 4782,621;   -0,895;    0,227
484,863; 4683,761;    2,469;    1,136
485,449; 4828,314;   -0,077;    0,318
486,035; 4691,722;   -1,986;   -0,136
486,622; 4965,564;   -0,895;    0,045
487,208; 4819,577;    1,378;    1,500
487,794; 4687,850;    0,741;    0,318
488,380; 4732,148;    0,105;   -1,409
488,967; 4748,544;   -1,168;   -0,409
489,553; 4777,980;   -1,895;   -1,409
490,139; 4899,046;    1,559;    0,773
490,725; 4610,425;    0,741;   -0,227
491,311; 4461,196;    3,287;    3,045
491,897; 4144,933;   -0,986;    1,500
492,483; 4245,171;    0,105;    1,227
493,069; 4648,369;    3,923;    0,864
493,655; 4411,278;    1,650;    0,682
494,241; 4369,140;    1,377;   -0,955
494,826; 4670,067;    0,287;   -1,045
495,412; 4437,553;    2,559;   -0,682
495,998; 4599,806;   -0,805;   -0,318
496,584; 4695,068;    0,377;    1,045
497,169; 4751,890;    1,014;   -0,682
497,755; 4864,154;    0,650;    1,227
498,341; 5473,705;    0,559;    0,318
498,926; 5375,906;    1,832;    1,955
499,512; 5528,824;    1,286;    2,955
500,097; 5681,807;    0,195;   -0,318
500,683; 5878,315;   -0,350;    2,136
501,268; 6335,807;   -0,169;   -0,955
501,854; 6374,177;   -0,169;    1,227
502,439; 6514,447;   -0,624;   -1,773
503,024; 6852,080;    0,195;    0,500
503,610; 7119,193;   -0,078;   -0,682
504,195; 7332,168;    0,558;    1,955
504,780; 7707,910;    2,922;    1,227
505,366; 7871,346;    3,013;    2,864
505,951; 7850,131;    0,740;    1,045
506,536; 8084,507;   -3,260;   -3,682
507,121; 8315,774;    0,285;   -0,318
507,706; 8960,419;    2,376;    1,045
508,291; 9483,044;    2,649;    1,136
508,876; 9246,612;   -0,988;    2,591
509,461; 9003,001;   -0,169;   -0,773
510,046; 9614,201;    0,194;    0,318
510,631;10040,511;   -0,351;   -0,773
511,216; 9898,706;    2,467;   -0,500
511,801;10438,758;   -0,442;    2,591
512,386;10891,323;    0,740;    0,500
512,971;11000,594;   -2,988;    0,955
513,555;10736,229;   -0,897;   -1,500
514,140;11658,556;   -0,442;   -3,136
514,725;11788,444;   -0,715;   -1,136
515,309;12032,152;   -0,533;    0,318
515,894;11677,663;   -0,624;   -2,227
516,479;12235,694;   -0,624;   -0,955
517,063;12145,393;    0,376;    1,227
517,648;12349,406;    1,012;   -1,136
518,232;12131,229;   -0,261;   -1,409
518,817;12576,022;   -0,079;    1,682
519,401;12886,062;    2,194;    0,591
519,985;12423,401;    1,103;    1,136
520,570;12399,034;    0,830;   -1,955
521,154;12745,956;    2,102;    0,591
521,738;12940,408;   -2,352;    2,409
522,323;13540,392;   -0,170;    1,682
522,907;13335,004;    0,466;   -0,136
523,491;13117,013;    0,557;    0,955
524,075;13136,534;    2,284;    0,591
524,659;13260,239;    1,466;    0,591
525,243;12758,646;    1,739;    0,409
525,827;13011,778;    0,648;   -0,045
526,411;13911,512;   -1,989;   -0,136
526,995;14169,784;   -0,352;    1,409
527,579;13778,083;   -0,443;   -1,045
528,163;14080,802;    0,375;   -1,500
528,747;14045,968;    2,466;   -0,773
529,331;14354,074;   -0,080;   -1,409
529,915;14578,203;    1,738;    0,955
530,499;14553,444;   -0,807;    1,227
531,082;14276,804;   -0,534;    1,591
531,666;13712,188;    1,374;    0,773
532,250;14404,215;    1,284;    2,682
532,833;14723,413;    0,920;    2,773
533,417;14544,269;   -1,807;    0,864
534,001;14616,633;    1,647;   -0,318
534,584;15276,368;    0,374;    0,500
535,168;15159,361;    0,465;    1,409
535,751;15238,495;    0,647;    0,045
536,334;14652,251;   -0,898;   -0,409
536,918;15189,000;    0,011;    1,591
537,501;15361,681;   -0,899;    1,318
538,085;15366,794;   -0,444;    1,045
538,668;15538,678;    0,829;    2,409
539,251;15855,834;    1,829;    3,773
539,834;15864,731;    0,101;    0,773
540,418;15838,396;   -1,990;    4,318
541,001;15966,067;   -0,990;    1,773
541,584;15934,548;    2,101;    2,227
542,167;15617,349;    1,374;    2,955
542,750;15780,318;    1,919;   -0,773
543,333;15387,300;    0,555;    2,136
543,916;16138,808;    0,192;    2,500
544,499;16777,899;   -1,354;    0,227
545,082;16788,877;    1,374;    3,591
545,665;16928,428;    1,919;    1,500
546,248;17308,664;    1,010;   -0,318
546,830;16921,980;   -0,445;    1,955
547,413;17325,022;    1,010;   -0,773
547,996;17854,486;    0,555;    0,500
548,579;17678,054;    0,919;    0,955
549,161;17454,487;    1,828;    2,682
549,744;17206,600;   -0,809;    0,409
550,326;17716,788;   -0,809;   -1,136
550,909;17580,346;    2,737;    0,591
551,492;17915,587;   -0,263;    0,227
552,074;17719,312;   -0,173;   -1,318
552,657;18284,102;    2,373;    0,045
553,239;17992,481;   -0,173;   -0,773
553,821;17917,146;   -1,082;    1,045
554,404;17424,704;    1,282;    1,136
554,986;17790,287;    0,464;    1,045
555,568;18442,030;    1,191;   -0,955
556,151;17642,460;    1,191;   -0,227
556,733;17790,544;   -0,264;   -0,864
557,315;18292,645;    0,100;    0,500
557,897;18131,965;    0,554;   -0,500
558,479;18259,003;   -1,991;    1,318
559,061;18374,461;   -0,719;   -0,864
559,643;18723,749;   -0,264;    0,045
560,225;19084,008;    1,645;    2,864
560,807;19076,840;    0,918;    0,318
561,389;18546,555;    0,554;    2,318
561,971;19315,675;    0,463;    2,136
562,553;19140,223;   -1,628;    1,591
563,135;19293,790;   -0,537;    1,136
563,717;18911,028;    3,372;    1,136
564,298;19604,273;    3,645;   -0,045
564,880;19399,832;    0,645;   -1,409
565,462;19535,651;    0,645;    1,318
566,043;20702,669;   -0,446;    2,318
566,625;20262,120;    1,918;    1,227
567,207;20137,086;    1,099;    1,682
567,788;21253,102;   -1,264;    1,500
568,370;22072,877;    1,917;   -0,500
568,951;21911,729;    0,190;    0,227
569,533;22772,830;   -0,628;   -0,500
570,114;23243,274;   -0,446;    0,682
570,695;23751,306;   -0,174;   -1,318
571,277;24315,526;   -0,265;   -1,682
571,858;25072,526;    2,008;   -1,136
572,439;25936,271;    1,554;   -1,045
573,021;26086,743;    2,099;   -2,773
573,602;26593,338;   -1,265;    0,318
574,183;27538,621;   -2,083;    2,227
574,764;27614,489;   -1,629;    0,409
575,345;28200,887;    0,917;   -0,136
575,926;28709,081;   -0,356;    0,136
576,507;28698,153;    1,099;   -0,227
577,088;29866,486;    3,099;    1,682
577,669;29860,787;    0,735;    1,955
578,250;30706,439;    0,644;   -1,045
578,831;31357,424;   -1,356;   -2,227
579,412;31564,035;   -0,810;    0,955
579,993;32405,922;    1,008;    0,227
580,573;32764,593;   -0,629;   -0,955
581,154;31736,640;    0,735;   -0,591
581,735;32653,571;    0,644;    0,773
582,315;32173,025;   -0,629;    2,136
582,896;32314,034;   -0,174;    1,227
583,477;31731,201;    0,189;    1,227
584,057;31992,072;    0,553;    0,955
584,638;32359,831;    2,553;    2,318
585,218;32298,612;   -0,538;    2,682
585,799;32472,799;    0,281;   -0,227
586,379;32369,577;    0,372;    1,591
586,959;31098,138;    0,735;    0,318
587,540;30444,230;   -0,629;    2,227
588,120;30025,895;    1,007;   -0,045
588,700;29018,308;    2,553;    2,136
589,281;29290,803;    0,462;   -0,955
589,861;29344,399;    0,099;   -1,682
590,441;29117,718;    2,371;   -2,682
591,021;28115,646;   -0,265;   -2,591
591,601;28294,677;   -0,537;    0,500
592,181;28257,150;   -0,719;   -0,773
592,761;27553,149;    0,007;    1,409
593,341;27506,649;   -0,901;    0,045
593,921;27547,818;   -0,265;    1,591
594,501;27462,897;   -0,538;    1,318
595,081;27279,752;    0,917;   -0,318
595,661;27649,210;   -1,447;    0,955
596,240;28177,799;   -0,537;    0,136
596,820;27811,861;    0,372;    1,955
597,400;27975,505;    2,008;    0,773
597,980;28228,350;    2,008;    1,045
598,559;28181,404;    2,735;   -0,227
599,139;27875,969;   -0,174;   -1,227
599,718;27834,969;   -0,174;   -0,409
600,298;28094,799;    0,735;    0,682
600,877;28344,905;    2,917;    1,409
601,457;28556,331;    2,281;    1,136
602,036;28497,310;    0,190;    2,045
602,616;28685,711;    0,644;    1,682
603,195;29096,419;   -0,355;    3,500
603,774;28614,316;   -0,901;    2,045
604,354;28444,836;    0,826;   -0,500
604,933;27905,576;    0,463;    1,864
605,512;28011,178;    3,554;    0,591
606,091;28125,002;   -0,537;    3,773
606,671;28951,121;    0,281;    0,773
607,250;28122,673;    1,644;    3,136
607,829;28297,146;    2,372;    3,227
608,408;28081,055;    1,190;    2,591
608,987;27138,412;    1,281;    3,409
609,566;27442,395;   -1,265;   -2,500
610,145;27599,847;   -1,082;    0,682
610,723;27975,255;    4,372;    6,864
611,302;27230,929;   -0,446;    1,682
611,881;26739,227;    5,008;   11,227
612,460;27563,296;    1,645;    3,955
613,039;27979,991;   -0,082;    2,045
613,617;26656,372;    1,736;    4,773
614,196;26890,963;    1,099;    1,227
614,775;27236,044;    1,009;    2,409
615,353;27202,433;    0,736;    0,864
615,932;26950,956;    0,100;    2,409
616,510;27514,314;    0,554;    0,591
617,089;26974,662;    7,100;   17,591
617,667;26772,414;    2,372;    6,136
618,246;26631,771;   -1,537;    1,318
618,824;26801,025;   -3,355;   -0,955
619,402;26330,574;   -2,900;   -1,773
619,981;26898,623;   -0,173;   -1,045
620,559;26706,018;    0,009;    1,682
621,137;26188,279;   -0,718;    1,864
621,715;26216,141;   -1,173;   -0,682
622,293;26134,517;   -0,537;   -0,773
622,871;26571,554;   -0,718;    0,500
623,450;26229,027;    0,373;   -0,864
624,028;26089,683;    0,191;   -0,955
624,606;25757,861;   -1,718;    1,682
625,183;26128,513;   -1,536;   -1,136
625,761;25756,146;    1,009;    1,136
626,339;26058,482;    1,373;    2,591
626,917;26410,625;   -0,172;   -0,045
627,495;26450,666;   -0,354;    1,318
628,073;25885,923;   -0,263;    2,864
628,650;25615,058;    0,100;    2,136
629,228;26042,864;    0,373;    4,409
629,806;25414,883;    2,282;    1,136
630,383;25698,888;    1,464;   -0,318
630,961;25532,823;    2,555;   -0,955
631,539;25234,032;    2,464;    0,227
632,116;24664,641;   11,373;   15,409
632,694;25170,167;    2,555;    6,500
633,271;25458,643;    0,828;    2,682
633,848;25444,960;    1,828;    2,045
634,426;25408,853;   -1,081;    1,773
635,003;24487,253;    1,101;   -0,409
635,580;24826,968;    1,192;    3,682
636,158;25389,752;    3,737;    1,227
636,735;25380,584;    0,555;   -0,500
637,312;25503,035;   -0,809;   -0,682
637,889;25650,533;   -4,354;   -0,682
638,466;25116,676;   -3,990;   -0,409
639,043;25098,070;    2,101;   -1,136
639,620;25448,308;   -2,262;   -0,955
640,197;25738,586;    1,100;    1,682
640,774;25860,730;   -0,172;    1,136
641,351;26280,783;    0,737;    1,136
641,928;25717,381;   -0,627;    1,409
642,505;25349,980;    0,828;   -0,500
643,082;25468,215;   -1,718;    1,227
643,658;24433,450;   -0,718;    1,500
644,235;25195,230;    1,191;    2,500
644,812;25576,101;    1,918;    0,773
645,388;25305,064;   -0,991;    1,409
645,965;25359,571;   -0,809;    1,682
646,542;25440,261;   -1,445;   -0,227
647,118;25409,405;    1,009;   -0,955
647,695;25732,640;   -0,263;    1,136
648,271;25618,420;   -0,536;    0,500
648,848;25913,564;    0,736;    2,227
649,424;25758,617;    0,827;    1,318
650,000;25537,489;   -0,354;   -1,045
650,577;25333,451;   -0,627;   -0,955
651,153;25781,686;   -1,809;    0,955
651,729;26861,648;    1,191;    0,864
652,305;27437,428;    0,645;    2,773
652,881;32541,572;   -0,082;    1,136
653,458;39324,353;    1,100;    0,227
654,034;42676,770;    0,282;    1,591
654,610;43866,914;    0,554;    0,773
655,186;45164,967;    0,645;    3,045
655,762;44738,384;   -0,991;    0,409
656,338;44763,709;    0,100;    0,136
656,913;45724,944;   -0,082;    0,409
657,489;44908,725;    0,827;   -0,318
658,065;44831,869;   -0,173;   -1,591
658,641;45502,195;   -0,900;   -0,864
659,217;44784,248;   -0,991;    0,409
659,792;44131,574;    0,645;   -0,409
660,368;44366,536;   -2,173;   -0,682
660,944;43701,134;   -2,082;    1,227
661,519;38523,006;   -0,628;    0,409
662,095;32663,695;   -1,719;    0,591
662,670;28516,475;    1,281;   -0,136
663,246;27654,983;    1,009;   -0,409
663,821;27079,036;    0,281;    1,682
664,396;26552,908;    0,009;    1,864
664,972;26849,961;    0,009;   -0,500
665,547;27169,105;    1,372;    0,136
666,122;27230,885;   -1,082;    0,318
666,698;27552,575;   -0,173;    0,318
667,273;26831,082;   -0,173;    0,136
667,848;27652,681;    2,372;    1,500
668,423;27468,734;    2,190;    2,318
668,998;27993,878;    2,827;   -0,682
669,573;28588,386;   -3,264;   -1,500
670,148;28354,984;   -1,446;   -0,682
670,723;28177,128;   -1,810;    0,318
671,298;28570,272;    2,372;    1,045
671,873;28694,962;   -0,082;   -0,136
672,448;28683,833;    0,645;    0,136
673,023;28977,795;   -1,992;   -0,227
673,597;29355,121;    0,827;    2,318
674,172;29106,992;   -0,355;    0,318
674,747;28601,773;    0,372;   -1,045
675,321;28421,826;   -0,628;    3,318
675,896;27959,606;    0,645;    1,045
676,471;28986,205;    2,645;    1,591
677,045;28709,894;   -1,264;    0,682
677,620;28789,129;    0,190;    1,136
678,194;29058,637;   -2,628;    1,136
678,769;28692,508;   -1,083;   -0,318
679,343;28986,289;   -0,628;    1,773
679,917;28857,251;   -1,446;    1,955
680,492;28955,122;    0,826;    3,227
681,066;29052,175;    3,372;    0,409
681,640;29076,774;    1,463;   -0,318
682,214;29933,282;    0,735;    0,500
682,788;29470,062;   -1,356;   -0,773
683,363;29405,206;   -1,810;    1,682
683,937;29064,896;   -1,719;   -0,318
684,511;29866,676;    0,463;   -0,591
685,085;29540,729;   -1,356;    0,318
685,659;29297,964;   -2,538;    0,864
686,232;29537,108;   -0,356;   -0,318
686,806;29252,525;   -0,901;    0,409
687,380;29893,487;   -0,174;    0,591
687,954;30101,540;   -1,174;    1,136
688,528;29808,684;   -0,719;    1,955
689,101;30558,737;   -3,992;    1,045
689,675;30123,518;   -0,356;   -0,136
690,249;29519,662;   -0,719;    0,409
690,822;29795,624;    0,280;    0,318
691,396;29932,586;   -0,265;    1,227
691,969;29395,094;    1,280;    0,136
692,543;29871,692;   -0,447;   -1,955
693,116;29530,836;   -0,265;   -1,409
693,690;29421,526;    0,099;    0,500
694,263;29930,488;   -1,083;    2,955
694,836;29971,996;    1,371;    3,591
695,410;28639,231;   -0,265;    1,773
695,983;29084,647;    0,189;    0,591
696,556;29044,064;   -0,447;   -1,045
697,129;29415,935;   -0,356;    1,409
697,703;29073,443;   -1,629;    1,955
698,276;29005,314;    1,462;   -0,773
698,849;28856,640;    1,280;    1,409
699,422;29249,512;   -1,083;    0,591
699,995;28935,747;    0,007;    0,136
700,568;29418,800;   -0,629;    3,045
701,140;29452,853;   -2,811;    1,682
701,713;29186,724;   -0,174;    2,409
702,286;28927,050;   -0,538;    0,864
702,859;28771,285;   -0,902;   -0,591
703,432;27946,611;    0,825;    0,682
704,004;28444,846;    0,462;    0,318
704,577;28336,353;   -0,629;    0,136
705,150;28938,679;    0,189;    2,500
705,722;28711,732;   -0,356;   -3,227
706,295;28467,604;   -0,175;   -0,591
706,867;28383,839;   -0,175;    1,955
707,440;28597,892;   -1,720;   -0,409
708,012;28847,127;    0,462;    0,591
708,584;28768,271;    2,462;    0,227
709,157;29027,869;    1,825;   -0,591
709,729;28686,377;    2,280;    2,045
710,301;29489,066;    0,734;    0,045
710,874;29496,210;   -1,447;   -0,227
711,446;28358,173;    0,371;    0,864
712,018;28234,498;    0,098;    0,500
712,590;28038,461;   -1,993;    1,682
713,162;28575,696;    0,825;    1,318
713,734;28780,658;    1,825;   -2,045
714,306;28674,711;   -1,902;   -0,409
714,878;27391,855;    0,825;    0,864
715,450;28137,090;    0,643;    0,864
716,022;28413,416;    1,552;    1,318
716,593;28585,923;    0,189;    0,591
717,165;28523,431;   -3,175;   -1,227
717,737;28283,484;    0,280;    0,409
718,309;27943,446;    0,280;   -0,045
718,880;27905,318;   -0,539;   -1,409
719,452;28066,189;   -0,175;   -1,591
720,024;27688,242;    0,734;   -0,591
720,595;28213,750;   -2,902;    0,955
721,167;27793,621;    0,370;   -2,045
721,738;27334,674;   -0,812;   -1,045
722,309;27312,636;   -0,993;   -1,227
722,881;27097,508;   -1,357;    0,773
723,452;27724,470;   -2,630;    2,864
724,023;27858,614;   -0,721;    2,682
724,595;27612,576;    0,007;    0,682
725,166;27352,902;    0,007;   -0,409
725,737;27052,228;    1,734;    0,227
726,308;27133,826;   -0,266;    0,318
726,879;27607,243;   -1,630;    1,227
727,450;27434,842;    0,552;   -0,045
728,021;27362,440;    3,097;    0,682
728,592;27188,312;    0,734;    0,500
729,163;27524,183;    0,643;   -0,136
729,734;27570,327;    0,188;   -0,227
730,305;27916,562;    1,734;    0,136
730,876;28274,251;    0,188;    2,955
731,447;27965,486;    2,188;    2,682
732,017;28075,267;    1,097;    1,864
732,588;27551,774;    0,734;    1,227
733,159;27757,009;    0,643;   -1,045
733,729;27551,972;    0,006;    0,409
734,300;26833,297;    0,915;    0,864
734,870;27262,714;    3,461;    0,591
735,441;27781,313;    0,370;   -0,591
736,011;27563,639;    0,643;   -1,591
736,582;27458,237;   -0,812;    0,045
737,152;26944,381;   -1,721;   -2,045
737,722;27421,616;   -0,267;   -0,682
738,293;27104,306;   -1,358;    1,318
738,863;27013,359;    2,461;    2,318
739,433;26835,048;    5,279;    0,318
740,003;27433,556;   -0,994;   -0,682
740,573;26896,245;    2,097;   -1,591
741,143;26800,935;   -1,085;    0,318
741,713;27581,533;    1,188;   -0,500
742,283;27289,859;    0,915;    1,591
742,853;27049,367;    1,915;    1,591
743,423;26486,056;    1,733;    0,045
743,993;26660,564;   -0,358;    1,500
744,563;26083,435;    0,097;   -0,864
745,133;26001,125;   -0,812;   -0,864
745,702;26651,996;   -0,267;    1,773
746,272;25888,686;   -0,176;    0,591
746,842;25675,102;   -1,358;   -0,591
747,411;26079,337;   -0,267;   -0,318
747,981;26230,391;    0,097;    0,500
748,551;26305,080;    2,278;   -1,045
749,120;26177,042;    0,642;   -0,227
749,690;26555,550;   -0,631;    2,409
750,259;26854,785;    1,369;    2,955
750,828;26744,111;    1,551;   -1,955
751,398;27030,073;    1,278;   -0,045
751,967;26600,399;    2,187;    0,409
752,536;26771,270;   -0,813;   -0,227
753,105;27135,323;    0,096;    0,227
753,675;26969,740;    0,096;    1,773
754,244;26909,975;   -0,904;    3,591
754,813;26947,482;    0,551;    1,227
755,382;26526,263;    0,460;    0,955
755,951;27160,680;    1,551;    3,682
756,520;26653,642;   -0,085;    1,864
757,089;27277,786;    0,278;    0,500
757,658;27382,930;    1,733;    1,227
758,227;27328,074;    1,096;    0,318
758,795;27627,491;    1,187;    1,136
759,364;27850,544;   -0,086;   -0,591
759,933;26895,415;   -1,176;   -0,045
760,501;26389,286;    0,733;   -1,318
761,070;26882,340;   -2,813;   -1,409
761,639;27533,938;   -1,904;    1,318
762,207;26922,082;    1,551;   -0,955
762,776;26831,317;    0,369;    0,864
763,344;26793,188;   -0,995;    0,591
763,913;25883,423;   -0,722;    1,409
764,481;26617,931;    1,005;   -0,136
765,049;26409,711;   -1,358;    1,409
765,618;26311,583;   -0,086;    0,318
766,186;26365,181;    0,278;    0,136
766,754;26560,780;    0,005;    1,864
767,322;25601,015;   -1,995;    0,409
767,890;25632,795;   -0,722;   -1,773
768,459;26027,212;   -2,177;   -0,318
769,027;26203,447;    1,641;    3,409
769,595;25196,318;    3,278;    2,591
770,163;25638,826;    3,823;    2,955
770,730;25353,515;    0,732;   -0,136
771,298;25197,114;    0,187;   -1,409
771,866;25276,985;   -1,541;    4,955
772,434;25632,675;   -0,631;   -1,864
773,002;25826,273;    0,005;    0,682
773,569;25423,599;    0,914;    1,682
774,137;25233,016;   -0,268;   -0,045
774,705;26029,887;    0,278;   -0,136
775,272;25524,577;    0,641;    0,682
775,840;25240,903;   -0,177;    2,682
776,407;24838,228;    0,277;    1,955
776,975;24434,191;   -0,632;    0,318
777,542;25396,244;   -1,086;   -0,045
778,110;25273,206;   -1,268;   -0,045
778,677;24925,350;   -2,359;   -0,864
779,244;24716,039;    2,186;    1,045
779,812;24818,002;    1,823;    0,864
780,379;24623,509;    0,005;    1,136
780,946;24916,290;    1,005;   -0,773
781,513;25255,525;   -1,450;    0,318
782,080;24592,032;   -0,086;    2,864
782,647;25343,085;   -0,268;    3,045
783,214;24958,048;   -0,177;    3,864
783,781;24566,919;   -0,723;   -0,682
784,348;24422,154;   -0,632;    1,500
784,915;24842,662;   -3,177;    0,318
785,482;24617,169;    1,368;    2,591
786,049;25056,041;    0,186;   -0,591
786,615;25169,821;    0,277;   -0,955
787,182;24914,329;    0,186;   -0,682
787,749;24591,291;   -2,814;    1,409
788,315;23954,980;   -1,632;   -0,409
788,882;24201,215;    1,550;   -1,227
789,448;24931,814;    1,732;   -0,955
790,015;24934,685;    1,095;    3,227
790,581;24530,829;    1,459;    0,227
791,148;24404,610;    0,641;    1,045
791,714;24603,935;   -0,541;    3,136
792,280;24278,079;    0,186;    1,591
792,847;23850,223;    0,550;    2,500
793,413;24385,367;   -0,269;   -0,318
793,979;23930,602;    3,459;   -1,318
794,545;24079,837;    4,459;    2,682
795,111;23441,163;    2,186;    1,318
795,678;23658,671;    0,731;   -1,682
796,244;23332,724;    3,368;    0,136
796,810;23845,868;    1,731;    0,773
797,375;23539,739;    0,549;   -2,136
797,941;23533,701;   -0,541;    0,591
798,507;23721,664;   -0,451;   -0,955
799,073;23264,535;   -0,360;    0,591
799,639;23321,861;   -2,632;    3,136
800,205;23347,187;    0,095;    2,682
800,770;22883,785;    0,640;    1,773
801,336;22994,475;    1,368;   -0,955
801,901;22708,710;    4,549;    3,136
802,467;23289,763;   -0,542;    2,045
803,033;22563,907;   -0,087;    0,864
803,598;22789,142;    1,913;   -1,045
804,163;22800,649;    1,095;   -0,318
804,729;22791,884;   -0,178;    1,136
805,294;23180,119;    0,822;    2,227
805,859;22984,809;    0,731;   -0,409
806,425;22470,771;    1,186;    2,682
806,990;22117,551;    2,186;    4,318
807,555;22622,423;   -1,451;    2,591
808,120;22531,203;    0,822;   -0,409
808,685;22556,074;    0,185;   -2,500
809,250;22033,218;    0,004;   -0,500
809,815;22386,908;    1,913;    0,682
810,380;22942,597;   -0,269;    1,591
810,945;23477,378;   -1,087;    2,045
811,510;22572,158;    2,094;    1,591
812,075;22289,302;   -0,633;   -1,409
812,640;22357,719;    2,003;    1,409
813,204;22409,499;    0,822;   -0,227
813,769;22879,916;    2,094;   -0,045
814,334;22331,787;    0,458;    0,864
814,898;22336,113;    0,367;    0,591
815,463;22127,803;    1,276;   -0,773
816,027;22155,947;   -0,724;   -2,318
816,592;22227,545;    0,640;   -2,045
817,156;21762,508;    2,094;    1,136
817,721;21685,197;    4,276;    2,318
818,285;21612,614;    2,912;    1,500
818,849;22216,303;   -1,451;    1,682
819,414;22100,720;   -0,269;    2,955
819,978;21673,773;   -1,269;    1,773
820,542;22284,190;    2,003;    0,500
821,106;22009,607;   -0,815;    0,682
821,670;22087,842;   -0,815;    2,591
822,234;21807,168;   -0,270;    1,409
822,798;21225,948;    0,003;    0,500
823,362;21211,637;   -0,633;    4,227
823,926;20510,418;    0,094;    1,136
824,490;20762,835;   -0,997;   -0,682
825,054;21187,160;   -0,088;   -1,136
825,618;20789,486;   -1,542;   -1,500
826,181;20758,994;    0,458;   -1,318
826,745;20704,774;    1,367;   -1,045
827,309;21026,464;    1,185;    1,318
827,872;20390,608;    1,367;    0,955
828,436;21383,115;    1,185;   -0,773
828,999;21404,987;   -0,997;    1,227
829,563;20228,858;   -0,179;    1,136
830,126;20107,002;   -0,179;   -0,591
830,690;20091,055;   -1,997;    2,864
831,253;19645,927;   -0,543;    2,227
831,816;19766,161;   -1,906;    0,500
832,380;19664,851;    0,185;    0,864
832,943;19930,995;   -1,361;   -0,500
833,506;19365,230;    2,639;   -1,227
834,069;20183,465;    3,912;   -0,955
834,632;20273,609;    1,730;    1,318
835,195;20108,117;    1,003;    0,955
835,758;19334,715;   -0,997;    1,955
836,321;19206,496;    0,730;   -1,045
836,884;19277,730;   -0,725;   -0,955
837,447;19253,147;   -2,816;    1,773
838,010;19580,200;    0,366;    3,227
838,573;19878,617;   -1,179;    0,773
839,135;19822,852;   -1,361;   -0,955
839,698;19303,087;    1,275;    0,409
840,261;18799,504;    1,003;   -0,227
840,823;18604,011;   -0,543;    0,864
841,386;18898,883;   -0,452;   -2,409
841,948;18802,845;   -1,361;    1,773
842,511;18541,171;    0,912;    1,682
843,073;18666,769;    1,912;    0,227
843,636;18459,550;   -0,361;   -0,227
844,198;18474,239;    0,911;    0,591
844,760;18608,111;    1,093;    1,955
845,322;18186,073;    0,548;    1,136
845,885;18625,580;    0,730;    0,591
846,447;19117,997;   -1,998;    0,227
847,009;18743,323;    1,911;   -0,682
847,571;19004,558;    0,820;   -2,045
848,133;19079,611;   -1,089;   -1,864
848,695;18883,391;   -0,543;    1,409
849,257;18423,445;   -1,089;   -1,682
849,819;18641,225;   -0,998;   -0,409
850,381;18671,096;   -0,725;   -0,864
850,942;19055,149;    1,093;   -0,591
851,504;19036,475;    1,184;    0,227
852,066;19020,347;    1,275;   -1,591
852,628;18547,036;   -0,180;    1,955
853,189;18087,180;    1,638;    2,682
853,751;18261,142;   -0,907;    1,409
854,312;18021,377;   -0,453;   -1,682
854,874;18526,249;   -2,089;   -0,773
855,435;19029,574;   -0,907;   -1,682
855,997;19212,900;   -1,816;   -0,136
856,558;18493,681;    0,366;    1,773
857,119;18620,370;    0,820;    2,864
857,681;18312,060;    0,002;    0,318
858,242;18342,113;    1,911;   -2,136
858,803;18756,802;    0,456;   -0,773
859,364;19363,492;    0,184;   -4,773
859,925;18669,908;   -2,453;   -0,955
860,486;18547,052;   -0,453;   -0,955
861,047;18271,924;   -0,544;   -1,227
861,608;18116,250;   -1,089;   -0,773
862,169;18245,212;    0,638;   -0,045
862,730;17976,810;    0,456;    1,409
863,291;18225,500;   -0,635;   -0,500
863,852;18608,098;   -0,635;    1,955
864,412;18042,788;   -0,271;   -0,864
864,973;16650,477;   -0,089;    0,500
865,534;16535,349;   -1,726;    0,227
866,094;18034,765;    1,820;    0,227
866,655;17709,728;    1,274;    3,318
867,215;17957,326;    0,274;    0,136
867,776;17799,652;    0,547;   -0,136
868,336;17894,160;   -1,453;    0,136
868,897;17367,577;    2,638;    1,682
869,457;17054,448;    1,365;    0,318
870,017;17270,956;    0,547;   -1,227
870,578;17846,463;   -0,817;    0,773
871,138;17540,334;   -2,089;   -0,955
871,698;17065,660;   -0,817;   -1,318
872,258;16954,895;   -0,453;   -2,864
872,818;17383,676;    2,729;    0,045
873,378;17307,911;    0,638;    1,045
873,938;16815,691;    0,547;    0,500
874,498;17135,471;    0,274;   -1,955
875,058;17082,343;    2,183;    1,773
875,618;16935,032;    1,910;   -2,682
876,177;16855,176;    1,274;    0,136
876,737;16503,866;   -0,090;    1,955
877,297;16492,828;    0,183;    1,955
877,856;16490,517;   -0,362;    0,318
878,416;16437,480;    1,183;   -0,136
878,976;16650,715;   -1,817;    0,409
879,535;16845,949;    0,092;    3,136
880,095;16592,821;   -0,544;    0,045
880,654;16701,056;   -1,090;    1,318
881,213;16813,200;    2,456;    1,500
881,773;16442,253;    2,637;    2,682
882,332;16777,397;    3,365;    5,136
882,891;16592,086;    3,092;    2,136
883,451;17083,685;   -1,272;    1,682
884,010;16539,193;   -2,908;   -0,409
884,569;16660,882;   -0,999;   -0,045
885,128;16799,663;    2,819;   -1,864
885,687;16855,534;    4,455;    0,682
886,246;16564,223;    1,455;    2,136
886,805;16371,004;    2,455;    2,045
887,364;16603,420;   -0,999;   -0,500
887,922;16994,019;   -1,181;    0,045
888,481;16478,799;   -1,545;    0,591
889,040;16765,125;    1,183;    2,136
889,599;17475,542;    2,455;    1,409
890,157;17492,050;    1,455;    2,409
890,716;17173,648;   -0,090;    0,227
891,274;17024,156;    0,092;   -1,136
891,833;17449,936;    1,546;    0,864
892,391;17291,989;   -0,454;    0,500
892,950;17368,861;    1,819;   -0,773
893,508;17712,914;    0,455;   -0,409
894,067;17084,876;    0,637;    0,136
894,625;16966,475;   -0,636;   -1,500
895,183;17170,528;   -0,363;   -0,682
895,741;17097,945;    1,728;   -1,773
896,299;16933,179;   -0,545;   -2,409
896,858;17101,596;    0,819;   -1,591
897,416;17226,286;    2,728;   -1,318
897,974;16979,066;    1,819;    0,318
898,532;17159,937;    6,091;    2,682
899,089;17061,991;    2,091;   -0,682
899,647;17078,589;   -1,454;    1,318
900,205;16796,733;    1,182;    1,045
900,763;17008,423;   -0,454;    0,227
901,321;17007,839;    2,364;   -1,409
901,878;16392,347;   -1,000;   -0,773
902,436;16308,855;   -1,363;    1,318
902,994;16716,544;    4,728;    3,682
903,551;16129,597;    0,728;    0,409
904,109;16545,560;    0,182;   -1,409
904,666;16097,885;    2,455;    1,045
905,224;15924,302;    0,182;   -0,409
905,781;15645,992;    0,727;   -0,318
906,338;15718,499;   -1,363;    1,045
906,895;15682,734;    0,637;    2,045
907,453;15590,969;    1,727;    1,136
908,010;15647,113;   -0,909;    0,409
908,567;15319,439;    1,273;    0,591
909,124;14790,129;    0,364;   -1,500
909,681;14889,636;   -2,909;    0,682
910,238;15034,235;    0,636;   -1,318
910,795;15347,379;   -0,273;   -1,136
911,352;14915,197;   -2,909;   -2,682
911,909;14401,379;   -1,364;   -0,864
912,466;14939,288;   -3,182;    1,500
913,022;14451,470;   -1,636;    0,500
913,579;14789,742;   -0,909;    2,045
914,136;14499,106;    1,636;    0,955
914,692;14838,379;    0,091;   -1,227
915,249;14414,288;    1,455;    0,409
915,806;14664,288;    0,182;    1,955
916,362;14427,106;    1,909;    1,864
916,918;13972,561;    2,000;    1,045
917,475;13973,833;   -1,182;    0,955
918,031;14035,742;    3,364;   -0,045
918,587;13458,833;   -0,909;   -0,318
919,144;13659,470;   -2,273;    0,227
919,700;13984,379;    1,727;    0,773
920,256;13581,924;    0,727;    0,045
920,812;13214,106;   -0,727;   -1,045
921,368;13205,015;   -1,727;   -1,045
921,924;12839,015;    0,182;   -0,136
922,480;12439,106;   -0,545;    1,227
923,036;13076,742;    1,273;    1,955
923,592;12986,652;    0,455;    0,318
924,148;12912,197;    0,455;   -0,955
924,704;12235,924;   -1,364;   -0,409
925,259;12499,924;   -0,273;    0,591
925,815;12251,924;    1,455;    0,500
926,371;11758,470;    2,909;    1,409
926,926;11669,288;    2,091;    0,591
927,482;11293,015;   -1,364;    0,773
928,037;11179,924;    0,909;    2,045
928,593;11475,379;    1,636;    1,045
929,148;11290,288;   -1,818;   -1,500
929,704;10797,288;   -1,455;   -0,500
930,259;11007,652;    0,091;   -0,136
930,814;10083,561;   -0,818;    1,955
931,369; 9732,742;    1,091;   -0,773
931,925; 9617,197;   -0,091;    0,136
932,480; 9533,470;   -2,818;   -2,591
933,035; 9453,742;    0,545;   -0,318
933,590; 9208,106;    0,364;   -1,773
934,145; 8820,379;   -1,364;   -0,318
934,700; 9161,561;    0,455;   -0,591
935,255; 8986,470;   -0,091;    0,045
935,809; 8288,924;    3,182;    0,864
936,364; 7398,197;   -0,455;   -0,136
936,919; 7377,197;    0,455;   -1,773
937,474; 7261,742;    1,455;    0,136
938,028; 7035,288;   -1,636;    1,136
938,583; 6535,379;    1,818;    4,682
939,138; 6765,652;    2,091;    2,136
939,692; 6218,379;    1,636;   -1,136
940,247; 5937,015;   -0,727;   -1,045
940,801; 5488,924;   -0,636;    0,227
941,355; 5357,015;   -0,364;    2,591
941,910; 5009,106;   -0,273;   -2,136
942,464; 5120,288;   -0,818;   -0,318
943,018; 4933,470;    1,000;   -0,227
943,572; 4884,379;    2,545;   -0,682
944,126; 4319,288;    0,091;   -0,409
944,681; 4217,924;    3,091;    0,227
945,235; 4201,924;    1,000;   -0,591
945,789; 4129,470;    0,364;   -1,864
946,342; 4235,833;    0,455;   -0,591
946,896; 4043,742;   -2,273;    0,955
947,450; 3812,470;    1,545;   -0,227
948,004; 4018,742;    1,727;   -0,045
948,558; 3990,742;    0,273;   -0,864
949,111; 3936,197;   -0,273;   -0,318
949,665; 3964,470;    1,636;   -0,682
950,219; 3826,924;   -0,091;   -1,045
950,772; 3918,197;   -1,909;    1,864
951,326; 3814,561;    0,545;   -0,955
951,879; 3913,106;    0,727;   -2,318
952,433; 3950,106;    0,000;    2,227
952,986; 3782,470;    2,909;    0,682
953,539; 3747,470;   -0,273;    0,591
954,093; 3639,288;    0,545;   -1,318
954,646; 3798,288;    0,909;    1,318
955,199; 3602,652;    0,000;   -0,500
955,752; 3503,470;   -0,455;    1,773
956,305; 3434,924;   -0,091;    2,955
956,858; 3628,470;    0,818;   -0,318
957,411; 3808,924;   -0,545;    2,136
957,964; 3628,561;    1,364;    2,136
958,517; 3607,561;   -1,545;    3,136
959,070; 3465,015;   -0,455;    1,955
959,623; 3550,742;    1,091;    1,500
960,176; 3300,379;    1,727;    2,045
960,728; 3283,015;   -2,727;    0,773
961,281; 3332,742;    0,545;    0,500
961,834; 3394,742;   -0,909;    0,864
962,386; 3287,833;    1,727;    1,045
962,939; 3230,652;    0,364;   -0,318
963,491; 3355,197;    0,455;    1,136
964,043; 3227,015;    1,182;    2,409
964,596; 3362,924;   -1,000;    2,227
965,148; 3200,197;   -1,000;    1,773
965,700; 3121,379;    1,091;   -0,227
966,253; 3287,833;   -0,636;    0,318
966,805; 3105,288;   -2,273;    0,773
967,357; 3143,742;    1,091;   -1,500
967,909; 3122,197;    0,455;   -1,227
968,461; 3221,197;    0,545;    3,136
969,013; 3136,106;   -0,182;   -0,864
969,565; 3219,015;   -0,455;   -1,136
970,117; 3288,197;   -0,364;    1,045
970,669; 3112,197;    0,182;   -0,136
971,220; 2992,379;   -0,455;   -1,500
971,772; 2917,833;   -0,636;   -0,318
972,324; 3027,288;    0,091;   -0,500
972,876; 2986,924;    0,818;   -0,045
973,427; 3125,470;    1,909;   -1,045
973,979; 3093,015;   -0,727;   -2,500
974,530; 3120,015;    1,818;    1,318
975,082; 3136,106;   -0,545;    1,682
975,633; 3036,742;    1,091;    1,682
976,184; 3166,561;    0,909;    0,773
976,736; 2958,288;    0,091;    0,227
977,287; 2779,652;   -0,909;   -0,500
977,838; 2945,833;    0,909;   -0,318
978,389; 2995,015;   -1,000;   -0,500
978,940; 2862,197;    0,545;   -0,409
979,491; 2888,197;    0,091;   -0,500
980,042; 2856,015;    0,182;    3,045
980,593; 2916,470;   -2,545;    0,227
981,144; 2958,379;    2,545;   -0,500
981,695; 2922,015;    1,455;    1,500
982,246; 2891,833;   -0,273;    1,045
982,797; 3060,197;   -1,727;    0,682
983,347; 3165,379;    0,364;    0,591
983,898; 3336,379;    3,091;    0,409
984,449; 3160,924;    2,182;    0,773
984,999; 3060,924;    1,455;   -1,136
985,550; 2837,833;    0,182;   -0,318
986,100; 2846,288;   -0,455;   -0,318
986,651; 2877,288;   -0,818;    0,045
987,201; 2864,379;   -1,000;   -0,591
987,751; 2945,015;    0,818;    2,864
988,302; 2931,652;    2,636;    1,500
988,852; 2946,833;    0,455;   -1,136
989,402; 3004,288;    0,091;    0,682
989,952; 2934,197;   -2,182;    0,864
990,502; 3017,197;   -0,091;    0,682
991,052; 2961,197;   -0,727;    0,045
991,602; 2846,106;   -2,909;    1,318
992,152; 2843,924;    0,455;    0,682
992,702; 2849,379;    1,364;   -0,045
993,252; 2772,561;   -3,000;   -0,500
993,802; 2850,742;   -0,273;    1,318
994,352; 3087,197;   -1,545;    1,136
994,901; 3157,742;   -0,182;    3,227
995,451; 3070,106;   -0,182;    0,318
996,000; 3158,197;    1,636;    0,318
996,550; 2868,197;    2,273;    0,227
997,100; 2866,106;    1,273;   -0,045
997,649; 3141,379;    2,182;    0,955
998,198; 2777,106;    1,727;   -1,500
998,748; 2989,742;    1,091;   -2,318
999,297; 2896,652;   -0,818;   -0,409
999,846; 2957,106;    1,000;   -0,773
1000,395; 2998,742;   -0,818;    0,500
1000,945; 2962,924;    1,818;   -0,773
1001,494; 3046,742;    2,364;    0,682
1002,043; 3026,742;    4,636;    0,864
1002,592; 2860,379;   -1,091;    1,955
1003,141; 3035,924;   -0,455;   -0,682
1003,690; 2902,924;    1,727;    0,500
1004,238; 2964,470;    1,455;   -0,045
1004,787; 2589,833;    1,364;    1,227
1005,336; 2830,015;    0,364;    0,682
1005,885; 2980,288;    1,364;   -2,773
1006,433; 3114,924;    0,545;    0,955
1006,982; 3178,652;    0,455;    1,682
1007,531; 3077,924;   -1,818;   -0,227
1008,079; 3022,106;   -2,273;    0,500
1008,627; 3159,652;   -1,455;    0,409
1009,176; 2904,288;    0,000;   -1,955
1009,724; 2967,106;    1,091;    0,864
1010,273; 3022,288;    1,273;    0,500
1010,821; 3115,197;    0,091;    1,409
1011,369; 2851,561;   -1,364;    1,318
1011,917; 2839,106;   -1,364;   -0,591
1012,465; 3124,470;    1,273;   -1,591
1013,013; 3208,015;    2,091;   -1,682
1013,561; 3093,652;    0,455;   -0,773
1014,109; 3165,833;   -1,909;    1,682
1014,657; 3030,379;    0,364;    0,591
1015,205; 3136,015;    1,636;   -0,955
1015,753; 3172,924;   -0,545;   -1,409
1016,301; 3209,106;   -2,636;    3,045
1016,848; 3226,470;   -1,273;    0,409
1017,396; 3265,561;    2,545;    0,045
1017,944; 3389,924;    1,182;    1,864
1018,491; 3120,470;    0,273;    1,409
1019,039; 3301,288;    0,455;    0,591
1019,586; 3187,561;   -1,364;    1,682
1020,134; 3286,924;    0,455;    1,500
1020,681; 3322,197;    0,182;   -1,136
1021,228; 3303,561;    2,909;   -2,227
1021,776; 3141,833;    1,182;   -1,136
1022,323; 3379,379;    0,455;    0,773
1022,870; 3301,197;   -1,000;   -0,045
1023,417; 3195,106;    2,636;    1,864
1023,964; 3340,106;    2,636;    1,227
1024,511; 3195,561;    1,000;    0,773
1025,058; 3001,742;    3,182;   -0,045
1025,605; 3067,106;   -2,273;    3,136
1026,152; 3272,652;    1,727;   -0,591
1026,699; 2981,742;    1,818;    1,318
1027,245; 3140,288;   -0,091;    0,318
1027,792; 3335,833;   -1,000;    1,409
1028,339; 3239,379;    2,364;   -0,045
1028,885; 3101,197;    1,000;   -0,227
1029,432; 3034,833;   -0,091;    0,227
1029,978; 3110,742;   -1,000;   -1,591
1030,525; 3011,924;    1,000;    0,409
1031,071; 3250,106;   -1,364;    1,136
1031,618; 3353,106;    0,364;    1,682
1032,164; 3150,561;   -0,091;    3,045
1032,710; 3195,379;    1,636;   -1,500
1033,256; 3090,742;   -0,636;   -0,136
1033,803; 3067,652;   -0,545;    1,500
1034,349; 2777,288;   -1,364;    0,136
1034,895; 2943,379;    0,000;   -0,318
1035,441; 2913,652;   -0,818;    0,318
1035,987; 2925,197;   -2,364;   -0,682
1036,533; 2922,833;   -1,455;   -0,955
1037,078; 3140,015;    1,455;    1,682
1037,624; 2948,288;    2,455;   -0,955
1038,170; 2978,924;    0,455;   -0,318
1038,716; 2885,924;    1,636;   -0,409
1039,261; 2779,379;   -2,273;   -0,773
1039,807; 2715,379;   -0,091;    3,409
1040,352; 2795,561;   -1,909;   -0,318
1040,898; 2836,106;   -1,545;   -0,682
1041,443; 2760,924;   -1,455;   -2,591
1041,989; 2782,288;    1,091;    1,591
1042,534; 2647,561;   -0,364;    2,591
1043,079; 2754,924;    2,909;    0,955
1043,625; 2551,470;    1,818;    0,500
1044,170; 2607,470;   -1,364;    1,045
1044,715; 2892,106;    2,455;    0,955
1045,260; 2688,288;    2,182;   -0,955
1045,805; 2714,652;    1,182;   -0,591
1046,350; 2634,561;    1,364;   -0,409
1046,895; 2613,197;    2,909;    1,591
1047,440; 2584,742;    5,364;    0,409
1047,985; 2475,924;    2,818;   -0,955
1048,530; 2403,470;    1,545;    1,227
1049,074; 2465,106;    0,000;    0,318
1049,619; 2422,561;   -1,364;    1,955
1050,164; 2236,106;    0,455;    0,227
1050,708; 2282,833;   -0,455;    0,045
1051,253; 2651,561;    1,273;   -2,227
1051,797; 2342,470;    0,818;   -1,318
1052,342; 2338,015;   -1,182;    1,045
1052,886; 2356,288;    0,364;   -1,409
1053,430; 2232,015;   -1,364;    0,136
1053,975; 2248,197;   -0,818;   -0,318
1054,519; 2235,106;   -0,727;    3,227
1055,063; 2273,924;    0,909;    1,318
1055,607; 2156,924;   -0,182;    0,227
1056,151; 2165,197;    2,909;    1,682
1056,695; 2080,833;    2,273;   -1,136
1057,239; 2147,561;   -1,727;   -0,682
1057,783; 2155,833;    0,818;   -1,500
1058,327; 2107,197;    0,000;    1,409
1058,871; 2335,197;   -0,545;    1,318
1059,415; 2052,924;   -0,818;   -0,045
1059,958; 2315,379;    1,455;    2,591
1060,502; 2029,379;   -1,000;   -0,773
1061,046; 1930,197;    0,364;   -0,955
1061,589; 1913,106;   -3,000;   -1,136
1062,133; 1788,561;   -1,273;    1,864
1062,676; 1732,924;    1,182;    0,864
1063,220; 1739,924;    1,091;    0,500
1063,763; 1776,379;    0,909;    1,136
1064,306; 1858,470;   -0,909;    1,864
1064,849; 1740,379;   -0,909;    0,591
1065,393; 1746,833;    2,000;   -1,500
1065,936; 1858,197;    0,182;   -0,409
1066,479; 1740,561;   -1,455;    1,318
1067,022; 1765,379;   -0,273;   -0,227
1067,565; 1652,106;   -0,091;   -1,318
1068,108; 1682,924;    0,727;   -0,591
1068,651; 1640,470;   -0,636;    1,409
1069,194; 1579,742;   -0,455;   -1,682
1069,736; 1590,106;   -1,273;    0,955
1070,279; 1562,106;   -1,364;   -0,500
1070,822; 1617,470;   -2,000;   -0,318
1071,364; 1716,106;   -0,364;    1,318
1071,907; 1533,561;   -0,727;    3,227
1072,450; 1416,924;    0,000;   -0,045
1072,992; 1424,106;   -0,273;    3,136
1073,535; 1570,197;    2,091;    2,136
1074,077; 1358,470;   -0,727;    2,045
1074,619; 1321,652;   -1,364;    0,591
1075,161; 1371,924;   -1,091;    1,500
1075,704; 1554,924;    1,545;    1,227
1076,246; 1348,833;   -0,182;    0,682
1076,788; 1257,015;   -0,364;    1,773
1077,330; 1330,197;    1,273;    2,136
1077,872; 1304,288;    0,909;    0,955
1078,414; 1546,561;    2,727;    0,773
1078,956; 1285,561;    1,273;   -0,227
1079,498; 1556,561;    1,636;    0,318
1080,040; 1251,015;    1,909;   -1,318
1080,581; 1166,561;    1,636;   -0,318
1081,123; 1091,742;    0,091;   -0,773
1081,665; 1163,833;   -1,182;   -0,955
1082,206; 1463,652;    1,364;   -0,500
1082,748; 1307,652;    0,727;    2,045
1083,289; 1180,833;   -2,000;    1,318
1083,831; 1085,197;   -0,545;    0,227
1084,372; 1145,561;    0,000;    0,591
1084,913; 1142,288;    1,091;    0,864
1085,455; 1094,742;   -1,909;   -2,045
1085,996; 1071,652;   -2,273;    0,136
1086,537; 1090,833;   -0,091;    0,864
1087,078; 1130,833;   -0,909;   -2,136
1087,619; 1183,561;   -1,273;    0,227
1088,160; 1086,015;    0,000;    1,318
1088,701; 1075,015;   -1,091;    0,682
1089,242; 1017,561;    1,364;   -2,227
1089,783; 1123,561;   -0,273;    1,409
1090,324; 1090,833;    0,455;    0,682
1090,865;  953,197;    2,727;   -0,409
1091,405;  908,833;    0,727;    2,227
1091,946;  949,924;    0,182;   -0,955
1092,487;  870,924;    0,818;   -1,409
1093,027; 1046,015;   -1,364;   -1,500
1093,568;  900,470;   -0,364;    1,227
1094,108; 1003,652;    0,273;    1,773
1094,649;  948,197;   -1,182;    0,136
1095,189;  863,924;   -0,636;   -0,682
1095,729;  841,924;   -0,091;    0,955
1096,269;  836,652;    0,727;   -0,955
1096,810; 1158,379;   -1,364;    0,500
1097,350;  982,015;    1,364;   -0,773
1097,890;  877,470;    0,364;    1,227
1098,430; 1140,288;    2,364;    2,864
1098,970; 1011,833;    2,182;    1,682
1099,510;  860,742;    0,545;   -2,318
1100,050;  786,924;    1,000;   -1,591
1100,589;  762,106;   -0,727;   -0,318
1101,129;  899,652;    0,818;   -0,955
1101,669; 1053,106;    1,727;    2,136
1102,209;  863,379;   -0,091;    2,227
1102,748;  817,106;    0,000;    0,955
1103,288;  809,652;    1,273;   -1,227
1103,827;  839,833;    3,091;   -2,227
1104,367;  704,742;   -0,091;   -2,409
1104,906;  678,106;    1,364;   -1,136
1105,445;  753,288;    0,636;   -1,136
1105,985;  698,106;   -0,727;    1,500
1106,524;  744,197;   -1,727;   -0,682
1107,063;  725,470;   -2,727;    1,409
1107,602;  683,015;   -1,909;   -1,500
1108,141;  619,015;   -1,909;    1,500
1108,680;  716,833;   -3,455;   -0,591
1109,219;  650,652;   -0,909;   -0,500
1109,758;  659,106;    0,455;    0,682
1110,297;  627,561;    1,000;   -0,682
1110,836;  576,379;   -0,727;    0,955
1111,375;  749,924;   -2,545;    0,409
1111,913;  766,106;   -1,000;    0,773
1112,452;  693,652;   -0,273;    0,136
1112,991;  565,470;    1,091;    1,955
1113,529;  533,379;   -0,818;   -0,045
1114,068;  608,197;   -0,273;    2,955
1114,606;  505,561;   -0,364;   -0,955
1115,144;  683,015;   -1,273;    1,045
1115,683;  603,288;   -0,727;    0,318
1116,221;  644,470;   -0,455;   -0,864
1116,759;  556,015;    0,636;   -0,864
1117,297;  767,197;    0,000;    1,864
1117,836;  569,833;   -2,182;   -1,227
1118,374;  574,379;    0,182;   -0,682
1118,912;  511,652;    0,909;    2,682
1119,450;  506,742;    1,000;    0,864
1119,988;  555,379;    1,545;    2,136
1120,525; 1008,833;    5,091;    3,318
1121,063;  709,470;    1,182;    1,864
1121,601;  522,470;   -0,909;   -1,227
1122,139;  476,652;   -0,727;   -2,045
1122,676;  679,561;   -0,727;    2,773
1123,214;  614,288;   -1,182;    4,409
1123,751;  416,106;    1,727;    2,227
1124,289;  550,197;   -0,091;   -0,409
1124,826;  415,652;    1,727;    0,227
1125,364;  339,561;    1,727;   -0,955
1125,901;  534,106;    1,182;    1,227
1126,438;  645,924;    0,818;    0,955
1126,975;  369,288;   -0,727;   -0,773
1127,513;  447,106;    0,273;    2,136
1128,050;  343,379;    1,636;   -0,682
1128,587;  443,106;    2,000;   -0,227
1129,124;  482,197;    0,091;    1,318
1129,661;  341,833;    0,273;    0,227
1130,198;  523,379;    1,636;    0,773
1130,734;  465,197;    0,182;    1,409
1131,271;  323,561;   -0,909;    0,864
1131,808;  496,833;    2,909;    3,045
1132,345;  367,470;    1,545;    0,318
1132,881;  239,561;   -1,545;   -1,864
1133,418;  390,106;    0,727;   -1,136
1133,954;  314,197;    2,455;   -2,682
1134,491;  401,652;    1,364;   -0,773
1135,027;  291,652;    2,364;    0,864
1135,564;  385,924;    0,273;    2,955
1136,100;  367,015;    0,364;    2,136
1136,636;  249,106;   -1,273;   -1,045
1137,172;  352,833;    0,000;   -1,045
1137,708;  274,652;   -1,364;   -1,045
1138,245;  285,742;    1,273;   -1,227
1138,781;  223,924;    1,091;   -3,318
1139,317;  299,924;    1,273;   -1,409
1139,852;  280,379;    3,091;    0,136
1140,388;  404,470;   -1,182;   -0,409
1140,924;  291,197;   -1,091;   -2,227
1141,460;  222,652;   -1,636;    0,136
1141,996;  162,106;   -1,364;    2,682
1142,531;  208,833;    1,364;    3,318
1143,067;  429,197;    1,182;    1,045
1143,602;  483,470;   -0,091;   -0,318
1144,138;  323,924;   -2,636;    1,045
1144,673;  187,742;   -1,455;    1,409
1145,209;  254,106;   -1,909;   -0,318
1145,744;  177,288;   -0,727;    0,864
1146,279;  323,924;    1,818;   -0,136
1146,815;  237,379;    1,545;   -2,682
1147,350;  270,924;   -1,364;    0,045
1147,885;  182,197;   -0,818;   -1,318
1148,420;  187,561;   -2,273;    0,773
1148,955;  170,470;   -1,727;    1,864
1149,490;  197,561;   -0,909;   -1,591
1150,025;  173,652;    0,455;   -1,773
1150,560;  286,106;    1,091;   -0,955
1151,094;  261,379;    1,455;   -0,591
1151,629;  258,652;    1,636;    0,864
1152,164;  182,924;    1,364;    1,318
1152,698;  135,561;   -0,182;   -0,136
1153,233;  101,288;    0,091;   -0,682
1153,767;  152,470;   -3,000;   -2,318
1154,302;  203,106;   -1,455;    1,773
1154,836;  198,197;   -0,455;   -2,136
1155,371;  260,015;   -1,364;    3,682
1155,905;  205,742;   -0,636;    1,682
1156,439;  164,924;   -0,636;   -0,500
1156,973;  212,015;    0,364;    0,318
1157,507;  143,106;   -0,364;    0,682
1158,042;  173,288;   -0,727;    1,045
1158,576;  230,015;    0,182;    1,773
1159,110;  213,288;   -0,818;    2,409
1159,643;  177,379;    0,636;   -0,045
1160,177;  107,652;   -1,545;    1,500

