
Integration time [ms]:   0,040
Averaging Nr. [scans]: 11
Smoothing Nr. [pixels]: 0
Data measured with spectrometer [name]: 7318044SP
Wave   ;Sample   ;Dark     ;Reference
[nm]   ;[counts] ;[counts] ;[counts] 

186,757;   16,645;   31,551;    1,318
187,357;   61,854;   22,551;    0,955
187,958;   43,291;   15,460;   -1,591
188,558;   82,001;    8,915;   -1,227
189,159;   58,592;    6,733;   -4,500
189,759;   14,921;    7,278;   -3,591
190,360;   16,556;    2,824;   -2,136
190,960;   64,489;    2,915;   -4,136
191,560;   79,086;    3,189;   -6,591
192,161;  341,946;    4,372;   -3,500
192,761;  174,272;    4,010;   -3,227
193,361;  117,873;    1,556;   -3,773
193,962;  176,109;    2,010;   -2,682
194,562;   87,130;    1,189;   -3,955
195,162;  132,031;   -2,448;   -2,227
195,762;  307,906;   -3,176;   -0,045
196,362;  240,493;    1,370;   -2,500
196,963;   91,766;    2,006;   -0,864
197,563;  181,732;    1,551;   -0,955
198,163;  121,614;    0,096;   -0,682
198,763;  137,222;    1,733;   -0,500
199,363;  253,747;    3,096;   -0,500
199,963;  217,041;    0,369;    0,409
200,563;  177,027;    2,823;   -1,409
201,163;  150,660;    3,277;   -0,227
201,763;  258,824;    3,732;    0,318
202,363;  192,915;    1,459;    1,500
202,963;  315,035;    1,459;    1,045
203,563;  436,755;    0,277;    0,500
204,162;  256,769;    2,096;   -1,864
204,762;  251,011;    0,550;    0,591
205,362;  217,647;    3,004;    1,955
205,962;  314,475;    3,096;    1,955
206,562;  318,101;    1,823;    2,318
207,161;  286,654;   -0,087;    0,318
207,761;  464,405;    1,277;    2,409
208,361;  320,958;   -0,268;    1,409
208,960;  425,874;    0,459;    1,500
209,560;  508,658;    1,277;    1,591
210,160;  472,517;    0,550;    1,864
210,759;  445,150;    4,186;    1,227
211,359;  464,165;    1,459;    1,045
211,958;  736,801;    1,277;    2,045
212,558;  823,507;    1,732;    1,864
213,157;  647,098;    1,822;    1,500
213,757; 1114,004;    3,822;   -0,227
214,356;  812,070;    1,277;   -0,409
214,956; 1160,210;    3,095;    0,409
215,555;  760,476;    2,095;    2,136
216,154;  700,417;   -2,723;   -0,591
216,754;  702,046;    0,277;    0,773
217,353;  852,941;   -0,268;   -1,045
217,952;  699,428;   -0,178;    0,318
218,552;  947,522;    1,368;   -0,773
219,151;  842,596;    0,277;    0,955
219,750;  834,816;    0,004;   -0,227
220,349;  986,326;   -0,451;    1,045
220,948; 1047,739;   -1,360;    1,136
221,548; 1069,955;    0,913;    1,227
222,147; 1193,969;   -0,087;   -0,409
222,746; 1480,274;   -0,451;   -0,955
223,345; 1358,382;    0,731;    0,500
223,944; 1373,557;   -0,451;    0,773
224,543; 1568,511;    1,004;   -1,409
225,142; 1676,876;    0,094;    0,136
225,741; 1597,641;   -0,814;    1,045
226,340; 1622,508;   -0,451;   -0,955
226,939; 2099,690;   -0,996;   -0,136
227,538; 2085,207;   -0,360;   -0,773
228,137; 2230,721;   -0,814;    0,864
228,735; 2418,354;   -0,541;    1,227
229,334; 2153,983;   -0,905;   -0,227
229,933; 2544,053;    0,459;    0,591
230,532; 2663,738;    1,186;   -0,409
231,131; 2713,923;    1,732;    0,318
231,729; 2872,581;   -2,450;   -2,318
232,328; 3019,084;   -0,723;   -1,500
232,927; 3132,598;    1,004;   -0,500
233,525; 3268,777;    3,640;    0,045
234,124; 3508,707;    2,368;   -1,591
234,723; 3512,189;    0,913;   -1,045
235,321; 3677,396;    2,277;    0,136
235,920; 3937,948;    1,186;   -1,227
236,518; 4202,427;    3,459;    0,318
237,117; 4419,200;    0,004;   -0,227
237,715; 4614,228;    0,640;   -0,500
238,314; 4635,021;   -0,087;   -2,318
238,912; 4748,326;   -0,723;   -1,409
239,510; 4780,493;    0,459;   -1,227
240,109; 4976,783;    0,004;    3,773
240,707; 5027,678;   -0,996;    1,227
241,305; 5418,007;    0,550;    0,136
241,904; 5639,462;   -0,178;   -2,045
242,502; 5578,109;   -0,632;   -0,227
243,100; 5518,403;   -0,087;   -0,955
243,698; 5770,885;    0,732;    1,682
244,297; 5979,623;   -0,632;    0,682
244,895; 5790,025;   -0,269;   -2,318
245,493; 6147,665;    2,186;   -0,591
246,091; 6192,256;    1,368;   -1,318
246,689; 6194,343;    1,004;    0,591
247,287; 6341,763;    0,822;   -1,136
247,885; 6632,379;   -1,451;    1,227
248,483; 6733,728;    1,822;   -0,500
249,081; 6855,232;    0,185;    1,591
249,679; 7051,341;   -0,178;    1,682
250,277; 7324,627;   -1,723;    0,864
250,875; 7308,861;   -1,087;   -1,045
251,473; 7340,508;   -1,178;    0,500
252,071; 7528,728;    1,459;    1,045
252,669; 7691,648;   -1,814;    0,318
253,267; 7952,040;   -0,087;    0,773
253,864; 7953,490;   -0,360;    0,682
254,462; 7784,550;    1,640;    1,591
255,060; 7742,532;   -0,269;    1,318
255,658; 8095,102;    0,822;   -0,136
256,255; 8512,214;    0,186;   -2,045
256,853; 8370,833;   -0,269;    1,409
257,451; 8370,022;    0,822;    1,864
258,048; 8630,550;    1,822;    1,864
258,646; 8379,183;    1,731;   -1,045
259,243; 8601,470;   -0,087;    2,227
259,841; 8666,165;   -0,814;    0,318
260,438; 8522,624;   -0,087;    0,864
261,036; 9258,476;   -1,905;    1,409
261,633; 9130,382;   -0,087;    2,227
262,231; 8865,669;    2,731;   -0,045
262,828; 8956,724;   -0,905;    1,136
263,425; 9025,361;    0,913;   -0,591
264,023; 9310,078;    0,186;    0,045
264,620; 8848,085;   -0,360;   -0,318
265,217; 9228,015;   -2,087;    3,136
265,815; 9306,952;   -1,905;    2,136
266,412; 9083,022;    0,731;    0,136
267,009; 9145,927;   -1,451;    0,773
267,606; 9051,910;    0,822;   -0,955
268,203; 8988,431;   -0,269;   -0,591
268,801; 9266,585;    1,731;    0,591
269,398; 9553,330;   -0,360;    2,500
269,995; 9554,361;    0,277;    1,591
270,592; 9336,015;   -0,632;   -0,500
271,189; 9572,725;    0,186;    0,409
271,786; 9675,123;   -0,632;    1,227
272,383; 9504,483;   -1,087;    0,227
272,980; 9736,085;    0,277;    0,318
273,577;10200,336;    0,004;    1,227
274,174; 9763,927;    0,822;    2,591
274,771; 9736,375;   -0,814;   -0,773
275,367; 9903,333;    2,277;    1,409
275,964; 9855,347;    0,731;   -0,500
276,561; 9950,295;    1,549;   -1,045
277,158;10156,431;    0,095;   -1,773
277,755;10301,050;    2,185;    0,409
278,351; 9682,725;   -0,451;   -1,500
278,948;10003,470;   -0,815;    0,045
279,545; 9994,368;   -1,360;    2,318
280,141;10645,190;   -1,723;   -2,045
280,738;10544,914;   -0,451;   -0,136
281,334;10795,784;   -1,633;    0,591
281,931;10138,596;   -0,087;   -1,318
282,528;10212,246;    0,822;   -0,500
283,124;10959,550;   -1,087;   -0,500
283,721;10885,673;   -0,451;    1,409
284,317;10667,481;    0,185;    2,500
284,913;11238,285;   -1,360;    0,591
285,510;11436,649;    0,640;   -0,318
286,106;11464,299;   -2,269;   -0,955
286,703;11041,064;   -0,360;    1,955
287,299;11226,711;   -1,451;   -0,591
287,895;11449,753;    0,822;   -1,045
288,491;12029,148;    0,186;    2,136
289,088;11750,421;   -2,360;    2,409
289,684;11834,648;   -1,723;    1,500
290,280;11853,179;    0,368;    0,682
290,876;11947,686;    1,822;    5,500
291,472;11819,099;    1,276;    2,227
292,068;11926,578;    1,367;    0,227
292,665;11635,802;    2,095;    0,773
293,261;11211,005;    0,276;    2,136
293,857;11603,445;    2,913;    2,136
294,453;11535,413;    3,550;    0,955
295,049;11409,101;   -0,268;    1,955
295,644;11436,441;    0,095;    0,136
296,240;11309,804;   -0,905;   -0,136
296,836;11396,727;   -0,995;    0,318
297,432;11686,968;    1,096;   -0,500
298,028;11724,758;    0,732;    0,773
298,624;12127,101;    1,459;    1,864
299,220;12391,856;    2,368;    0,591
299,815;12074,325;    1,005;   -0,409
300,411;11832,192;    0,914;    1,773
301,007;11838,020;    1,368;    0,227
301,602;11881,339;   -0,541;   -2,318
302,198;12076,894;    0,732;   -0,773
302,794;12416,814;    1,187;   -0,500
303,389;12520,188;   -1,177;    1,045
303,985;12593,986;    0,550;    1,409
304,580;12561,174;    1,459;    1,591
305,176;12517,433;   -3,086;    0,136
305,771;12454,951;   -1,268;   -1,227
306,367;12309,126;    4,095;    0,136
306,962;12659,066;    0,641;    1,500
307,558;12377,367;   -0,450;    0,136
308,153;12288,619;    1,095;   -1,136
308,748;12531,475;   -0,814;    1,682
309,344;12495,066;   -0,632;   -1,318
309,939;12593,975;   -1,905;   -1,318
310,534;12845,021;   -0,086;   -1,682
311,130;12786,905;    0,459;   -2,500
311,725;12495,661;    1,004;   -0,500
312,320;12825,769;    2,459;    0,045
312,915;12699,206;    1,459;   -1,045
313,510;12789,241;    1,550;   -0,500
314,105;13270,034;    1,096;    1,409
314,700;12632,517;   -3,086;   -1,045
315,295;12269,265;   -0,904;    0,045
315,890;11872,059;    1,277;    0,864
316,485;12221,759;   -0,359;   -0,318
317,080;12361,528;   -3,086;    1,591
317,675;12957,045;    2,005;   -0,682
318,270;12352,730;    5,550;    3,318
318,865;12321,726;    3,278;    3,045
319,460;12133,398;   -0,904;    0,591
320,055;12357,663;   -0,541;   -1,227
320,650;12010,887;   -1,995;   -0,591
321,244;12050,135;   -0,177;   -1,409
321,839;13028,346;   -1,541;   -0,227
322,434;12933,678;   -1,086;   -1,591
323,029;12538,961;    1,732;    1,591
323,623;12371,021;    1,550;    0,773
324,218;12085,027;    2,368;    1,409
324,812;11961,090;    1,096;    1,591
325,407;11811,398;   -0,814;    2,045
326,002;11743,646;    0,277;   -0,409
326,596;12025,506;    0,914;    1,318
327,191;12200,720;    0,823;   -1,045
327,785;11793,597;   -0,813;   -0,227
328,379;12011,388;    1,368;    0,136
328,974;11816,055;    0,914;   -3,955
329,568;12023,034;    0,186;   -2,409
330,163;11832,363;    2,096;    1,045
330,757;12227,374;    2,459;    1,591
331,351;11517,094;    0,459;    0,682
331,945;11828,083;    0,914;    1,409
332,540;11413,552;   -1,723;   -0,591
333,134;11557,622;   -1,086;    0,773
333,728;11810,157;    0,005;    0,318
334,322;12157,776;   -1,177;   -0,864
334,916;11408,993;    0,277;    0,955
335,510;11760,482;   -0,450;   -0,136
336,105;11991,447;   -1,086;    1,591
336,699;11692,472;   -1,086;    0,591
337,293;11625,136;   -1,723;    0,318
337,887;11751,800;   -2,723;    1,955
338,481;11889,035;    0,459;    0,591
339,074;12045,808;   -0,359;    2,682
339,668;11889,031;   -1,632;    1,227
340,262;12117,112;    1,732;    3,227
340,856;11627,997;    1,822;   -0,682
341,450;10942,815;    1,004;    1,864
342,044;11867,500;    1,459;    0,136
342,637;11629,147;    0,913;   -2,136
343,231;11512,358;   -2,360;    0,682
343,825;11452,014;   -1,086;   -0,591
344,419;11411,104;   -1,995;    0,500
345,012;11195,741;    2,459;    4,045
345,606;11226,779;    4,641;    1,591
346,199;11040,038;   -1,813;   -0,227
346,793;10562,716;    1,914;    2,045
347,386;10729,783;   -0,813;   -1,136
347,980;10743,160;   -0,268;   -0,045
348,573;10558,708;    2,278;    0,409
349,167;10213,432;    5,278;    4,773
349,760;10547,288;    2,914;    2,682
350,354;10529,791;   -0,813;    1,136
350,947;10338,896;    1,096;    1,682
351,540; 9953,921;   -0,358;   -1,409
352,134; 9875,411;    1,096;    1,136
352,727; 9951,960;   -0,086;    1,136
353,320; 9718,733;    0,005;    0,591
353,913; 9570,331;   -1,995;    1,864
354,507; 9781,166;    0,823;   -1,227
355,100; 9817,418;    0,460;    0,864
355,693; 9058,379;    2,005;    2,409
356,286; 9076,044;    0,823;    2,773
356,879; 9399,568;   -0,722;    1,227
357,472; 8989,610;   -0,904;    1,500
358,065; 9192,250;   -0,722;    2,500
358,658; 9124,292;   -0,540;    2,318
359,251; 8777,208;   -1,631;   -0,591
359,844; 8265,694;   -1,904;   -1,136
360,437; 8442,484;   -2,995;    0,045
361,030; 8706,813;    1,369;   -0,682
361,623; 8295,750;    2,824;    0,318
362,215; 8353,907;   -0,086;    2,045
362,808; 8163,837;   -2,358;   -1,682
363,401; 8377,508;   -2,449;    0,136
363,994; 8117,718;   -0,631;   -1,500
364,586; 8026,102;    0,824;   -1,500
365,179; 8261,252;   -0,449;   -1,136
365,772; 7721,369;   -1,995;    2,045
366,364; 8012,228;    1,915;   -3,227
366,957; 8202,521;    2,279;   -0,045
367,549; 8245,419;    2,188;   -0,864
368,142; 7890,695;    1,825;   -1,500
368,734; 8088,369;    0,734;   -2,136
369,327; 8051,757;    1,643;   -0,500
369,919; 7954,882;   -1,538;    0,409
370,512; 7758,381;   -1,083;   -0,500
371,104; 7525,412;   -0,901;    1,591
371,696; 7723,539;    1,191;   -0,955
372,289; 7816,832;    0,373;    1,136
372,881; 7943,767;   -2,080;    1,318
373,473; 7871,350;   -2,170;    1,136
374,066; 7701,375;   -0,169;    0,500
374,658; 7506,483;    0,378;    1,136
375,250; 7871,903;    0,653;   -1,409
375,842; 7703,584;    0,473;   -0,045
376,434; 7616,689;   -0,435;   -0,409
377,026; 8172,755;    0,204;   -2,500
377,618; 8061,346;   -0,158;   -0,682
378,210; 7878,583;   -0,338;   -1,955
378,802; 7752,539;    0,754;   -0,591
379,394; 7748,565;    1,846;    0,682
379,986; 8324,643;    1,393;   -0,955
380,578; 8410,150;   -0,153;    0,773
381,170; 7757,977;   -0,972;    0,045
381,762; 7733,793;    0,755;    1,409
382,354; 7943,796;   -0,065;   -1,318
382,945; 8050,932;   -2,976;    0,318
383,537; 8169,289;   -2,705;   -1,955
384,129; 8181,403;   -2,160;   -1,136
384,721; 8352,117;   -0,252;    0,955
385,312; 8315,558;   -0,161;   -0,955
385,904; 8408,058;   -2,706;    1,591
386,496; 7767,939;   -0,979;    1,045
387,087; 7932,724;    1,022;    2,500
387,679; 7944,077;   -1,160;    0,045
388,270; 8072,905;    2,840;    2,045
388,862; 8195,357;    1,295;   -0,318
389,453; 8090,140;   -0,887;    1,045
390,045; 8394,745;   -0,705;   -2,682
390,636; 8291,891;    0,204;   -0,591
391,227; 8148,556;   -0,523;   -0,045
391,819; 8245,525;    0,204;    0,773
392,410; 8330,396;    1,022;    0,045
393,001; 8272,495;   -0,979;   -1,591
393,593; 8563,579;    1,930;   -0,045
394,184; 8406,138;    1,385;   -0,409
394,775; 8371,082;    1,839;    2,136
395,366; 8532,197;    1,385;    0,773
395,957; 8561,343;    0,113;    0,136
396,548; 8886,980;   -0,342;    2,682
397,139; 9169,476;   -2,433;    0,591
397,730; 8874,340;   -1,888;    0,955
398,321; 8952,970;   -1,252;    0,955
398,912; 8988,757;   -0,615;    0,136
399,503; 9062,327;   -3,524;   -1,409
400,094; 8462,414;    0,294;    1,682
400,685; 8318,806;   -0,433;    0,045
401,276; 8414,323;    0,930;   -0,955
401,867; 8712,208;   -0,888;    0,773
402,458; 8815,284;   -2,251;   -2,318
403,048; 8825,232;    1,112;    0,591
403,639; 8422,851;    0,840;    0,864
404,230; 8657,362;    2,476;    0,318
404,821; 8568,690;   -0,615;    0,045
405,411; 8703,149;    1,203;   -2,591
406,002; 8320,726;   -1,252;   -1,136
406,592; 8177,631;    2,294;    0,045
407,183; 8470,143;    0,566;   -1,500
407,774; 8399,793;    3,475;   -0,136
408,364; 8736,730;    0,930;    0,409
408,954; 8330,737;    0,384;    1,227
409,545; 8385,453;    1,021;    1,045
410,135; 7914,097;    1,293;    0,500
410,726; 8066,941;    1,838;    0,318
411,316; 8493,965;    0,111;    0,773
411,906; 8124,982;   -0,253;   -0,409
412,497; 7608,975;   -1,070;   -0,045
413,087; 8224,590;   -1,980;   -0,227
413,677; 8631,790;   -0,707;    3,864
414,267; 8461,290;    0,656;    1,409
414,857; 8463,675;   -2,980;    4,227
415,448; 8769,458;    0,839;    0,500
416,038; 8410,870;    0,020;   -0,591
416,628; 8430,598;   -0,889;    0,409
417,218; 7892,888;    0,565;    3,318
417,808; 8154,819;    0,202;   -0,409
418,398; 8627,308;    0,020;    2,682
418,988; 8652,840;    2,020;    0,591
419,578; 8898,325;   -0,707;    1,409
420,168; 9241,353;   -1,343;   -0,955
420,757; 8848,580;   -1,343;   -1,500
421,347; 8505,644;    0,111;   -0,227
421,937; 8697,392;    2,292;    1,409
422,527; 8646,256;    0,838;   -0,773
423,116; 8454,427;   -0,253;   -0,045
423,706; 8793,259;   -1,889;    0,318
424,296; 8800,434;    1,384;    0,682
424,885; 9189,616;   -0,071;   -3,045
425,475; 9488,214;    1,474;   -2,864
426,065; 9409,148;   -0,980;   -0,318
426,654; 9025,264;   -0,435;   -0,318
427,244; 9146,441;    0,020;    1,409
427,833; 8611,326;    1,383;   -0,500
428,423; 9101,012;   -0,526;    1,136
429,012; 9863,470;   -0,344;   -1,136
429,601; 9346,915;   -1,344;    0,136
430,191; 9589,400;    1,292;    4,318
430,780; 9226,260;   -0,344;   -0,409
431,369; 9146,100;    0,746;   -0,045
431,959; 9780,058;   -1,254;    0,500
432,548; 9583,282;   -1,163;   -0,045
433,137; 9700,142;   -1,254;   -1,318
433,726;10274,292;    0,292;    0,500
434,315; 9601,020;   -0,526;    2,409
434,905; 9676,010;   -1,254;    1,409
435,494; 9573,517;    0,746;    0,955
436,083;10020,188;   -0,981;   -0,955
436,672; 9940,230;    0,110;    0,500
437,261; 9476,639;    0,292;   -1,955
437,850; 9590,118;    1,383;    0,682
438,439; 9599,671;    3,291;    1,955
439,027; 9455,245;    3,655;    1,773
439,616; 9768,346;    2,927;    1,227
440,205; 9663,339;    0,200;   -2,136
440,794; 9759,182;    2,109;   -0,045
441,383;10015,420;   -1,346;   -0,591
441,971; 9846,406;   -2,436;    0,591
442,560; 9738,067;    0,563;   -1,773
443,149; 9479,544;    0,379;   -1,318
443,737; 9613,002;   -0,074;   -2,318
444,326; 9904,714;    0,018;    0,318
444,915; 9966,819;   -1,982;    0,864
445,503;10384,690;   -2,891;   -0,318
446,092; 9615,445;    0,382;    2,136
446,680;10145,316;    0,382;    0,318
447,269;10337,407;   -0,346;   -0,318
447,857;10122,023;    0,018;   -1,773
448,445;10178,533;    0,563;    1,318
449,034;10400,089;   -1,528;   -1,136
449,622;10597,456;   -1,073;    3,500
450,210; 9764,698;    2,017;    2,227
450,799;10325,450;    0,290;   -0,591
451,387;10303,237;    1,381;   -0,591
451,975; 9924,562;    2,654;    0,864
452,563;10012,467;    3,472;    2,318
453,151;10075,660;   -0,528;   -1,227
453,739; 9989,681;   -1,347;    0,136
454,328; 9813,423;    2,381;   -2,136
454,916; 9506,237;    2,562;   -0,136
455,504; 9741,034;    1,017;    1,227
456,092; 9922,384;    0,017;   -1,591
456,679; 9911,181;    1,472;    0,682
457,267; 9849,524;    4,017;    1,045
457,855;10006,898;    1,017;    1,409
458,443; 9752,710;   -0,165;    1,682
459,031; 9898,476;    0,108;    2,409
459,619;10364,126;   -1,801;    2,864
460,206;10496,371;    0,835;    2,045
460,794;10586,451;   -2,983;   -0,227
461,382;10857,043;   -0,529;   -0,864
461,970;10410,798;    1,198;    1,864
462,557;10423,459;   -0,711;   -0,682
463,145;10602,479;   -3,165;   -1,682
463,732;10773,228;    2,016;   -1,045
464,320;10726,889;   -0,075;   -3,045
464,907;10394,735;    2,743;   -0,773
465,495;10270,873;    0,743;   -1,227
466,082;10425,092;   -1,984;   -0,045
466,670;10334,652;   -2,529;    1,227
467,257;10755,960;   -1,711;    2,045
467,844;10920,659;   -0,075;    0,045
468,432;10935,795;    0,834;    3,500
469,019;10382,408;    0,925;   -1,773
469,606;10889,956;    0,470;    3,682
470,193;10710,506;   -1,439;    0,227
470,780;10280,554;   -2,075;    0,864
471,368;10611,195;   -1,257;   -0,773
471,955;10418,163;    1,379;   -0,682
472,542;10063,649;    0,652;   -1,136
473,129;10284,334;   -0,166;    0,136
473,716;10022,006;    1,470;    0,591
474,303;10243,194;    0,652;   -0,864
474,890;10558,209;   -1,439;   -0,500
475,477;10589,042;   -1,621;    0,409
476,064;10470,052;    1,106;   -1,591
476,650;10426,507;    0,288;    0,318
477,237;10270,052;   -0,258;    0,955
477,824;10428,377;   -1,076;    0,864
478,411;10424,636;   -1,894;   -0,318
478,997;10643,353;    0,560;   -0,773
479,584;10671,245;    1,196;   -0,409
480,171;11420,021;   -0,440;   -0,773
480,757;11077,784;    2,651;    0,773
481,344;11362,724;    0,469;    0,409
481,931;10879,977;    1,105;    1,045
482,517;11953,858;   -1,258;    0,318
483,104;12635,123;    1,106;    2,864
483,690;12923,406;   -1,804;    0,045
484,276;13253,060;   -0,895;    0,227
484,863;12974,742;    2,469;    1,136
485,449;13555,124;   -0,077;    0,318
486,035;13531,442;   -1,986;   -0,136
486,622;13975,732;   -0,895;    0,045
487,208;13935,658;    1,378;    1,500
487,794;13745,757;    0,741;    0,318
488,380;13830,148;    0,105;   -1,409
488,967;13933,285;   -1,168;   -0,409
489,553;13984,533;   -1,895;   -1,409
490,139;14168,236;    1,559;    0,773
490,725;13519,708;    0,741;   -0,227
491,311;13074,478;    3,287;    3,045
491,897;12408,033;   -0,986;    1,500
492,483;12204,457;    0,105;    1,227
493,069;12026,652;    3,923;    0,864
493,655;12027,296;    1,650;    0,682
494,241;11937,520;    1,377;   -0,955
494,826;12376,348;    0,287;   -1,045
495,412;11849,652;    2,559;   -0,682
495,998;11976,922;   -0,805;   -0,318
496,584;12095,272;    0,377;    1,045
497,169;12074,824;    1,014;   -0,682
497,755;12055,647;    0,650;    1,227
498,341;12639,457;    0,559;    0,318
498,926;12204,573;    1,832;    1,955
499,512;12373,609;    1,286;    2,955
500,097;12502,581;    0,195;   -0,318
500,683;12468,084;   -0,350;    2,136
501,268;12836,032;   -0,169;   -0,955
501,854;12493,497;   -0,169;    1,227
502,439;12458,777;   -0,624;   -1,773
503,024;12702,039;    0,195;    0,500
503,610;12749,060;   -0,078;   -0,682
504,195;12739,493;    0,558;    1,955
504,780;12865,773;    2,922;    1,227
505,366;12700,479;    3,013;    2,864
505,951;12415,379;    0,740;    1,045
506,536;12441,935;   -3,260;   -3,682
507,121;12390,651;    0,285;   -0,318
507,706;12933,480;    2,376;    1,045
508,291;13377,746;    2,649;    1,136
508,876;12771,152;   -0,988;    2,591
509,461;12221,897;   -0,169;   -0,773
510,046;12667,187;    0,194;    0,318
510,631;12860,218;   -0,351;   -0,773
511,216;12522,599;    2,467;   -0,500
511,801;12933,186;   -0,442;    2,591
512,386;13268,760;    0,740;    0,500
512,971;13201,313;   -2,988;    0,955
513,555;12714,033;   -0,897;   -1,500
514,140;13508,362;   -0,442;   -3,136
514,725;13503,625;   -0,715;   -1,136
515,309;13648,149;   -0,533;    0,318
515,894;13094,296;   -0,624;   -2,227
516,479;13539,240;   -0,624;   -0,955
517,063;13369,027;    0,376;    1,227
517,648;13524,222;    1,012;   -1,136
518,232;13203,335;   -0,261;   -1,409
518,817;13528,947;   -0,079;    1,682
519,401;13735,713;    2,194;    0,591
519,985;13210,503;    1,103;    1,136
520,570;13114,597;    0,830;   -1,955
521,154;13392,524;    2,102;    0,591
521,738;13596,895;   -2,352;    2,409
522,323;14162,776;   -0,170;    1,682
522,907;13863,671;    0,466;   -0,136
523,491;13607,318;    0,557;    0,955
524,075;13574,658;    2,284;    0,591
524,659;13664,357;    1,466;    0,591
525,243;13132,493;    1,739;    0,409
525,827;13369,811;    0,648;   -0,045
526,411;14249,811;   -1,989;   -0,136
526,995;14446,815;   -0,352;    1,409
527,579;14045,672;   -0,443;   -1,045
528,163;14353,578;    0,375;   -1,500
528,747;14273,742;    2,466;   -0,773
529,331;14572,029;   -0,080;   -1,409
529,915;14784,707;    1,738;    0,955
530,499;14761,039;   -0,807;    1,227
531,082;14486,301;   -0,534;    1,591
531,666;13890,246;    1,374;    0,773
532,250;14588,263;    1,284;    2,682
532,833;14954,833;    0,920;    2,773
533,417;14767,872;   -1,807;    0,864
534,001;14764,152;    1,647;   -0,318
534,584;15432,439;    0,374;    0,500
535,168;15265,887;    0,465;    1,409
535,751;15365,554;    0,647;    0,045
536,334;14782,313;   -0,898;   -0,409
536,918;15371,243;    0,011;    1,591
537,501;15493,383;   -0,899;    1,318
538,085;15512,316;   -0,444;    1,045
538,668;15680,747;    0,829;    2,409
539,251;16005,722;    1,829;    3,773
539,834;15991,526;    0,101;    0,773
540,418;15952,929;   -1,990;    4,318
541,001;16063,960;   -0,990;    1,773
541,584;16060,276;    2,101;    2,227
542,167;15735,520;    1,374;    2,955
542,750;15885,947;    1,919;   -0,773
543,333;15526,031;    0,555;    2,136
543,916;16318,258;    0,192;    2,500
544,499;16919,989;   -1,354;    0,227
545,082;16875,150;    1,374;    3,591
545,665;17047,608;    1,919;    1,500
546,248;17410,213;    1,010;   -0,318
546,830;17042,346;   -0,445;    1,955
547,413;17433,849;    1,010;   -0,773
547,996;17935,409;    0,555;    0,500
548,579;17740,528;    0,919;    0,955
549,161;17554,598;    1,828;    2,682
549,744;17306,445;   -0,809;    0,409
550,326;17847,997;   -0,809;   -1,136
550,909;17619,560;    2,737;    0,591
551,492;18020,794;   -0,263;    0,227
552,074;17785,983;   -0,173;   -1,318
552,657;18334,865;    2,373;    0,045
553,239;18044,518;   -0,173;   -0,773
553,821;17996,721;   -1,082;    1,045
554,404;17536,648;    1,282;    1,136
554,986;17923,508;    0,464;    1,045
555,568;18523,798;    1,191;   -0,955
556,151;17754,319;    1,191;   -0,227
556,733;17920,309;   -0,264;   -0,864
557,315;18393,967;    0,100;    0,500
557,897;18185,012;    0,554;   -0,500
558,479;18320,596;   -1,991;    1,318
559,061;18474,883;   -0,719;   -0,864
559,643;18867,530;   -0,264;    0,045
560,225;19196,687;    1,645;    2,864
560,807;19167,712;    0,918;    0,318
561,389;18656,156;    0,554;    2,318
561,971;19448,107;    0,463;    2,136
562,553;19243,827;   -1,628;    1,591
563,135;19392,303;   -0,537;    1,136
563,717;18991,086;    3,372;    1,136
564,298;19722,334;    3,645;   -0,045
564,880;19448,363;    0,645;   -1,409
565,462;19635,363;    0,645;    1,318
566,043;20785,460;   -0,446;    2,318
566,625;20292,002;    1,918;    1,227
567,207;20139,156;    1,099;    1,682
567,788;21321,538;   -1,264;    1,500
568,370;22151,958;    1,917;   -0,500
568,951;21990,076;    0,190;    0,227
569,533;22855,552;   -0,628;   -0,500
570,114;23344,342;   -0,446;    0,682
570,695;23851,479;   -0,174;   -1,318
571,277;24356,975;   -0,265;   -1,682
571,858;25126,426;    2,008;   -1,136
572,439;25975,985;    1,554;   -1,045
573,021;26140,203;    2,099;   -2,773
573,602;26618,248;   -1,265;    0,318
574,183;27614,172;   -2,083;    2,227
574,764;27658,130;   -1,629;    0,409
575,345;28257,623;    0,917;   -0,136
575,926;28866,626;   -0,356;    0,136
576,507;28772,336;    1,099;   -0,227
577,088;29967,122;    3,099;    1,682
577,669;29984,612;    0,735;    1,955
578,250;30812,081;    0,644;   -1,045
578,831;31444,350;   -1,356;   -2,227
579,412;31654,315;   -0,810;    0,955
579,993;32521,476;    1,008;    0,227
580,573;32865,784;   -0,629;   -0,955
581,154;31845,284;    0,735;   -0,591
581,735;32711,941;    0,644;    0,773
582,315;32239,486;   -0,629;    2,136
582,896;32436,675;   -0,174;    1,227
583,477;31868,759;    0,189;    1,227
584,057;32057,263;    0,553;    0,955
584,638;32447,203;    2,553;    2,318
585,218;32455,528;   -0,538;    2,682
585,799;32603,713;    0,281;   -0,227
586,379;32474,213;    0,372;    1,591
586,959;31219,416;    0,735;    0,318
587,540;30548,791;   -0,629;    2,227
588,120;30124,193;    1,007;   -0,045
588,700;29081,962;    2,553;    2,136
589,281;29449,448;    0,462;   -0,955
589,861;29437,500;    0,099;   -1,682
590,441;29246,273;    2,371;   -2,682
591,021;28184,291;   -0,265;   -2,591
591,601;28407,311;   -0,537;    0,500
592,181;28424,147;   -0,719;   -0,773
592,761;27678,169;    0,007;    1,409
593,341;27654,018;   -0,901;    0,045
593,921;27651,273;   -0,265;    1,591
594,501;27538,084;   -0,538;    1,318
595,081;27357,843;    0,917;   -0,318
595,661;27748,486;   -1,447;    0,955
596,240;28199,252;   -0,537;    0,136
596,820;27957,398;    0,372;    1,955
597,400;28089,053;    2,008;    0,773
597,980;28246,164;    2,008;    1,045
598,559;28281,860;    2,735;   -0,227
599,139;28014,972;   -0,174;   -1,227
599,718;27887,154;   -0,174;   -0,409
600,298;28142,346;    0,735;    0,682
600,877;28430,447;    2,917;    1,409
601,457;28669,321;    2,281;    1,136
602,036;28532,126;    0,190;    2,045
602,616;28789,797;    0,644;    1,682
603,195;29172,045;   -0,355;    3,500
603,774;28713,489;   -0,901;    2,045
604,354;28546,646;    0,826;   -0,500
604,933;27990,482;    0,463;    1,864
605,512;28169,716;    3,554;    0,591
606,091;28202,625;   -0,537;    3,773
606,671;29041,566;    0,281;    0,773
607,250;28179,664;    1,644;    3,136
607,829;28395,401;    2,372;    3,227
608,408;28227,678;    1,190;    2,591
608,987;27226,387;    1,281;    3,409
609,566;27548,853;   -1,265;   -2,500
610,145;27656,642;   -1,082;    0,682
610,723;28094,233;    4,372;    6,864
611,302;27323,628;   -0,446;    1,682
611,881;26861,747;    5,008;   11,227
612,460;27696,363;    1,645;    3,955
613,039;28095,415;   -0,082;    2,045
613,617;26782,174;    1,736;    4,773
614,196;26958,849;    1,099;    1,227
614,775;27353,467;    1,009;    2,409
615,353;27283,579;    0,736;    0,864
615,932;27034,103;    0,100;    2,409
616,510;27579,100;    0,554;    0,591
617,089;27132,264;    7,100;   17,591
617,667;26882,016;    2,372;    6,136
618,246;26695,551;   -1,537;    1,318
618,824;26887,351;   -3,355;   -0,955
619,402;26404,900;   -2,900;   -1,773
619,981;26897,673;   -0,173;   -1,045
620,559;26796,246;    0,009;    1,682
621,137;26309,509;   -0,718;    1,864
621,715;26387,554;   -1,173;   -0,682
622,293;26266,110;   -0,537;   -0,773
622,871;26710,057;   -0,718;    0,500
623,450;26304,431;    0,373;   -0,864
624,028;26148,729;    0,191;   -0,955
624,606;25825,085;   -1,718;    1,682
625,183;26188,005;   -1,536;   -1,136
625,761;25838,274;    1,009;    1,136
626,339;26138,162;    1,373;    2,591
626,917;26510,655;   -0,172;   -0,045
627,495;26518,697;   -0,354;    1,318
628,073;25945,948;   -0,263;    2,864
628,650;25661,637;    0,100;    2,136
629,228;26098,176;    0,373;    4,409
629,806;25508,826;    2,282;    1,136
630,383;25753,735;    1,464;   -0,318
630,961;25564,858;    2,555;   -0,955
631,539;25307,696;    2,464;    0,227
632,116;24685,403;   11,373;   15,409
632,694;25253,196;    2,555;    6,500
633,271;25529,570;    0,828;    2,682
633,848;25518,710;    1,828;    2,045
634,426;25511,322;   -1,081;    1,773
635,003;24601,709;    1,101;   -0,409
635,580;24935,150;    1,192;    3,682
636,158;25572,035;    3,737;    1,227
636,735;25497,420;    0,555;   -0,500
637,312;25599,514;   -0,809;   -0,682
637,889;25726,364;   -4,354;   -0,682
638,466;25176,947;   -3,990;   -0,409
639,043;25151,876;    2,101;   -1,136
639,620;25502,751;   -2,262;   -0,955
640,197;25825,516;    1,100;    1,682
640,774;25924,024;   -0,172;    1,136
641,351;26375,078;    0,737;    1,136
641,928;25803,405;   -0,627;    1,409
642,505;25479,550;    0,828;   -0,500
643,082;25597,331;   -1,718;    1,227
643,658;24576,658;   -0,718;    1,500
644,235;25300,803;    1,191;    2,500
644,812;25655,857;    1,918;    0,773
645,388;25375,729;   -0,991;    1,409
645,965;25502,692;   -0,809;    1,682
646,542;25584,746;   -1,445;   -0,227
647,118;25503,164;    1,009;   -0,955
647,695;25855,581;   -0,263;    1,136
648,271;25752,908;   -0,536;    0,500
648,848;26059,053;    0,736;    2,227
649,424;25911,925;    0,827;    1,318
650,000;25664,797;   -0,354;   -1,045
650,577;25442,306;   -0,627;   -0,955
651,153;25895,996;   -1,809;    0,955
651,729;26951,232;    1,191;    0,864
652,305;27464,377;    0,645;    2,773
652,881;32572,340;   -0,082;    1,136
653,458;39408,212;    1,100;    0,227
654,034;42762,903;    0,282;    1,591
654,610;44014,866;    0,554;    0,773
655,186;45276,556;    0,645;    3,045
655,762;44857,883;   -0,991;    0,409
656,338;44821,482;    0,100;    0,136
656,913;45781,900;   -0,082;    0,409
657,489;45020,136;    0,827;   -0,318
658,065;44956,826;   -0,173;   -1,591
658,641;45619,698;   -0,900;   -0,864
659,217;44862,570;   -0,991;    0,409
659,792;44235,715;    0,645;   -0,409
660,368;44426,224;   -2,173;   -0,682
660,944;43850,096;   -2,082;    1,227
661,519;38662,605;   -0,628;    0,409
662,095;32847,568;   -1,719;    0,591
662,670;28687,894;    1,281;   -0,136
663,246;27747,039;    1,009;   -0,409
663,821;27152,639;    0,281;    1,682
664,396;26660,147;    0,009;    1,864
664,972;26932,020;    0,009;   -0,500
665,547;27226,983;    1,372;    0,136
666,122;27290,582;   -1,082;    0,318
666,698;27613,909;   -0,173;    0,318
667,273;26936,781;   -0,173;    0,136
667,848;27756,835;    2,372;    1,500
668,423;27549,162;    2,190;    2,318
668,998;28122,761;    2,827;   -0,682
669,573;28669,997;   -3,264;   -1,500
670,148;28466,051;   -1,446;   -0,682
670,723;28298,287;   -1,810;    0,318
671,298;28689,159;    2,372;    1,045
671,873;28816,940;   -0,082;   -0,136
672,448;28754,358;    0,645;    0,136
673,023;29095,866;   -1,992;   -0,227
673,597;29442,011;    0,827;    2,318
674,172;29208,156;   -0,355;    0,318
674,747;28659,028;    0,372;   -1,045
675,321;28497,082;   -0,628;    3,318
675,896;28079,136;    0,645;    1,045
676,471;29083,190;    2,645;    1,591
677,045;28838,972;   -1,264;    0,682
677,620;28831,662;    0,190;    1,136
678,194;29105,534;   -2,628;    1,136
678,769;28790,679;   -1,083;   -0,318
679,343;29029,915;   -0,628;    1,773
679,917;28925,423;   -1,446;    1,955
680,492;29064,205;    0,826;    3,227
681,066;29181,259;    3,372;    0,409
681,640;29208,767;    1,463;   -0,318
682,214;29990,094;    0,735;    0,500
682,788;29491,148;   -1,356;   -0,773
683,363;29479,293;   -1,810;    1,682
683,937;29203,892;   -1,719;   -0,318
684,511;29929,310;    0,463;   -0,591
685,085;29666,182;   -1,356;    0,318
685,659;29393,145;   -2,538;    0,864
686,232;29643,199;   -0,356;   -0,318
686,806;29341,253;   -0,901;    0,409
687,380;30013,035;   -0,174;    0,591
687,954;30197,907;   -1,174;    1,136
688,528;29924,597;   -0,719;    1,955
689,101;30717,287;   -3,992;    1,045
689,675;30257,796;   -0,356;   -0,136
690,249;29653,850;   -0,719;    0,409
690,822;29936,086;    0,280;    0,318
691,396;30020,049;   -0,265;    1,227
691,969;29494,557;    1,280;    0,136
692,543;29962,702;   -0,447;   -1,955
693,116;29590,120;   -0,265;   -1,409
693,690;29440,901;    0,099;    0,500
694,263;30030,592;   -1,083;    2,955
694,836;30083,282;    1,371;    3,591
695,410;28714,427;   -0,265;    1,773
695,983;29167,026;    0,189;    0,591
696,556;29161,626;   -0,447;   -1,045
697,129;29542,043;   -0,356;    1,409
697,703;29171,188;   -1,629;    1,955
698,276;29109,060;    1,462;   -0,773
698,849;28933,933;    1,280;    1,409
699,422;29342,896;   -1,083;    0,591
699,995;29052,950;    0,007;    0,136
700,568;29506,731;   -0,629;    3,045
701,140;29541,603;   -2,811;    1,682
701,713;29286,294;   -0,174;    2,409
702,286;29012,984;   -0,538;    0,864
702,859;28919,220;   -0,902;   -0,591
703,432;28048,365;    0,825;    0,682
704,004;28538,782;    0,462;    0,318
704,577;28421,836;   -0,629;    0,136
705,150;28950,981;    0,189;    2,500
705,722;28786,762;   -0,356;   -3,227
706,295;28645,180;   -0,175;   -0,591
706,867;28472,325;   -0,175;    1,955
707,440;28680,743;   -1,720;   -0,409
708,012;28996,888;    0,462;    0,591
708,584;28858,942;    2,462;    0,227
709,157;29110,177;    1,825;   -0,591
709,729;28750,959;    2,280;    2,045
710,301;29579,376;    0,734;    0,045
710,874;29628,339;   -1,447;   -0,227
711,446;28440,848;    0,371;    0,864
712,018;28318,629;    0,098;    0,500
712,590;28133,320;   -1,993;    1,682
713,162;28641,555;    0,825;    1,318
713,734;28866,882;    1,825;   -2,045
714,306;28808,209;   -1,902;   -0,409
714,878;27447,626;    0,825;    0,864
715,450;28287,317;    0,643;    0,864
716,022;28528,189;    1,552;    1,318
716,593;28711,061;    0,189;    0,591
717,165;28645,297;   -3,175;   -1,227
717,737;28386,078;    0,280;    0,409
718,309;28032,678;    0,280;   -0,045
718,880;27955,459;   -0,539;   -1,409
719,452;28182,149;   -0,175;   -1,591
720,024;27771,476;    0,734;   -0,591
720,595;28372,075;   -2,902;    0,955
721,167;27948,220;    0,370;   -2,045
721,738;27397,365;   -0,812;   -1,045
722,309;27379,874;   -0,993;   -1,227
722,881;27158,564;   -1,357;    0,773
723,452;27763,345;   -2,630;    2,864
724,023;27945,399;   -0,721;    2,682
724,595;27761,544;    0,007;    0,682
725,166;27497,417;    0,007;   -0,409
725,737;27172,743;    1,734;    0,227
726,308;27259,888;   -0,266;    0,318
726,879;27698,942;   -1,630;    1,227
727,450;27498,905;    0,552;   -0,045
728,021;27540,868;    3,097;    0,682
728,592;27286,104;    0,734;    0,500
729,163;27637,795;    0,643;   -0,136
729,734;27637,849;    0,188;   -0,227
730,305;28034,721;    1,734;    0,136
730,876;28361,411;    0,188;    2,955
731,447;28124,647;    2,188;    2,682
732,017;28237,337;    1,097;    1,864
732,588;27649,937;    0,734;    1,227
733,159;27864,082;    0,643;   -1,045
733,729;27651,408;    0,006;    0,409
734,300;26933,008;    0,915;    0,864
734,870;27353,062;    3,461;    0,591
735,441;27854,207;    0,370;   -0,591
736,011;27683,988;    0,643;   -1,591
736,582;27633,315;   -0,812;    0,045
737,152;27103,460;   -1,721;   -2,045
737,722;27529,968;   -0,267;   -0,682
738,293;27248,568;   -1,358;    1,318
738,863;27127,712;    2,461;    2,318
739,433;26967,857;    5,279;    0,318
740,003;27570,093;   -0,994;   -0,682
740,573;26956,693;    2,097;   -1,591
741,143;26935,838;   -1,085;    0,318
741,713;27726,073;    1,188;   -0,500
742,283;27411,036;    0,915;    1,591
742,853;27164,090;    1,915;    1,591
743,423;26615,235;    1,733;    0,045
743,993;26765,289;   -0,358;    1,500
744,563;26136,434;    0,097;   -0,864
745,133;26067,761;   -0,812;   -0,864
745,702;26739,633;   -0,267;    1,773
746,272;25975,960;   -0,176;    0,591
746,842;25771,832;   -1,358;   -0,591
747,411;26171,341;   -0,267;   -0,318
747,981;26304,940;    0,097;    0,500
748,551;26369,358;    2,278;   -1,045
749,120;26227,139;    0,642;   -0,227
749,690;26619,102;   -0,631;    2,409
750,259;27006,156;    1,369;    2,955
750,828;26918,119;    1,551;   -1,955
751,398;27152,719;    1,278;   -0,045
751,967;26728,591;    2,187;    0,409
752,536;26843,008;   -0,813;   -0,227
753,105;27307,062;    0,096;    0,227
753,675;27103,207;    0,096;    1,773
754,244;27033,716;   -0,904;    3,591
754,813;27069,315;    0,551;    1,227
755,382;26637,733;    0,460;    0,955
755,951;27197,605;    1,551;    3,682
756,520;26718,750;   -0,085;    1,864
757,089;27333,077;    0,278;    0,500
757,658;27474,585;    1,733;    1,227
758,227;27435,003;    1,096;    0,318
758,795;27749,330;    1,187;    1,136
759,364;27919,111;   -0,086;   -0,591
759,933;26948,529;   -1,176;   -0,045
760,501;26479,492;    0,733;   -1,318
761,070;26989,455;   -2,813;   -1,409
761,639;27669,509;   -1,904;    1,318
762,207;27015,108;    1,551;   -0,955
762,776;26976,253;    0,369;    0,864
763,344;26924,671;   -0,995;    0,591
763,913;26003,634;   -0,722;    1,409
764,481;26789,779;    1,005;   -0,136
765,049;26477,560;   -1,358;    1,409
765,618;26398,978;   -0,086;    0,318
766,186;26481,395;    0,278;    0,136
766,754;26720,631;    0,005;    1,864
767,322;25637,412;   -1,995;    0,409
767,890;25736,921;   -0,722;   -1,773
768,459;26108,793;   -2,177;   -0,318
769,027;26310,847;    1,641;    3,409
769,595;25266,992;    3,278;    2,591
770,163;25689,591;    3,823;    2,955
770,730;25414,191;    0,732;   -0,136
771,298;25244,790;    0,187;   -1,409
771,866;25317,117;   -1,541;    4,955
772,434;25698,171;   -0,631;   -1,864
773,002;25888,952;    0,005;    0,682
773,569;25499,279;    0,914;    1,682
774,137;25306,788;   -0,268;   -0,045
774,705;26073,296;    0,278;   -0,136
775,272;25575,077;    0,641;    0,682
775,840;25285,222;   -0,177;    2,682
776,407;24887,276;    0,277;    1,955
776,975;24443,603;   -0,632;    0,318
777,542;25449,657;   -1,086;   -0,045
778,110;25288,347;   -1,268;   -0,045
778,677;24993,311;   -2,359;   -0,864
779,244;24753,001;    2,186;    1,045
779,812;24870,782;    1,823;    0,864
780,379;24768,018;    0,005;    1,136
780,946;25007,072;    1,005;   -0,773
781,513;25341,581;   -1,450;    0,318
782,080;24689,725;   -0,086;    2,864
782,647;25439,416;   -0,268;    3,045
783,214;25037,924;   -0,177;    3,864
783,781;24673,160;   -0,723;   -0,682
784,348;24513,305;   -0,632;    1,500
784,915;24937,268;   -3,177;    0,318
785,482;24738,868;    1,368;    2,591
786,049;25161,740;    0,186;   -0,591
786,615;25320,248;    0,277;   -0,955
787,182;24996,575;    0,186;   -0,682
787,749;24673,084;   -2,814;    1,409
788,315;23991,592;   -1,632;   -0,409
788,882;24277,828;    1,550;   -1,227
789,448;25001,882;    1,732;   -0,955
790,015;25001,209;    1,095;    3,227
790,581;24624,354;    1,459;    0,227
791,148;24474,771;    0,641;    1,045
791,714;24705,643;   -0,541;    3,136
792,280;24339,970;    0,186;    1,591
792,847;23942,479;    0,550;    2,500
793,413;24487,896;   -0,269;   -0,318
793,979;24024,314;    3,459;   -1,318
794,545;24137,459;    4,459;    2,682
795,111;23595,604;    2,186;    1,318
795,678;23746,840;    0,731;   -1,682
796,244;23367,166;    3,368;    0,136
796,810;23878,675;    1,731;    0,773
797,375;23630,547;    0,549;   -2,136
797,941;23619,146;   -0,541;    0,591
798,507;23767,200;   -0,451;   -0,955
799,073;23282,073;   -0,360;    0,591
799,639;23386,218;   -2,632;    3,136
800,205;23397,090;    0,095;    2,682
800,770;22908,689;    0,640;    1,773
801,336;23026,380;    1,368;   -0,955
801,901;22758,979;    4,549;    3,136
802,467;23289,578;   -0,542;    2,045
803,033;22618,905;   -0,087;    0,864
803,598;22840,686;    1,913;   -1,045
804,163;22910,468;    1,095;   -0,318
804,729;22861,340;   -0,178;    1,136
805,294;23244,030;    0,822;    2,227
805,859;23037,539;    0,731;   -0,409
806,425;22512,502;    1,186;    2,682
806,990;22204,374;    2,186;    4,318
807,555;22676,883;   -1,451;    2,591
808,120;22575,300;    0,822;   -0,409
808,685;22593,991;    0,185;   -2,500
809,250;22121,317;    0,004;   -0,500
809,815;22410,189;    1,913;    0,682
810,380;22936,789;   -0,269;    1,591
810,945;23523,207;   -1,087;    2,045
811,510;22649,715;    2,094;    1,591
812,075;22382,587;   -0,633;   -1,409
812,640;22419,550;    2,003;    1,409
813,204;22506,513;    0,822;   -0,227
813,769;23006,658;    2,094;   -0,045
814,334;22406,258;    0,458;    0,864
814,898;22455,675;    0,367;    0,591
815,463;22294,184;    1,276;   -0,773
816,027;22253,874;   -0,724;   -2,318
816,592;22330,019;    0,640;   -2,045
817,156;21849,982;    2,094;    1,136
817,721;21720,945;    4,276;    2,318
818,285;21665,545;    2,912;    1,500
818,849;22302,781;   -1,451;    1,682
819,414;22242,926;   -0,269;    2,955
819,978;21814,434;   -1,269;    1,773
820,542;22355,215;    2,003;    0,500
821,106;22083,542;   -0,815;    0,682
821,670;22198,596;   -0,815;    2,591
822,234;21907,105;   -0,270;    1,409
822,798;21314,431;    0,003;    0,500
823,362;21292,849;   -0,633;    4,227
823,926;20597,176;    0,094;    1,136
824,490;20825,412;   -0,997;   -0,682
825,054;21285,557;   -0,088;   -1,136
825,618;20919,156;   -1,542;   -1,500
826,181;20847,846;    0,458;   -1,318
826,745;20772,173;    1,367;   -1,045
827,309;21117,682;    1,185;    1,318
827,872;20465,645;    1,367;    0,955
828,436;21450,971;    1,185;   -0,773
828,999;21457,298;   -0,997;    1,227
829,563;20286,807;   -0,179;    1,136
830,126;20148,861;   -0,179;   -0,591
830,690;20167,824;   -1,997;    2,864
831,253;19647,969;   -0,543;    2,227
831,816;19812,841;   -1,906;    0,500
832,380;19748,986;    0,185;    0,864
832,943;19958,403;   -1,361;   -0,500
833,506;19440,366;    2,639;   -1,227
834,069;20187,148;    3,912;   -0,955
834,632;20248,384;    1,730;    1,318
835,195;20172,438;    1,003;    0,955
835,758;19353,128;   -0,997;    1,955
836,321;19260,364;    0,730;   -1,045
836,884;19336,963;   -0,725;   -0,955
837,447;19335,654;   -2,816;    1,773
838,010;19606,526;    0,366;    3,227
838,573;19894,762;   -1,179;    0,773
839,135;19899,088;   -1,361;   -0,955
839,698;19351,051;    1,275;    0,409
840,261;18858,560;    1,003;   -0,227
840,823;18676,432;   -0,543;    0,864
841,386;18960,759;   -0,452;   -2,409
841,948;18845,631;   -1,361;    1,773
842,511;18599,867;    0,912;    1,682
843,073;18749,557;    1,912;    0,227
843,636;18546,066;   -0,361;   -0,227
844,198;18493,029;    0,911;    0,591
844,760;18608,446;    1,093;    1,955
845,322;18228,137;    0,548;    1,136
845,885;18692,373;    0,730;    0,591
846,447;19096,063;   -1,998;    0,227
847,009;18692,844;    1,911;   -0,682
847,571;19030,716;    0,820;   -2,045
848,133;19134,407;   -1,089;   -1,864
848,695;18943,643;   -0,543;    1,409
849,257;18512,333;   -1,089;   -1,682
849,819;18703,660;   -0,998;   -0,409
850,381;18697,623;   -0,725;   -0,864
850,942;19076,040;    1,093;   -0,591
851,504;19075,276;    1,184;    0,227
852,066;19072,785;    1,275;   -1,591
852,628;18603,112;   -0,180;    1,955
853,189;18156,075;    1,638;    2,682
853,751;18248,583;   -0,907;    1,409
854,312;18053,728;   -0,453;   -1,682
854,874;18572,418;   -2,089;   -0,773
855,435;19124,109;   -0,907;   -1,682
855,997;19279,526;   -1,816;   -0,136
856,558;18550,671;    0,366;    1,773
857,119;18623,089;    0,820;    2,864
857,681;18279,779;    0,002;    0,318
858,242;18380,651;    1,911;   -2,136
858,803;18825,796;    0,456;   -0,773
859,364;19404,123;    0,184;   -4,773
859,925;18732,995;   -2,453;   -0,955
860,486;18588,140;   -0,453;   -0,955
861,047;18280,921;   -0,544;   -1,227
861,608;18144,794;   -1,089;   -0,773
862,169;18276,575;    0,638;   -0,045
862,730;18025,811;    0,456;    1,409
863,291;18306,047;   -0,635;   -0,500
863,852;18650,828;   -0,635;    1,955
864,412;18101,609;   -0,271;   -0,864
864,973;16703,027;   -0,089;    0,500
865,534;16608,263;   -1,726;    0,227
866,094;18096,953;    1,820;    0,227
866,655;17726,098;    1,274;    3,318
867,215;17965,425;    0,274;    0,136
867,776;17802,660;    0,547;   -0,136
868,336;17929,805;   -1,453;    0,136
868,897;17412,677;    2,638;    1,682
869,457;17180,277;    1,365;    0,318
870,017;17412,513;    0,547;   -1,227
870,578;17937,930;   -0,817;    0,773
871,138;17624,621;   -2,089;   -0,955
871,698;17156,947;   -0,817;   -1,318
872,258;17071,092;   -0,453;   -2,864
872,818;17456,328;    2,729;    0,045
873,378;17369,382;    0,638;    1,045
873,938;16884,891;    0,547;    0,500
874,498;17247,763;    0,274;   -1,955
875,058;17164,908;    2,183;    1,773
875,618;16980,325;    1,910;   -2,682
876,177;16906,198;    1,274;    0,136
876,737;16507,161;   -0,090;    1,955
877,297;16543,760;    0,183;    1,955
877,856;16556,360;   -0,362;    0,318
878,416;16490,323;    1,183;   -0,136
878,976;16732,649;   -1,817;    0,409
879,535;16888,885;    0,092;    3,136
880,095;16627,212;   -0,544;    0,045
880,654;16740,175;   -1,090;    1,318
881,213;16865,047;    2,456;    1,500
881,773;16516,101;    2,637;    2,682
882,332;16904,519;    3,365;    5,136
882,891;16703,300;    3,092;    2,136
883,451;17201,718;   -1,272;    1,682
884,010;16610,863;   -2,908;   -0,409
884,569;16720,644;   -0,999;   -0,045
885,128;16840,971;    2,819;   -1,864
885,687;16940,025;    4,455;    0,682
886,246;16642,806;    1,455;    2,136
886,805;16402,678;    2,455;    2,045
887,364;16657,914;   -0,999;   -0,500
887,922;17029,786;   -1,181;    0,045
888,481;16539,476;   -1,545;    0,591
889,040;16819,985;    1,183;    2,136
889,599;17512,766;    2,455;    1,409
890,157;17565,729;    1,455;    2,409
890,716;17224,329;   -0,090;    0,227
891,274;17036,474;    0,092;   -1,136
891,833;17481,164;    1,546;    0,864
892,391;17388,309;   -0,454;    0,500
892,950;17463,181;    1,819;   -0,773
893,508;17838,690;    0,455;   -0,409
894,067;17142,926;    0,637;    0,136
894,625;17044,343;   -0,636;   -1,500
895,183;17301,761;   -0,363;   -0,682
895,741;17144,815;    1,728;   -1,773
896,299;16951,323;   -0,545;   -2,409
896,858;17156,650;    0,819;   -1,591
897,416;17337,159;    2,728;   -1,318
897,974;17055,485;    1,819;    0,318
898,532;17279,994;    6,091;    2,682
899,089;17128,866;    2,091;   -0,682
899,647;17156,647;   -1,454;    1,318
900,205;16886,065;    1,182;    1,045
900,763;17085,210;   -0,454;    0,227
901,321;17050,264;    2,364;   -1,409
901,878;16487,772;   -1,000;   -0,773
902,436;16407,008;   -1,363;    1,318
902,994;16834,699;    4,728;    3,682
903,551;16225,934;    0,728;    0,409
904,109;16594,352;    0,182;   -1,409
904,666;16165,770;    2,455;    1,045
905,224;15990,551;    0,182;   -0,409
905,781;15777,878;    0,727;   -0,318
906,338;15826,750;   -1,363;    1,045
906,895;15743,167;    0,637;    2,045
907,453;15698,221;    1,727;    1,136
908,010;15716,912;   -0,909;    0,409
908,567;15383,329;    1,273;    0,591
909,124;14865,202;    0,364;   -1,500
909,681;14950,347;   -2,909;    0,682
910,238;15097,037;    0,636;   -1,318
910,795;15369,091;   -0,273;   -1,136
911,352;14995,909;   -2,909;   -2,682
911,909;14426,727;   -1,364;   -0,864
912,466;14941,455;   -3,182;    1,500
913,022;14484,818;   -1,636;    0,500
913,579;14857,909;   -0,909;    2,045
914,136;14578,455;    1,636;    0,955
914,692;14915,000;    0,091;   -1,227
915,249;14541,455;    1,455;    0,409
915,806;14737,091;    0,182;    1,955
916,362;14505,727;    1,909;    1,864
916,918;14059,545;    2,000;    1,045
917,475;14048,273;   -1,182;    0,955
918,031;14085,818;    3,364;   -0,045
918,587;13552,273;   -0,909;   -0,318
919,144;13748,727;   -2,273;    0,227
919,700;14071,455;    1,727;    0,773
920,256;13666,545;    0,727;    0,045
920,812;13268,273;   -0,727;   -1,045
921,368;13290,091;   -1,727;   -1,045
921,924;12914,909;    0,182;   -0,136
922,480;12494,091;   -0,545;    1,227
923,036;13132,545;    1,273;    1,955
923,592;13045,909;    0,455;    0,318
924,148;12948,909;    0,455;   -0,955
924,704;12223,636;   -1,364;   -0,409
925,259;12501,364;   -0,273;    0,591
925,815;12283,909;    1,455;    0,500
926,371;11788,273;    2,909;    1,409
926,926;11697,727;    2,091;    0,591
927,482;11353,636;   -1,364;    0,773
928,037;11213,182;    0,909;    2,045
928,593;11492,727;    1,636;    1,045
929,148;11316,273;   -1,818;   -1,500
929,704;10803,727;   -1,455;   -0,500
930,259;11083,364;    0,091;   -0,136
930,814;10135,182;   -0,818;    1,955
931,369; 9797,636;    1,091;   -0,773
931,925; 9677,273;   -0,091;    0,136
932,480; 9574,364;   -2,818;   -2,591
933,035; 9486,636;    0,545;   -0,318
933,590; 9249,727;    0,364;   -1,773
934,145; 8884,909;   -1,364;   -0,318
934,700; 9219,364;    0,455;   -0,591
935,255; 9015,455;   -0,091;    0,045
935,809; 8325,091;    3,182;    0,864
936,364; 7458,182;   -0,455;   -0,136
936,919; 7424,636;    0,455;   -1,773
937,474; 7287,182;    1,455;    0,136
938,028; 7042,364;   -1,636;    1,136
938,583; 6563,091;    1,818;    4,682
939,138; 6815,000;    2,091;    2,136
939,692; 6237,909;    1,636;   -1,136
940,247; 5958,364;   -0,727;   -1,045
940,801; 5503,182;   -0,636;    0,227
941,355; 5424,273;   -0,364;    2,591
941,910; 5061,727;   -0,273;   -2,136
942,464; 5176,636;   -0,818;   -0,318
943,018; 4961,455;    1,000;   -0,227
943,572; 4907,000;    2,545;   -0,682
944,126; 4348,182;    0,091;   -0,409
944,681; 4249,273;    3,091;    0,227
945,235; 4203,818;    1,000;   -0,591
945,789; 4132,364;    0,364;   -1,864
946,342; 4243,909;    0,455;   -0,591
946,896; 4061,000;   -2,273;    0,955
947,450; 3807,000;    1,545;   -0,227
948,004; 4024,909;    1,727;   -0,045
948,558; 4016,909;    0,273;   -0,864
949,111; 3955,000;   -0,273;   -0,318
949,665; 3970,364;    1,636;   -0,682
950,219; 3853,273;   -0,091;   -1,045
950,772; 3932,091;   -1,909;    1,864
951,326; 3831,455;    0,545;   -0,955
951,879; 3947,545;    0,727;   -2,318
952,433; 3961,909;    0,000;    2,227
952,986; 3798,636;    2,909;    0,682
953,539; 3751,909;   -0,273;    0,591
954,093; 3674,818;    0,545;   -1,318
954,646; 3826,000;    0,909;    1,318
955,199; 3626,273;    0,000;   -0,500
955,752; 3526,182;   -0,455;    1,773
956,305; 3477,273;   -0,091;    2,955
956,858; 3672,818;    0,818;   -0,318
957,411; 3826,545;   -0,545;    2,136
957,964; 3656,545;    1,364;    2,136
958,517; 3645,727;   -1,545;    3,136
959,070; 3466,636;   -0,455;    1,955
959,623; 3556,364;    1,091;    1,500
960,176; 3310,273;    1,727;    2,045
960,728; 3303,091;   -2,727;    0,773
961,281; 3349,636;    0,545;    0,500
961,834; 3391,909;   -0,909;    0,864
962,386; 3298,000;    1,727;    1,045
962,939; 3223,636;    0,364;   -0,318
963,491; 3364,273;    0,455;    1,136
964,043; 3239,000;    1,182;    2,409
964,596; 3374,091;   -1,000;    2,227
965,148; 3228,545;   -1,000;    1,773
965,700; 3133,545;    1,091;   -0,227
966,253; 3283,091;   -0,636;    0,318
966,805; 3126,818;   -2,273;    0,773
967,357; 3172,091;    1,091;   -1,500
967,909; 3122,364;    0,455;   -1,227
968,461; 3240,727;    0,545;    3,136
969,013; 3158,909;   -0,182;   -0,864
969,565; 3257,273;   -0,455;   -1,136
970,117; 3312,727;   -0,364;    1,045
970,669; 3135,182;    0,182;   -0,136
971,220; 2990,273;   -0,455;   -1,500
971,772; 2917,182;   -0,636;   -0,318
972,324; 3061,000;    0,091;   -0,500
972,876; 2995,455;    0,818;   -0,045
973,427; 3165,182;    1,909;   -1,045
973,979; 3090,364;   -0,727;   -2,500
974,530; 3117,545;    1,818;    1,318
975,082; 3146,727;   -0,545;    1,682
975,633; 3034,455;    1,091;    1,682
976,184; 3178,636;    0,909;    0,773
976,736; 2980,000;    0,091;    0,227
977,287; 2792,818;   -0,909;   -0,500
977,838; 2950,818;    0,909;   -0,318
978,389; 3016,818;   -1,000;   -0,500
978,940; 2884,182;    0,545;   -0,409
979,491; 2909,273;    0,091;   -0,500
980,042; 2890,545;    0,182;    3,045
980,593; 2933,727;   -2,545;    0,227
981,144; 2971,727;    2,545;   -0,500
981,695; 2942,273;    1,455;    1,500
982,246; 2904,636;   -0,273;    1,045
982,797; 3048,000;   -1,727;    0,682
983,347; 3168,545;    0,364;    0,591
983,898; 3351,545;    3,091;    0,409
984,449; 3165,455;    2,182;    0,773
984,999; 3056,909;    1,455;   -1,136
985,550; 2837,182;    0,182;   -0,318
986,100; 2874,818;   -0,455;   -0,318
986,651; 2904,364;   -0,818;    0,045
987,201; 2876,636;   -1,000;   -0,591
987,751; 2953,182;    0,818;    2,864
988,302; 2953,909;    2,636;    1,500
988,852; 2964,091;    0,455;   -1,136
989,402; 3022,636;    0,091;    0,682
989,952; 2937,182;   -2,182;    0,864
990,502; 3028,909;   -0,091;    0,682
991,052; 2989,909;   -0,727;    0,045
991,602; 2855,091;   -2,909;    1,318
992,152; 2867,818;    0,455;    0,682
992,702; 2836,000;    1,364;   -0,045
993,252; 2780,000;   -3,000;   -0,500
993,802; 2883,364;   -0,273;    1,318
994,352; 3097,091;   -1,545;    1,136
994,901; 3155,818;   -0,182;    3,227
995,451; 3075,636;   -0,182;    0,318
996,000; 3174,182;    1,636;    0,318
996,550; 2918,273;    2,273;    0,227
997,100; 2888,364;    1,273;   -0,045
997,649; 3167,455;    2,182;    0,955
998,198; 2806,091;    1,727;   -1,500
998,748; 3000,818;    1,091;   -2,318
999,297; 2915,273;   -0,818;   -0,409
999,846; 2967,182;    1,000;   -0,773
1000,395; 3003,182;   -0,818;    0,500
1000,945; 2959,000;    1,818;   -0,773
1001,494; 3068,182;    2,364;    0,682
1002,043; 3048,545;    4,636;    0,864
1002,592; 2869,636;   -1,091;    1,955
1003,141; 3046,455;   -0,455;   -0,682
1003,690; 2912,182;    1,727;    0,500
1004,238; 2972,000;    1,455;   -0,045
1004,787; 2609,455;    1,364;    1,227
1005,336; 2853,455;    0,364;    0,682
1005,885; 3007,636;    1,364;   -2,773
1006,433; 3124,545;    0,545;    0,955
1006,982; 3206,091;    0,455;    1,682
1007,531; 3097,909;   -1,818;   -0,227
1008,079; 3054,182;   -2,273;    0,500
1008,627; 3167,182;   -1,455;    0,409
1009,176; 2906,182;    0,000;   -1,955
1009,724; 2969,545;    1,091;    0,864
1010,273; 3014,182;    1,273;    0,500
1010,821; 3111,727;    0,091;    1,409
1011,369; 2866,273;   -1,364;    1,318
1011,917; 2852,909;   -1,364;   -0,591
1012,465; 3137,091;    1,273;   -1,591
1013,013; 3234,273;    2,091;   -1,682
1013,561; 3124,182;    0,455;   -0,773
1014,109; 3193,364;   -1,909;    1,682
1014,657; 3060,455;    0,364;    0,591
1015,205; 3153,818;    1,636;   -0,955
1015,753; 3181,182;   -0,545;   -1,409
1016,301; 3231,000;   -2,636;    3,045
1016,848; 3233,545;   -1,273;    0,409
1017,396; 3279,455;    2,545;    0,045
1017,944; 3402,545;    1,182;    1,864
1018,491; 3148,273;    0,273;    1,409
1019,039; 3298,636;    0,455;    0,591
1019,586; 3195,727;   -1,364;    1,682
1020,134; 3303,455;    0,455;    1,500
1020,681; 3344,727;    0,182;   -1,136
1021,228; 3364,000;    2,909;   -2,227
1021,776; 3176,364;    1,182;   -1,136
1022,323; 3410,727;    0,455;    0,773
1022,870; 3350,000;   -1,000;   -0,045
1023,417; 3227,455;    2,636;    1,864
1023,964; 3380,727;    2,636;    1,227
1024,511; 3214,000;    1,000;    0,773
1025,058; 3018,909;    3,182;   -0,045
1025,605; 3070,364;   -2,273;    3,136
1026,152; 3296,636;    1,727;   -0,591
1026,699; 3026,909;    1,818;    1,318
1027,245; 3172,182;   -0,091;    0,318
1027,792; 3367,000;   -1,000;    1,409
1028,339; 3269,000;    2,364;   -0,045
1028,885; 3137,273;    1,000;   -0,227
1029,432; 3058,545;   -0,091;    0,227
1029,978; 3118,818;   -1,000;   -1,591
1030,525; 3014,727;    1,000;    0,409
1031,071; 3242,000;   -1,364;    1,136
1031,618; 3366,455;    0,364;    1,682
1032,164; 3134,545;   -0,091;    3,045
1032,710; 3186,636;    1,636;   -1,500
1033,256; 3094,091;   -0,636;   -0,136
1033,803; 3076,818;   -0,545;    1,500
1034,349; 2802,364;   -1,364;    0,136
1034,895; 2942,727;    0,000;   -0,318
1035,441; 2926,545;   -0,818;    0,318
1035,987; 2955,000;   -2,364;   -0,682
1036,533; 2940,000;   -1,455;   -0,955
1037,078; 3166,636;    1,455;    1,682
1037,624; 2965,727;    2,455;   -0,955
1038,170; 2991,909;    0,455;   -0,318
1038,716; 2902,273;    1,636;   -0,409
1039,261; 2817,182;   -2,273;   -0,773
1039,807; 2762,364;   -0,091;    3,409
1040,352; 2816,545;   -1,909;   -0,318
1040,898; 2873,182;   -1,545;   -0,682
1041,443; 2772,273;   -1,455;   -2,591
1041,989; 2800,000;    1,091;    1,591
1042,534; 2665,636;   -0,364;    2,591
1043,079; 2787,273;    2,909;    0,955
1043,625; 2583,636;    1,818;    0,500
1044,170; 2624,545;   -1,364;    1,045
1044,715; 2888,909;    2,455;    0,955
1045,260; 2710,727;    2,182;   -0,955
1045,805; 2740,273;    1,182;   -0,591
1046,350; 2667,091;    1,364;   -0,409
1046,895; 2644,909;    2,909;    1,591
1047,440; 2594,636;    5,364;    0,409
1047,985; 2476,636;    2,818;   -0,955
1048,530; 2399,273;    1,545;    1,227
1049,074; 2478,636;    0,000;    0,318
1049,619; 2438,000;   -1,364;    1,955
1050,164; 2248,000;    0,455;    0,227
1050,708; 2283,818;   -0,455;    0,045
1051,253; 2674,273;    1,273;   -2,227
1051,797; 2380,182;    0,818;   -1,318
1052,342; 2374,818;   -1,182;    1,045
1052,886; 2387,909;    0,364;   -1,409
1053,430; 2239,545;   -1,364;    0,136
1053,975; 2258,909;   -0,818;   -0,318
1054,519; 2256,364;   -0,727;    3,227
1055,063; 2276,091;    0,909;    1,318
1055,607; 2154,000;   -0,182;    0,227
1056,151; 2174,909;    2,909;    1,682
1056,695; 2095,364;    2,273;   -1,136
1057,239; 2169,818;   -1,727;   -0,682
1057,783; 2178,818;    0,818;   -1,500
1058,327; 2125,273;    0,000;    1,409
1058,871; 2346,909;   -0,545;    1,318
1059,415; 2065,182;   -0,818;   -0,045
1059,958; 2337,091;    1,455;    2,591
1060,502; 2047,000;   -1,000;   -0,773
1061,046; 1944,727;    0,364;   -0,955
1061,589; 1925,091;   -3,000;   -1,136
1062,133; 1803,182;   -1,273;    1,864
1062,676; 1764,000;    1,182;    0,864
1063,220; 1749,364;    1,091;    0,500
1063,763; 1768,182;    0,909;    1,136
1064,306; 1868,091;   -0,909;    1,864
1064,849; 1745,909;   -0,909;    0,591
1065,393; 1746,273;    2,000;   -1,500
1065,936; 1860,909;    0,182;   -0,409
1066,479; 1745,000;   -1,455;    1,318
1067,022; 1774,091;   -0,273;   -0,227
1067,565; 1662,636;   -0,091;   -1,318
1068,108; 1689,909;    0,727;   -0,591
1068,651; 1668,909;   -0,636;    1,409
1069,194; 1591,636;   -0,455;   -1,682
1069,736; 1615,636;   -1,273;    0,955
1070,279; 1576,455;   -1,364;   -0,500
1070,822; 1620,818;   -2,000;   -0,318
1071,364; 1736,364;   -0,364;    1,318
1071,907; 1536,818;   -0,727;    3,227
1072,450; 1426,091;    0,000;   -0,045
1072,992; 1434,818;   -0,273;    3,136
1073,535; 1586,364;    2,091;    2,136
1074,077; 1379,182;   -0,727;    2,045
1074,619; 1343,727;   -1,364;    0,591
1075,161; 1371,455;   -1,091;    1,500
1075,704; 1568,091;    1,545;    1,227
1076,246; 1342,636;   -0,182;    0,682
1076,788; 1269,818;   -0,364;    1,773
1077,330; 1350,273;    1,273;    2,136
1077,872; 1321,455;    0,909;    0,955
1078,414; 1561,273;    2,727;    0,773
1078,956; 1289,000;    1,273;   -0,227
1079,498; 1561,182;    1,636;    0,318
1080,040; 1259,727;    1,909;   -1,318
1080,581; 1191,000;    1,636;   -0,318
1081,123; 1110,182;    0,091;   -0,773
1081,665; 1165,727;   -1,182;   -0,955
1082,206; 1475,818;    1,364;   -0,500
1082,748; 1317,727;    0,727;    2,045
1083,289; 1192,545;   -2,000;    1,318
1083,831; 1101,818;   -0,545;    0,227
1084,372; 1148,000;    0,000;    0,591
1084,913; 1150,636;    1,091;    0,864
1085,455; 1103,182;   -1,909;   -2,045
1085,996; 1088,455;   -2,273;    0,136
1086,537; 1109,636;   -0,091;    0,864
1087,078; 1154,273;   -0,909;   -2,136
1087,619; 1191,091;   -1,273;    0,227
1088,160; 1099,182;    0,000;    1,318
1088,701; 1084,909;   -1,091;    0,682
1089,242; 1026,091;    1,364;   -2,227
1089,783; 1122,364;   -0,273;    1,409
1090,324; 1091,091;    0,455;    0,682
1090,865;  958,091;    2,727;   -0,409
1091,405;  933,818;    0,727;    2,227
1091,946;  957,091;    0,182;   -0,955
1092,487;  872,818;    0,818;   -1,409
1093,027; 1066,455;   -1,364;   -1,500
1093,568;  918,091;   -0,364;    1,227
1094,108; 1022,182;    0,273;    1,773
1094,649;  951,909;   -1,182;    0,136
1095,189;  878,818;   -0,636;   -0,682
1095,729;  838,000;   -0,091;    0,955
1096,269;  838,182;    0,727;   -0,955
1096,810; 1155,636;   -1,364;    0,500
1097,350;  987,273;    1,364;   -0,773
1097,890;  885,818;    0,364;    1,227
1098,430; 1149,091;    2,364;    2,864
1098,970; 1020,727;    2,182;    1,682
1099,510;  873,091;    0,545;   -2,318
1100,050;  803,545;    1,000;   -1,591
1100,589;  762,727;   -0,727;   -0,318
1101,129;  897,273;    0,818;   -0,955
1101,669; 1068,545;    1,727;    2,136
1102,209;  887,909;   -0,091;    2,227
1102,748;  828,000;    0,000;    0,955
1103,288;  814,545;    1,273;   -1,227
1103,827;  844,182;    3,091;   -2,227
1104,367;  712,455;   -0,091;   -2,409
1104,906;  681,364;    1,364;   -1,136
1105,445;  754,273;    0,636;   -1,136
1105,985;  698,545;   -0,727;    1,500
1106,524;  758,000;   -1,727;   -0,682
1107,063;  733,091;   -2,727;    1,409
1107,602;  695,273;   -1,909;   -1,500
1108,141;  615,273;   -1,909;    1,500
1108,680;  730,000;   -3,455;   -0,591
1109,219;  659,000;   -0,909;   -0,500
1109,758;  661,364;    0,455;    0,682
1110,297;  631,727;    1,000;   -0,682
1110,836;  588,091;   -0,727;    0,955
1111,375;  762,000;   -2,545;    0,409
1111,913;  766,000;   -1,000;    0,773
1112,452;  693,909;   -0,273;    0,136
1112,991;  574,182;    1,091;    1,955
1113,529;  529,364;   -0,818;   -0,045
1114,068;  606,364;   -0,273;    2,955
1114,606;  512,182;   -0,364;   -0,955
1115,144;  682,818;   -1,273;    1,045
1115,683;  608,909;   -0,727;    0,318
1116,221;  653,909;   -0,455;   -0,864
1116,759;  563,091;    0,636;   -0,864
1117,297;  773,909;    0,000;    1,864
1117,836;  572,182;   -2,182;   -1,227
1118,374;  577,273;    0,182;   -0,682
1118,912;  515,455;    0,909;    2,682
1119,450;  520,091;    1,000;    0,864
1119,988;  561,909;    1,545;    2,136
1120,525; 1028,091;    5,091;    3,318
1121,063;  719,364;    1,182;    1,864
1121,601;  522,455;   -0,909;   -1,227
1122,139;  481,364;   -0,727;   -2,045
1122,676;  685,818;   -0,727;    2,773
1123,214;  606,727;   -1,182;    4,409
1123,751;  416,091;    1,727;    2,227
1124,289;  560,273;   -0,091;   -0,409
1124,826;  418,545;    1,727;    0,227
1125,364;  338,636;    1,727;   -0,955
1125,901;  530,091;    1,182;    1,227
1126,438;  649,636;    0,818;    0,955
1126,975;  368,727;   -0,727;   -0,773
1127,513;  443,273;    0,273;    2,136
1128,050;  349,273;    1,636;   -0,682
1128,587;  458,091;    2,000;   -0,227
1129,124;  500,364;    0,091;    1,318
1129,661;  362,545;    0,273;    0,227
1130,198;  539,909;    1,636;    0,773
1130,734;  477,182;    0,182;    1,409
1131,271;  334,636;   -0,909;    0,864
1131,808;  496,182;    2,909;    3,045
1132,345;  366,273;    1,545;    0,318
1132,881;  240,364;   -1,545;   -1,864
1133,418;  384,727;    0,727;   -1,136
1133,954;  313,273;    2,455;   -2,682
1134,491;  405,909;    1,364;   -0,773
1135,027;  298,091;    2,364;    0,864
1135,564;  390,636;    0,273;    2,955
1136,100;  362,091;    0,364;    2,136
1136,636;  254,364;   -1,273;   -1,045
1137,172;  364,364;    0,000;   -1,045
1137,708;  268,364;   -1,364;   -1,045
1138,245;  283,909;    1,273;   -1,227
1138,781;  225,364;    1,091;   -3,318
1139,317;  300,909;    1,273;   -1,409
1139,852;  292,182;    3,091;    0,136
1140,388;  417,727;   -1,182;   -0,409
1140,924;  294,091;   -1,091;   -2,227
1141,460;  228,727;   -1,636;    0,136
1141,996;  159,727;   -1,364;    2,682
1142,531;  213,818;    1,364;    3,318
1143,067;  433,273;    1,182;    1,045
1143,602;  500,182;   -0,091;   -0,318
1144,138;  335,818;   -2,636;    1,045
1144,673;  190,909;   -1,455;    1,409
1145,209;  261,909;   -1,909;   -0,318
1145,744;  179,818;   -0,727;    0,864
1146,279;  329,364;    1,818;   -0,136
1146,815;  231,273;    1,545;   -2,682
1147,350;  270,909;   -1,364;    0,045
1147,885;  179,545;   -0,818;   -1,318
1148,420;  192,818;   -2,273;    0,773
1148,955;  164,818;   -1,727;    1,864
1149,490;  200,273;   -0,909;   -1,591
1150,025;  172,091;    0,455;   -1,773
1150,560;  296,091;    1,091;   -0,955
1151,094;  251,364;    1,455;   -0,591
1151,629;  257,364;    1,636;    0,864
1152,164;  190,545;    1,364;    1,318
1152,698;  145,727;   -0,182;   -0,136
1153,233;  107,818;    0,091;   -0,682
1153,767;  157,000;   -3,000;   -2,318
1154,302;  208,545;   -1,455;    1,773
1154,836;  208,636;   -0,455;   -2,136
1155,371;  266,364;   -1,364;    3,682
1155,905;  209,364;   -0,636;    1,682
1156,439;  173,636;   -0,636;   -0,500
1156,973;  211,273;    0,364;    0,318
1157,507;  142,000;   -0,364;    0,682
1158,042;  175,818;   -0,727;    1,045
1158,576;  225,818;    0,182;    1,773
1159,110;  211,636;   -0,818;    2,409
1159,643;  178,364;    0,636;   -0,045
1160,177;  114,455;   -1,545;    1,500

