
Integration time [ms]:   0,040
Averaging Nr. [scans]: 11
Smoothing Nr. [pixels]: 0
Data measured with spectrometer [name]: 7318044SP
Wave   ;Sample   ;Dark     ;Reference
[nm]   ;[counts] ;[counts] ;[counts] 

186,757;   18,265;   31,551;    1,318
187,357;   54,574;   22,551;    0,955
187,958;   34,101;   15,460;   -1,591
188,558;   79,805;    8,915;   -1,227
189,159;   43,038;    6,733;   -4,500
189,759;   21,822;    7,278;   -3,591
190,360;   13,926;    2,824;   -2,136
190,960;   56,691;    2,915;   -4,136
191,560;   67,501;    3,189;   -6,591
192,161;  321,244;    4,372;   -3,500
192,761;  158,813;    4,010;   -3,227
193,361;   96,966;    1,556;   -3,773
193,962;  140,257;    2,010;   -2,682
194,562;   64,470;    1,189;   -3,955
195,162;   92,330;   -2,448;   -2,227
195,762;  256,277;   -3,176;   -0,045
196,362;  200,043;    1,370;   -2,500
196,963;   62,219;    2,006;   -0,864
197,563;  133,535;    1,551;   -0,955
198,163;   73,224;    0,096;   -0,682
198,763;   87,746;    1,733;   -0,500
199,363;  181,270;    3,096;   -0,500
199,963;  146,645;    0,369;    0,409
200,563;  117,172;    2,823;   -1,409
201,163;   99,073;    3,277;   -0,227
201,763;  188,148;    3,732;    0,318
202,363;  121,145;    1,459;    1,500
202,963;  207,895;    1,459;    1,045
203,563;  319,346;    0,277;    0,500
204,162;  172,086;    2,096;   -1,864
204,762;  172,405;    0,550;    0,591
205,362;  126,229;    3,004;    1,955
205,962;  212,160;    3,096;    1,955
206,562;  216,959;    1,823;    2,318
207,161;  187,682;   -0,087;    0,318
207,761;  338,445;    1,277;    2,409
208,361;  218,820;   -0,268;    1,409
208,960;  307,551;    0,459;    1,500
209,560;  359,688;    1,277;    1,591
210,160;  344,097;    0,550;    1,864
210,759;  304,460;    4,186;    1,227
211,359;  318,190;    1,459;    1,045
211,958;  563,289;    1,277;    2,045
212,558;  643,179;    1,732;    1,864
213,157;  482,766;    1,822;    1,500
213,757;  886,573;    3,822;   -0,227
214,356;  598,644;    1,277;   -0,409
214,956;  905,884;    3,095;    0,409
215,555;  551,589;    2,095;    2,136
216,154;  494,256;   -2,723;   -0,591
216,754;  496,977;    0,277;    0,773
217,353;  615,061;   -0,268;   -1,045
217,952;  469,897;   -0,178;    0,318
218,552;  710,355;    1,368;   -0,773
219,151;  584,516;    0,277;    0,955
219,750;  569,730;    0,004;   -0,227
220,349;  637,521;   -0,451;    1,045
220,948;  750,021;   -1,360;    1,136
221,548;  703,790;    0,913;    1,227
222,147;  799,260;   -0,087;   -0,409
222,746; 1073,920;   -0,451;   -0,955
223,345;  922,027;    0,731;    0,500
223,944;  929,299;   -0,451;    0,773
224,543; 1051,712;    1,004;   -1,409
225,142; 1166,423;    0,094;    0,136
225,741; 1036,108;   -0,814;    1,045
226,340; 1031,246;   -0,451;   -0,955
226,939; 1424,890;   -0,996;   -0,136
227,538; 1244,948;   -0,360;   -0,773
228,137; 1426,106;   -0,814;    0,864
228,735; 1439,376;   -0,541;    1,227
229,334; 1209,278;   -0,905;   -0,227
229,933; 1569,529;    0,459;    0,591
230,532; 1663,491;    1,186;   -0,409
231,131; 1725,679;    1,732;    0,318
231,729; 1683,968;   -2,450;   -2,318
232,328; 1654,018;   -0,723;   -1,500
232,927; 1655,810;    1,004;   -0,500
233,525; 1707,612;    3,640;    0,045
234,124; 1868,096;    2,368;   -1,591
234,723; 1804,212;    0,913;   -1,045
235,321; 1866,778;    2,277;    0,136
235,920; 1997,335;    1,186;   -1,227
236,518; 2232,263;    3,459;    0,318
237,117; 2202,944;    0,004;   -0,227
237,715; 2290,341;    0,640;   -0,500
238,314; 2346,046;   -0,087;   -2,318
238,912; 2510,986;   -0,723;   -1,409
239,510; 2452,428;    0,459;   -1,227
240,109; 2631,634;    0,004;    3,773
240,707; 2609,800;   -0,996;    1,227
241,305; 2778,127;    0,550;    0,136
241,904; 2990,309;   -0,178;   -2,045
242,502; 3049,954;   -0,632;   -0,227
243,100; 2983,607;   -0,087;   -0,955
243,698; 3199,459;    0,732;    1,682
244,297; 3363,372;   -0,632;    0,682
244,895; 3306,589;   -0,269;   -2,318
245,493; 3625,408;    2,186;   -0,591
246,091; 3655,818;    1,368;   -1,318
246,689; 3650,633;    1,004;    0,591
247,287; 3813,326;    0,822;   -1,136
247,885; 4072,208;   -1,451;    1,227
248,483; 4184,201;    1,822;   -0,500
249,081; 4336,965;    0,185;    1,591
249,679; 4520,983;   -0,178;    1,682
250,277; 4785,913;   -1,723;    0,864
250,875; 4826,520;   -1,087;   -1,045
251,473; 4845,979;   -1,178;    0,500
252,071; 5057,837;    1,459;    1,045
252,669; 5215,389;   -1,814;    0,318
253,267; 5449,225;   -0,087;    0,773
253,864; 5413,781;   -0,360;    0,682
254,462; 5400,562;    1,640;    1,591
255,060; 5339,546;   -0,269;    1,318
255,658; 5644,026;    0,822;   -0,136
256,255; 6066,596;    0,186;   -2,045
256,853; 5962,026;   -0,269;    1,409
257,451; 5969,129;    0,822;    1,864
258,048; 6281,113;    1,822;    1,864
258,646; 6020,014;    1,731;   -1,045
259,243; 6215,117;   -0,087;    2,227
259,841; 6284,998;   -0,814;    0,318
260,438; 6208,453;   -0,087;    0,864
261,036; 6828,225;   -1,905;    1,409
261,633; 6748,487;   -0,087;    2,227
262,231; 6523,684;    2,731;   -0,045
262,828; 6644,112;   -0,905;    1,136
263,425; 6708,288;    0,913;   -0,591
264,023; 6978,183;    0,186;    0,045
264,620; 6589,735;   -0,360;   -0,318
265,217; 6946,665;   -2,087;    3,136
265,815; 7016,049;   -1,905;    2,136
266,412; 6889,399;    0,731;    0,136
267,009; 6935,853;   -1,451;    0,773
267,606; 6881,377;    0,822;   -0,955
268,203; 6826,360;   -0,269;   -0,591
268,801; 7096,963;    1,731;    0,591
269,398; 7352,613;   -0,360;    2,500
269,995; 7333,748;    0,277;    1,591
270,592; 7147,946;   -0,632;   -0,500
271,189; 7302,462;    0,186;    0,409
271,786; 7431,050;   -0,632;    1,227
272,383; 7318,322;   -1,087;    0,227
272,980; 7474,101;    0,277;    0,318
273,577; 7884,544;    0,004;    1,227
274,174; 7438,861;    0,822;    2,591
274,771; 7443,844;   -0,814;   -0,773
275,367; 7593,995;    2,277;    1,409
275,964; 7589,006;    0,731;   -0,500
276,561; 7651,126;    1,549;   -1,045
277,158; 7840,347;    0,095;   -1,773
277,755; 7964,510;    2,185;    0,409
278,351; 7399,283;   -0,451;   -1,500
278,948; 7705,930;   -0,815;    0,045
279,545; 7702,560;   -1,360;    2,318
280,141; 8335,934;   -1,723;   -2,045
280,738; 8196,565;   -0,451;   -0,136
281,334; 8372,249;   -1,633;    0,591
281,931; 7834,141;   -0,087;   -1,318
282,528; 7954,975;    0,822;   -0,500
283,124; 8623,380;   -1,087;   -0,500
283,721; 8524,401;   -0,451;    1,409
284,317; 8341,389;    0,185;    2,500
284,913; 8880,285;   -1,360;    0,591
285,510; 9083,285;    0,640;   -0,318
286,106; 9144,758;   -2,269;   -0,955
286,703; 8780,071;   -0,360;    1,955
287,299; 8973,816;   -1,451;   -0,591
287,895; 9149,766;    0,822;   -1,045
288,491; 9695,976;    0,186;    2,136
289,088; 9504,519;   -2,360;    2,409
289,684; 9640,480;   -1,723;    1,500
290,280; 9674,288;    0,368;    0,682
290,876; 9774,064;    1,822;    5,500
291,472; 9705,106;    1,276;    2,227
292,068; 9857,219;    1,367;    0,227
292,665; 9588,907;    2,095;    0,773
293,261; 9292,651;    0,276;    2,136
293,857; 9689,827;    2,913;    2,136
294,453; 9663,981;    3,550;    0,955
295,049; 9598,777;   -0,268;    1,955
295,644; 9651,835;    0,095;    0,136
296,240; 9630,204;   -0,905;   -0,136
296,836; 9688,497;   -0,995;    0,318
297,432;10001,107;    1,096;   -0,500
298,028;10095,897;    0,732;    0,773
298,624;10485,325;    1,459;    1,864
299,220;10741,628;    2,368;    0,591
299,815;10458,184;    1,005;   -0,409
300,411;10343,959;    0,914;    1,773
301,007;10337,160;    1,368;    0,227
301,602;10378,836;   -0,541;   -2,318
302,198;10555,310;    0,732;   -0,773
302,794;10901,133;    1,187;   -0,500
303,389;11024,415;   -1,177;    1,045
303,985;11138,121;    0,550;    1,409
304,580;11122,312;    1,459;    1,591
305,176;11056,473;   -3,086;    0,136
305,771;10979,715;   -1,268;   -1,227
306,367;10885,887;    4,095;    0,136
306,962;11216,199;    0,641;    1,500
307,558;10970,228;   -0,450;    0,136
308,153;10864,658;    1,095;   -1,136
308,748;11071,516;   -0,814;    1,682
309,344;11080,010;   -0,632;   -1,318
309,939;11142,649;   -1,905;   -1,318
310,534;11361,693;   -0,086;   -1,682
311,130;11269,582;    0,459;   -2,500
311,725;10999,699;    1,004;   -0,500
312,320;11293,265;    2,459;    0,045
312,915;11159,696;    1,459;   -1,045
313,510;11218,551;    1,550;   -0,500
314,105;11672,628;    1,096;    1,409
314,700;11056,835;   -3,086;   -1,045
315,295;10705,312;   -0,904;    0,045
315,890;10324,466;    1,277;    0,864
316,485;10632,614;   -0,359;   -0,318
317,080;10692,206;   -3,086;    1,591
317,675;11240,541;    2,005;   -0,682
318,270;10693,781;    5,550;    3,318
318,865;10686,505;    3,278;    3,045
319,460;10477,441;   -0,904;    0,591
320,055;10669,809;   -0,541;   -1,227
320,650;10331,488;   -1,995;   -0,591
321,244;10371,006;   -0,177;   -1,409
321,839;11264,845;   -1,541;   -0,227
322,434;11120,174;   -1,086;   -1,591
323,029;10780,555;    1,732;    1,591
323,623;10600,062;    1,550;    0,773
324,218;10433,897;    2,368;    1,409
324,812;10304,772;    1,096;    1,591
325,407;10133,350;   -0,814;    2,045
326,002;10069,688;    0,277;   -0,409
326,596;10354,189;    0,914;    1,318
327,191;10551,945;    0,823;   -1,045
327,785;10178,189;   -0,813;   -0,227
328,379;10425,886;    1,368;    0,136
328,974;10240,917;    0,914;   -3,955
329,568;10486,716;    0,186;   -2,409
330,163;10328,866;    2,096;    1,045
330,757;10719,592;    2,459;    1,591
331,351;10077,498;    0,459;    0,682
331,945;10401,857;    0,914;    1,409
332,540;10047,319;   -1,723;   -0,591
333,134;10241,386;   -1,086;    0,773
333,728;10472,106;    0,005;    0,318
334,322;10782,183;   -1,177;   -0,864
334,916;10105,844;    0,277;    0,955
335,510;10474,432;   -0,450;   -0,136
336,105;10742,400;   -1,086;    1,591
336,699;10536,510;   -1,086;    0,591
337,293;10450,261;   -1,723;    0,318
337,887;10668,478;   -2,723;    1,955
338,481;10770,074;    0,459;    0,591
339,074;10941,841;   -0,359;    2,682
339,668;10811,339;   -1,632;    1,227
340,262;11091,875;    1,732;    3,227
340,856;10595,208;    1,822;   -0,682
341,450;10000,387;    1,004;    1,864
342,044;10896,352;    1,459;    0,136
342,637;10708,361;    0,913;   -2,136
343,231;10624,737;   -2,360;    0,682
343,825;10566,235;   -1,086;   -0,591
344,419;10564,058;   -1,995;    0,500
345,012;10379,970;    2,459;    4,045
345,606;10414,010;    4,641;    1,591
346,199;10291,545;   -1,813;   -0,227
346,793; 9863,862;    1,914;    2,045
347,386;10019,465;   -0,813;   -1,136
347,980;10030,673;   -0,268;   -0,045
348,573; 9832,772;    2,278;    0,409
349,167; 9550,138;    5,278;    4,773
349,760; 9887,630;    2,914;    2,682
350,354; 9877,784;   -0,813;    1,136
350,947; 9667,519;    1,096;    1,682
351,540; 9362,362;   -0,358;   -1,409
352,134; 9254,571;    1,096;    1,136
352,727; 9336,475;   -0,086;    1,136
353,320; 9119,618;    0,005;    0,591
353,913; 8965,305;   -1,995;    1,864
354,507; 9166,685;    0,823;   -1,227
355,100; 9180,302;    0,460;    0,864
355,693; 8473,002;    2,005;    2,409
356,286; 8508,658;    0,823;    2,773
356,879; 8849,909;   -0,722;    1,227
357,472; 8436,950;   -0,904;    1,500
358,065; 8618,686;   -0,722;    2,500
358,658; 8537,997;   -0,540;    2,318
359,251; 8227,822;   -1,631;   -0,591
359,844; 7733,586;   -1,904;   -1,136
360,437; 7916,459;   -2,995;    0,045
361,030; 8146,336;    1,369;   -0,682
361,623; 7758,554;    2,824;    0,318
362,215; 7811,162;   -0,086;    2,045
362,808; 7610,727;   -2,358;   -1,682
363,401; 7809,860;   -2,449;    0,136
363,994; 7557,164;   -0,631;   -1,500
364,586; 7461,194;    0,824;   -1,500
365,179; 7678,167;   -0,449;   -1,136
365,772; 7169,990;   -1,995;    2,045
366,364; 7462,503;    1,915;   -3,227
366,957; 7647,357;    2,279;   -0,045
367,549; 7648,895;    2,188;   -0,864
368,142; 7301,179;    1,825;   -1,500
368,734; 7528,778;    0,734;   -2,136
369,327; 7449,717;    1,643;   -0,500
369,919; 7354,308;   -1,538;    0,409
370,512; 7196,913;   -1,083;   -0,500
371,104; 6970,880;   -0,901;    1,591
371,696; 7110,040;    1,191;   -0,955
372,289; 7201,898;    0,373;    1,136
372,881; 7349,506;   -2,080;    1,318
373,473; 7270,573;   -2,170;    1,136
374,066; 7090,926;   -0,169;    0,500
374,658; 6924,107;    0,378;    1,136
375,250; 7265,051;    0,653;   -1,409
375,842; 7117,174;    0,473;   -0,045
376,434; 7017,705;   -0,435;   -0,409
377,026; 7536,038;    0,204;   -2,500
377,618; 7442,800;   -0,158;   -0,682
378,210; 7273,474;   -0,338;   -1,955
378,802; 7118,571;    0,754;   -0,591
379,394; 7121,911;    1,846;    0,682
379,986; 7671,658;    1,393;   -0,955
380,578; 7734,537;   -0,153;    0,773
381,170; 7101,787;   -0,972;    0,045
381,762; 7082,199;    0,755;    1,409
382,354; 7239,690;   -0,065;   -1,318
382,945; 7365,312;   -2,976;    0,318
383,537; 7514,966;   -2,705;   -1,955
384,129; 7547,574;   -2,160;   -1,136
384,721; 7726,725;   -0,252;    0,955
385,312; 7626,517;   -0,161;   -0,955
385,904; 7719,936;   -2,706;    1,591
386,496; 7093,918;   -0,979;    1,045
387,087; 7260,450;    1,022;    2,500
387,679; 7278,994;   -1,160;    0,045
388,270; 7404,194;    2,840;    2,045
388,862; 7519,458;    1,295;   -0,318
389,453; 7412,244;   -0,887;    1,045
390,045; 7678,758;   -0,705;   -2,682
390,636; 7599,095;    0,204;   -0,591
391,227; 7451,658;   -0,523;   -0,045
391,819; 7562,440;    0,204;    0,773
392,410; 7658,121;    1,022;    0,045
393,001; 7596,016;   -0,979;   -1,591
393,593; 7863,731;    1,930;   -0,045
394,184; 7702,568;    1,385;   -0,409
394,775; 7621,148;    1,839;    2,136
395,366; 7819,729;    1,385;    0,773
395,957; 7804,977;    0,113;    0,136
396,548; 8110,515;   -0,342;    2,682
397,139; 8430,387;   -2,433;    0,591
397,730; 8149,418;   -1,888;    0,955
398,321; 8176,404;   -1,252;    0,955
398,912; 8210,552;   -0,615;    0,136
399,503; 8291,486;   -3,524;   -1,409
400,094; 7754,205;    0,294;    1,682
400,685; 7610,877;   -0,433;    0,045
401,276; 7694,670;    0,930;   -0,955
401,867; 7983,639;   -0,888;    0,773
402,458; 8059,905;   -2,251;   -2,318
403,048; 8048,753;    1,112;    0,591
403,639; 7639,836;    0,840;    0,864
404,230; 7893,972;    2,476;    0,318
404,821; 7844,940;   -0,615;    0,045
405,411; 7942,302;    1,203;   -2,591
406,002; 7560,518;   -1,252;   -1,136
406,592; 7431,961;    2,294;    0,045
407,183; 7692,371;    0,566;   -1,500
407,774; 7577,752;    3,475;   -0,136
408,364; 7912,147;    0,930;    0,409
408,954; 7517,060;    0,384;    1,227
409,545; 7571,868;    1,021;    1,045
410,135; 7119,958;    1,293;    0,500
410,726; 7261,421;    1,838;    0,318
411,316; 7622,639;    0,111;    0,773
411,906; 7267,831;   -0,253;   -0,409
412,497; 6790,744;   -1,070;   -0,045
413,087; 7346,723;   -1,980;   -0,227
413,677; 7673,271;   -0,707;    3,864
414,267; 7529,409;    0,656;    1,409
414,857; 7504,610;   -2,980;    4,227
415,448; 7743,770;    0,839;    0,500
416,038; 7442,545;    0,020;   -0,591
416,628; 7384,807;   -0,889;    0,409
417,218; 6877,002;    0,565;    3,318
417,808; 7097,476;    0,202;   -0,409
418,398; 7501,601;    0,020;    2,682
418,988; 7494,495;    2,020;    0,591
419,578; 7697,259;   -0,707;    1,409
420,168; 7968,565;   -1,343;   -0,955
420,757; 7605,620;   -1,343;   -1,500
421,347; 7251,474;    0,111;   -0,227
421,937; 7376,951;    2,292;    1,409
422,527; 7334,537;    0,838;   -0,773
423,116; 7112,629;   -0,253;   -0,045
423,706; 7373,276;   -1,889;    0,318
424,296; 7313,997;    1,384;    0,682
424,885; 7727,269;   -0,071;   -3,045
425,475; 7912,226;    1,474;   -2,864
426,065; 7781,615;   -0,980;   -0,318
426,654; 7420,445;   -0,435;   -0,318
427,244; 7576,543;    0,020;    1,409
427,833; 7007,521;    1,383;   -0,500
428,423; 7393,106;   -0,526;    1,136
429,012; 8061,737;   -0,344;   -1,136
429,601; 7566,723;   -1,344;    0,136
430,191; 7751,762;    1,292;    4,318
430,780; 7374,899;   -0,344;   -0,409
431,369; 7316,908;    0,746;   -0,045
431,959; 7854,046;   -1,254;    0,500
432,548; 7587,450;   -1,163;   -0,045
433,137; 7601,125;   -1,254;   -1,318
433,726; 8101,187;    0,292;    0,500
434,315; 7502,821;   -0,526;    2,409
434,905; 7547,617;   -1,254;    1,409
435,494; 7414,493;    0,746;    0,955
436,083; 7787,626;   -0,981;   -0,955
436,672; 7603,119;    0,110;    0,500
437,261; 7214,067;    0,292;   -1,955
437,850; 7309,004;    1,383;    0,682
438,439; 7269,909;    3,291;    1,955
439,027; 7094,662;    3,655;    1,773
439,616; 7319,575;    2,927;    1,227
440,205; 7089,483;    0,200;   -2,136
440,794; 7062,500;    2,109;   -0,045
441,383; 7203,185;   -1,346;   -0,591
441,971; 7015,718;   -2,436;    0,591
442,560; 6846,644;    0,563;   -1,773
443,149; 6589,212;    0,379;   -1,318
443,737; 6670,009;   -0,074;   -2,318
444,326; 6827,835;    0,018;    0,318
444,915; 6795,033;   -1,982;    0,864
445,503; 7049,361;   -2,891;   -0,318
446,092; 6428,114;    0,382;    2,136
446,680; 6807,071;    0,382;    0,318
447,269; 6858,614;   -0,346;   -0,318
447,857; 6606,405;    0,018;   -1,773
448,445; 6646,550;    0,563;    1,318
449,034; 6770,653;   -1,528;   -1,136
449,622; 6775,201;   -1,073;    3,500
450,210; 6203,429;    2,017;    2,227
450,799; 6608,179;    0,290;   -0,591
451,387; 6454,054;    1,381;   -0,591
451,975; 6165,019;    2,654;    0,864
452,563; 6258,021;    3,472;    2,318
453,151; 6147,205;   -0,528;   -1,227
453,739; 5999,213;   -1,347;    0,136
454,328; 5901,231;    2,381;   -2,136
454,916; 5616,768;    2,562;   -0,136
455,504; 5681,570;    1,017;    1,227
456,092; 5751,742;    0,017;   -1,591
456,679; 5669,538;    1,472;    0,682
457,267; 5784,056;    4,017;    1,045
457,855; 5688,700;    1,017;    1,409
458,443; 5357,958;   -0,165;    1,682
459,031; 5540,819;    0,108;    2,409
459,619; 5806,110;   -1,801;    2,864
460,206; 5768,079;    0,835;    2,045
460,794; 5818,792;   -2,983;   -0,227
461,382; 5939,646;   -0,529;   -0,864
461,970; 5592,584;    1,198;    1,864
462,557; 5594,518;   -0,711;   -0,682
463,145; 5728,087;   -3,165;   -1,682
463,732; 5793,371;    2,016;   -1,045
464,320; 5637,934;   -0,075;   -3,045
464,907; 5427,328;    2,743;   -0,773
465,495; 5265,450;    0,743;   -1,227
466,082; 5314,229;   -1,984;   -0,045
466,670; 5136,605;   -2,529;    1,227
467,257; 5448,000;   -1,711;    2,045
467,844; 5591,879;   -0,075;    0,045
468,432; 5565,287;    0,834;    3,500
469,019; 5165,345;    0,925;   -1,773
469,606; 5427,444;    0,470;    3,682
470,193; 5272,346;   -1,439;    0,227
470,780; 5019,313;   -2,075;    0,864
471,368; 5168,220;   -1,257;   -0,773
471,955; 4938,373;    1,379;   -0,682
472,542; 4620,487;    0,652;   -1,136
473,129; 4714,451;   -0,166;    0,136
473,716; 4506,671;    1,470;    0,591
474,303; 4528,041;    0,652;   -0,864
474,890; 4626,858;   -1,439;   -0,500
475,477; 4673,323;   -1,621;    0,409
476,064; 4494,507;    1,106;   -1,591
476,650; 4332,242;    0,288;    0,318
477,237; 4117,878;   -0,258;    0,955
477,824; 4149,747;   -1,076;    0,864
478,411; 4020,643;   -1,894;   -0,318
478,997; 4051,807;    0,560;   -0,773
479,584; 4006,235;    1,196;   -0,409
480,171; 4398,288;   -0,440;   -0,773
480,757; 4203,224;    2,651;    0,773
481,344; 4175,899;    0,469;    0,409
481,931; 3743,399;    1,105;    1,045
482,517; 4237,745;   -1,258;    0,318
483,104; 4354,204;    1,106;    2,864
483,690; 4301,577;   -1,804;    0,045
484,276; 4297,679;   -0,895;    0,227
484,863; 4196,910;    2,469;    1,136
485,449; 4266,373;   -0,077;    0,318
486,035; 4153,599;   -1,986;   -0,136
486,622; 4379,532;   -0,895;    0,045
487,208; 4262,181;    1,378;    1,500
487,794; 4139,819;    0,741;    0,318
488,380; 4203,663;    0,105;   -1,409
488,967; 4153,878;   -1,168;   -0,409
489,553; 4174,495;   -1,895;   -1,409
490,139; 4325,015;    1,559;    0,773
490,725; 4057,668;    0,741;   -0,227
491,311; 3909,075;    3,287;    3,045
491,897; 3617,266;   -0,986;    1,500
492,483; 3732,687;    0,105;    1,227
493,069; 4201,338;    3,923;    0,864
493,655; 3918,521;    1,650;    0,682
494,241; 3888,656;    1,377;   -0,955
494,826; 4141,492;    0,287;   -1,045
495,412; 3934,341;    2,559;   -0,682
495,998; 4122,413;   -0,805;   -0,318
496,584; 4216,130;    0,377;    1,045
497,169; 4268,498;    1,014;   -0,682
497,755; 4362,581;    0,650;    1,227
498,341; 4978,403;    0,559;    0,318
498,926; 4896,423;    1,832;    1,955
499,512; 5059,343;    1,286;    2,955
500,097; 5188,144;    0,195;   -0,318
500,683; 5371,287;   -0,350;    2,136
501,268; 5836,507;   -0,169;   -0,955
501,854; 5907,605;   -0,169;    1,227
502,439; 6044,694;   -0,624;   -1,773
503,024; 6369,781;    0,195;    0,500
503,610; 6699,984;   -0,078;   -0,682
504,195; 6855,233;    0,558;    1,955
504,780; 7244,883;    2,922;    1,227
505,366; 7407,500;    3,013;    2,864
505,951; 7399,288;    0,740;    1,045
506,536; 7681,755;   -3,260;   -3,682
507,121; 7891,384;    0,285;   -0,318
507,706; 8575,121;    2,376;    1,045
508,291; 9120,018;    2,649;    1,136
508,876; 8891,680;   -0,988;    2,591
509,461; 8673,613;   -0,169;   -0,773
510,046; 9281,541;    0,194;    0,318
510,631; 9762,123;   -0,351;   -0,773
511,216; 9617,954;    2,467;   -0,500
511,801;10165,187;   -0,442;    2,591
512,386;10640,026;    0,740;    0,500
512,971;10773,115;   -2,988;    0,955
513,555;10540,569;   -0,897;   -1,500
514,140;11447,168;   -0,442;   -3,136
514,725;11566,511;   -0,715;   -1,136
515,309;11883,583;   -0,533;    0,318
515,894;11495,549;   -0,624;   -2,227
516,479;12070,762;   -0,624;   -0,955
517,063;11996,643;    0,376;    1,227
517,648;12254,565;    1,012;   -1,136
518,232;11985,662;   -0,261;   -1,409
518,817;12447,637;   -0,079;    1,682
519,401;12759,950;    2,194;    0,591
519,985;12341,106;    1,103;    1,136
520,570;12304,195;    0,830;   -1,955
521,154;12645,663;    2,102;    0,591
521,738;12927,661;   -2,352;    2,409
522,323;13503,916;   -0,170;    1,682
522,907;13263,802;    0,466;   -0,136
523,491;13038,812;    0,557;    0,955
524,075;13076,696;    2,284;    0,591
524,659;13204,946;    1,466;    0,591
525,243;12725,081;    1,739;    0,409
525,827;12987,031;    0,648;   -0,045
526,411;13891,218;   -1,989;   -0,136
526,995;14139,401;   -0,352;    1,409
527,579;13780,701;   -0,443;   -1,045
528,163;14068,056;    0,375;   -1,500
528,747;14011,040;    2,466;   -0,773
529,331;14340,419;   -0,080;   -1,409
529,915;14552,184;    1,738;    0,955
530,499;14510,153;   -0,807;    1,227
531,082;14279,694;   -0,534;    1,591
531,666;13686,897;    1,374;    0,773
532,250;14381,560;    1,284;    2,682
532,833;14718,759;    0,920;    2,773
533,417;14578,433;   -1,807;    0,864
534,001;14556,980;    1,647;   -0,318
534,584;15331,260;    0,374;    0,500
535,168;15169,526;    0,465;    1,409
535,751;15235,568;    0,647;    0,045
536,334;14678,779;   -0,898;   -0,409
536,918;15248,710;    0,011;    1,591
537,501;15358,573;   -0,899;    1,318
538,085;15362,777;   -0,444;    1,045
538,668;15538,570;    0,829;    2,409
539,251;15868,818;    1,829;    3,773
539,834;15863,169;    0,101;    0,773
540,418;15816,108;   -1,990;    4,318
541,001;15932,414;   -0,990;    1,773
541,584;15920,260;    2,101;    2,227
542,167;15638,061;    1,374;    2,955
542,750;15751,485;    1,919;   -0,773
543,333;15372,286;    0,555;    2,136
543,916;16171,065;    0,192;    2,500
544,499;16768,066;   -1,354;    0,227
545,082;16802,499;    1,374;    3,591
545,665;16963,777;    1,919;    1,500
546,248;17310,377;    1,010;   -0,318
546,830;16948,239;   -0,445;    1,955
547,413;17322,553;    1,010;   -0,773
547,996;17865,927;    0,555;    0,500
548,579;17669,041;    0,919;    0,955
549,161;17463,746;    1,828;    2,682
549,744;17221,951;   -0,809;    0,409
550,326;17727,048;   -0,809;   -1,136
550,909;17558,425;    2,737;    0,591
551,492;17925,029;   -0,263;    0,227
552,074;17726,482;   -0,173;   -1,318
552,657;18291,272;    2,373;    0,045
553,239;18017,652;   -0,173;   -0,773
553,821;17914,224;   -1,082;    1,045
554,404;17446,783;    1,282;    1,136
554,986;17814,913;    0,464;    1,045
555,568;18366,838;    1,191;   -0,955
556,151;17649,267;    1,191;   -0,227
556,733;17825,987;   -0,264;   -0,864
557,315;18326,999;    0,100;    0,500
557,897;18167,227;    0,554;   -0,500
558,479;18216,174;   -1,991;    1,318
559,061;18368,906;   -0,719;   -0,864
559,643;18713,648;   -0,264;    0,045
560,225;19080,907;    1,645;    2,864
560,807;19107,558;    0,918;    0,318
561,389;18629,091;    0,554;    2,318
561,971;19371,212;    0,463;    2,136
562,553;19181,305;   -1,628;    1,591
563,135;19328,872;   -0,537;    1,136
563,717;18922,746;    3,372;    1,136
564,298;19607,355;    3,645;   -0,045
564,880;19358,825;    0,645;   -1,409
565,462;19539,643;    0,645;    1,318
566,043;20715,569;   -0,446;    2,318
566,625;20238,020;    1,918;    1,227
567,207;20119,259;    1,099;    1,682
567,788;21262,912;   -1,264;    1,500
568,370;22066,960;    1,917;   -0,500
568,951;21874,448;    0,190;    0,227
569,533;22765,732;   -0,628;   -0,500
570,114;23208,265;   -0,446;    0,682
570,695;23727,117;   -0,174;   -1,318
571,277;24299,792;   -0,265;   -1,682
571,858;25012,791;    2,008;   -1,136
572,439;25920,627;    1,554;   -1,045
573,021;26108,646;    2,099;   -2,773
573,602;26571,059;   -1,265;    0,318
574,183;27515,160;   -2,083;    2,227
574,764;27676,938;   -1,629;    0,409
575,345;28257,245;    0,917;   -0,136
575,926;28795,893;   -0,356;    0,136
576,507;28754,783;    1,099;   -0,227
577,088;29879,843;    3,099;    1,682
577,669;29896,872;    0,735;    1,955
578,250;30722,888;    0,644;   -1,045
578,831;31387,783;   -1,356;   -2,227
579,412;31572,847;   -0,810;    0,955
579,993;32425,734;    1,008;    0,227
580,573;32750,133;   -0,629;   -0,955
581,154;31731,089;    0,735;   -0,591
581,735;32639,565;    0,644;    0,773
582,315;32163,747;   -0,629;    2,136
582,896;32363,392;   -0,174;    1,227
583,477;31762,014;    0,189;    1,227
584,057;31989,612;    0,553;    0,955
584,638;32320,825;    2,553;    2,318
585,218;32375,515;   -0,538;    2,682
585,799;32531,975;    0,281;   -0,227
586,379;32424,843;    0,372;    1,591
586,959;31120,132;    0,735;    0,318
587,540;30429,497;   -0,629;    2,227
588,120;29996,891;    1,007;   -0,045
588,700;29006,031;    2,553;    2,136
589,281;29362,343;    0,462;   -0,955
589,861;29284,757;    0,099;   -1,682
590,441;29116,894;    2,371;   -2,682
591,021;28069,095;   -0,265;   -2,591
591,601;28263,306;   -0,537;    0,500
592,181;28291,416;   -0,719;   -0,773
592,761;27597,689;    0,007;    1,409
593,341;27467,188;   -0,901;    0,045
593,921;27512,993;   -0,265;    1,591
594,501;27436,345;   -0,538;    1,318
595,081;27272,200;    0,917;   -0,318
595,661;27693,931;   -1,447;    0,955
596,240;28178,338;   -0,537;    0,136
596,820;27848,763;    0,372;    1,955
597,400;27997,862;    2,008;    0,773
597,980;28167,071;    2,008;    1,045
598,559;28191,307;    2,735;   -0,227
599,139;27901,599;   -0,174;   -1,227
599,718;27809,417;   -0,174;   -0,409
600,298;28037,793;    0,735;    0,682
600,877;28333,444;    2,917;    1,409
601,457;28577,960;    2,281;    1,136
602,036;28513,940;    0,190;    2,045
602,616;28717,431;    0,644;    1,682
603,195;29062,502;   -0,355;    3,500
603,774;28602,490;   -0,901;    2,045
604,354;28487,465;    0,826;   -0,500
604,933;27956,660;    0,463;    1,864
605,512;28079,898;    3,554;    0,591
606,091;28115,449;   -0,537;    3,773
606,671;28939,932;    0,281;    0,773
607,250;28061,666;    1,644;    3,136
607,829;28287,865;    2,372;    3,227
608,408;28113,593;    1,190;    2,591
608,987;27131,948;    1,281;    3,409
609,566;27480,389;   -1,265;   -2,500
610,145;27623,566;   -1,082;    0,682
610,723;27951,974;    4,372;    6,864
611,302;27223,738;   -0,446;    1,682
611,881;26753,036;    5,008;   11,227
612,460;27571,105;    1,645;    3,955
613,039;27991,618;   -0,082;    2,045
613,617;26703,000;    1,736;    4,773
614,196;26929,591;    1,099;    1,227
614,775;27229,308;    1,009;    2,409
615,353;27177,059;    0,736;    0,864
615,932;26965,310;    0,100;    2,409
616,510;27482,305;    0,554;    0,591
617,089;27072,834;    7,100;   17,591
617,667;26801,041;    2,372;    6,136
618,246;26624,397;   -1,537;    1,318
618,824;26817,197;   -3,355;   -0,955
619,402;26356,564;   -2,900;   -1,773
619,981;26848,795;   -0,173;   -1,045
620,559;26666,099;    0,009;    1,682
621,137;26167,723;   -0,718;    1,864
621,715;26222,131;   -1,173;   -0,682
622,293;26162,779;   -0,537;   -0,773
622,871;26578,271;   -0,718;    0,500
623,450;26205,471;    0,373;   -0,864
624,028;26088,127;    0,191;   -0,955
624,606;25709,850;   -1,718;    1,682
625,183;26135,592;   -1,536;   -1,136
625,761;25764,135;    1,009;    1,136
626,339;26051,199;    1,373;    2,591
626,917;26448,068;   -0,172;   -0,045
627,495;26439,745;   -0,354;    1,318
628,073;25883,638;   -0,263;    2,864
628,650;25584,228;    0,100;    2,136
629,228;26047,035;    0,373;    4,409
629,806;25425,962;    2,282;    1,136
630,383;25637,149;    1,464;   -0,318
630,961;25480,084;    2,555;   -0,955
631,539;25254,748;    2,464;    0,227
632,116;24593,175;   11,373;   15,409
632,694;25158,792;    2,555;    6,500
633,271;25463,812;    0,828;    2,682
633,848;25457,766;    1,828;    2,045
634,426;25420,930;   -1,081;    1,773
635,003;24547,966;    1,101;   -0,409
635,580;24891,044;    1,192;    3,682
636,158;25400,829;    3,737;    1,227
636,735;25390,570;    0,555;   -0,500
637,312;25544,114;   -0,809;   -0,682
637,889;25602,701;   -4,354;   -0,682
638,466;25083,388;   -3,990;   -0,409
639,043;25080,964;    2,101;   -1,136
639,620;25391,656;   -2,262;   -0,955
640,197;25740,755;    1,100;    1,682
640,774;25805,535;   -0,172;    1,136
641,351;26256,406;    0,737;    1,136
641,928;25710,278;   -0,627;    1,409
642,505;25331,786;    0,828;   -0,500
643,082;25459,112;   -1,718;    1,227
643,658;24448,347;   -0,718;    1,500
644,235;25180,127;    1,191;    2,500
644,812;25532,635;    1,918;    0,773
645,388;25286,415;   -0,991;    1,409
645,965;25369,378;   -0,809;    1,682
646,542;25458,885;   -1,445;   -0,227
647,118;25452,393;    1,009;   -0,955
647,695;25706,992;   -0,263;    1,136
648,271;25616,318;   -0,536;    0,500
648,848;25993,189;    0,736;    2,227
649,424;25845,515;    0,827;    1,318
650,000;25536,568;   -0,354;   -1,045
650,577;25403,440;   -0,627;   -0,955
651,153;25881,129;   -1,809;    0,955
651,729;26846,364;    1,191;    0,864
652,305;27382,963;    0,645;    2,773
652,881;32558,471;   -0,082;    1,136
653,458;39440,615;    1,100;    0,227
654,034;42744,122;    0,282;    1,591
654,610;43935,994;    0,554;    0,773
655,186;45109,138;    0,645;    3,045
655,762;44818,918;   -0,991;    0,409
656,338;44841,608;    0,100;    0,136
656,913;45706,297;   -0,082;    0,409
657,489;44882,987;    0,827;   -0,318
658,065;44833,404;   -0,173;   -1,591
658,641;45497,639;   -0,900;   -0,864
659,217;44785,874;   -0,991;    0,409
659,792;44158,654;    0,645;   -0,409
660,368;44279,617;   -2,173;   -0,682
660,944;43703,033;   -2,082;    1,227
661,519;38514,723;   -0,628;    0,409
662,095;32645,231;   -1,719;    0,591
662,670;28551,193;    1,281;   -0,136
663,246;27701,155;    1,009;   -0,409
663,821;27111,754;    0,281;    1,682
664,396;26607,898;    0,009;    1,864
664,972;26855,497;    0,009;   -0,500
665,547;27180,005;    1,372;    0,136
666,122;27218,876;   -1,082;    0,318
666,698;27437,020;   -0,173;    0,318
667,273;26824,255;   -0,173;    0,136
667,848;27642,490;    2,372;    1,500
668,423;27459,271;    2,190;    2,318
668,998;28086,324;    2,827;   -0,682
669,573;28593,013;   -3,264;   -1,500
670,148;28397,703;   -1,446;   -0,682
670,723;28254,665;   -1,810;    0,318
671,298;28610,900;    2,372;    1,045
671,873;28769,772;   -0,082;   -0,136
672,448;28662,098;    0,645;    0,136
673,023;28948,878;   -1,992;   -0,227
673,597;29343,749;    0,827;    2,318
674,172;29124,893;   -0,355;    0,318
674,747;28573,583;    0,372;   -1,045
675,321;28392,818;   -0,628;    3,318
675,896;28002,144;    0,645;    1,045
676,471;29000,288;    2,645;    1,591
677,045;28762,978;   -1,264;    0,682
677,620;28827,576;    0,190;    1,136
678,194;29091,811;   -2,628;    1,136
678,769;28678,501;   -1,083;   -0,318
679,343;28922,100;   -0,628;    1,773
679,917;28843,880;   -1,446;    1,955
680,492;28901,751;    0,826;    3,227
681,066;29039,259;    3,372;    0,409
681,640;29129,131;    1,463;   -0,318
682,214;29961,729;    0,735;    0,500
682,788;29474,691;   -1,356;   -0,773
683,363;29397,472;   -1,810;    1,682
683,937;29083,343;   -1,719;   -0,318
684,511;29833,487;    0,463;   -0,591
685,085;29543,541;   -1,356;    0,318
685,659;29274,685;   -2,538;    0,864
686,232;29596,193;   -0,356;   -0,318
686,806;29256,064;   -0,901;    0,409
687,380;29862,117;   -0,174;    0,591
687,954;30101,716;   -1,174;    1,136
688,528;29798,405;   -0,719;    1,955
689,101;30621,459;   -3,992;    1,045
689,675;30162,875;   -0,356;   -0,136
690,249;29516,110;   -0,719;    0,409
690,822;29888,436;    0,280;    0,318
691,396;29957,399;   -0,265;    1,227
691,969;29405,179;    1,280;    0,136
692,543;29825,596;   -0,447;   -1,955
693,116;29492,649;   -0,265;   -1,409
693,690;29382,339;    0,099;    0,500
694,263;29939,028;   -1,083;    2,955
694,836;30000,172;    1,371;    3,591
695,410;28638,407;   -0,265;    1,773
695,983;29119,370;    0,189;    0,591
696,556;29111,605;   -0,447;   -1,045
697,129;29472,203;   -0,356;    1,409
697,703;29073,620;   -1,629;    1,955
698,276;29068,128;    1,462;   -0,773
698,849;28882,363;    1,280;    1,409
699,422;29253,416;   -1,083;    0,591
699,995;28967,288;    0,007;    0,136
700,568;29473,068;   -0,629;    3,045
701,140;29502,485;   -2,811;    1,682
701,713;29223,447;   -0,174;    2,409
702,286;28922,137;   -0,538;    0,864
702,859;28823,099;   -0,902;   -0,591
703,432;28012,152;    0,825;    0,682
704,004;28486,842;    0,462;    0,318
704,577;28326,713;   -0,629;    0,136
705,150;28914,312;    0,189;    2,500
705,722;28731,729;   -0,356;   -3,227
706,295;28471,964;   -0,175;   -0,591
706,867;28329,380;   -0,175;    1,955
707,440;28576,525;   -1,720;   -0,409
708,012;28834,487;    0,462;    0,591
708,584;28788,176;    2,462;    0,227
709,157;29050,684;    1,825;   -0,591
709,729;28675,374;    2,280;    2,045
710,301;29486,881;    0,734;    0,045
710,874;29497,935;   -1,447;   -0,227
711,446;28404,624;    0,371;    0,864
712,018;28266,223;    0,098;    0,500
712,590;28025,276;   -1,993;    1,682
713,162;28544,147;    0,825;    1,318
713,734;28798,746;    1,825;   -2,045
714,306;28677,708;   -1,902;   -0,409
714,878;27393,125;    0,825;    0,864
715,450;28204,815;    0,643;    0,864
716,022;28434,686;    1,552;    1,318
716,593;28566,830;    0,189;    0,591
717,165;28513,156;   -3,175;   -1,227
717,737;28252,391;    0,280;    0,409
718,309;27911,444;    0,280;   -0,045
718,880;27861,407;   -0,539;   -1,409
719,452;28068,460;   -0,175;   -1,591
720,024;27703,877;    0,734;   -0,591
720,595;28281,203;   -2,902;    0,955
721,167;27823,801;    0,370;   -2,045
721,738;27347,491;   -0,812;   -1,045
722,309;27338,908;   -0,993;   -1,227
722,881;27095,870;   -1,357;    0,773
723,452;27693,923;   -2,630;    2,864
724,023;27909,795;   -0,721;    2,682
724,595;27658,666;    0,007;    0,682
725,166;27366,901;    0,007;   -0,409
725,737;27093,045;    1,734;    0,227
726,308;27143,189;   -0,266;    0,318
726,879;27571,879;   -1,630;    1,227
727,450;27437,296;    0,552;   -0,045
728,021;27458,440;    3,097;    0,682
728,592;27218,584;    0,734;    0,500
729,163;27580,364;    0,643;   -0,136
729,734;27622,327;    0,188;   -0,227
730,305;27934,107;    1,734;    0,136
730,876;28315,069;    0,188;    2,955
731,447;28010,304;    2,188;    2,682
732,017;28069,903;    1,097;    1,864
732,588;27514,593;    0,734;    1,227
733,159;27757,646;    0,643;   -1,045
733,729;27571,245;    0,006;    0,409
734,300;26826,480;    0,915;    0,864
734,870;27237,351;    3,461;    0,591
735,441;27800,586;    0,370;   -0,591
736,011;27620,730;    0,643;   -1,591
736,582;27528,965;   -0,812;    0,045
737,152;26986,018;   -1,721;   -2,045
737,722;27436,708;   -0,267;   -0,682
738,293;27064,216;   -1,358;    1,318
738,863;26998,905;    2,461;    2,318
739,433;26842,686;    5,279;    0,318
740,003;27433,648;   -0,994;   -0,682
740,573;26842,156;    2,097;   -1,591
741,143;26858,754;   -1,085;    0,318
741,713;27618,262;    1,188;   -0,500
742,283;27326,497;    0,915;    1,591
742,853;27115,368;    1,915;    1,591
743,423;26566,240;    1,733;    0,045
743,993;26701,475;   -0,358;    1,500
744,563;26030,346;    0,097;   -0,864
745,133;26003,309;   -0,812;   -0,864
745,702;26655,544;   -0,267;    1,773
746,272;25861,324;   -0,176;    0,591
746,842;25679,650;   -1,358;   -0,591
747,411;26095,340;   -0,267;   -0,318
747,981;26257,120;    0,097;    0,500
748,551;26287,537;    2,278;   -1,045
749,120;26175,954;    0,642;   -0,227
749,690;26593,552;   -0,631;    2,409
750,259;26925,606;    1,369;    2,955
750,828;26833,204;    1,551;   -1,955
751,398;27011,985;    1,278;   -0,045
751,967;26622,856;    2,187;    0,409
752,536;26787,636;   -0,813;   -0,227
753,105;27197,781;    0,096;    0,227
753,675;26958,925;    0,096;    1,773
754,244;26964,887;   -0,904;    3,591
754,813;26938,849;    0,551;    1,227
755,382;26526,448;    0,460;    0,955
755,951;27119,228;    1,551;    3,682
756,520;26677,373;   -0,085;    1,864
757,089;27259,335;    0,278;    0,500
757,658;27418,661;    1,733;    1,227
758,227;27372,441;    1,096;    0,318
758,795;27703,313;    1,187;    1,136
759,364;27877,184;   -0,086;   -0,591
759,933;26908,328;   -1,176;   -0,045
760,501;26413,109;    0,733;   -1,318
761,070;26849,253;   -2,813;   -1,409
761,639;27538,306;   -1,904;    1,318
762,207;26942,995;    1,551;   -0,955
762,776;26824,412;    0,369;    0,864
763,344;26837,375;   -0,995;    0,591
763,913;25911,701;   -0,722;    1,409
764,481;26660,754;    1,005;   -0,136
765,049;26433,352;   -1,358;    1,409
765,618;26290,315;   -0,086;    0,318
766,186;26358,277;    0,278;    0,136
766,754;26558,057;    0,005;    1,864
767,322;25557,656;   -1,995;    0,409
767,890;25607,255;   -0,722;   -1,773
768,459;26088,672;   -2,177;   -0,318
769,027;26248,088;    1,641;    3,409
769,595;25209,778;    3,278;    2,591
770,163;25607,195;    3,823;    2,955
770,730;25355,884;    0,732;   -0,136
771,298;25195,483;    0,187;   -1,409
771,866;25252,536;   -1,541;    4,955
772,434;25643,771;   -0,631;   -1,864
773,002;25821,552;    0,005;    0,682
773,569;25466,059;    0,914;    1,682
774,137;25294,476;   -0,268;   -0,045
774,705;26014,984;    0,278;   -0,136
775,272;25533,765;    0,641;    0,682
775,840;25256,636;   -0,177;    2,682
776,407;24794,689;    0,277;    1,955
776,975;24407,924;   -0,632;    0,318
777,542;25423,614;   -1,086;   -0,045
778,110;25234,485;   -1,268;   -0,045
778,677;24908,902;   -2,359;   -0,864
779,244;24695,591;    2,186;    1,045
779,812;24876,463;    1,823;    0,864
780,379;24705,425;    0,005;    1,136
780,946;25002,297;    1,005;   -0,773
781,513;25287,895;   -1,450;    0,318
782,080;24633,585;   -0,086;    2,864
782,647;25342,911;   -0,268;    3,045
783,214;24907,418;   -0,177;    3,864
783,781;24580,563;   -0,723;   -0,682
784,348;24395,888;   -0,632;    1,500
784,915;24810,305;   -3,177;    0,318
785,482;24615,449;    1,368;    2,591
786,049;25050,775;    0,186;   -0,591
786,615;25212,192;    0,277;   -0,955
787,182;24905,518;    0,186;   -0,682
787,749;24584,844;   -2,814;    1,409
788,315;23923,443;   -1,632;   -0,409
788,882;24205,223;    1,550;   -1,227
789,448;24952,822;    1,732;   -0,955
790,015;24967,511;    1,095;    3,227
790,581;24566,837;    1,459;    0,227
791,148;24441,527;    0,641;    1,045
791,714;24636,035;   -0,541;    3,136
792,280;24286,724;    0,186;    1,591
792,847;23871,596;    0,550;    2,500
793,413;24456,285;   -0,269;   -0,318
793,979;23965,702;    3,459;   -1,318
794,545;24038,937;    4,459;    2,682
795,111;23460,445;    2,186;    1,318
795,678;23623,680;    0,731;   -1,682
796,244;23290,369;    3,368;    0,136
796,810;23822,332;    1,731;    0,773
797,375;23534,203;    0,549;   -2,136
797,941;23565,711;   -0,541;    0,591
798,507;23725,582;   -0,451;   -0,955
799,073;23262,090;   -0,360;    0,591
799,639;23294,325;   -2,632;    3,136
800,205;23359,014;    0,095;    2,682
800,770;22901,159;    0,640;    1,773
801,336;22994,757;    1,368;   -0,955
801,901;22731,265;    4,549;    3,136
802,467;23299,136;   -0,542;    2,045
803,033;22603,917;   -0,087;    0,864
803,598;22824,061;    1,913;   -1,045
804,163;22801,478;    1,095;   -0,318
804,729;22774,258;   -0,178;    1,136
805,294;23165,584;    0,822;    2,227
805,859;22964,456;    0,731;   -0,409
806,425;22422,509;    1,186;    2,682
806,990;22115,380;    2,186;    4,318
807,555;22599,251;   -1,451;    2,591
808,120;22502,759;    0,822;   -0,409
808,685;22539,540;    0,185;   -2,500
809,250;22036,320;    0,004;   -0,500
809,815;22331,101;    1,913;    0,682
810,380;22885,336;   -0,269;    1,591
810,945;23457,753;   -1,087;    2,045
811,510;22602,351;    2,094;    1,591
812,075;22322,132;   -0,633;   -1,409
812,640;22322,548;    2,003;    1,409
813,204;22387,784;    0,822;   -0,227
813,769;22875,746;    2,094;   -0,045
814,334;22290,435;    0,458;    0,864
814,898;22344,761;    0,367;    0,591
815,463;22183,814;    1,276;   -0,773
816,027;22158,595;   -0,724;   -2,318
816,592;22246,648;    0,640;   -2,045
817,156;21779,610;    2,094;    1,136
817,721;21690,118;    4,276;    2,318
818,285;21605,899;    2,912;    1,500
818,849;22265,679;   -1,451;    1,682
819,414;22110,005;   -0,269;    2,955
819,978;21716,695;   -1,269;    1,773
820,542;22325,930;    2,003;    0,500
821,106;21958,528;   -0,815;    0,682
821,670;22082,582;   -0,815;    2,591
822,234;21862,271;   -0,270;    1,409
822,798;21189,870;    0,003;    0,500
823,362;21129,923;   -0,633;    4,227
823,926;20488,612;    0,094;    1,136
824,490;20728,848;   -0,997;   -0,682
825,054;21195,901;   -0,088;   -1,136
825,618;20823,863;   -1,542;   -1,500
826,181;20765,371;    0,458;   -1,318
826,745;20696,424;    1,367;   -1,045
827,309;21043,295;    1,185;    1,318
827,872;20445,167;    1,367;    0,955
828,436;21391,765;    1,185;   -0,773
828,999;21413,273;   -0,997;    1,227
829,563;20215,145;   -0,179;    1,136
830,126;20040,652;   -0,179;   -0,591
830,690;20073,796;   -1,997;    2,864
831,253;19608,668;   -0,543;    2,227
831,816;19729,175;   -1,906;    0,500
832,380;19683,774;    0,185;    0,864
832,943;19917,100;   -1,361;   -0,500
833,506;19405,790;    2,639;   -1,227
834,069;20162,297;    3,912;   -0,955
834,632;20241,714;    1,730;    1,318
835,195;20133,949;    1,003;    0,955
835,758;19287,184;   -0,997;    1,955
836,321;19191,237;    0,730;   -1,045
836,884;19290,200;   -0,725;   -0,955
837,447;19265,707;   -2,816;    1,773
838,010;19602,306;    0,366;    3,227
838,573;19864,359;   -1,179;    0,773
839,135;19834,503;   -1,361;   -0,955
839,698;19282,738;    1,275;    0,409
840,261;18758,519;    1,003;   -0,227
840,823;18583,209;   -0,543;    0,864
841,386;18835,444;   -0,452;   -2,409
841,948;18825,406;   -1,361;    1,773
842,511;18538,732;    0,912;    1,682
843,073;18715,876;    1,912;    0,227
843,636;18496,565;   -0,361;   -0,227
844,198;18480,619;    0,911;    0,591
844,760;18568,581;    1,093;    1,955
845,322;18222,452;    0,548;    1,136
845,885;18640,596;    0,730;    0,591
846,447;19078,286;   -1,998;    0,227
847,009;18655,703;    1,911;   -0,682
847,571;18967,211;    0,820;   -2,045
848,133;19124,446;   -1,089;   -1,864
848,695;18893,862;   -0,543;    1,409
849,257;18479,370;   -1,089;   -1,682
849,819;18628,969;   -0,998;   -0,409
850,381;18647,204;   -0,725;   -0,864
850,942;19054,712;    1,093;   -0,591
851,504;19022,128;    1,184;    0,227
852,066;19051,091;    1,275;   -1,591
852,628;18533,871;   -0,180;    1,955
853,189;18076,197;    1,638;    2,682
853,751;18188,341;   -0,907;    1,409
854,312;18013,394;   -0,453;   -1,682
854,874;18539,720;   -2,089;   -0,773
855,435;19044,137;   -0,907;   -1,682
855,997;19251,918;   -1,816;   -0,136
856,558;18487,062;    0,366;    1,773
857,119;18601,206;    0,820;    2,864
857,681;18262,350;    0,002;    0,318
858,242;18357,040;    1,911;   -2,136
858,803;18797,456;    0,456;   -0,773
859,364;19344,419;    0,184;   -4,773
859,925;18674,472;   -2,453;   -0,955
860,486;18536,434;   -0,453;   -0,955
861,047;18262,851;   -0,544;   -1,227
861,608;18097,450;   -1,089;   -0,773
862,169;18207,139;    0,638;   -0,045
862,730;17961,647;    0,456;    1,409
863,291;18229,791;   -0,635;   -0,500
863,852;18613,208;   -0,635;    1,955
864,412;18083,261;   -0,271;   -0,864
864,973;16625,951;   -0,089;    0,500
865,534;16515,549;   -1,726;    0,227
866,094;18003,966;    1,820;    0,227
866,655;17669,383;    1,274;    3,318
867,215;17914,709;    0,274;    0,136
867,776;17743,580;    0,547;   -0,136
868,336;17863,270;   -1,453;    0,136
868,897;17409,959;    2,638;    1,682
869,457;17113,285;    1,365;    0,318
870,017;17317,066;    0,547;   -1,227
870,578;17849,846;   -0,817;    0,773
871,138;17539,990;   -2,089;   -0,955
871,698;17088,044;   -0,817;   -1,318
872,258;16964,279;   -0,453;   -2,864
872,818;17359,968;    2,729;    0,045
873,378;17296,021;    0,638;    1,045
873,938;16784,256;    0,547;    0,500
874,498;17123,764;    0,274;   -1,955
875,058;17053,908;    2,183;    1,773
875,618;16918,143;    1,910;   -2,682
876,177;16829,106;    1,274;    0,136
876,737;16446,250;   -0,090;    1,955
877,297;16489,030;    0,183;    1,955
877,856;16505,629;   -0,362;    0,318
878,416;16467,046;    1,183;   -0,136
878,976;16643,008;   -1,817;    0,409
879,535;16828,334;    0,092;    3,136
880,095;16579,660;   -0,544;    0,045
880,654;16681,531;   -1,090;    1,318
881,213;16856,948;    2,456;    1,500
881,773;16480,910;    2,637;    2,682
882,332;16837,327;    3,365;    5,136
882,891;16677,380;    3,092;    2,136
883,451;17114,979;   -1,272;    1,682
884,010;16549,941;   -2,908;   -0,409
884,569;16645,267;   -0,999;   -0,045
885,128;16817,957;    2,819;   -1,864
885,687;16905,465;    4,455;    0,682
886,246;16560,063;    1,455;    2,136
886,805;16311,480;    2,455;    2,045
887,364;16596,533;   -0,999;   -0,500
887,922;16961,768;   -1,181;    0,045
888,481;16481,003;   -1,545;    0,591
889,040;16791,784;    1,183;    2,136
889,599;17452,019;    2,455;    1,409
890,157;17556,617;    1,455;    2,409
890,716;17214,580;   -0,090;    0,227
891,274;16995,815;    0,092;   -1,136
891,833;17406,141;    1,546;    0,864
892,391;17306,285;   -0,454;    0,500
892,950;17384,883;    1,819;   -0,773
893,508;17760,391;    0,455;   -0,409
894,067;17074,263;    0,637;    0,136
894,625;16979,588;   -0,636;   -1,500
895,183;17189,914;   -0,363;   -0,682
895,741;17053,877;    1,728;   -1,773
896,299;16934,566;   -0,545;   -2,409
896,858;17104,892;    0,819;   -1,591
897,416;17249,400;    2,728;   -1,318
897,974;17011,090;    1,819;    0,318
898,532;17162,506;    6,091;    2,682
899,089;17038,560;    2,091;   -0,682
899,647;17084,885;   -1,454;    1,318
900,205;16807,302;    1,182;    1,045
900,763;17007,083;   -0,454;    0,227
901,321;17032,045;    2,364;   -1,409
901,878;16449,644;   -1,000;   -0,773
902,436;16311,061;   -1,363;    1,318
902,994;16729,477;    4,728;    3,682
903,551;16158,803;    0,728;    0,409
904,109;16525,311;    0,182;   -1,409
904,666;16078,273;    2,455;    1,045
905,224;15932,599;    0,182;   -0,409
905,781;15701,834;    0,727;   -0,318
906,338;15749,433;   -1,363;    1,045
906,895;15679,486;    0,637;    2,045
907,453;15617,085;    1,727;    1,136
908,010;15665,593;   -0,909;    0,409
908,567;15305,282;    1,273;    0,591
909,124;14786,426;    0,364;   -1,500
909,681;14863,843;   -2,909;    0,682
910,238;15026,805;    0,636;   -1,318
910,795;15363,313;   -0,273;   -1,136
911,352;14985,404;   -2,909;   -2,682
911,909;14399,859;   -1,364;   -0,864
912,466;14921,404;   -3,182;    1,500
913,022;14429,768;   -1,636;    0,500
913,579;14833,222;   -0,909;    2,045
914,136;14507,404;    1,636;    0,955
914,692;14832,222;    0,091;   -1,227
915,249;14438,313;    1,455;    0,409
915,806;14679,222;    0,182;    1,955
916,362;14445,495;    1,909;    1,864
916,918;13991,677;    2,000;    1,045
917,475;13959,677;   -1,182;    0,955
918,031;14041,586;    3,364;   -0,045
918,587;13487,313;   -0,909;   -0,318
919,144;13671,495;   -2,273;    0,227
919,700;14015,586;    1,727;    0,773
920,256;13596,495;    0,727;    0,045
920,812;13221,768;   -0,727;   -1,045
921,368;13222,949;   -1,727;   -1,045
921,924;12848,495;    0,182;   -0,136
922,480;12459,131;   -0,545;    1,227
923,036;13062,677;    1,273;    1,955
923,592;12992,131;    0,455;    0,318
924,148;12922,313;    0,455;   -0,955
924,704;12240,859;   -1,364;   -0,409
925,259;12466,768;   -0,273;    0,591
925,815;12248,404;    1,455;    0,500
926,371;11767,586;    2,909;    1,409
926,926;11652,131;    2,091;    0,591
927,482;11290,495;   -1,364;    0,773
928,037;11203,404;    0,909;    2,045
928,593;11532,677;    1,636;    1,045
929,148;11294,131;   -1,818;   -1,500
929,704;10794,768;   -1,455;   -0,500
930,259;11018,404;    0,091;   -0,136
930,814;10081,131;   -0,818;    1,955
931,369; 9774,131;    1,091;   -0,773
931,925; 9620,131;   -0,091;    0,136
932,480; 9540,313;   -2,818;   -2,591
933,035; 9457,131;    0,545;   -0,318
933,590; 9207,404;    0,364;   -1,773
934,145; 8832,495;   -1,364;   -0,318
934,700; 9148,222;    0,455;   -0,591
935,255; 8997,586;   -0,091;    0,045
935,809; 8286,404;    3,182;    0,864
936,364; 7393,677;   -0,455;   -0,136
936,919; 7379,404;    0,455;   -1,773
937,474; 7264,495;    1,455;    0,136
938,028; 7023,131;   -1,636;    1,136
938,583; 6543,222;    1,818;    4,682
939,138; 6766,677;    2,091;    2,136
939,692; 6185,768;    1,636;   -1,136
940,247; 5914,586;   -0,727;   -1,045
940,801; 5485,222;   -0,636;    0,227
941,355; 5378,131;   -0,364;    2,591
941,910; 5028,586;   -0,273;   -2,136
942,464; 5160,222;   -0,818;   -0,318
943,018; 4948,949;    1,000;   -0,227
943,572; 4873,768;    2,545;   -0,682
944,126; 4311,313;    0,091;   -0,409
944,681; 4207,040;    3,091;    0,227
945,235; 4203,677;    1,000;   -0,591
945,789; 4142,949;    0,364;   -1,864
946,342; 4239,586;    0,455;   -0,591
946,896; 4041,677;   -2,273;    0,955
947,450; 3796,677;    1,545;   -0,227
948,004; 4001,677;    1,727;   -0,045
948,558; 3994,222;    0,273;   -0,864
949,111; 3922,495;   -0,273;   -0,318
949,665; 3961,040;    1,636;   -0,682
950,219; 3852,949;   -0,091;   -1,045
950,772; 3916,404;   -1,909;    1,864
951,326; 3822,949;    0,545;   -0,955
951,879; 3923,949;    0,727;   -2,318
952,433; 3951,040;    0,000;    2,227
952,986; 3776,495;    2,909;    0,682
953,539; 3747,768;   -0,273;    0,591
954,093; 3682,313;    0,545;   -1,318
954,646; 3813,495;    0,909;    1,318
955,199; 3610,859;    0,000;   -0,500
955,752; 3504,768;   -0,455;    1,773
956,305; 3461,768;   -0,091;    2,955
956,858; 3625,495;    0,818;   -0,318
957,411; 3800,949;   -0,545;    2,136
957,964; 3621,859;    1,364;    2,136
958,517; 3610,859;   -1,545;    3,136
959,070; 3444,677;   -0,455;    1,955
959,623; 3518,313;    1,091;    1,500
960,176; 3303,586;    1,727;    2,045
960,728; 3294,949;   -2,727;    0,773
961,281; 3341,313;    0,545;    0,500
961,834; 3387,040;   -0,909;    0,864
962,386; 3299,859;    1,727;    1,045
962,939; 3202,859;    0,364;   -0,318
963,491; 3368,222;    0,455;    1,136
964,043; 3221,495;    1,182;    2,409
964,596; 3368,313;   -1,000;    2,227
965,148; 3207,131;   -1,000;    1,773
965,700; 3108,131;    1,091;   -0,227
966,253; 3265,495;   -0,636;    0,318
966,805; 3096,586;   -2,273;    0,773
967,357; 3152,131;    1,091;   -1,500
967,909; 3134,131;    0,455;   -1,227
968,461; 3215,404;    0,545;    3,136
969,013; 3143,313;   -0,182;   -0,864
969,565; 3226,768;   -0,455;   -1,136
970,117; 3284,949;   -0,364;    1,045
970,669; 3121,859;    0,182;   -0,136
971,220; 2986,404;   -0,455;   -1,500
971,772; 2923,768;   -0,636;   -0,318
972,324; 3041,768;    0,091;   -0,500
972,876; 2985,404;    0,818;   -0,045
973,427; 3146,949;    1,909;   -1,045
973,979; 3092,404;   -0,727;   -2,500
974,530; 3122,677;    1,818;    1,318
975,082; 3125,677;   -0,545;    1,682
975,633; 3016,040;    1,091;    1,682
976,184; 3181,859;    0,909;    0,773
976,736; 2950,222;    0,091;    0,227
977,287; 2764,040;   -0,909;   -0,500
977,838; 2949,040;    0,909;   -0,318
978,389; 3008,313;   -1,000;   -0,500
978,940; 2866,677;    0,545;   -0,409
979,491; 2891,677;    0,091;   -0,500
980,042; 2874,586;    0,182;    3,045
980,593; 2927,677;   -2,545;    0,227
981,144; 2953,768;    2,545;   -0,500
981,695; 2927,859;    1,455;    1,500
982,246; 2903,222;   -0,273;    1,045
982,797; 3052,768;   -1,727;    0,682
983,347; 3153,859;    0,364;    0,591
983,898; 3325,949;    3,091;    0,409
984,449; 3157,859;    2,182;    0,773
984,999; 3063,949;    1,455;   -1,136
985,550; 2830,495;    0,182;   -0,318
986,100; 2852,949;   -0,455;   -0,318
986,651; 2889,949;   -0,818;    0,045
987,201; 2863,949;   -1,000;   -0,591
987,751; 2932,040;    0,818;    2,864
988,302; 2929,949;    2,636;    1,500
988,852; 2953,040;    0,455;   -1,136
989,402; 3000,404;    0,091;    0,682
989,952; 2928,677;   -2,182;    0,864
990,502; 3026,949;   -0,091;    0,682
991,052; 2964,768;   -0,727;    0,045
991,602; 2845,131;   -2,909;    1,318
992,152; 2850,768;    0,455;    0,682
992,702; 2842,949;    1,364;   -0,045
993,252; 2753,768;   -3,000;   -0,500
993,802; 2852,404;   -0,273;    1,318
994,352; 3078,131;   -1,545;    1,136
994,901; 3173,859;   -0,182;    3,227
995,451; 3093,040;   -0,182;    0,318
996,000; 3161,040;    1,636;    0,318
996,550; 2875,040;    2,273;    0,227
997,100; 2887,677;    1,273;   -0,045
997,649; 3141,949;    2,182;    0,955
998,198; 2784,040;    1,727;   -1,500
998,748; 2997,586;    1,091;   -2,318
999,297; 2883,040;   -0,818;   -0,409
999,846; 2961,131;    1,000;   -0,773
1000,395; 3001,768;   -0,818;    0,500
1000,945; 2981,222;    1,818;   -0,773
1001,494; 3058,949;    2,364;    0,682
1002,043; 3021,586;    4,636;    0,864
1002,592; 2873,222;   -1,091;    1,955
1003,141; 3027,131;   -0,455;   -0,682
1003,690; 2883,859;    1,727;    0,500
1004,238; 2970,586;    1,455;   -0,045
1004,787; 2610,495;    1,364;    1,227
1005,336; 2856,404;    0,364;    0,682
1005,885; 2985,586;    1,364;   -2,773
1006,433; 3107,677;    0,545;    0,955
1006,982; 3174,768;    0,455;    1,682
1007,531; 3082,040;   -1,818;   -0,227
1008,079; 3016,586;   -2,273;    0,500
1008,627; 3147,768;   -1,455;    0,409
1009,176; 2900,768;    0,000;   -1,955
1009,724; 2957,949;    1,091;    0,864
1010,273; 3014,586;    1,273;    0,500
1010,821; 3099,222;    0,091;    1,409
1011,369; 2829,949;   -1,364;    1,318
1011,917; 2828,859;   -1,364;   -0,591
1012,465; 3117,222;    1,273;   -1,591
1013,013; 3220,040;    2,091;   -1,682
1013,561; 3102,949;    0,455;   -0,773
1014,109; 3165,859;   -1,909;    1,682
1014,657; 3032,040;    0,364;    0,591
1015,205; 3149,677;    1,636;   -0,955
1015,753; 3178,586;   -0,545;   -1,409
1016,301; 3224,404;   -2,636;    3,045
1016,848; 3214,768;   -1,273;    0,409
1017,396; 3272,949;    2,545;    0,045
1017,944; 3397,677;    1,182;    1,864
1018,491; 3145,768;    0,273;    1,409
1019,039; 3312,768;    0,455;    0,591
1019,586; 3199,586;   -1,364;    1,682
1020,134; 3303,677;    0,455;    1,500
1020,681; 3328,768;    0,182;   -1,136
1021,228; 3324,222;    2,909;   -2,227
1021,776; 3164,495;    1,182;   -1,136
1022,323; 3394,404;    0,455;    0,773
1022,870; 3300,949;   -1,000;   -0,045
1023,417; 3197,131;    2,636;    1,864
1023,964; 3345,222;    2,636;    1,227
1024,511; 3199,586;    1,000;    0,773
1025,058; 2993,586;    3,182;   -0,045
1025,605; 3039,040;   -2,273;    3,136
1026,152; 3269,677;    1,727;   -0,591
1026,699; 2999,586;    1,818;    1,318
1027,245; 3155,404;   -0,091;    0,318
1027,792; 3353,949;   -1,000;    1,409
1028,339; 3261,677;    2,364;   -0,045
1028,885; 3094,040;    1,000;   -0,227
1029,432; 3040,586;   -0,091;    0,227
1029,978; 3111,768;   -1,000;   -1,591
1030,525; 3010,404;    1,000;    0,409
1031,071; 3229,495;   -1,364;    1,136
1031,618; 3361,859;    0,364;    1,682
1032,164; 3138,586;   -0,091;    3,045
1032,710; 3196,222;    1,636;   -1,500
1033,256; 3101,949;   -0,636;   -0,136
1033,803; 3047,949;   -0,545;    1,500
1034,349; 2785,586;   -1,364;    0,136
1034,895; 2928,222;    0,000;   -0,318
1035,441; 2920,222;   -0,818;    0,318
1035,987; 2943,131;   -2,364;   -0,682
1036,533; 2930,404;   -1,455;   -0,955
1037,078; 3144,768;    1,455;    1,682
1037,624; 2943,859;    2,455;   -0,955
1038,170; 2972,131;    0,455;   -0,318
1038,716; 2895,677;    1,636;   -0,409
1039,261; 2796,859;   -2,273;   -0,773
1039,807; 2728,040;   -0,091;    3,409
1040,352; 2806,677;   -1,909;   -0,318
1040,898; 2834,495;   -1,545;   -0,682
1041,443; 2742,495;   -1,455;   -2,591
1041,989; 2776,495;    1,091;    1,591
1042,534; 2647,949;   -0,364;    2,591
1043,079; 2751,313;    2,909;    0,955
1043,625; 2568,586;    1,818;    0,500
1044,170; 2610,768;   -1,364;    1,045
1044,715; 2859,131;    2,455;    0,955
1045,260; 2680,949;    2,182;   -0,955
1045,805; 2730,586;    1,182;   -0,591
1046,350; 2661,313;    1,364;   -0,409
1046,895; 2634,404;    2,909;    1,591
1047,440; 2597,404;    5,364;    0,409
1047,985; 2469,404;    2,818;   -0,955
1048,530; 2377,495;    1,545;    1,227
1049,074; 2451,040;    0,000;    0,318
1049,619; 2423,677;   -1,364;    1,955
1050,164; 2232,040;    0,455;    0,227
1050,708; 2272,949;   -0,455;    0,045
1051,253; 2658,859;    1,273;   -2,227
1051,797; 2369,222;    0,818;   -1,318
1052,342; 2363,404;   -1,182;    1,045
1052,886; 2373,313;    0,364;   -1,409
1053,430; 2236,859;   -1,364;    0,136
1053,975; 2265,222;   -0,818;   -0,318
1054,519; 2238,222;   -0,727;    3,227
1055,063; 2265,859;    0,909;    1,318
1055,607; 2142,222;   -0,182;    0,227
1056,151; 2156,859;    2,909;    1,682
1056,695; 2074,404;    2,273;   -1,136
1057,239; 2142,404;   -1,727;   -0,682
1057,783; 2164,313;    0,818;   -1,500
1058,327; 2119,586;    0,000;    1,409
1058,871; 2349,768;   -0,545;    1,318
1059,415; 2042,859;   -0,818;   -0,045
1059,958; 2325,677;    1,455;    2,591
1060,502; 2034,677;   -1,000;   -0,773
1061,046; 1931,131;    0,364;   -0,955
1061,589; 1909,586;   -3,000;   -1,136
1062,133; 1784,949;   -1,273;    1,864
1062,676; 1737,859;    1,182;    0,864
1063,220; 1736,949;    1,091;    0,500
1063,763; 1767,768;    0,909;    1,136
1064,306; 1852,404;   -0,909;    1,864
1064,849; 1735,949;   -0,909;    0,591
1065,393; 1751,859;    2,000;   -1,500
1065,936; 1856,949;    0,182;   -0,409
1066,479; 1738,677;   -1,455;    1,318
1067,022; 1760,586;   -0,273;   -0,227
1067,565; 1661,768;   -0,091;   -1,318
1068,108; 1665,404;    0,727;   -0,591
1068,651; 1645,586;   -0,636;    1,409
1069,194; 1576,586;   -0,455;   -1,682
1069,736; 1589,313;   -1,273;    0,955
1070,279; 1563,131;   -1,364;   -0,500
1070,822; 1625,859;   -2,000;   -0,318
1071,364; 1728,313;   -0,364;    1,318
1071,907; 1537,495;   -0,727;    3,227
1072,450; 1430,040;    0,000;   -0,045
1072,992; 1426,859;   -0,273;    3,136
1073,535; 1575,949;    2,091;    2,136
1074,077; 1361,404;   -0,727;    2,045
1074,619; 1326,677;   -1,364;    0,591
1075,161; 1371,131;   -1,091;    1,500
1075,704; 1537,768;    1,545;    1,227
1076,246; 1350,040;   -0,182;    0,682
1076,788; 1273,131;   -0,364;    1,773
1077,330; 1328,586;    1,273;    2,136
1077,872; 1305,586;    0,909;    0,955
1078,414; 1552,586;    2,727;    0,773
1078,956; 1275,222;    1,273;   -0,227
1079,498; 1543,495;    1,636;    0,318
1080,040; 1234,313;    1,909;   -1,318
1080,581; 1174,040;    1,636;   -0,318
1081,123; 1106,040;    0,091;   -0,773
1081,665; 1162,859;   -1,182;   -0,955
1082,206; 1469,949;    1,364;   -0,500
1082,748; 1318,131;    0,727;    2,045
1083,289; 1184,040;   -2,000;    1,318
1083,831; 1098,586;   -0,545;    0,227
1084,372; 1141,586;    0,000;    0,591
1084,913; 1157,768;    1,091;    0,864
1085,455; 1105,586;   -1,909;   -2,045
1085,996; 1091,313;   -2,273;    0,136
1086,537; 1097,677;   -0,091;    0,864
1087,078; 1134,677;   -0,909;   -2,136
1087,619; 1191,677;   -1,273;    0,227
1088,160; 1102,768;    0,000;    1,318
1088,701; 1072,768;   -1,091;    0,682
1089,242; 1024,949;    1,364;   -2,227
1089,783; 1133,404;   -0,273;    1,409
1090,324; 1089,677;    0,455;    0,682
1090,865;  960,404;    2,727;   -0,409
1091,405;  922,313;    0,727;    2,227
1091,946;  956,040;    0,182;   -0,955
1092,487;  882,768;    0,818;   -1,409
1093,027; 1056,313;   -1,364;   -1,500
1093,568;  902,404;   -0,364;    1,227
1094,108; 1018,040;    0,273;    1,773
1094,649;  947,768;   -1,182;    0,136
1095,189;  878,949;   -0,636;   -0,682
1095,729;  828,495;   -0,091;    0,955
1096,269;  824,404;    0,727;   -0,955
1096,810; 1149,040;   -1,364;    0,500
1097,350;  972,131;    1,364;   -0,773
1097,890;  873,859;    0,364;    1,227
1098,430; 1146,586;    2,364;    2,864
1098,970; 1019,222;    2,182;    1,682
1099,510;  868,222;    0,545;   -2,318
1100,050;  791,768;    1,000;   -1,591
1100,589;  755,313;   -0,727;   -0,318
1101,129;  887,131;    0,818;   -0,955
1101,669; 1054,495;    1,727;    2,136
1102,209;  869,677;   -0,091;    2,227
1102,748;  813,313;    0,000;    0,955
1103,288;  804,313;    1,273;   -1,227
1103,827;  848,677;    3,091;   -2,227
1104,367;  704,949;   -0,091;   -2,409
1104,906;  683,495;    1,364;   -1,136
1105,445;  753,859;    0,636;   -1,136
1105,985;  700,586;   -0,727;    1,500
1106,524;  743,677;   -1,727;   -0,682
1107,063;  720,586;   -2,727;    1,409
1107,602;  686,949;   -1,909;   -1,500
1108,141;  616,677;   -1,909;    1,500
1108,680;  730,040;   -3,455;   -0,591
1109,219;  659,404;   -0,909;   -0,500
1109,758;  654,313;    0,455;    0,682
1110,297;  625,040;    1,000;   -0,682
1110,836;  578,586;   -0,727;    0,955
1111,375;  748,768;   -2,545;    0,409
1111,913;  762,768;   -1,000;    0,773
1112,452;  691,131;   -0,273;    0,136
1112,991;  567,131;    1,091;    1,955
1113,529;  531,768;   -0,818;   -0,045
1114,068;  606,495;   -0,273;    2,955
1114,606;  508,495;   -0,364;   -0,955
1115,144;  669,586;   -1,273;    1,045
1115,683;  598,131;   -0,727;    0,318
1116,221;  652,859;   -0,455;   -0,864
1116,759;  565,222;    0,636;   -0,864
1117,297;  765,768;    0,000;    1,864
1117,836;  561,949;   -2,182;   -1,227
1118,374;  583,404;    0,182;   -0,682
1118,912;  521,677;    0,909;    2,682
1119,450;  519,859;    1,000;    0,864
1119,988;  558,131;    1,545;    2,136
1120,525; 1013,586;    5,091;    3,318
1121,063;  719,313;    1,182;    1,864
1121,601;  525,313;   -0,909;   -1,227
1122,139;  482,404;   -0,727;   -2,045
1122,676;  688,586;   -0,727;    2,773
1123,214;  616,313;   -1,182;    4,409
1123,751;  421,495;    1,727;    2,227
1124,289;  545,040;   -0,091;   -0,409
1124,826;  411,586;    1,727;    0,227
1125,364;  329,859;    1,727;   -0,955
1125,901;  524,859;    1,182;    1,227
1126,438;  656,222;    0,818;    0,955
1126,975;  372,677;   -0,727;   -0,773
1127,513;  449,677;    0,273;    2,136
1128,050;  348,495;    1,636;   -0,682
1128,587;  444,586;    2,000;   -0,227
1129,124;  497,313;    0,091;    1,318
1129,661;  356,677;    0,273;    0,227
1130,198;  526,768;    1,636;    0,773
1130,734;  473,131;    0,182;    1,409
1131,271;  322,495;   -0,909;    0,864
1131,808;  505,222;    2,909;    3,045
1132,345;  370,586;    1,545;    0,318
1132,881;  233,404;   -1,545;   -1,864
1133,418;  385,768;    0,727;   -1,136
1133,954;  324,222;    2,455;   -2,682
1134,491;  405,040;    1,364;   -0,773
1135,027;  296,131;    2,364;    0,864
1135,564;  385,495;    0,273;    2,955
1136,100;  373,768;    0,364;    2,136
1136,636;  253,768;   -1,273;   -1,045
1137,172;  363,313;    0,000;   -1,045
1137,708;  286,040;   -1,364;   -1,045
1138,245;  285,495;    1,273;   -1,227
1138,781;  220,040;    1,091;   -3,318
1139,317;  307,859;    1,273;   -1,409
1139,852;  287,040;    3,091;    0,136
1140,388;  409,495;   -1,182;   -0,409
1140,924;  292,586;   -1,091;   -2,227
1141,460;  228,404;   -1,636;    0,136
1141,996;  160,949;   -1,364;    2,682
1142,531;  209,586;    1,364;    3,318
1143,067;  434,313;    1,182;    1,045
1143,602;  494,313;   -0,091;   -0,318
1144,138;  331,040;   -2,636;    1,045
1144,673;  195,768;   -1,455;    1,409
1145,209;  261,949;   -1,909;   -0,318
1145,744;  178,222;   -0,727;    0,864
1146,279;  327,131;    1,818;   -0,136
1146,815;  232,313;    1,545;   -2,682
1147,350;  282,495;   -1,364;    0,045
1147,885;  190,859;   -0,818;   -1,318
1148,420;  185,859;   -2,273;    0,773
1148,955;  166,222;   -1,727;    1,864
1149,490;  195,586;   -0,909;   -1,591
1150,025;  177,949;    0,455;   -1,773
1150,560;  296,040;    1,091;   -0,955
1151,094;  261,131;    1,455;   -0,591
1151,629;  265,768;    1,636;    0,864
1152,164;  184,949;    1,364;    1,318
1152,698;  143,586;   -0,182;   -0,136
1153,233;  103,495;    0,091;   -0,682
1153,767;  154,222;   -3,000;   -2,318
1154,302;  206,040;   -1,455;    1,773
1154,836;  203,222;   -0,455;   -2,136
1155,371;  256,404;   -1,364;    3,682
1155,905;  200,495;   -0,636;    1,682
1156,439;  173,040;   -0,636;   -0,500
1156,973;  215,677;    0,364;    0,318
1157,507;  141,586;   -0,364;    0,682
1158,042;  167,404;   -0,727;    1,045
1158,576;  227,040;    0,182;    1,773
1159,110;  219,586;   -0,818;    2,409
1159,643;  174,131;    0,636;   -0,045
1160,177;  104,040;   -1,545;    1,500

