
Integration time [ms]:   0,040
Averaging Nr. [scans]: 11
Smoothing Nr. [pixels]: 0
Data measured with spectrometer [name]: 7318044SP
Wave   ;Sample   ;Dark     ;Reference
[nm]   ;[counts] ;[counts] ;[counts] 

186,757;   28,780;   31,551;    1,318
187,357;   67,044;   22,551;    0,955
187,958;   39,850;   15,460;   -1,591
188,558;   94,588;    8,915;   -1,227
189,159;   59,241;    6,733;   -4,500
189,759;   21,749;    7,278;   -3,591
190,360;   24,145;    2,824;   -2,136
190,960;   75,653;    2,915;   -4,136
191,560;   86,482;    3,189;   -6,591
192,161;  351,885;    4,372;   -3,500
192,761;  181,043;    4,010;   -3,227
193,361;  127,164;    1,556;   -3,773
193,962;  170,640;    2,010;   -2,682
194,562;   87,553;    1,189;   -3,955
195,162;  138,807;   -2,448;   -2,227
195,762;  313,398;   -3,176;   -0,045
196,362;  251,911;    1,370;   -2,500
196,963;  105,026;    2,006;   -0,864
197,563;  183,775;    1,551;   -0,955
198,163;  124,886;    0,096;   -0,682
198,763;  157,108;    1,733;   -0,500
199,363;  265,909;    3,096;   -0,500
199,963;  221,428;    0,369;    0,409
200,563;  182,433;    2,823;   -1,409
201,163;  167,906;    3,277;   -0,227
201,763;  265,336;    3,732;    0,318
202,363;  193,348;    1,459;    1,500
202,963;  321,490;    1,459;    1,045
203,563;  435,195;    0,277;    0,500
204,162;  269,669;    2,096;   -1,864
204,762;  255,515;    0,550;    0,591
205,362;  218,309;    3,004;    1,955
205,962;  333,901;    3,096;    1,955
206,562;  324,388;    1,823;    2,318
207,161;  288,991;   -0,087;    0,318
207,761;  449,784;    1,277;    2,409
208,361;  322,315;   -0,268;    1,409
208,960;  441,428;    0,459;    1,500
209,560;  521,620;    1,277;    1,591
210,160;  488,370;    0,550;    1,864
210,759;  458,172;    4,186;    1,227
211,359;  460,966;    1,459;    1,045
211,958;  748,658;    1,277;    2,045
212,558;  838,719;    1,732;    1,864
213,157;  657,783;    1,822;    1,500
213,757; 1125,722;    3,822;   -0,227
214,356;  804,313;    1,277;   -0,409
214,956; 1163,140;    3,095;    0,409
215,555;  772,292;    2,095;    2,136
216,154;  712,688;   -2,723;   -0,591
216,754;  719,314;    0,277;    0,773
217,353;  872,544;   -0,268;   -1,045
217,952;  706,726;   -0,178;    0,318
218,552;  958,276;    1,368;   -0,773
219,151;  843,639;    0,277;    0,955
219,750;  857,159;    0,004;   -0,227
220,349;  993,723;   -0,451;    1,045
220,948; 1058,246;   -1,360;    1,136
221,548; 1099,520;    0,913;    1,227
222,147; 1222,527;   -0,087;   -0,409
222,746; 1514,504;   -0,451;   -0,955
223,345; 1392,346;    0,731;    0,500
223,944; 1398,586;   -0,451;    0,773
224,543; 1621,159;    1,004;   -1,409
225,142; 1712,412;    0,094;    0,136
225,741; 1616,133;   -0,814;    1,045
226,340; 1656,008;   -0,451;   -0,955
226,939; 2134,063;   -0,996;   -0,136
227,538; 2109,423;   -0,360;   -0,773
228,137; 2276,174;   -0,814;    0,864
228,735; 2468,806;   -0,541;    1,227
229,334; 2175,614;   -0,905;   -0,227
229,933; 2571,415;    0,459;    0,591
230,532; 2687,902;    1,186;   -0,409
231,131; 2737,350;    1,732;    0,318
231,729; 2944,572;   -2,450;   -2,318
232,328; 3093,344;   -0,723;   -1,500
232,927; 3170,379;    1,004;   -0,500
233,525; 3324,615;    3,640;    0,045
234,124; 3569,506;    2,368;   -1,591
234,723; 3582,636;    0,913;   -1,045
235,321; 3751,864;    2,277;    0,136
235,920; 3999,668;    1,186;   -1,227
236,518; 4276,714;    3,459;    0,318
237,117; 4466,765;    0,004;   -0,227
237,715; 4642,769;    0,640;   -0,500
238,314; 4711,826;   -0,087;   -2,318
238,912; 4805,676;   -0,723;   -1,409
239,510; 4840,293;    0,459;   -1,227
240,109; 5044,281;    0,004;    3,773
240,707; 5095,728;   -0,996;    1,227
241,305; 5504,703;    0,550;    0,136
241,904; 5722,703;   -0,178;   -2,045
242,502; 5672,263;   -0,632;   -0,227
243,100; 5606,577;   -0,087;   -0,955
243,698; 5834,581;    0,732;    1,682
244,297; 6036,528;   -0,632;    0,682
244,895; 5880,218;   -0,269;   -2,318
245,493; 6218,053;    2,186;   -0,591
246,091; 6248,456;    1,368;   -1,318
246,689; 6233,724;    1,004;    0,591
247,287; 6405,869;    0,822;   -1,136
247,885; 6695,330;   -1,451;    1,227
248,483; 6800,105;    1,822;   -0,500
249,081; 6949,572;    0,185;    1,591
249,679; 7116,403;   -0,178;    1,682
250,277; 7381,386;   -1,723;    0,864
250,875; 7386,764;   -1,087;   -1,045
251,473; 7375,620;   -1,178;    0,500
252,071; 7589,377;    1,459;    1,045
252,669; 7759,858;   -1,814;    0,318
253,267; 8035,933;   -0,087;    0,773
253,864; 8006,778;   -0,360;    0,682
254,462; 7833,588;    1,640;    1,591
255,060; 7809,927;   -0,269;    1,318
255,658; 8165,222;    0,822;   -0,136
256,255; 8609,773;    0,186;   -2,045
256,853; 8459,966;   -0,269;    1,409
257,451; 8447,497;    0,822;    1,864
258,048; 8693,928;    1,822;    1,864
258,646; 8486,765;    1,731;   -1,045
259,243; 8695,693;   -0,087;    2,227
259,841; 8750,013;   -0,814;    0,318
260,438; 8599,484;   -0,087;    0,864
261,036; 9346,474;   -1,905;    1,409
261,633; 9256,414;   -0,087;    2,227
262,231; 8965,603;    2,731;   -0,045
262,828; 9039,440;   -0,905;    1,136
263,425; 9095,373;    0,913;   -0,591
264,023; 9425,291;    0,186;    0,045
264,620; 8962,300;   -0,360;   -0,318
265,217; 9305,045;   -2,087;    3,136
265,815; 9375,926;   -1,905;    2,136
266,412; 9178,782;    0,731;    0,136
267,009; 9236,220;   -1,451;    0,773
267,606; 9128,492;    0,822;   -0,955
268,203; 9098,434;   -0,269;   -0,591
268,801; 9397,431;    1,731;    0,591
269,398; 9678,740;   -0,360;    2,500
269,995; 9691,531;    0,277;    1,591
270,592; 9437,919;   -0,632;   -0,500
271,189; 9676,681;    0,186;    0,409
271,786; 9768,046;   -0,632;    1,227
272,383; 9606,484;   -1,087;    0,227
272,980; 9812,107;    0,277;    0,318
273,577;10305,678;    0,004;    1,227
274,174; 9872,730;    0,822;    2,591
274,771; 9847,586;   -0,814;   -0,773
275,367; 9976,037;    2,277;    1,409
275,964; 9958,978;    0,731;   -0,500
276,561;10038,600;    1,549;   -1,045
277,158;10236,584;    0,095;   -1,773
277,755;10397,390;    2,185;    0,409
278,351; 9804,396;   -0,451;   -1,500
278,948;10121,899;   -0,815;    0,045
279,545;10100,963;   -1,360;    2,318
280,141;10787,114;   -1,723;   -2,045
280,738;10677,303;   -0,451;   -0,136
281,334;10904,922;   -1,633;    0,591
281,931;10290,959;   -0,087;   -1,318
282,528;10367,694;    0,822;   -0,500
283,124;11063,770;   -1,087;   -0,500
283,721;10964,758;   -0,451;    1,409
284,317;10743,210;    0,185;    2,500
284,913;11321,190;   -1,360;    0,591
285,510;11543,099;    0,640;   -0,318
286,106;11549,731;   -2,269;   -0,955
286,703;11192,489;   -0,360;    1,955
287,299;11363,468;   -1,451;   -0,591
287,895;11579,332;    0,822;   -1,045
288,491;12136,558;    0,186;    2,136
289,088;11902,933;   -2,360;    2,409
289,684;11973,040;   -1,723;    1,500
290,280;11995,191;    0,368;    0,682
290,876;12082,355;    1,822;    5,500
291,472;11932,525;    1,276;    2,227
292,068;12062,014;    1,367;    0,227
292,665;11722,740;    2,095;    0,773
293,261;11320,963;    0,276;    2,136
293,857;11738,181;    2,913;    2,136
294,453;11666,683;    3,550;    0,955
295,049;11562,116;   -0,268;    1,955
295,644;11557,402;    0,095;    0,136
296,240;11479,560;   -0,905;   -0,136
296,836;11527,907;   -0,995;    0,318
297,432;11802,215;    1,096;   -0,500
298,028;11865,734;    0,732;    0,773
298,624;12258,104;    1,459;    1,864
299,220;12517,755;    2,368;    0,591
299,815;12174,423;    1,005;   -0,409
300,411;11977,116;    0,914;    1,773
301,007;11995,537;    1,368;    0,227
301,602;12038,340;   -0,541;   -2,318
302,198;12205,671;    0,732;   -0,773
302,794;12534,618;    1,187;   -0,500
303,389;12642,087;   -1,177;    1,045
303,985;12734,161;    0,550;    1,409
304,580;12703,159;    1,459;    1,591
305,176;12697,447;   -3,086;    0,136
305,771;12607,977;   -1,268;   -1,227
306,367;12448,707;    4,095;    0,136
306,962;12811,340;    0,641;    1,500
307,558;12525,094;   -0,450;    0,136
308,153;12464,725;    1,095;   -1,136
308,748;12667,118;   -0,814;    1,682
309,344;12656,830;   -0,632;   -1,318
309,939;12760,727;   -1,905;   -1,318
310,534;13039,233;   -0,086;   -1,682
311,130;12957,460;    0,459;   -2,500
311,725;12691,499;    1,004;   -0,500
312,320;13000,408;    2,459;    0,045
312,915;12843,238;    1,459;   -1,045
313,510;12947,081;    1,550;   -0,500
314,105;13424,284;    1,096;    1,409
314,700;12799,505;   -3,086;   -1,045
315,295;12429,795;   -0,904;    0,045
315,890;12048,330;    1,277;    0,864
316,485;12423,054;   -0,359;   -0,318
317,080;12503,077;   -3,086;    1,591
317,675;13089,595;    2,005;   -0,682
318,270;12495,059;    5,550;    3,318
318,865;12480,054;    3,278;    3,045
319,460;12324,853;   -0,904;    0,591
320,055;12557,069;   -0,541;   -1,227
320,650;12198,558;   -1,995;   -0,591
321,244;12236,730;   -0,177;   -1,409
321,839;13233,338;   -1,541;   -0,227
322,434;13085,499;   -1,086;   -1,591
323,029;12694,751;    1,732;    1,591
323,623;12567,482;    1,550;    0,773
324,218;12323,535;    2,368;    1,409
324,812;12204,986;    1,096;    1,591
325,407;11994,490;   -0,814;    2,045
326,002;11920,740;    0,277;   -0,409
326,596;12230,399;    0,914;    1,318
327,191;12414,807;    0,823;   -1,045
327,785;11977,399;   -0,813;   -0,227
328,379;12201,384;    1,368;    0,136
328,974;11990,689;    0,914;   -3,955
329,568;12219,841;    0,186;   -2,409
330,163;12035,793;    2,096;    1,045
330,757;12401,855;    2,459;    1,591
331,351;11727,469;    0,459;    0,682
331,945;12007,977;    0,914;    1,409
332,540;11585,656;   -1,723;   -0,591
333,134;11752,832;   -1,086;    0,773
333,728;12004,533;    0,005;    0,318
334,322;12314,770;   -1,177;   -0,864
334,916;11593,854;    0,277;    0,955
335,510;11939,673;   -0,450;   -0,136
336,105;12186,716;   -1,086;    1,591
336,699;11893,398;   -1,086;    0,591
337,293;11819,631;   -1,723;    0,318
337,887;11987,077;   -2,723;    1,955
338,481;12102,138;    0,459;    0,591
339,074;12202,576;   -0,359;    2,682
339,668;12066,702;   -1,632;    1,227
340,262;12358,597;    1,732;    3,227
340,856;11812,325;    1,822;   -0,682
341,450;11149,246;    1,004;    1,864
342,044;12058,176;    1,459;    0,136
342,637;11801,372;    0,913;   -2,136
343,231;11714,198;   -2,360;    0,682
343,825;11660,120;   -1,086;   -0,591
344,419;11592,279;   -1,995;    0,500
345,012;11401,176;    2,459;    4,045
345,606;11389,387;    4,641;    1,591
346,199;11243,811;   -1,813;   -0,227
346,793;10746,027;    1,914;    2,045
347,386;10890,313;   -0,813;   -1,136
347,980;10904,728;   -0,268;   -0,045
348,573;10719,164;    2,278;    0,409
349,167;10391,772;    5,278;    4,773
349,760;10711,632;    2,914;    2,682
350,354;10714,708;   -0,813;    1,136
350,947;10461,751;    1,096;    1,682
351,540;10114,137;   -0,358;   -1,409
352,134;10029,663;    1,096;    1,136
352,727;10138,795;   -0,086;    1,136
353,320; 9923,447;    0,005;    0,591
353,913; 9756,144;   -1,995;    1,864
354,507; 9946,351;    0,823;   -1,227
355,100; 9946,503;    0,460;    0,864
355,693; 9188,414;    2,005;    2,409
356,286; 9240,477;    0,823;    2,773
356,879; 9622,550;   -0,722;    1,227
357,472; 9187,961;   -0,904;    1,500
358,065; 9437,033;   -0,722;    2,500
358,658; 9321,182;   -0,540;    2,318
359,251; 8968,101;   -1,631;   -0,591
359,844; 8462,654;   -1,904;   -1,136
360,437; 8623,754;   -2,995;    0,045
361,030; 8885,614;    1,369;   -0,682
361,623; 8462,969;    2,824;    0,318
362,215; 8513,868;   -0,086;    2,045
362,808; 8354,806;   -2,358;   -1,682
363,401; 8548,171;   -2,449;    0,136
363,994; 8279,368;   -0,631;   -1,500
364,586; 8175,714;    0,824;   -1,500
365,179; 8392,204;   -0,449;   -1,136
365,772; 7892,321;   -1,995;    2,045
366,364; 8194,193;    1,915;   -3,227
366,957; 8395,606;    2,279;   -0,045
367,549; 8402,762;    2,188;   -0,864
368,142; 8029,185;    1,825;   -1,500
368,734; 8274,065;    0,734;   -2,136
369,327; 8219,518;    1,643;   -0,500
369,919; 8140,962;   -1,538;    0,409
370,512; 7921,761;   -1,083;   -0,500
371,104; 7704,856;   -0,901;    1,591
371,696; 7880,393;    1,191;   -0,955
372,289; 7975,418;    0,373;    1,136
372,881; 8145,019;   -2,080;    1,318
373,473; 8016,657;   -2,170;    1,136
374,066; 7831,266;   -0,169;    0,500
374,658; 7666,885;    0,378;    1,136
375,250; 8045,376;    0,653;   -1,409
375,842; 7899,907;    0,473;   -0,045
376,434; 7761,932;   -0,435;   -0,409
377,026; 8354,730;    0,204;   -2,500
377,618; 8230,613;   -0,158;   -0,682
378,210; 8063,456;   -0,338;   -1,955
378,802; 7933,287;    0,754;   -0,591
379,394; 7915,410;    1,846;    0,682
379,986; 8512,447;    1,393;   -0,955
380,578; 8602,915;   -0,153;    0,773
381,170; 7930,964;   -0,972;    0,045
381,762; 7882,682;    0,755;    1,409
382,354; 8091,567;   -0,065;   -1,318
382,945; 8211,043;   -2,976;    0,318
383,537; 8353,585;   -2,705;   -1,955
384,129; 8347,373;   -2,160;   -1,136
384,721; 8574,254;   -0,252;    0,955
385,312; 8490,749;   -0,161;   -0,955
385,904; 8580,753;   -2,706;    1,591
386,496; 7942,587;   -0,979;    1,045
387,087; 8078,927;    1,022;    2,500
387,679; 8116,605;   -1,160;    0,045
388,270; 8259,675;    2,840;    2,045
388,862; 8412,057;    1,295;   -0,318
389,453; 8279,917;   -0,887;    1,045
390,045; 8566,885;   -0,705;   -2,682
390,636; 8477,541;    0,204;   -0,591
391,227; 8350,433;   -0,523;   -0,045
391,819; 8446,516;    0,204;    0,773
392,410; 8526,146;    1,022;    0,045
393,001; 8453,250;   -0,979;   -1,591
393,593; 8767,537;    1,930;   -0,045
394,184; 8584,169;    1,385;   -0,409
394,775; 8530,388;    1,839;    2,136
395,366; 8723,181;    1,385;    0,773
395,957; 8770,278;    0,113;    0,136
396,548; 9042,496;   -0,342;    2,682
397,139; 9380,938;   -2,433;    0,591
397,730; 9095,230;   -1,888;    0,955
398,321; 9137,256;   -1,252;    0,955
398,912; 9188,872;   -0,615;    0,136
399,503; 9259,621;   -3,524;   -1,409
400,094; 8663,913;    0,294;    1,682
400,685; 8499,450;   -0,433;    0,045
401,276; 8599,320;    0,930;   -0,955
401,867; 8920,140;   -0,888;    0,773
402,458; 9004,279;   -2,251;   -2,318
403,048; 9021,538;    1,112;    0,591
403,639; 8612,023;    0,840;    0,864
404,230; 8850,943;    2,476;    0,318
404,821; 8779,803;   -0,615;    0,045
405,411; 8917,105;    1,203;   -2,591
406,002; 8500,488;   -1,252;   -1,136
406,592; 8346,610;    2,294;    0,045
407,183; 8643,620;    0,566;   -1,500
407,774; 8580,889;    3,475;   -0,136
408,364; 8918,904;    0,930;    0,409
408,954; 8534,289;    0,384;    1,227
409,545; 8569,820;    1,021;    1,045
410,135; 8100,774;    1,293;    0,500
410,726; 8282,504;    1,838;    0,318
411,316; 8681,661;    0,111;    0,773
411,906; 8326,800;   -0,253;   -0,409
412,497; 7805,833;   -1,070;   -0,045
413,087; 8438,452;   -1,980;   -0,227
413,677; 8832,900;   -0,707;    3,864
414,267; 8676,757;    0,656;    1,409
414,857; 8661,059;   -2,980;    4,227
415,448; 8957,145;    0,839;    0,500
416,038; 8622,292;    0,020;   -0,591
416,628; 8621,430;   -0,889;    0,409
417,218; 8045,830;    0,565;    3,318
417,808; 8348,587;    0,202;   -0,409
418,398; 8833,169;    0,020;    2,682
418,988; 8866,616;    2,020;    0,591
419,578; 9119,351;   -0,707;    1,409
420,168; 9436,718;   -1,343;   -0,955
420,757; 9050,904;   -1,343;   -1,500
421,347; 8728,541;    0,111;   -0,227
421,937; 8900,104;    2,292;    1,409
422,527; 8858,621;    0,838;   -0,773
423,116; 8684,650;   -0,253;   -0,045
423,706; 9010,409;   -1,889;    0,318
424,296; 8993,672;    1,384;    0,682
424,885; 9407,763;   -0,071;   -3,045
425,475; 9727,290;    1,474;   -2,864
426,065; 9611,676;   -0,980;   -0,318
426,654; 9237,121;   -0,435;   -0,318
427,244; 9392,978;    0,020;    1,409
427,833; 8839,944;    1,383;   -0,500
428,423; 9314,127;   -0,526;    1,136
429,012;10072,167;   -0,344;   -1,136
429,601; 9555,176;   -1,344;    0,136
430,191; 9793,536;    1,292;    4,318
430,780; 9432,741;   -0,344;   -0,409
431,369; 9369,817;    0,746;   -0,045
431,959; 9976,601;   -1,254;    0,500
432,548; 9787,738;   -1,163;   -0,045
433,137; 9914,615;   -1,254;   -1,318
433,726;10477,935;    0,292;    0,500
434,315; 9770,219;   -0,526;    2,409
434,905; 9886,627;   -1,254;    1,409
435,494; 9752,744;    0,746;    0,955
436,083;10254,563;   -0,981;   -0,955
436,672;10144,804;    0,110;    0,500
437,261; 9663,060;    0,292;   -1,955
437,850; 9806,434;    1,383;    0,682
438,439; 9832,491;    3,291;    1,955
439,027; 9674,439;    3,655;    1,773
439,616;10017,841;    2,927;    1,227
440,205; 9886,717;    0,200;   -2,136
440,794;10016,775;    2,109;   -0,045
441,383;10265,864;   -1,346;   -0,591
441,971;10076,390;   -2,436;    0,591
442,560; 9949,993;    0,563;   -1,773
443,149; 9735,851;    0,379;   -1,318
443,737; 9878,940;   -0,074;   -2,318
444,326;10142,008;    0,018;    0,318
444,915;10195,107;   -1,982;    0,864
445,503;10633,871;   -2,891;   -0,318
446,092; 9854,365;    0,382;    2,136
446,680;10421,165;    0,382;    0,318
447,269;10568,995;   -0,346;   -0,318
447,857;10317,183;    0,018;   -1,773
448,445;10441,158;    0,563;    1,318
449,034;10698,433;   -1,528;   -1,136
449,622;10825,893;   -1,073;    3,500
450,210; 9992,375;    2,017;    2,227
450,799;10605,318;    0,290;   -0,591
451,387;10569,025;    1,381;   -0,591
451,975;10191,335;    2,654;    0,864
452,563;10252,761;    3,472;    2,318
453,151;10269,266;   -0,528;   -1,227
453,739;10232,342;   -1,347;    0,136
454,328;10058,793;    2,381;   -2,136
454,916; 9752,539;    2,562;   -0,136
455,504; 9960,952;    1,017;    1,227
456,092;10145,012;    0,017;   -1,591
456,679;10125,904;    1,472;    0,682
457,267;10079,364;    4,017;    1,045
457,855;10235,209;    1,017;    1,409
458,443;10003,780;   -0,165;    1,682
459,031;10133,707;    0,108;    2,409
459,619;10620,430;   -1,801;    2,864
460,206;10771,324;    0,835;    2,045
460,794;10829,333;   -2,983;   -0,227
461,382;11087,329;   -0,529;   -0,864
461,970;10657,902;    1,198;    1,864
462,557;10661,015;   -0,711;   -0,682
463,145;10882,748;   -3,165;   -1,682
463,732;11014,540;    2,016;   -1,045
464,320;10993,688;   -0,075;   -3,045
464,907;10639,158;    2,743;   -0,773
465,495;10474,905;    0,743;   -1,227
466,082;10671,978;   -1,984;   -0,045
466,670;10584,179;   -2,529;    1,227
467,257;10964,592;   -1,711;    2,045
467,844;11143,940;   -0,075;    0,045
468,432;11179,264;    0,834;    3,500
469,019;10623,187;    0,925;   -1,773
469,606;11133,168;    0,470;    3,682
470,193;10947,947;   -1,439;    0,227
470,780;10509,320;   -2,075;    0,864
471,368;10868,894;   -1,257;   -0,773
471,955;10631,214;    1,379;   -0,682
472,542;10273,554;    0,652;   -1,136
473,129;10501,575;   -0,166;    0,136
473,716;10219,327;    1,470;    0,591
474,303;10468,246;    0,652;   -0,864
474,890;10778,233;   -1,439;   -0,500
475,477;10807,446;   -1,621;    0,409
476,064;10701,678;    1,106;   -1,591
476,650;10639,552;    0,288;    0,318
477,237;10468,734;   -0,258;    0,955
477,824;10658,613;   -1,076;    0,864
478,411;10668,048;   -1,894;   -0,318
478,997;10885,796;    0,560;   -0,773
479,584;10949,365;    1,196;   -0,409
480,171;11684,306;   -0,440;   -0,773
480,757;11344,379;    2,651;    0,773
481,344;11626,193;    0,469;    0,409
481,931;11139,737;    1,105;    1,045
482,517;12255,572;   -1,258;    0,318
483,104;12956,515;    1,106;    2,864
483,690;13227,347;   -1,804;    0,045
484,276;13557,395;   -0,895;    0,227
484,863;13292,878;    2,469;    1,136
485,449;13916,846;   -0,077;    0,318
486,035;13867,352;   -1,986;   -0,136
486,622;14322,977;   -0,895;    0,045
487,208;14274,468;    1,378;    1,500
487,794;14081,683;    0,741;    0,318
488,380;14163,631;    0,105;   -1,409
488,967;14224,548;   -1,168;   -0,409
489,553;14317,230;   -1,895;   -1,409
490,139;14523,026;    1,559;    0,773
490,725;13843,504;    0,741;   -0,227
491,311;13310,994;    3,287;    3,045
491,897;12647,917;   -0,986;    1,500
492,483;12482,988;    0,105;    1,227
493,069;12287,178;    3,923;    0,864
493,655;12293,575;    1,650;    0,682
494,241;12192,246;    1,377;   -0,955
494,826;12598,134;    0,287;   -1,045
495,412;12079,348;    2,559;   -0,682
495,998;12181,323;   -0,805;   -0,318
496,584;12343,382;    0,377;    1,045
497,169;12337,313;    1,014;   -0,682
497,755;12267,729;    0,650;    1,227
498,341;12872,308;    0,559;    0,318
498,926;12464,627;    1,832;    1,955
499,512;12626,588;    1,286;    2,955
500,097;12773,150;    0,195;   -0,318
500,683;12711,092;   -0,350;    2,136
501,268;13089,679;   -0,169;   -0,955
501,854;12765,614;   -0,169;    1,227
502,439;12703,114;   -0,624;   -1,773
503,024;12928,076;    0,195;    0,500
503,610;12988,730;   -0,078;   -0,682
504,195;13000,451;    0,558;    1,955
504,780;13099,426;    2,922;    1,227
505,366;12921,578;    3,013;    2,864
505,951;12607,022;    0,740;    1,045
506,536;12668,388;   -3,260;   -3,682
507,121;12644,180;    0,285;   -0,318
507,706;13153,467;    2,376;    1,045
508,291;13562,118;    2,649;    1,136
508,876;13019,508;   -0,988;    2,591
509,461;12468,133;   -0,169;   -0,773
510,046;12876,418;    0,194;    0,318
510,631;13148,336;   -0,351;   -0,773
511,216;12764,463;    2,467;   -0,500
511,801;13186,553;   -0,442;    2,591
512,386;13487,615;    0,740;    0,500
512,971;13396,842;   -2,988;    0,955
513,555;12970,354;   -0,897;   -1,500
514,140;13786,784;   -0,442;   -3,136
514,725;13809,362;   -0,715;   -1,136
515,309;13890,788;   -0,533;    0,318
515,894;13342,296;   -0,624;   -2,227
516,479;13806,527;   -0,624;   -0,955
517,063;13624,119;    0,376;    1,227
517,648;13738,321;    1,012;   -1,136
518,232;13406,227;   -0,261;   -1,409
518,817;13731,023;   -0,079;    1,682
519,401;13951,962;    2,194;    0,591
519,985;13473,014;    1,103;    1,136
520,570;13316,497;    0,830;   -1,955
521,154;13628,988;    2,102;    0,591
521,738;13857,397;   -2,352;    2,409
522,323;14429,413;   -0,170;    1,682
522,907;14115,441;    0,466;   -0,136
523,491;13843,274;    0,557;    0,955
524,075;13832,161;    2,284;    0,591
524,659;13940,292;    1,466;    0,591
525,243;13396,979;    1,739;    0,409
525,827;13606,497;    0,648;   -0,045
526,411;14471,110;   -1,989;   -0,136
526,995;14691,854;   -0,352;    1,409
527,579;14295,125;   -0,443;   -1,045
528,163;14620,416;    0,375;   -1,500
528,747;14511,755;    2,466;   -0,773
529,331;14812,672;   -0,080;   -1,409
529,915;15043,185;    1,738;    0,955
530,499;14990,244;   -0,807;    1,227
531,082;14710,297;   -0,534;    1,591
531,666;14132,847;    1,374;    0,773
532,250;14816,551;    1,284;    2,682
532,833;15164,791;    0,920;    2,773
533,417;15019,287;   -1,807;    0,864
534,001;15021,230;    1,647;   -0,318
534,584;15727,091;    0,374;    0,500
535,168;15537,808;    0,465;    1,409
535,751;15652,157;    0,647;    0,045
536,334;15060,473;   -0,898;   -0,409
536,918;15614,127;    0,011;    1,591
537,501;15744,649;   -0,899;    1,318
538,085;15765,138;   -0,444;    1,045
538,668;15915,298;    0,829;    2,409
539,251;16271,366;    1,829;    3,773
539,834;16243,983;    0,101;    0,773
540,418;16208,151;   -1,990;    4,318
541,001;16338,990;   -0,990;    1,773
541,584;16318,550;    2,101;    2,227
542,167;16045,839;    1,374;    2,955
542,750;16137,733;    1,919;   -0,773
543,333;15761,043;    0,555;    2,136
543,916;16567,150;    0,192;    2,500
544,499;17197,803;   -1,354;    0,227
545,082;17156,513;    1,374;    3,591
545,665;17296,051;    1,919;    1,500
546,248;17677,771;    1,010;   -0,318
546,830;17368,714;   -0,445;    1,955
547,413;17730,521;    1,010;   -0,773
547,996;18274,098;    0,555;    0,500
548,579;18063,694;    0,919;    0,955
549,161;17872,768;    1,828;    2,682
549,744;17584,182;   -0,809;    0,409
550,326;18114,101;   -0,809;   -1,136
550,909;17938,410;    2,737;    0,591
551,492;18326,436;   -0,263;    0,227
552,074;18145,390;   -0,173;   -1,318
552,657;18705,908;    2,373;    0,045
553,239;18441,205;   -0,173;   -0,773
553,821;18324,108;   -1,082;    1,045
554,404;17837,417;    1,282;    1,136
554,986;18220,657;    0,464;    1,045
555,568;18812,045;    1,191;   -0,955
556,151;18040,205;    1,191;   -0,227
556,733;18232,087;   -0,264;   -0,864
557,315;18717,970;    0,100;    0,500
557,897;18528,282;    0,554;   -0,500
558,479;18612,506;   -1,991;    1,318
559,061;18764,561;   -0,719;   -0,864
559,643;19112,824;   -0,264;    0,045
560,225;19497,391;    1,645;    2,864
560,807;19485,733;    0,918;    0,318
561,389;18961,003;    0,554;    2,318
561,971;19795,734;    0,463;    2,136
562,553;19577,507;   -1,628;    1,591
563,135;19692,706;   -0,537;    1,136
563,717;19315,124;    3,372;    1,136
564,298;20039,750;    3,645;   -0,045
564,880;19793,381;    0,645;   -1,409
565,462;19926,290;    0,645;    1,318
566,043;21152,162;   -0,446;    2,318
566,625;20698,611;    1,918;    1,227
567,207;20527,335;    1,099;    1,682
567,788;21711,723;   -1,264;    1,500
568,370;22550,631;    1,917;   -0,500
568,951;22400,453;    0,190;    0,227
569,533;23285,881;   -0,628;   -0,500
570,114;23758,874;   -0,446;    0,682
570,695;24330,063;   -0,174;   -1,318
571,277;24806,940;   -0,265;   -1,682
571,858;25582,287;    2,008;   -1,136
572,439;26577,283;    1,554;   -1,045
573,021;26730,754;    2,099;   -2,773
573,602;27268,964;   -1,265;    0,318
574,183;28186,086;   -2,083;    2,227
574,764;28324,494;   -1,629;    0,409
575,345;28941,002;    0,917;   -0,136
575,926;29514,880;   -0,356;    0,136
576,507;29469,504;    1,099;   -0,227
577,088;30611,018;    3,099;    1,682
577,669;30628,896;    0,735;    1,955
578,250;31444,904;    0,644;   -1,045
578,831;32155,855;   -1,356;   -2,227
579,412;32399,420;   -0,810;    0,955
579,993;33180,675;    1,008;    0,227
580,573;33526,803;   -0,629;   -0,955
581,154;32550,206;    0,735;   -0,591
581,735;33402,496;    0,644;    0,773
582,315;32931,950;   -0,629;    2,136
582,896;33139,857;   -0,174;    1,227
583,477;32573,701;    0,189;    1,227
584,057;32752,552;    0,553;    0,955
584,638;33115,948;    2,553;    2,318
585,218;33142,361;   -0,538;    2,682
585,799;33253,263;    0,281;   -0,227
586,379;33165,927;    0,372;    1,591
586,959;31843,150;    0,735;    0,318
587,540;31113,472;   -0,629;    2,227
588,120;30676,822;    1,007;   -0,045
588,700;29654,015;    2,553;    2,136
589,281;30054,648;    0,462;   -0,955
589,861;29993,436;    0,099;   -1,682
590,441;29776,294;    2,371;   -2,682
591,021;28742,306;   -0,265;   -2,591
591,601;28937,834;   -0,537;    0,500
592,181;28940,846;   -0,719;   -0,773
592,761;28224,867;    0,007;    1,409
593,341;28093,113;   -0,901;    0,045
593,921;28157,440;   -0,265;    1,591
594,501;28068,454;   -0,538;    1,318
595,081;27860,553;    0,917;   -0,318
595,661;28223,120;   -1,447;    0,955
596,240;28779,502;   -0,537;    0,136
596,820;28492,714;    0,372;    1,955
597,400;28623,410;    2,008;    0,773
597,980;28810,404;    2,008;    1,045
598,559;28812,123;    2,735;   -0,227
599,139;28501,698;   -0,174;   -1,227
599,718;28425,880;   -0,174;   -0,409
600,298;28642,701;    0,735;    0,682
600,877;28955,055;    2,917;    1,409
601,457;29186,449;    2,281;    1,136
602,036;29104,829;    0,190;    2,045
602,616;29327,490;    0,644;    1,682
603,195;29711,717;   -0,355;    3,500
603,774;29223,714;   -0,901;    2,045
604,354;29082,692;    0,826;   -0,500
604,933;28568,092;    0,463;    1,864
605,512;28651,493;    3,554;    0,591
606,091;28725,651;   -0,537;    3,773
606,671;29535,149;    0,281;    0,773
607,250;28675,614;    1,644;    3,136
607,829;28888,684;    2,372;    3,227
608,408;28773,973;    1,190;    2,591
608,987;27740,913;    1,281;    3,409
609,566;28032,216;   -1,265;   -2,500
610,145;28129,355;   -1,082;    0,682
610,723;28554,225;    4,372;    6,864
611,302;27830,051;   -0,446;    1,682
611,881;27300,272;    5,008;   11,227
612,460;28129,709;    1,645;    3,955
613,039;28545,826;   -0,082;    2,045
613,617;27287,371;    1,736;    4,773
614,196;27496,469;    1,099;    1,227
614,775;27799,330;    1,009;    2,409
615,353;27767,153;    0,736;    0,864
615,932;27523,954;    0,100;    2,409
616,510;28056,143;    0,554;    0,591
617,089;27586,755;    7,100;   17,591
617,667;27314,868;    2,372;    6,136
618,246;27173,751;   -1,537;    1,318
618,824;27387,193;   -3,355;   -0,955
619,402;26890,561;   -2,900;   -1,773
619,981;27360,680;   -0,173;   -1,045
620,559;27220,059;    0,009;    1,682
621,137;26712,783;   -0,718;    1,864
621,715;26750,835;   -1,173;   -0,682
622,293;26646,292;   -0,537;   -0,773
622,871;27091,243;   -0,718;    0,500
623,450;26705,767;    0,373;   -0,864
624,028;26615,722;    0,191;   -0,955
624,606;26265,883;   -1,718;    1,682
625,183;26646,964;   -1,536;   -1,136
625,761;26258,596;    1,009;    1,136
626,339;26571,602;    1,373;    2,591
626,917;26964,312;   -0,172;   -0,045
627,495;26942,631;   -0,354;    1,318
628,073;26369,681;   -0,263;    2,864
628,650;26090,584;    0,100;    2,136
629,228;26531,325;    0,373;    4,409
629,806;25900,776;    2,282;    1,136
630,383;26176,388;    1,464;   -0,318
630,961;25972,626;    2,555;   -0,955
631,539;25653,347;    2,464;    0,227
632,116;25086,626;   11,373;   15,409
632,694;25617,671;    2,555;    6,500
633,271;25923,547;    0,828;    2,682
633,848;25909,433;    1,828;    2,045
634,426;25920,739;   -1,081;    1,773
635,003;24984,532;    1,101;   -0,409
635,580;25324,240;    1,192;    3,682
636,158;25847,890;    3,737;    1,227
636,735;25817,397;    0,555;   -0,500
637,312;26020,789;   -0,809;   -0,682
637,889;26099,047;   -4,354;   -0,682
638,466;25520,575;   -3,990;   -0,409
639,043;25530,829;    2,101;   -1,136
639,620;25870,883;   -2,262;   -0,955
640,197;26203,687;    1,100;    1,682
640,774;26307,835;   -0,172;    1,136
641,351;26782,256;    0,737;    1,136
641,928;26213,314;   -0,627;    1,409
642,505;25851,644;    0,828;   -0,500
643,082;25936,337;   -1,718;    1,227
643,658;24914,577;   -0,718;    1,500
644,235;25670,725;    1,191;    2,500
644,812;25982,873;    1,918;    0,773
645,388;25720,294;   -0,991;    1,409
645,965;25812,897;   -0,809;    1,682
646,542;25934,591;   -1,445;   -0,227
647,118;25865,193;    1,009;   -0,955
647,695;26213,251;   -0,263;    1,136
648,271;26111,763;   -0,536;    0,500
648,848;26448,820;    0,736;    2,227
649,424;26254,059;    0,827;    1,318
650,000;25994,935;   -0,354;   -1,045
650,577;25808,629;   -0,627;   -0,955
651,153;26338,322;   -1,809;    0,955
651,729;27368,834;    1,191;    0,864
652,305;27986,255;    0,645;    2,773
652,881;33395,404;   -0,082;    1,136
653,458;40460,734;    1,100;    0,227
654,034;43850,973;    0,282;    1,591
654,610;45120,121;    0,554;    0,773
655,186;46305,178;    0,645;    3,045
655,762;45906,236;   -0,991;    0,409
656,338;45907,930;    0,100;    0,136
656,913;46833,441;   -0,082;    0,409
657,489;46002,681;    0,827;   -0,318
658,065;45984,193;   -0,173;   -1,591
658,641;46676,614;   -0,900;   -0,864
659,217;45929,035;   -0,991;    0,409
659,792;45282,728;    0,645;   -0,409
660,368;45447,058;   -2,173;   -0,682
660,944;44675,843;   -2,082;    1,227
661,519;39220,719;   -0,628;    0,409
662,095;33176,776;   -1,719;    0,591
662,670;29044,561;    1,281;   -0,136
663,246;28192,436;    1,009;   -0,409
663,821;27600,493;    0,281;    1,682
664,396;27075,187;    0,009;    1,864
664,972;27392,972;    0,009;   -0,500
665,547;27638,666;    1,372;    0,136
666,122;27769,087;   -1,082;    0,318
666,698;28025,417;   -0,173;    0,318
667,273;27338,110;   -0,173;    0,136
667,848;28188,986;    2,372;    1,500
668,423;28038,589;    2,190;    2,318
668,998;28575,101;    2,827;   -0,682
669,573;29080,431;   -3,264;   -1,500
670,148;28909,215;   -1,446;   -0,682
670,723;28710,182;   -1,810;    0,318
671,298;29130,512;    2,372;    1,045
671,873;29211,660;   -0,082;   -0,136
672,448;29220,354;    0,645;    0,136
673,023;29539,139;   -1,992;   -0,227
673,597;29872,923;    0,827;    2,318
674,172;29662,435;   -0,355;    0,318
674,747;29123,311;    0,372;   -1,045
675,321;28896,641;   -0,628;    3,318
675,896;28466,971;    0,645;    1,045
676,471;29479,119;    2,645;    1,591
677,045;29247,631;   -1,264;    0,682
677,620;29336,688;    0,190;    1,136
678,194;29680,109;   -2,628;    1,136
678,769;29226,258;   -1,083;   -0,318
679,343;29505,861;   -0,628;    1,773
679,917;29380,191;   -1,446;    1,955
680,492;29440,884;    0,826;    3,227
681,066;29604,578;    3,372;    0,409
681,640;29628,090;    1,463;   -0,318
682,214;30416,875;    0,735;    0,500
682,788;29984,750;   -1,356;   -0,773
683,363;29938,898;   -1,810;    1,682
683,937;29618,956;   -1,719;   -0,318
684,511;30363,650;    0,463;   -0,591
685,085;30104,434;   -1,356;    0,318
685,659;29827,582;   -2,538;    0,864
686,232;30094,549;   -0,356;   -0,318
686,806;29755,334;   -0,901;    0,409
687,380;30392,391;   -0,174;    0,591
687,954;30666,448;   -1,174;    1,136
688,528;30357,778;   -0,719;    1,955
689,101;31092,563;   -3,992;    1,045
689,675;30677,711;   -0,356;   -0,136
690,249;30040,132;   -0,719;    0,409
690,822;30344,917;    0,280;    0,318
691,396;30503,883;   -0,265;    1,227
691,969;29895,123;    1,280;    0,136
692,543;30353,089;   -0,447;   -1,955
693,116;30029,055;   -0,265;   -1,409
693,690;29860,204;    0,099;    0,500
694,263;30490,261;   -1,083;    2,955
694,836;30506,864;    1,371;    3,591
695,410;29155,921;   -0,265;    1,773
695,983;29639,161;    0,189;    0,591
696,556;29612,127;   -0,447;   -1,045
697,129;29964,548;   -0,356;    1,409
697,703;29615,242;   -1,629;    1,955
698,276;29556,754;    1,462;   -0,773
698,849;29432,084;    1,280;    1,409
699,422;29776,596;   -1,083;    0,591
699,995;29481,471;    0,007;    0,136
700,568;29997,801;   -0,629;    3,045
701,140;29958,313;   -2,811;    1,682
701,713;29665,643;   -0,174;    2,409
702,286;29451,882;   -0,538;    0,864
702,859;29328,303;   -0,902;   -0,591
703,432;28510,088;    0,825;    0,682
704,004;28915,964;    0,462;    0,318
704,577;28857,021;   -0,629;    0,136
705,150;29457,442;    0,189;    2,500
705,722;29254,681;   -0,356;   -3,227
706,295;29066,829;   -0,175;   -0,591
706,867;28917,341;   -0,175;    1,955
707,440;29104,308;   -1,720;   -0,409
708,012;29378,911;    0,462;    0,591
708,584;29291,695;    2,462;    0,227
709,157;29533,934;    1,825;   -0,591
709,729;29154,901;    2,280;    2,045
710,301;30029,867;    0,734;    0,045
710,874;30053,379;   -1,447;   -0,227
711,446;28912,528;    0,371;    0,864
712,018;28799,403;    0,098;    0,500
712,590;28564,460;   -1,993;    1,682
713,162;29054,336;    0,825;    1,318
713,734;29309,212;    1,825;   -2,045
714,306;29158,542;   -1,902;   -0,409
714,878;27878,235;    0,825;    0,864
715,450;28737,656;    0,643;    0,864
716,022;28954,896;    1,552;    1,318
716,593;29103,226;    0,189;    0,591
717,165;29080,919;   -3,175;   -1,227
717,737;28765,431;    0,280;    0,409
718,309;28384,852;    0,280;   -0,045
718,880;28362,637;   -0,539;   -1,409
719,452;28585,876;   -0,175;   -1,591
720,024;28167,570;    0,734;   -0,591
720,595;28742,355;   -2,902;    0,955
721,167;28242,412;    0,370;   -2,045
721,738;27832,560;   -0,812;   -1,045
722,309;27826,799;   -0,993;   -1,227
722,881;27596,402;   -1,357;    0,773
723,452;28258,550;   -2,630;    2,864
724,023;28439,062;   -0,721;    2,682
724,595;28198,211;    0,007;    0,682
725,166;27899,723;    0,007;   -0,409
725,737;27612,144;    1,734;    0,227
726,308;27645,474;   -0,266;    0,318
726,879;28134,804;   -1,630;    1,227
727,450;27945,861;    0,552;   -0,045
728,021;27897,373;    3,097;    0,682
728,592;27723,885;    0,734;    0,500
729,163;28034,124;    0,643;   -0,136
729,734;28138,545;    0,188;   -0,227
730,305;28479,602;    1,734;    0,136
730,876;28795,023;    0,188;    2,955
731,447;28506,626;    2,188;    2,682
732,017;28622,684;    1,097;    1,864
732,588;28075,923;    0,734;    1,227
733,159;28262,162;    0,643;   -1,045
733,729;28031,038;    0,006;    0,409
734,300;27371,549;    0,915;    0,864
734,870;27758,880;    3,461;    0,591
735,441;28357,301;    0,370;   -0,591
736,011;28080,358;    0,643;   -1,591
736,582;28016,597;   -0,812;    0,045
737,152;27515,109;   -1,721;   -2,045
737,722;27942,894;   -0,267;   -0,682
738,293;27640,587;   -1,358;    1,318
738,863;27559,645;    2,461;    2,318
739,433;27371,702;    5,279;    0,318
740,003;27973,850;   -0,994;   -0,682
740,573;27406,726;    2,097;   -1,591
741,143;27317,329;   -1,085;    0,318
741,713;28113,113;    1,188;   -0,500
742,283;27844,262;    0,915;    1,591
742,853;27606,683;    1,915;    1,591
743,423;27011,922;    1,733;    0,045
743,993;27184,525;   -0,358;    1,500
744,563;26571,400;    0,097;   -0,864
745,133;26476,639;   -0,812;   -0,864
745,702;27152,242;   -0,267;    1,773
746,272;26390,027;   -0,176;    0,591
746,842;26170,448;   -1,358;   -0,591
747,411;26620,051;   -0,267;   -0,318
747,981;26729,108;    0,097;    0,500
748,551;26735,984;    2,278;   -1,045
749,120;26567,586;    0,642;   -0,227
749,690;26997,371;   -0,631;    2,409
750,259;27365,338;    1,369;    2,955
750,828;27270,849;    1,551;   -1,955
751,398;27503,998;    1,278;   -0,045
751,967;27058,055;    2,187;    0,409
752,536;27283,112;   -0,813;   -0,227
753,105;27686,806;    0,096;    0,227
753,675;27511,227;    0,096;    1,773
754,244;27449,285;   -0,904;    3,591
754,813;27494,069;    0,551;    1,227
755,382;27050,581;    0,460;    0,955
755,951;27658,366;    1,551;    3,682
756,520;27173,059;   -0,085;    1,864
757,089;27741,571;    0,278;    0,500
757,658;27883,265;    1,733;    1,227
758,227;27891,322;    1,096;    0,318
758,795;28182,562;    1,187;    1,136
759,364;28401,801;   -0,086;   -0,591
759,933;27370,767;   -1,176;   -0,045
760,501;26858,007;    0,733;   -1,318
761,070;27347,337;   -2,813;   -1,409
761,639;28062,394;   -1,904;    1,318
762,207;27398,542;    1,551;   -0,955
762,776;27377,145;    0,369;    0,864
763,344;27310,657;   -0,995;    0,591
763,913;26394,533;   -0,722;    1,409
764,481;27181,226;    1,005;   -0,136
765,049;26949,284;   -1,358;    1,409
765,618;26808,341;   -0,086;    0,318
766,186;26853,580;    0,278;    0,136
766,754;27061,001;    0,005;    1,864
767,322;26053,513;   -1,995;    0,409
767,890;26076,298;   -0,722;   -1,773
768,459;26516,628;   -2,177;   -0,318
769,027;26717,685;    1,641;    3,409
769,595;25642,379;    3,278;    2,591
770,163;26118,073;    3,823;    2,955
770,730;25824,312;    0,732;   -0,136
771,298;25589,733;    0,187;   -1,409
771,866;25688,336;   -1,541;    4,955
772,434;26075,484;   -0,631;   -1,864
773,002;26216,450;    0,005;    0,682
773,569;25857,417;    0,914;    1,682
774,137;25714,020;   -0,268;   -0,045
774,705;26465,895;    0,278;   -0,136
775,272;25968,862;    0,641;    0,682
775,840;25714,464;   -0,177;    2,682
776,407;25276,431;    0,277;    1,955
776,975;24822,943;   -0,632;    0,318
777,542;25844,637;   -1,086;   -0,045
778,110;25672,330;   -1,268;   -0,045
778,677;25387,569;   -2,359;   -0,864
779,244;25114,263;    2,186;    1,045
779,812;25259,230;    1,823;    0,864
780,379;25089,196;    0,005;    1,136
780,946;25354,526;    1,005;   -0,773
781,513;25712,584;   -1,450;    0,318
782,080;25076,368;   -0,086;    2,864
782,647;25810,789;   -0,268;    3,045
783,214;25389,119;   -0,177;    3,864
783,781;24953,540;   -0,723;   -0,682
784,348;24847,416;   -0,632;    1,500
784,915;25306,928;   -3,177;    0,318
785,482;25100,167;    1,368;    2,591
786,049;25473,861;    0,186;   -0,591
786,615;25622,009;    0,277;   -0,955
787,182;25360,975;    0,186;   -0,682
787,749;25014,487;   -2,814;    1,409
788,315;24376,817;   -1,632;   -0,409
788,882;24688,784;    1,550;   -1,227
789,448;25385,205;    1,732;   -0,955
790,015;25347,171;    1,095;    3,227
790,581;24988,592;    1,459;    0,227
791,148;24883,195;    0,641;    1,045
791,714;25073,162;   -0,541;    3,136
792,280;24734,128;    0,186;    1,591
792,847;24286,004;    0,550;    2,500
793,413;24853,970;   -0,269;   -0,318
793,979;24392,027;    3,459;   -1,318
794,545;24462,812;    4,459;    2,682
795,111;23873,506;    2,186;    1,318
795,678;24074,654;    0,731;   -1,682
796,244;23683,348;    3,368;    0,136
796,810;24259,769;    1,731;    0,773
797,375;23964,463;    0,549;   -2,136
797,941;23985,974;   -0,541;    0,591
798,507;24125,850;   -0,451;   -0,955
799,073;23673,816;   -0,360;    0,591
799,639;23735,147;   -2,632;    3,136
800,205;23775,204;    0,095;    2,682
800,770;23294,625;    0,640;    1,773
801,336;23445,228;    1,368;   -0,955
801,901;23160,376;    4,549;    3,136
802,467;23677,797;   -0,542;    2,045
803,033;23000,036;   -0,087;    0,864
803,598;23232,003;    1,913;   -1,045
804,163;23218,060;    1,095;   -0,318
804,729;23197,481;   -0,178;    1,136
805,294;23619,448;    0,822;    2,227
805,859;23416,596;    0,731;   -0,409
806,425;22871,108;    1,186;    2,682
806,990;22495,438;    2,186;    4,318
807,555;23055,586;   -1,451;    2,591
808,120;22892,189;    0,822;   -0,409
808,685;22904,883;    0,185;   -2,500
809,250;22449,304;    0,004;   -0,500
809,815;22764,997;    1,913;    0,682
810,380;23311,964;   -0,269;    1,591
810,945;23890,112;   -1,087;    2,045
811,510;22976,897;    2,094;    1,591
812,075;22674,954;   -0,633;   -1,409
812,640;22754,830;    2,003;    1,409
813,204;22767,978;    0,822;   -0,227
813,769;23251,308;    2,094;   -0,045
814,334;22739,547;    0,458;    0,864
814,898;22774,877;    0,367;    0,591
815,463;22637,207;    1,276;   -0,773
816,027;22604,719;   -0,724;   -2,318
816,592;22664,595;    0,640;   -2,045
817,156;22236,561;    2,094;    1,136
817,721;22100,982;    4,276;    2,318
818,285;22032,403;    2,912;    1,500
818,849;22664,915;   -1,451;    1,682
819,414;22569,154;   -0,269;    2,955
819,978;22118,757;   -1,269;    1,773
820,542;22706,360;    2,003;    0,500
821,106;22397,690;   -0,815;    0,682
821,670;22529,384;   -0,815;    2,591
822,234;22261,714;   -0,270;    1,409
822,798;21581,589;    0,003;    0,500
823,362;21588,647;   -0,633;    4,227
823,926;20886,613;    0,094;    1,136
824,490;21111,398;   -0,997;   -0,682
825,054;21555,092;   -0,088;   -1,136
825,618;21168,058;   -1,542;   -1,500
826,181;21084,661;    0,458;   -1,318
826,745;21021,718;    1,367;   -1,045
827,309;21381,685;    1,185;    1,318
827,872;20711,015;    1,367;    0,955
828,436;21731,618;    1,185;   -0,773
828,999;21755,221;   -0,997;    1,227
829,563;20567,642;   -0,179;    1,136
830,126;20424,699;   -0,179;   -0,591
830,690;20465,302;   -1,997;    2,864
831,253;19954,995;   -0,543;    2,227
831,816;20087,962;   -1,906;    0,500
832,380;20038,837;    0,185;    0,864
832,943;20262,713;   -1,361;   -0,500
833,506;19688,952;    2,639;   -1,227
834,069;20444,919;    3,912;   -0,955
834,632;20519,340;    1,730;    1,318
835,195;20418,124;    1,003;    0,955
835,758;19605,273;   -0,997;    1,955
836,321;19495,421;    0,730;   -1,045
836,884;19592,205;   -0,725;   -0,955
837,447;19614,354;   -2,816;    1,773
838,010;19895,138;    0,366;    3,227
838,573;20202,832;   -1,179;    0,773
839,135;20154,435;   -1,361;   -0,955
839,698;19588,310;    1,275;    0,409
840,261;19140,368;    1,003;   -0,227
840,823;18972,789;   -0,543;    0,864
841,386;19235,392;   -0,452;   -2,409
841,948;19145,904;   -1,361;    1,773
842,511;18834,961;    0,912;    1,682
843,073;19029,109;    1,912;    0,227
843,636;18793,348;   -0,361;   -0,227
844,198;18739,042;    0,911;    0,591
844,760;18875,281;    1,093;    1,955
845,322;18536,611;    0,548;    1,136
845,885;18949,396;    0,730;    0,591
846,447;19399,453;   -1,998;    0,227
847,009;19028,056;    1,911;   -0,682
847,571;19338,932;    0,820;   -2,045
848,133;19412,807;   -1,089;   -1,864
848,695;19218,774;   -0,543;    1,409
849,257;18803,922;   -1,089;   -1,682
849,819;18969,889;   -0,998;   -0,409
850,381;19020,855;   -0,725;   -0,864
850,942;19397,003;    1,093;   -0,591
851,504;19348,515;    1,184;    0,227
852,066;19356,482;    1,275;   -1,591
852,628;18858,084;   -0,180;    1,955
853,189;18408,142;    1,638;    2,682
853,751;18550,472;   -0,907;    1,409
854,312;18339,257;   -0,453;   -1,682
854,874;18872,314;   -2,089;   -0,773
855,435;19391,008;   -0,907;   -1,682
855,997;19544,701;   -1,816;   -0,136
856,558;18798,213;    0,366;    1,773
857,119;18961,543;    0,820;    2,864
857,681;18618,601;    0,002;    0,318
858,242;18660,749;    1,911;   -2,136
858,803;19088,261;    0,456;   -0,773
859,364;19655,409;    0,184;   -4,773
859,925;19006,648;   -2,453;   -0,955
860,486;18885,251;   -0,453;   -0,955
861,047;18564,309;   -0,544;   -1,227
861,608;18374,093;   -1,089;   -0,773
862,169;18481,787;    0,638;   -0,045
862,730;18289,844;    0,456;    1,409
863,291;18538,356;   -0,635;   -0,500
863,852;18915,777;   -0,635;    1,955
864,412;18362,016;   -0,271;   -0,864
864,973;16938,710;   -0,089;    0,500
865,534;16803,767;   -1,726;    0,227
866,094;18340,279;    1,820;    0,227
866,655;17983,700;    1,274;    3,318
867,215;18247,667;    0,274;    0,136
867,776;18111,997;    0,547;   -0,136
868,336;18234,873;   -1,453;    0,136
868,897;17733,112;    2,638;    1,682
869,457;17412,715;    1,365;    0,318
870,017;17614,226;    0,547;   -1,227
870,578;18160,102;   -0,817;    0,773
871,138;17824,432;   -2,089;   -0,955
871,698;17376,035;   -0,817;   -1,318
872,258;17273,092;   -0,453;   -2,864
872,818;17640,968;    2,729;    0,045
873,378;17630,752;    0,638;    1,045
873,938;17138,537;    0,547;    0,500
874,498;17500,049;    0,274;   -1,955
875,058;17373,015;    2,183;    1,773
875,618;17171,618;    1,910;   -2,682
876,177;17147,312;    1,274;    0,136
876,737;16780,460;   -0,090;    1,955
877,297;16793,336;    0,183;    1,955
877,856;16816,939;   -0,362;    0,318
878,416;16748,087;    1,183;   -0,136
878,976;16964,144;   -1,817;    0,409
879,535;17121,383;    0,092;    3,136
880,095;16836,259;   -0,544;    0,045
880,654;17022,135;   -1,090;    1,318
881,213;17128,374;    2,456;    1,500
881,773;16725,431;    2,637;    2,682
882,332;17124,398;    3,365;    5,136
882,891;16935,455;    3,092;    2,136
883,451;17435,967;   -1,272;    1,682
884,010;16868,024;   -2,908;   -0,409
884,569;16945,536;   -0,999;   -0,045
885,128;17057,866;    2,819;   -1,864
885,687;17180,105;    4,455;    0,682
886,246;16857,708;    1,455;    2,136
886,805;16627,856;    2,455;    2,045
887,364;16910,277;   -0,999;   -0,500
887,922;17278,426;   -1,181;    0,045
888,481;16768,392;   -1,545;    0,591
889,040;17095,177;    1,183;    2,136
889,599;17784,507;    2,455;    1,409
890,157;17873,837;    1,455;    2,409
890,716;17478,258;   -0,090;    0,227
891,274;17327,134;    0,092;   -1,136
891,833;17730,736;    1,546;    0,864
892,391;17601,703;   -0,454;    0,500
892,950;17696,488;    1,819;   -0,773
893,508;18056,999;    0,455;   -0,409
894,067;17374,875;    0,637;    0,136
894,625;17297,932;   -0,636;   -1,500
895,183;17529,808;   -0,363;   -0,682
895,741;17399,138;    1,728;   -1,773
896,299;17250,741;   -0,545;   -2,409
896,858;17427,253;    0,819;   -1,591
897,416;17571,310;    2,728;   -1,318
897,974;17321,367;    1,819;    0,318
898,532;17494,698;    6,091;    2,682
899,089;17343,209;    2,091;   -0,682
899,647;17359,721;   -1,454;    1,318
900,205;17158,597;    1,182;    1,045
900,763;17314,200;   -0,454;    0,227
901,321;17334,893;    2,364;   -1,409
901,878;16769,133;   -1,000;   -0,773
902,436;16592,372;   -1,363;    1,318
902,994;17004,338;    4,728;    3,682
903,551;16452,487;    0,728;    0,409
904,109;16840,817;    0,182;   -1,409
904,666;16424,510;    2,455;    1,045
905,224;16223,295;    0,182;   -0,409
905,781;15991,080;    0,727;   -0,318
906,338;16066,864;   -1,363;    1,045
906,895;15984,831;    0,637;    2,045
907,453;15913,434;    1,727;    1,136
908,010;15936,036;   -0,909;    0,409
908,567;15576,094;    1,273;    0,591
909,124;15064,606;    0,364;   -1,500
909,681;15168,118;   -2,909;    0,682
910,238;15302,357;    0,636;   -1,318
910,795;15602,323;   -0,273;   -1,136
911,352;15220,323;   -2,909;   -2,682
911,909;14664,141;   -1,364;   -0,864
912,466;15209,141;   -3,182;    1,500
913,022;14703,051;   -1,636;    0,500
913,579;15032,051;   -0,909;    2,045
914,136;14772,414;    1,636;    0,955
914,692;15116,960;    0,091;   -1,227
915,249;14722,596;    1,455;    0,409
915,806;14948,232;    0,182;    1,955
916,362;14705,414;    1,909;    1,864
916,918;14231,505;    2,000;    1,045
917,475;14220,414;   -1,182;    0,955
918,031;14281,232;    3,364;   -0,045
918,587;13692,414;   -0,909;   -0,318
919,144;13901,232;   -2,273;    0,227
919,700;14262,505;    1,727;    0,773
920,256;13835,232;    0,727;    0,045
920,812;13489,141;   -0,727;   -1,045
921,368;13474,505;   -1,727;   -1,045
921,924;13060,051;    0,182;   -0,136
922,480;12651,687;   -0,545;    1,227
923,036;13272,505;    1,273;    1,955
923,592;13216,323;    0,455;    0,318
924,148;13129,051;    0,455;   -0,955
924,704;12446,323;   -1,364;   -0,409
925,259;12695,141;   -0,273;    0,591
925,815;12463,687;    1,455;    0,500
926,371;11979,051;    2,909;    1,409
926,926;11882,596;    2,091;    0,591
927,482;11509,869;   -1,364;    0,773
928,037;11374,505;    0,909;    2,045
928,593;11699,596;    1,636;    1,045
929,148;11488,051;   -1,818;   -1,500
929,704;10965,051;   -1,455;   -0,500
930,259;11183,778;    0,091;   -0,136
930,814;10264,687;   -0,818;    1,955
931,369; 9945,232;    1,091;   -0,773
931,925; 9791,869;   -0,091;    0,136
932,480; 9725,687;   -2,818;   -2,591
933,035; 9627,141;    0,545;   -0,318
933,590; 9387,505;    0,364;   -1,773
934,145; 8960,141;   -1,364;   -0,318
934,700; 9317,414;    0,455;   -0,591
935,255; 9138,051;   -0,091;    0,045
935,809; 8414,141;    3,182;    0,864
936,364; 7518,778;   -0,455;   -0,136
936,919; 7509,869;    0,455;   -1,773
937,474; 7401,505;    1,455;    0,136
938,028; 7127,869;   -1,636;    1,136
938,583; 6626,323;    1,818;    4,682
939,138; 6895,414;    2,091;    2,136
939,692; 6323,778;    1,636;   -1,136
940,247; 6023,596;   -0,727;   -1,045
940,801; 5571,687;   -0,636;    0,227
941,355; 5477,687;   -0,364;    2,591
941,910; 5111,141;   -0,273;   -2,136
942,464; 5233,323;   -0,818;   -0,318
943,018; 5004,141;    1,000;   -0,227
943,572; 4961,869;    2,545;   -0,682
944,126; 4377,414;    0,091;   -0,409
944,681; 4296,596;    3,091;    0,227
945,235; 4280,232;    1,000;   -0,591
945,789; 4211,687;    0,364;   -1,864
946,342; 4312,869;    0,455;   -0,591
946,896; 4120,960;   -2,273;    0,955
947,450; 3853,960;    1,545;   -0,227
948,004; 4059,051;    1,727;   -0,045
948,558; 4049,051;    0,273;   -0,864
949,111; 4004,051;   -0,273;   -0,318
949,665; 4037,869;    1,636;   -0,682
950,219; 3900,051;   -0,091;   -1,045
950,772; 3978,051;   -1,909;    1,864
951,326; 3884,141;    0,545;   -0,955
951,879; 3997,051;    0,727;   -2,318
952,433; 4004,778;    0,000;    2,227
952,986; 3841,687;    2,909;    0,682
953,539; 3805,414;   -0,273;    0,591
954,093; 3721,051;    0,545;   -1,318
954,646; 3878,960;    0,909;    1,318
955,199; 3671,960;    0,000;   -0,500
955,752; 3558,869;   -0,455;    1,773
956,305; 3520,596;   -0,091;    2,955
956,858; 3689,687;    0,818;   -0,318
957,411; 3858,596;   -0,545;    2,136
957,964; 3687,869;    1,364;    2,136
958,517; 3661,323;   -1,545;    3,136
959,070; 3499,687;   -0,455;    1,955
959,623; 3589,960;    1,091;    1,500
960,176; 3352,141;    1,727;    2,045
960,728; 3338,505;   -2,727;    0,773
961,281; 3379,051;    0,545;    0,500
961,834; 3436,051;   -0,909;    0,864
962,386; 3346,687;    1,727;    1,045
962,939; 3275,232;    0,364;   -0,318
963,491; 3424,232;    0,455;    1,136
964,043; 3287,596;    1,182;    2,409
964,596; 3415,141;   -1,000;    2,227
965,148; 3248,051;   -1,000;    1,773
965,700; 3163,596;    1,091;   -0,227
966,253; 3325,141;   -0,636;    0,318
966,805; 3184,323;   -2,273;    0,773
967,357; 3204,414;    1,091;   -1,500
967,909; 3160,869;    0,455;   -1,227
968,461; 3272,505;    0,545;    3,136
969,013; 3213,141;   -0,182;   -0,864
969,565; 3301,414;   -0,455;   -1,136
970,117; 3366,778;   -0,364;    1,045
970,669; 3175,778;    0,182;   -0,136
971,220; 3038,232;   -0,455;   -1,500
971,772; 2950,687;   -0,636;   -0,318
972,324; 3089,232;    0,091;   -0,500
972,876; 3042,778;    0,818;   -0,045
973,427; 3193,596;    1,909;   -1,045
973,979; 3143,960;   -0,727;   -2,500
974,530; 3179,051;    1,818;    1,318
975,082; 3181,960;   -0,545;    1,682
975,633; 3066,232;    1,091;    1,682
976,184; 3219,414;    0,909;    0,773
976,736; 2990,596;    0,091;    0,227
977,287; 2827,141;   -0,909;   -0,500
977,838; 3013,778;    0,909;   -0,318
978,389; 3055,869;   -1,000;   -0,500
978,940; 2916,778;    0,545;   -0,409
979,491; 2936,869;    0,091;   -0,500
980,042; 2911,687;    0,182;    3,045
980,593; 2960,051;   -2,545;    0,227
981,144; 3021,778;    2,545;   -0,500
981,695; 2977,141;    1,455;    1,500
982,246; 2940,869;   -0,273;    1,045
982,797; 3101,505;   -1,727;    0,682
983,347; 3199,232;    0,364;    0,591
983,898; 3377,960;    3,091;    0,409
984,449; 3215,232;    2,182;    0,773
984,999; 3099,323;    1,455;   -1,136
985,550; 2880,596;    0,182;   -0,318
986,100; 2893,051;   -0,455;   -0,318
986,651; 2923,414;   -0,818;    0,045
987,201; 2911,869;   -1,000;   -0,591
987,751; 3000,232;    0,818;    2,864
988,302; 2989,778;    2,636;    1,500
988,852; 3013,323;    0,455;   -1,136
989,402; 3045,505;    0,091;    0,682
989,952; 2972,960;   -2,182;    0,864
990,502; 3068,323;   -0,091;    0,682
991,052; 3035,778;   -0,727;    0,045
991,602; 2903,687;   -2,909;    1,318
992,152; 2886,232;    0,455;    0,682
992,702; 2886,141;    1,364;   -0,045
993,252; 2803,869;   -3,000;   -0,500
993,802; 2897,960;   -0,273;    1,318
994,352; 3120,232;   -1,545;    1,136
994,901; 3207,232;   -0,182;    3,227
995,451; 3139,414;   -0,182;    0,318
996,000; 3207,778;    1,636;    0,318
996,550; 2934,323;    2,273;    0,227
997,100; 2911,232;    1,273;   -0,045
997,649; 3208,505;    2,182;    0,955
998,198; 2836,778;    1,727;   -1,500
998,748; 3031,232;    1,091;   -2,318
999,297; 2948,869;   -0,818;   -0,409
999,846; 3001,141;    1,000;   -0,773
1000,395; 3052,596;   -0,818;    0,500
1000,945; 3015,051;    1,818;   -0,773
1001,494; 3100,323;    2,364;    0,682
1002,043; 3086,414;    4,636;    0,864
1002,592; 2912,232;   -1,091;    1,955
1003,141; 3079,232;   -0,455;   -0,682
1003,690; 2933,505;    1,727;    0,500
1004,238; 3009,232;    1,455;   -0,045
1004,787; 2618,505;    1,364;    1,227
1005,336; 2876,141;    0,364;    0,682
1005,885; 3014,414;    1,364;   -2,773
1006,433; 3162,778;    0,545;    0,955
1006,982; 3217,869;    0,455;    1,682
1007,531; 3122,323;   -1,818;   -0,227
1008,079; 3083,414;   -2,273;    0,500
1008,627; 3207,960;   -1,455;    0,409
1009,176; 2948,051;    0,000;   -1,955
1009,724; 3006,869;    1,091;    0,864
1010,273; 3059,505;    1,273;    0,500
1010,821; 3139,687;    0,091;    1,409
1011,369; 2893,778;   -1,364;    1,318
1011,917; 2882,505;   -1,364;   -0,591
1012,465; 3165,687;    1,273;   -1,591
1013,013; 3264,778;    2,091;   -1,682
1013,561; 3142,505;    0,455;   -0,773
1014,109; 3203,687;   -1,909;    1,682
1014,657; 3087,323;    0,364;    0,591
1015,205; 3208,596;    1,636;   -0,955
1015,753; 3229,960;   -0,545;   -1,409
1016,301; 3254,687;   -2,636;    3,045
1016,848; 3273,596;   -1,273;    0,409
1017,396; 3304,141;    2,545;    0,045
1017,944; 3434,687;    1,182;    1,864
1018,491; 3188,232;    0,273;    1,409
1019,039; 3353,596;    0,455;    0,591
1019,586; 3259,596;   -1,364;    1,682
1020,134; 3333,869;    0,455;    1,500
1020,681; 3371,596;    0,182;   -1,136
1021,228; 3374,051;    2,909;   -2,227
1021,776; 3193,778;    1,182;   -1,136
1022,323; 3431,232;    0,455;    0,773
1022,870; 3339,596;   -1,000;   -0,045
1023,417; 3250,051;    2,636;    1,864
1023,964; 3391,051;    2,636;    1,227
1024,511; 3233,869;    1,000;    0,773
1025,058; 3009,232;    3,182;   -0,045
1025,605; 3068,778;   -2,273;    3,136
1026,152; 3322,141;    1,727;   -0,591
1026,699; 3043,232;    1,818;    1,318
1027,245; 3188,596;   -0,091;    0,318
1027,792; 3400,778;   -1,000;    1,409
1028,339; 3292,869;    2,364;   -0,045
1028,885; 3130,051;    1,000;   -0,227
1029,432; 3086,505;   -0,091;    0,227
1029,978; 3158,778;   -1,000;   -1,591
1030,525; 3042,596;    1,000;    0,409
1031,071; 3282,596;   -1,364;    1,136
1031,618; 3394,960;    0,364;    1,682
1032,164; 3167,414;   -0,091;    3,045
1032,710; 3221,232;    1,636;   -1,500
1033,256; 3125,869;   -0,636;   -0,136
1033,803; 3111,505;   -0,545;    1,500
1034,349; 2831,505;   -1,364;    0,136
1034,895; 2985,505;    0,000;   -0,318
1035,441; 2971,414;   -0,818;    0,318
1035,987; 2956,869;   -2,364;   -0,682
1036,533; 2955,869;   -1,455;   -0,955
1037,078; 3180,323;    1,455;    1,682
1037,624; 2981,778;    2,455;   -0,955
1038,170; 3020,687;    0,455;   -0,318
1038,716; 2941,323;    1,636;   -0,409
1039,261; 2841,869;   -2,273;   -0,773
1039,807; 2780,596;   -0,091;    3,409
1040,352; 2851,414;   -1,909;   -0,318
1040,898; 2883,778;   -1,545;   -0,682
1041,443; 2800,687;   -1,455;   -2,591
1041,989; 2845,687;    1,091;    1,591
1042,534; 2698,051;   -0,364;    2,591
1043,079; 2802,141;    2,909;    0,955
1043,625; 2600,778;    1,818;    0,500
1044,170; 2639,323;   -1,364;    1,045
1044,715; 2903,596;    2,455;    0,955
1045,260; 2743,960;    2,182;   -0,955
1045,805; 2778,687;    1,182;   -0,591
1046,350; 2675,687;    1,364;   -0,409
1046,895; 2657,596;    2,909;    1,591
1047,440; 2616,778;    5,364;    0,409
1047,985; 2496,414;    2,818;   -0,955
1048,530; 2419,778;    1,545;    1,227
1049,074; 2499,141;    0,000;    0,318
1049,619; 2462,505;   -1,364;    1,955
1050,164; 2270,596;    0,455;    0,227
1050,708; 2307,414;   -0,455;    0,045
1051,253; 2693,505;    1,273;   -2,227
1051,797; 2398,414;    0,818;   -1,318
1052,342; 2386,414;   -1,182;    1,045
1052,886; 2403,596;    0,364;   -1,409
1053,430; 2264,596;   -1,364;    0,136
1053,975; 2281,141;   -0,818;   -0,318
1054,519; 2284,051;   -0,727;    3,227
1055,063; 2299,687;    0,909;    1,318
1055,607; 2169,414;   -0,182;    0,227
1056,151; 2193,505;    2,909;    1,682
1056,695; 2119,414;    2,273;   -1,136
1057,239; 2174,778;   -1,727;   -0,682
1057,783; 2172,687;    0,818;   -1,500
1058,327; 2124,414;    0,000;    1,409
1058,871; 2375,596;   -0,545;    1,318
1059,415; 2082,960;   -0,818;   -0,045
1059,958; 2356,778;    1,455;    2,591
1060,502; 2064,687;   -1,000;   -0,773
1061,046; 1948,414;    0,364;   -0,955
1061,589; 1914,505;   -3,000;   -1,136
1062,133; 1799,778;   -1,273;    1,864
1062,676; 1760,869;    1,182;    0,864
1063,220; 1768,414;    1,091;    0,500
1063,763; 1794,323;    0,909;    1,136
1064,306; 1868,505;   -0,909;    1,864
1064,849; 1754,960;   -0,909;    0,591
1065,393; 1772,051;    2,000;   -1,500
1065,936; 1896,141;    0,182;   -0,409
1066,479; 1787,232;   -1,455;    1,318
1067,022; 1791,960;   -0,273;   -0,227
1067,565; 1680,505;   -0,091;   -1,318
1068,108; 1696,505;    0,727;   -0,591
1068,651; 1676,414;   -0,636;    1,409
1069,194; 1611,141;   -0,455;   -1,682
1069,736; 1608,778;   -1,273;    0,955
1070,279; 1594,323;   -1,364;   -0,500
1070,822; 1643,505;   -2,000;   -0,318
1071,364; 1737,778;   -0,364;    1,318
1071,907; 1545,778;   -0,727;    3,227
1072,450; 1430,051;    0,000;   -0,045
1072,992; 1431,323;   -0,273;    3,136
1073,535; 1602,323;    2,091;    2,136
1074,077; 1387,414;   -0,727;    2,045
1074,619; 1345,051;   -1,364;    0,591
1075,161; 1392,960;   -1,091;    1,500
1075,704; 1564,414;    1,545;    1,227
1076,246; 1362,323;   -0,182;    0,682
1076,788; 1285,960;   -0,364;    1,773
1077,330; 1355,778;    1,273;    2,136
1077,872; 1331,596;    0,909;    0,955
1078,414; 1571,869;    2,727;    0,773
1078,956; 1294,778;    1,273;   -0,227
1079,498; 1570,323;    1,636;    0,318
1080,040; 1266,687;    1,909;   -1,318
1080,581; 1209,505;    1,636;   -0,318
1081,123; 1116,778;    0,091;   -0,773
1081,665; 1154,232;   -1,182;   -0,955
1082,206; 1473,232;    1,364;   -0,500
1082,748; 1333,778;    0,727;    2,045
1083,289; 1199,141;   -2,000;    1,318
1083,831; 1116,141;   -0,545;    0,227
1084,372; 1151,778;    0,000;    0,591
1084,913; 1160,687;    1,091;    0,864
1085,455; 1118,323;   -1,909;   -2,045
1085,996; 1094,232;   -2,273;    0,136
1086,537; 1112,323;   -0,091;    0,864
1087,078; 1148,505;   -0,909;   -2,136
1087,619; 1200,051;   -1,273;    0,227
1088,160; 1122,051;    0,000;    1,318
1088,701; 1098,232;   -1,091;    0,682
1089,242; 1029,051;    1,364;   -2,227
1089,783; 1137,596;   -0,273;    1,409
1090,324; 1082,051;    0,455;    0,682
1090,865;  971,051;    2,727;   -0,409
1091,405;  937,778;    0,727;    2,227
1091,946;  974,141;    0,182;   -0,955
1092,487;  885,414;    0,818;   -1,409
1093,027; 1075,687;   -1,364;   -1,500
1093,568;  924,960;   -0,364;    1,227
1094,108; 1033,687;    0,273;    1,773
1094,649;  970,141;   -1,182;    0,136
1095,189;  883,414;   -0,636;   -0,682
1095,729;  837,141;   -0,091;    0,955
1096,269;  833,323;    0,727;   -0,955
1096,810; 1162,051;   -1,364;    0,500
1097,350; 1000,869;    1,364;   -0,773
1097,890;  892,141;    0,364;    1,227
1098,430; 1147,687;    2,364;    2,864
1098,970; 1029,232;    2,182;    1,682
1099,510;  874,232;    0,545;   -2,318
1100,050;  794,232;    1,000;   -1,591
1100,589;  774,687;   -0,727;   -0,318
1101,129;  908,778;    0,818;   -0,955
1101,669; 1062,596;    1,727;    2,136
1102,209;  871,141;   -0,091;    2,227
1102,748;  830,232;    0,000;    0,955
1103,288;  829,687;    1,273;   -1,227
1103,827;  851,778;    3,091;   -2,227
1104,367;  727,596;   -0,091;   -2,409
1104,906;  681,505;    1,364;   -1,136
1105,445;  752,778;    0,636;   -1,136
1105,985;  702,232;   -0,727;    1,500
1106,524;  763,505;   -1,727;   -0,682
1107,063;  727,323;   -2,727;    1,409
1107,602;  694,141;   -1,909;   -1,500
1108,141;  620,687;   -1,909;    1,500
1108,680;  738,960;   -3,455;   -0,591
1109,219;  664,232;   -0,909;   -0,500
1109,758;  666,414;    0,455;    0,682
1110,297;  645,505;    1,000;   -0,682
1110,836;  579,232;   -0,727;    0,955
1111,375;  753,960;   -2,545;    0,409
1111,913;  763,596;   -1,000;    0,773
1112,452;  690,596;   -0,273;    0,136
1112,991;  574,596;    1,091;    1,955
1113,529;  534,505;   -0,818;   -0,045
1114,068;  615,232;   -0,273;    2,955
1114,606;  511,869;   -0,364;   -0,955
1115,144;  684,687;   -1,273;    1,045
1115,683;  623,051;   -0,727;    0,318
1116,221;  666,141;   -0,455;   -0,864
1116,759;  569,778;    0,636;   -0,864
1117,297;  772,778;    0,000;    1,864
1117,836;  570,869;   -2,182;   -1,227
1118,374;  587,960;    0,182;   -0,682
1118,912;  519,323;    0,909;    2,682
1119,450;  516,051;    1,000;    0,864
1119,988;  572,778;    1,545;    2,136
1120,525; 1028,960;    5,091;    3,318
1121,063;  727,869;    1,182;    1,864
1121,601;  534,869;   -0,909;   -1,227
1122,139;  478,778;   -0,727;   -2,045
1122,676;  692,414;   -0,727;    2,773
1123,214;  616,960;   -1,182;    4,409
1123,751;  424,869;    1,727;    2,227
1124,289;  558,687;   -0,091;   -0,409
1124,826;  424,687;    1,727;    0,227
1125,364;  350,505;    1,727;   -0,955
1125,901;  540,051;    1,182;    1,227
1126,438;  657,323;    0,818;    0,955
1126,975;  370,051;   -0,727;   -0,773
1127,513;  446,596;    0,273;    2,136
1128,050;  345,141;    1,636;   -0,682
1128,587;  458,051;    2,000;   -0,227
1129,124;  504,869;    0,091;    1,318
1129,661;  353,414;    0,273;    0,227
1130,198;  528,596;    1,636;    0,773
1130,734;  468,505;    0,182;    1,409
1131,271;  323,323;   -0,909;    0,864
1131,808;  508,596;    2,909;    3,045
1132,345;  377,869;    1,545;    0,318
1132,881;  240,687;   -1,545;   -1,864
1133,418;  393,323;    0,727;   -1,136
1133,954;  325,778;    2,455;   -2,682
1134,491;  404,414;    1,364;   -0,773
1135,027;  299,505;    2,364;    0,864
1135,564;  396,414;    0,273;    2,955
1136,100;  374,596;    0,364;    2,136
1136,636;  258,505;   -1,273;   -1,045
1137,172;  357,778;    0,000;   -1,045
1137,708;  283,141;   -1,364;   -1,045
1138,245;  283,141;    1,273;   -1,227
1138,781;  232,051;    1,091;   -3,318
1139,317;  308,051;    1,273;   -1,409
1139,852;  293,596;    3,091;    0,136
1140,388;  413,414;   -1,182;   -0,409
1140,924;  292,505;   -1,091;   -2,227
1141,460;  229,596;   -1,636;    0,136
1141,996;  160,778;   -1,364;    2,682
1142,531;  217,869;    1,364;    3,318
1143,067;  445,141;    1,182;    1,045
1143,602;  496,323;   -0,091;   -0,318
1144,138;  336,414;   -2,636;    1,045
1144,673;  190,232;   -1,455;    1,409
1145,209;  266,778;   -1,909;   -0,318
1145,744;  177,869;   -0,727;    0,864
1146,279;  328,232;    1,818;   -0,136
1146,815;  241,505;    1,545;   -2,682
1147,350;  290,051;   -1,364;    0,045
1147,885;  190,232;   -0,818;   -1,318
1148,420;  185,232;   -2,273;    0,773
1148,955;  170,505;   -1,727;    1,864
1149,490;  210,051;   -0,909;   -1,591
1150,025;  185,869;    0,455;   -1,773
1150,560;  308,141;    1,091;   -0,955
1151,094;  264,051;    1,455;   -0,591
1151,629;  265,596;    1,636;    0,864
1152,164;  190,505;    1,364;    1,318
1152,698;  141,323;   -0,182;   -0,136
1153,233;  104,869;    0,091;   -0,682
1153,767;  156,596;   -3,000;   -2,318
1154,302;  202,141;   -1,455;    1,773
1154,836;  199,141;   -0,455;   -2,136
1155,371;  261,051;   -1,364;    3,682
1155,905;  217,051;   -0,636;    1,682
1156,439;  180,051;   -0,636;   -0,500
1156,973;  214,414;    0,364;    0,318
1157,507;  137,414;   -0,364;    0,682
1158,042;  171,232;   -0,727;    1,045
1158,576;  223,141;    0,182;    1,773
1159,110;  218,051;   -0,818;    2,409
1159,643;  191,323;    0,636;   -0,045
1160,177;  119,141;   -1,545;    1,500

