
Integration time [ms]:   0,040
Averaging Nr. [scans]: 11
Smoothing Nr. [pixels]: 0
Data measured with spectrometer [name]: 7318044SP
Wave   ;Sample   ;Dark     ;Reference
[nm]   ;[counts] ;[counts] ;[counts] 

186,757;   16,071;   31,551;    1,318
187,357;   59,281;   22,551;    0,955
187,958;   39,809;   15,460;   -1,591
188,558;   81,700;    8,915;   -1,227
189,159;   52,200;    6,733;   -4,500
189,759;   11,165;    7,278;   -3,591
190,360;   19,439;    2,824;   -2,136
190,960;   61,191;    2,915;   -4,136
191,560;   79,427;    3,189;   -6,591
192,161;  343,839;    4,372;   -3,500
192,761;  173,717;    4,010;   -3,227
193,361;  113,591;    1,556;   -3,773
193,962;  172,642;    2,010;   -2,682
194,562;   85,201;    1,189;   -3,955
195,162;  132,006;   -2,448;   -2,227
195,762;  294,061;   -3,176;   -0,045
196,362;  237,739;    1,370;   -2,500
196,963;   96,284;    2,006;   -0,864
197,563;  175,158;    1,551;   -0,955
198,163;  114,038;    0,096;   -0,682
198,763;  135,920;    1,733;   -0,500
199,363;  262,717;    3,096;   -0,500
199,963;  220,919;    0,369;    0,409
200,563;  190,087;    2,823;   -1,409
201,163;  163,356;    3,277;   -0,227
201,763;  257,157;    3,732;    0,318
202,363;  184,247;    1,459;    1,500
202,963;  307,184;    1,459;    1,045
203,563;  424,268;    0,277;    0,500
204,162;  264,464;    2,096;   -1,864
204,762;  260,432;    0,550;    0,591
205,362;  222,341;    3,004;    1,955
205,962;  319,443;    3,096;    1,955
206,562;  319,796;    1,823;    2,318
207,161;  275,802;   -0,087;    0,318
207,761;  449,646;    1,277;    2,409
208,361;  316,562;   -0,268;    1,409
208,960;  435,296;    0,459;    1,500
209,560;  504,533;    1,277;    1,591
210,160;  477,939;    0,550;    1,864
210,759;  443,027;    4,186;    1,227
211,359;  455,767;    1,459;    1,045
211,958;  728,222;    1,277;    2,045
212,558;  823,020;    1,732;    1,864
213,157;  655,519;    1,822;    1,500
213,757; 1116,970;    3,822;   -0,227
214,356;  797,855;    1,277;   -0,409
214,956; 1151,722;    3,095;    0,409
215,555;  749,624;    2,095;    2,136
216,154;  691,110;   -2,723;   -0,591
216,754;  707,557;    0,277;    0,773
217,353;  853,089;   -0,268;   -1,045
217,952;  691,302;   -0,178;    0,318
218,552;  950,578;    1,368;   -0,773
219,151;  846,651;    0,277;    0,955
219,750;  828,962;    0,004;   -0,227
220,349;  990,382;   -0,451;    1,045
220,948; 1055,613;   -1,360;    1,136
221,548; 1081,830;    0,913;    1,227
222,147; 1200,298;   -0,087;   -0,409
222,746; 1493,057;   -0,451;   -0,955
223,345; 1375,529;    0,731;    0,500
223,944; 1389,249;   -0,451;    0,773
224,543; 1586,295;    1,004;   -1,409
225,142; 1694,930;    0,094;    0,136
225,741; 1599,788;   -0,814;    1,045
226,340; 1635,291;   -0,451;   -0,955
226,939; 2108,110;   -0,996;   -0,136
227,538; 2084,900;   -0,360;   -0,773
228,137; 2236,596;   -0,814;    0,864
228,735; 2422,047;   -0,541;    1,227
229,334; 2149,949;   -0,905;   -0,227
229,933; 2538,564;    0,459;    0,591
230,532; 2676,704;    1,186;   -0,409
231,131; 2721,072;    1,732;    0,318
231,729; 2891,729;   -2,450;   -2,318
232,328; 3022,323;   -0,723;   -1,500
232,927; 3118,110;    1,004;   -0,500
233,525; 3287,106;    3,640;    0,045
234,124; 3504,764;    2,368;   -1,591
234,723; 3526,610;    0,913;   -1,045
235,321; 3670,998;    2,277;    0,136
235,920; 3937,459;    1,186;   -1,227
236,518; 4211,029;    3,459;    0,318
237,117; 4429,165;    0,004;   -0,227
237,715; 4608,557;    0,640;   -0,500
238,314; 4659,624;   -0,087;   -2,318
238,912; 4765,474;   -0,723;   -1,409
239,510; 4781,096;    0,459;   -1,227
240,109; 4978,477;    0,004;    3,773
240,707; 5031,918;   -0,996;    1,227
241,305; 5418,156;    0,550;    0,136
241,904; 5645,792;   -0,178;   -2,045
242,502; 5592,711;   -0,632;   -0,227
243,100; 5528,641;   -0,087;   -0,955
243,698; 5776,033;    0,732;    1,682
244,297; 5954,680;   -0,632;    0,682
244,895; 5787,445;   -0,269;   -2,318
245,493; 6165,540;    2,186;   -0,591
246,091; 6195,585;    1,368;   -1,318
246,689; 6175,218;    1,004;    0,591
247,287; 6365,274;    0,822;   -1,136
247,885; 6650,889;   -1,451;    1,227
248,483; 6742,875;    1,822;   -0,500
249,081; 6897,196;    0,185;    1,591
249,679; 7033,759;   -0,178;    1,682
250,277; 7273,956;   -1,723;    0,864
250,875; 7304,099;   -1,087;   -1,045
251,473; 7327,473;   -1,178;    0,500
252,071; 7526,966;    1,459;    1,045
252,669; 7683,613;   -1,814;    0,318
253,267; 7950,004;   -0,087;    0,773
253,864; 7942,910;   -0,360;    0,682
254,462; 7750,060;    1,640;    1,591
255,060; 7721,861;   -0,269;    1,318
255,658; 8076,431;    0,822;   -0,136
256,255; 8518,816;    0,186;   -2,045
256,853; 8346,707;   -0,269;    1,409
257,451; 8351,533;    0,822;    1,864
258,048; 8665,242;    1,822;    1,864
258,646; 8386,148;    1,731;   -1,045
259,243; 8580,707;   -0,087;    2,227
259,841; 8652,130;   -0,814;    0,318
260,438; 8534,497;   -0,087;    0,864
261,036; 9268,078;   -1,905;    1,409
261,633; 9136,711;   -0,087;    2,227
262,231; 8884,452;    2,731;   -0,045
262,828; 8960,327;   -0,905;    1,136
263,425; 9030,235;    0,913;   -0,591
264,023; 9315,043;    0,186;    0,045
264,620; 8858,050;   -0,360;   -0,318
265,217; 9224,707;   -2,087;    3,136
265,815; 9291,280;   -1,905;    2,136
266,412; 9080,623;    0,731;    0,136
267,009; 9132,075;   -1,451;    0,773
267,606; 9016,693;    0,822;   -0,955
268,203; 9000,760;   -0,269;   -0,591
268,801; 9281,641;    1,731;    0,591
269,398; 9589,658;   -0,360;    2,500
269,995; 9562,327;    0,277;    1,591
270,592; 9314,162;   -0,632;   -0,500
271,189; 9534,508;    0,186;    0,409
271,786; 9684,634;   -0,632;    1,227
272,383; 9502,722;   -1,087;    0,227
272,980; 9709,596;    0,277;    0,318
273,577;10178,848;    0,004;    1,227
274,174; 9719,075;    0,822;    2,591
274,771; 9717,795;   -0,814;   -0,773
275,367; 9883,026;    2,277;    1,409
275,964; 9828,676;    0,731;   -0,500
276,561; 9949,078;    1,549;   -1,045
277,158;10162,305;    0,095;   -1,773
277,755;10262,196;    2,185;    0,409
278,351; 9668,872;   -0,451;   -1,500
278,948; 9993,798;   -0,815;    0,045
279,545; 9991,969;   -1,360;    2,318
280,141;10669,973;   -1,723;   -2,045
280,738;10575,151;   -0,451;   -0,136
281,334;10792,567;   -1,633;    0,591
281,931;10172,923;   -0,087;   -1,318
282,528;10234,392;    0,822;   -0,500
283,124;10973,151;   -1,087;   -0,500
283,721;10854,000;   -0,451;    1,409
284,317;10647,353;    0,185;    2,500
284,913;11246,339;   -1,360;    0,591
285,510;11446,158;    0,640;   -0,318
286,106;11492,626;   -2,269;   -0,955
286,703;11081,029;   -0,360;    1,955
287,299;11240,130;   -1,451;   -0,591
287,895;11420,627;    0,822;   -1,045
288,491;12005,840;    0,186;    2,136
289,088;11741,294;   -2,360;    2,409
289,684;11823,067;   -1,723;    1,500
290,280;11822,781;    0,368;    0,682
290,876;11897,379;    1,822;    5,500
291,472;11794,973;    1,276;    2,227
292,068;11911,815;    1,367;    0,227
292,665;11611,858;    2,095;    0,773
293,261;11221,333;    0,276;    2,136
293,857;11630,047;    2,913;    2,136
294,453;11524,561;    3,550;    0,955
295,049;11409,069;   -0,268;    1,955
295,644;11417,771;    0,095;    0,136
296,240;11321,317;   -0,905;   -0,136
296,836;11377,604;   -0,995;    0,318
297,432;11673,118;    1,096;   -0,500
298,028;11706,999;    0,732;    0,773
298,624;12109,887;    1,459;    1,864
299,220;12380,006;    2,368;    0,591
299,815;12007,383;    1,005;   -0,409
300,411;11847,614;    0,914;    1,773
301,007;11862,262;    1,368;    0,227
301,602;11901,216;   -0,541;   -2,318
302,198;12044,318;    0,732;   -0,773
302,794;12401,873;    1,187;   -0,500
303,389;12523,065;   -1,177;    1,045
303,985;12588,317;    0,550;    1,409
304,580;12571,233;    1,459;    1,591
305,176;12543,855;   -3,086;    0,136
305,771;12451,100;   -1,268;   -1,227
306,367;12331,729;    4,095;    0,136
306,962;12653,398;    0,641;    1,500
307,558;12372,335;   -0,450;    0,136
308,153;12277,041;    1,095;   -1,136
308,748;12542,625;   -0,814;    1,682
309,344;12544,306;   -0,632;   -1,318
309,939;12591,670;   -1,905;   -1,318
310,534;12850,261;   -0,086;   -1,682
311,130;12794,328;    0,459;   -2,500
311,725;12513,810;    1,004;   -0,500
312,320;12824,646;    2,459;    0,045
312,915;12684,082;    1,459;   -1,045
313,510;12755,390;    1,550;   -0,500
314,105;13246,548;    1,096;    1,409
314,700;12636,576;   -3,086;   -1,045
315,295;12255,870;   -0,904;    0,045
315,890;11825,481;    1,277;    0,864
316,485;12222,453;   -0,359;   -0,318
317,080;12337,586;   -3,086;    1,591
317,675;12907,286;    2,005;   -0,682
318,270;12332,971;    5,550;    3,318
318,865;12341,604;    3,278;    3,045
319,460;12132,002;   -0,904;    0,591
320,055;12372,996;   -0,541;   -1,227
320,650;12013,402;   -1,995;   -0,591
321,244;12049,832;   -0,177;   -1,409
321,839;13013,677;   -1,541;   -0,227
322,434;12907,100;   -1,086;   -1,591
323,029;12547,111;    1,732;    1,591
323,623;12366,897;    1,550;    0,773
324,218;12142,723;    2,368;    1,409
324,812;12001,604;    1,096;    1,591
325,407;11840,821;   -0,814;    2,045
326,002;11765,342;    0,277;   -0,409
326,596;12052,566;    0,914;    1,318
327,191;12242,961;    0,823;   -1,045
327,785;11769,838;   -0,813;   -0,227
328,379;12027,265;    1,368;    0,136
328,974;11808,114;    0,914;   -3,955
329,568;12035,093;    0,186;   -2,409
330,163;11840,150;    2,096;    1,045
330,757;12165,705;    2,459;    1,591
331,351;11498,971;    0,459;    0,682
331,945;11804,688;    0,914;    1,409
332,540;11403,247;   -1,723;   -0,591
333,134;11569,044;   -1,086;    0,773
333,728;11849,034;    0,005;    0,318
334,322;12122,926;   -1,177;   -0,864
334,916;11364,233;    0,277;    0,955
335,510;11747,723;   -0,450;   -0,136
336,105;12002,688;   -1,086;    1,591
336,699;11696,621;   -1,086;    0,591
337,293;11617,194;   -1,723;    0,318
337,887;11770,495;   -2,723;    1,955
338,481;11873,820;    0,459;    0,591
339,074;12046,866;   -0,359;    2,682
339,668;11867,271;   -1,632;    1,227
340,262;12137,624;    1,732;    3,227
340,856;11613,509;    1,822;   -0,682
341,450;10949,145;    1,004;    1,864
342,044;11893,194;    1,459;    0,136
342,637;11631,568;    0,913;   -2,136
343,231;11507,686;   -2,360;    0,682
343,825;11451,072;   -1,086;   -0,591
344,419;11377,163;   -1,995;    0,500
345,012;11206,709;    2,459;    4,045
345,606;11213,748;    4,641;    1,591
346,199;11055,825;   -1,813;   -0,227
346,793;10578,776;    1,914;    2,045
347,386;10748,933;   -0,813;   -1,136
347,980;10754,947;   -0,268;   -0,045
348,573;10516,769;    2,278;    0,409
349,167;10190,766;    5,278;    4,773
349,760;10513,441;    2,914;    2,682
350,354;10523,945;   -0,813;    1,136
350,947;10315,777;    1,096;    1,682
351,540; 9943,438;   -0,358;   -1,409
352,134; 9907,018;    1,096;    1,136
352,727; 9989,475;   -0,086;    1,136
353,320; 9753,612;    0,005;    0,591
353,913; 9588,210;   -1,995;    1,864
354,507; 9754,773;    0,823;   -1,227
355,100; 9765,752;    0,460;    0,864
355,693; 9015,441;    2,005;    2,409
356,286; 9097,014;    0,823;    2,773
356,879; 9418,811;   -0,722;    1,227
357,472; 8999,672;   -0,904;    1,500
358,065; 9228,039;   -0,722;    2,500
358,658; 9142,172;   -0,540;    2,318
359,251; 8790,815;   -1,631;   -0,591
359,844; 8252,392;   -1,904;   -1,136
360,437; 8444,182;   -2,995;    0,045
361,030; 8725,056;    1,369;   -0,682
361,623; 8331,630;    2,824;    0,318
362,215; 8352,787;   -0,086;    2,045
362,808; 8187,081;   -2,358;   -1,682
363,401; 8384,934;   -2,449;    0,136
363,994; 8103,781;   -0,631;   -1,500
364,586; 8005,257;    0,824;   -1,500
365,179; 8244,771;   -0,449;   -1,136
365,772; 7741,885;   -1,995;    2,045
366,364; 8060,474;    1,915;   -3,227
366,957; 8245,677;    2,279;   -0,045
367,549; 8287,576;    2,188;   -0,864
368,142; 7918,398;    1,825;   -1,500
368,734; 8110,983;    0,734;   -2,136
369,327; 8045,371;    1,643;   -0,500
369,919; 7967,407;   -1,538;    0,409
370,512; 7755,544;   -1,083;   -0,500
371,104; 7527,031;   -0,901;    1,591
371,696; 7694,162;    1,191;   -0,955
372,289; 7826,457;    0,373;    1,136
372,881; 7953,032;   -2,080;    1,318
373,473; 7862,163;   -2,170;    1,136
374,066; 7683,375;   -0,169;    0,500
374,658; 7513,218;    0,378;    1,136
375,250; 7848,736;    0,653;   -1,409
375,842; 7698,425;    0,473;   -0,045
376,434; 7607,446;   -0,435;   -0,409
377,026; 8184,247;    0,204;   -2,500
377,618; 8080,573;   -0,158;   -0,682
378,210; 7920,636;   -0,338;   -1,955
378,802; 7752,324;    0,754;   -0,591
379,394; 7738,717;    1,846;    0,682
379,986; 8334,527;    1,393;   -0,955
380,578; 8409,580;   -0,153;    0,773
381,170; 7750,040;   -0,972;    0,045
381,762; 7716,307;    0,755;    1,409
382,354; 7943,849;   -0,065;   -1,318
382,945; 8009,252;   -2,976;    0,318
383,537; 8180,420;   -2,705;   -1,955
384,129; 8202,166;   -2,160;   -1,136
384,721; 8377,060;   -0,252;    0,955
385,312; 8312,773;   -0,161;   -0,955
385,904; 8419,182;   -2,706;    1,591
386,496; 7768,973;   -0,979;    1,045
387,087; 7924,215;    1,022;    2,500
387,679; 7957,750;   -1,160;    0,045
388,270; 8066,670;    2,840;    2,045
388,862; 8204,667;    1,295;   -0,318
389,453; 8132,268;   -0,887;    1,045
390,045; 8376,873;   -0,705;   -2,682
390,636; 8297,839;    0,204;   -0,591
391,227; 8144,139;   -0,523;   -0,045
391,819; 8234,652;    0,204;    0,773
392,410; 8331,432;    1,022;    0,045
393,001; 8261,256;   -0,979;   -1,591
393,593; 8543,340;    1,930;   -0,045
394,184; 8407,990;    1,385;   -0,409
394,775; 8367,116;    1,839;    2,136
395,366; 8557,414;    1,385;    0,773
395,957; 8557,016;    0,113;    0,136
396,548; 8818,652;   -0,342;    2,682
397,139; 9156,694;   -2,433;    0,591
397,730; 8889,193;   -1,888;    0,955
398,321; 8958,459;   -1,252;    0,955
398,912; 8995,245;   -0,615;    0,136
399,503; 9024,452;   -3,524;   -1,409
400,094; 8441,084;    0,294;    1,682
400,685; 8336,749;   -0,433;    0,045
401,276; 8426,267;    0,930;   -0,955
401,867; 8760,969;   -0,888;    0,773
402,458; 8832,046;   -2,251;   -2,318
403,048; 8816,994;    1,112;    0,591
403,639; 8405,704;    0,840;    0,864
404,230; 8657,850;    2,476;    0,318
404,821; 8569,270;   -0,615;    0,045
405,411; 8705,273;    1,203;   -2,591
406,002; 8307,032;   -1,252;   -1,136
406,592; 8167,755;    2,294;    0,045
407,183; 8472,084;    0,566;   -1,500
407,774; 8386,825;    3,475;   -0,136
408,364; 8729,035;    0,930;    0,409
408,954; 8312,314;    0,384;    1,227
409,545; 8377,395;    1,021;    1,045
410,135; 7915,765;    1,293;    0,500
410,726; 8069,516;    1,838;    0,318
411,316; 8451,814;    0,111;    0,773
411,906; 8105,831;   -0,253;   -0,409
412,497; 7599,825;   -1,070;   -0,045
413,087; 8209,531;   -1,980;   -0,227
413,677; 8612,002;   -0,707;    3,864
414,267; 8457,411;    0,656;    1,409
414,857; 8484,523;   -2,980;    4,227
415,448; 8764,307;    0,839;    0,500
416,038; 8457,447;    0,020;   -0,591
416,628; 8436,628;   -0,889;    0,409
417,218; 7864,009;    0,565;    3,318
417,808; 8164,393;    0,202;   -0,409
418,398; 8622,792;    0,020;    2,682
418,988; 8654,960;    2,020;    0,591
419,578; 8897,264;   -0,707;    1,409
420,168; 9248,292;   -1,343;   -0,955
420,757; 8852,884;   -1,343;   -1,500
421,347; 8530,945;    0,111;   -0,227
421,937; 8680,966;    2,292;    1,409
422,527; 8614,739;    0,838;   -0,773
423,116; 8445,275;   -0,253;   -0,045
423,706; 8772,561;   -1,889;    0,318
424,296; 8770,281;    1,384;    0,682
424,885; 9181,645;   -0,071;   -3,045
425,475; 9475,606;    1,474;   -2,864
426,065; 9379,903;   -0,980;   -0,318
426,654; 9001,291;   -0,435;   -0,318
427,244; 9158,833;    0,020;    1,409
427,833; 8610,445;    1,383;   -0,500
428,423; 9085,130;   -0,526;    1,136
429,012; 9844,406;   -0,344;   -1,136
429,601; 9318,486;   -1,344;    0,136
430,191; 9581,791;    1,292;    4,318
430,780; 9208,833;   -0,344;   -0,409
431,369; 9119,490;    0,746;   -0,045
431,959; 9762,902;   -1,254;    0,500
432,548; 9585,308;   -1,163;   -0,045
433,137; 9695,531;   -1,254;   -1,318
433,726;10206,955;    0,292;    0,500
434,315; 9557,318;   -0,526;    2,409
434,905; 9658,762;   -1,254;    1,409
435,494; 9552,814;    0,746;    0,955
436,083;10014,304;   -0,981;   -0,955
436,672; 9905,255;    0,110;    0,500
437,261; 9482,027;    0,292;   -1,955
437,850; 9614,325;    1,383;    0,682
438,439; 9598,604;    3,291;    1,955
439,027; 9452,359;    3,655;    1,773
439,616; 9802,551;    2,927;    1,227
440,205; 9634,181;    0,200;   -2,136
440,794; 9751,205;    2,109;   -0,045
441,383;10031,715;   -1,346;   -0,591
441,971; 9861,701;   -2,436;    0,591
442,560; 9694,725;    0,563;   -1,773
443,149; 9448,465;    0,379;   -1,318
443,737; 9601,476;   -0,074;   -2,318
444,326; 9887,099;    0,018;    0,318
444,915; 9979,204;   -1,982;    0,864
445,503;10379,166;   -2,891;   -0,318
446,092; 9589,012;    0,382;    2,136
446,680;10146,973;    0,382;    0,318
447,269;10312,246;   -0,346;   -0,318
447,857;10076,497;    0,018;   -1,773
448,445;10204,098;    0,563;    1,318
449,034;10425,654;   -1,528;   -1,136
449,622;10558,203;   -1,073;    3,500
450,210; 9782,626;    2,017;    2,227
450,799;10340,650;    0,290;   -0,591
451,387;10292,164;    1,381;   -0,591
451,975; 9925,944;    2,654;    0,864
452,563;10017,486;    3,472;    2,318
453,151;10055,223;   -0,528;   -1,227
453,739;10003,244;   -1,347;    0,136
454,328; 9794,076;    2,381;   -2,136
454,916; 9543,436;    2,562;   -0,136
455,504; 9735,961;    1,017;    1,227
456,092; 9896,765;    0,017;   -1,591
456,679; 9897,653;    1,472;    0,682
457,267; 9814,996;    4,017;    1,045
457,855; 9982,279;    1,017;    1,409
458,443; 9719,180;   -0,165;    1,682
459,031; 9876,674;    0,108;    2,409
459,619;10357,960;   -1,801;    2,864
460,206;10485,114;    0,835;    2,045
460,794;10561,194;   -2,983;   -0,227
461,382;10817,421;   -0,529;   -0,864
461,970;10382,540;    1,198;    1,864
462,557;10385,383;   -0,711;   -0,682
463,145;10582,768;   -3,165;   -1,682
463,732;10769,879;    2,016;   -1,045
464,320;10706,085;   -0,075;   -3,045
464,907;10349,749;    2,743;   -0,773
465,495;10232,703;    0,743;   -1,227
466,082;10392,742;   -1,984;   -0,045
466,670;10301,029;   -2,529;    1,227
467,257;10739,245;   -1,711;    2,045
467,844;10873,490;   -0,075;    0,045
468,432;10896,626;    0,834;    3,500
469,019;10352,329;    0,925;   -1,773
469,606;10894,242;    0,470;    3,682
470,193;10696,881;   -1,439;    0,227
470,780;10255,748;   -2,075;    0,864
471,368;10584,661;   -1,257;   -0,773
471,955;10404,357;    1,379;   -0,682
472,542;10028,297;    0,652;   -1,136
473,129;10272,892;   -0,166;    0,136
473,716;10020,199;    1,470;    0,591
474,303;10243,752;    0,652;   -0,864
474,890;10555,401;   -1,439;   -0,500
475,477;10580,688;   -1,621;    0,409
476,064;10460,334;    1,106;   -1,591
476,650;10377,335;    0,288;    0,318
477,237;10197,698;   -0,258;    0,955
477,824;10370,387;   -1,076;    0,864
478,411;10393,828;   -1,894;   -0,318
478,997;10596,271;    0,560;   -0,773
479,584;10668,253;    1,196;   -0,409
480,171;11439,757;   -0,440;   -0,773
480,757;11064,246;    2,651;    0,773
481,344;11361,187;    0,469;    0,409
481,931;10839,074;    1,105;    1,045
482,517;11935,683;   -1,258;    0,318
483,104;12577,131;    1,106;    2,864
483,690;12847,687;   -1,804;    0,045
484,276;13204,249;   -0,895;    0,227
484,863;12956,750;    2,469;    1,136
485,449;13546,403;   -0,077;    0,318
486,035;13521,630;   -1,986;   -0,136
486,622;13924,103;   -0,895;    0,045
487,208;13853,211;    1,378;    1,500
487,794;13677,490;    0,741;    0,318
488,380;13785,154;    0,105;   -1,409
488,967;13914,745;   -1,168;   -0,409
489,553;13948,266;   -1,895;   -1,409
490,139;14152,151;    1,559;    0,773
490,725;13511,168;    0,741;   -0,227
491,311;13039,210;    3,287;    3,045
491,897;12401,402;   -0,986;    1,500
492,483;12207,825;    0,105;    1,227
493,069;12001,294;    3,923;    0,864
493,655;12000,937;    1,650;    0,682
494,241;11892,070;    1,377;   -0,955
494,826;12294,262;    0,287;   -1,045
495,412;11769,658;    2,559;   -0,682
495,998;11893,926;   -0,805;   -0,318
496,584;12058,185;    0,377;    1,045
497,169;12065,555;    1,014;   -0,682
497,755;11974,104;    0,650;    1,227
498,341;12566,825;    0,559;    0,318
498,926;12173,849;    1,832;    1,955
499,512;12343,246;    1,286;    2,955
500,097;12490,037;    0,195;   -0,318
500,683;12424,813;   -0,350;    2,136
501,268;12798,943;   -0,169;   -0,955
501,854;12505,408;   -0,169;    1,227
502,439;12410,414;   -0,624;   -1,773
503,024;12623,313;    0,195;    0,500
503,610;12683,061;   -0,078;   -0,682
504,195;12738,495;    0,558;    1,955
504,780;12840,047;    2,922;    1,227
505,366;12654,663;    3,013;    2,864
505,951;12378,015;    0,740;    1,045
506,536;12409,935;   -3,260;   -3,682
507,121;12363,561;    0,285;   -0,318
507,706;12899,389;    2,376;    1,045
508,291;13312,019;    2,649;    1,136
508,876;12789,514;   -0,988;    2,591
509,461;12227,623;   -0,169;   -0,773
510,046;12657,459;    0,194;    0,318
510,631;12859,127;   -0,351;   -0,773
511,216;12542,326;    2,467;   -0,500
511,801;12943,550;   -0,442;    2,591
512,386;13228,123;    0,740;    0,500
512,971;13159,130;   -2,988;    0,955
513,555;12684,850;   -0,897;   -1,500
514,140;13514,361;   -0,442;   -3,136
514,725;13518,713;   -0,715;   -1,136
515,309;13688,965;   -0,533;    0,318
515,894;13100,294;   -0,624;   -2,227
516,479;13551,238;   -0,624;   -0,955
517,063;13362,661;    0,376;    1,227
517,648;13535,766;    1,012;   -1,136
518,232;13210,968;   -0,261;   -1,409
518,817;13502,216;   -0,079;    1,682
519,401;13737,345;    2,194;    0,591
519,985;13241,408;    1,103;    1,136
520,570;13123,775;    0,830;   -1,955
521,154;13420,611;    2,102;    0,591
521,738;13592,617;   -2,352;    2,409
522,323;14144,226;   -0,170;    1,682
522,907;13880,848;    0,466;   -0,136
523,491;13564,404;    0,557;    0,955
524,075;13550,198;    2,284;    0,591
524,659;13633,170;    1,466;    0,591
525,243;13099,943;    1,739;    0,409
525,827;13371,624;    0,648;   -0,045
526,411;14250,170;   -1,989;   -0,136
526,995;14481,537;   -0,352;    1,409
527,579;14051,029;   -0,443;   -1,045
528,163;14393,389;    0,375;   -1,500
528,747;14290,190;    2,466;   -0,773
529,331;14579,295;   -0,080;   -1,409
529,915;14787,610;    1,738;    0,955
530,499;14755,851;   -0,807;    1,227
531,082;14467,659;   -0,534;    1,591
531,666;13880,875;    1,374;    0,773
532,250;14577,166;    1,284;    2,682
532,833;14910,190;    0,920;    2,773
533,417;14779,955;   -1,807;    0,864
534,001;14766,326;    1,647;   -0,318
534,584;15426,521;    0,374;    0,500
535,168;15257,969;    0,465;    1,409
535,751;15361,728;    0,647;    0,045
536,334;14801,396;   -0,898;   -0,409
536,918;15396,871;    0,011;    1,591
537,501;15500,829;   -0,899;    1,318
538,085;15493,308;   -0,444;    1,045
538,668;15693,738;    0,829;    2,409
539,251;16013,986;    1,829;    3,773
539,834;15998,245;    0,101;    0,773
540,418;15971,010;   -1,990;    4,318
541,001;16078,042;   -0,990;    1,773
541,584;16008,265;    2,101;    2,227
542,167;15741,328;    1,374;    2,955
542,750;15894,028;    1,919;   -0,773
543,333;15485,929;    0,555;    2,136
543,916;16279,702;    0,192;    2,500
544,499;16908,797;   -1,354;    0,227
545,082;16910,321;    1,374;    3,591
545,665;17059,052;    1,919;    1,500
546,248;17393,838;    1,010;   -0,318
546,830;17047,335;   -0,445;    1,955
547,413;17399,383;    1,010;   -0,773
547,996;17967,761;    0,555;    0,500
548,579;17735,970;    0,919;    0,955
549,161;17537,495;    1,828;    2,682
549,744;17329,341;   -0,809;    0,409
550,326;17874,802;   -0,809;   -1,136
550,909;17644,365;    2,737;    0,591
551,492;18030,054;   -0,263;    0,227
552,074;17786,606;   -0,173;   -1,318
552,657;18375,396;    2,373;    0,045
553,239;18088,232;   -0,173;   -0,773
553,821;18006,890;   -1,082;    1,045
554,404;17525,179;    1,282;    1,136
554,986;17909,221;    0,464;    1,045
555,568;18539,602;    1,191;   -0,955
556,151;17760,941;    1,191;   -0,227
556,733;17978,022;   -0,264;   -0,864
557,315;18418,952;    0,100;    0,500
557,897;18198,452;    0,554;   -0,500
558,479;18363,399;   -1,991;    1,318
559,061;18507,231;   -0,719;   -0,864
559,643;18845,423;   -0,264;    0,045
560,225;19209,036;    1,645;    2,864
560,807;19181,423;    0,918;    0,318
561,389;18642,413;    0,554;    2,318
561,971;19463,454;    0,463;    2,136
562,553;19239,357;   -1,628;    1,591
563,135;19369,741;   -0,537;    1,136
563,717;18990,706;    3,372;    1,136
564,298;19699,682;    3,645;   -0,045
564,880;19450,073;    0,645;   -1,409
565,462;19626,982;    0,645;    1,318
566,043;20791,989;   -0,446;    2,318
566,625;20349,440;    1,918;    1,227
567,207;20196,958;    1,099;    1,682
567,788;21334,520;   -1,264;    1,500
568,370;22151,303;    1,917;   -0,500
568,951;21995,332;    0,190;    0,227
569,533;22892,170;   -0,628;   -0,500
570,114;23350,688;   -0,446;    0,682
570,695;23815,915;   -0,174;   -1,318
571,277;24394,048;   -0,265;   -1,682
571,858;25145,681;    2,008;   -1,136
572,439;26006,059;    1,554;   -1,045
573,021;26182,093;    2,099;   -2,773
573,602;26650,138;   -1,265;    0,318
574,183;27561,425;   -2,083;    2,227
574,764;27688,201;   -1,629;    0,409
575,345;28278,785;    0,917;   -0,136
575,926;28866,971;   -0,356;    0,136
576,507;28836,680;    1,099;   -0,227
577,088;29965,103;    3,099;    1,682
577,669;29977,956;    0,735;    1,955
578,250;30777,879;    0,644;   -1,045
578,831;31517,330;   -1,356;   -2,227
579,412;31714,659;   -0,810;    0,955
579,993;32578,184;    1,008;    0,227
580,573;32848,764;   -0,629;   -0,955
581,154;31797,173;    0,735;   -0,591
581,735;32678,740;    0,644;    0,773
582,315;32213,830;   -0,629;    2,136
582,896;32428,656;   -0,174;    1,227
583,477;31885,830;    0,189;    1,227
584,057;32142,061;    0,553;    0,955
584,638;32442,729;    2,553;    2,318
585,218;32387,236;   -0,538;    2,682
585,799;32568,603;    0,281;   -0,227
586,379;32538,013;    0,372;    1,591
586,959;31187,942;    0,735;    0,318
587,540;30487,589;   -0,629;    2,227
588,120;30158,445;    1,007;   -0,045
588,700;29120,851;    2,553;    2,136
589,281;29450,883;    0,462;   -0,955
589,861;29430,572;    0,099;   -1,682
590,441;29201,617;    2,371;   -2,682
591,021;28163,816;   -0,265;   -2,591
591,601;28384,838;   -0,537;    0,500
592,181;28427,037;   -0,719;   -0,773
592,761;27684,875;    0,007;    1,409
593,341;27595,362;   -0,901;    0,045
593,921;27604,799;   -0,265;    1,591
594,501;27545,792;   -0,538;    1,318
595,081;27392,915;    0,917;   -0,318
595,661;27727,376;   -1,447;    0,955
596,240;28249,688;   -0,537;    0,136
596,820;27974,835;    0,372;    1,955
597,400;28132,579;    2,008;    0,773
597,980;28273,327;    2,008;    1,045
598,559;28313,296;    2,735;   -0,227
599,139;28011,408;   -0,174;   -1,227
599,718;27891,135;   -0,174;   -0,409
600,298;28131,236;    0,735;    0,682
600,877;28380,702;    2,917;    1,409
601,457;28642,394;    2,281;    1,136
602,036;28614,562;    0,190;    2,045
602,616;28817,960;    0,644;    1,682
603,195;29106,300;   -0,355;    3,500
603,774;28711,653;   -0,901;    2,045
604,354;28567,992;    0,826;   -0,500
604,933;28035,737;    0,463;    1,864
605,512;28165,607;    3,554;    0,591
606,091;28216,426;   -0,537;    3,773
606,671;29047,912;    0,281;    0,773
607,250;28182,191;    1,644;    3,136
607,829;28397,111;    2,372;    3,227
608,408;28241,660;    1,190;    2,591
608,987;27237,825;    1,281;    3,409
609,566;27565,107;   -1,265;   -2,500
610,145;27641,444;   -1,082;    0,682
610,723;28037,035;    4,372;    6,864
611,302;27320,157;   -0,446;    1,682
611,881;26833,549;    5,008;   11,227
612,460;27680,891;    1,645;    3,955
613,039;28097,126;   -0,082;    2,045
613,617;26767,429;    1,736;    4,773
614,196;27009,105;    1,099;    1,227
614,775;27339,815;    1,009;    2,409
615,353;27278,472;    0,736;    0,864
615,932;27024,088;    0,100;    2,409
616,510;27608,629;    0,554;    0,591
617,089;27105,976;    7,100;   17,591
617,667;26823,273;    2,372;    6,136
618,246;26701,444;   -1,537;    1,318
618,824;26876,791;   -3,355;   -0,955
619,402;26424,339;   -2,900;   -1,773
619,981;26990,840;   -0,173;   -1,045
620,559;26787,868;    0,009;    1,682
621,137;26292,584;   -0,718;    1,864
621,715;26295,266;   -1,173;   -0,682
622,293;26306,459;   -0,537;   -0,773
622,871;26719,043;   -0,718;    0,500
623,450;26279,326;    0,373;   -0,864
624,028;26157,168;    0,191;   -0,955
624,606;25807,434;   -1,718;    1,682
625,183;26177,536;   -1,536;   -1,136
625,761;25798,078;    1,009;    1,136
626,339;26143,875;    1,373;    2,591
626,917;26490,732;   -0,172;   -0,045
627,495;26543,047;   -0,354;    1,318
628,073;25950,026;   -0,263;    2,864
628,650;25657,805;    0,100;    2,136
629,228;26065,889;    0,373;    4,409
629,806;25525,721;    2,282;    1,136
630,383;25786,722;    1,464;   -0,318
630,961;25563,480;    2,555;   -0,955
631,539;25319,774;    2,464;    0,227
632,116;24735,662;   11,373;   15,409
632,694;25234,638;    2,555;    6,500
633,271;25569,649;    0,828;    2,682
633,848;25550,698;    1,828;    2,045
634,426;25494,946;   -1,081;    1,773
635,003;24612,153;    1,101;   -0,409
635,580;24921,503;    1,192;    3,682
636,158;25475,387;    3,737;    1,227
636,735;25455,589;    0,555;   -0,500
637,312;25631,411;   -0,809;   -0,682
637,889;25701,534;   -4,354;   -0,682
638,466;25179,118;   -3,990;   -0,409
639,043;25202,867;    2,101;   -1,136
639,620;25521,196;   -2,262;   -0,955
640,197;25807,958;    1,100;    1,682
640,774;25933,648;   -0,172;    1,136
641,351;26344,520;    0,737;    1,136
641,928;25788,483;   -0,627;    1,409
642,505;25483,174;    0,828;   -0,500
643,082;25516,955;   -1,718;    1,227
643,658;24603,463;   -0,718;    1,500
644,235;25357,244;    1,191;    2,500
644,812;25640,935;    1,918;    0,773
645,388;25350,898;   -0,991;    1,409
645,965;25471,315;   -0,809;    1,682
646,542;25567,642;   -1,445;   -0,227
647,118;25539,605;    1,009;   -0,955
647,695;25869,113;   -0,263;    1,136
648,271;25732,349;   -0,536;    0,500
648,848;26028,039;    0,736;    2,227
649,424;25862,366;    0,827;    1,318
650,000;25644,602;   -0,354;   -1,045
650,577;25466,383;   -0,627;   -0,955
651,153;25928,437;   -1,809;    0,955
651,729;26937,218;    1,191;    0,864
652,305;27469,636;    0,645;    2,773
652,881;32570,780;   -0,082;    1,136
653,458;39386,289;    1,100;    0,227
654,034;42813,434;    0,282;    1,591
654,610;44080,942;    0,554;    0,773
655,186;45311,905;    0,645;    3,045
655,762;44913,141;   -0,991;    0,409
656,338;44877,831;    0,100;    0,136
656,913;45757,612;   -0,082;    0,409
657,489;45014,575;    0,827;   -0,318
658,065;44963,447;   -0,173;   -1,591
658,641;45574,956;   -0,900;   -0,864
659,217;44857,737;   -0,991;    0,409
659,792;44286,337;    0,645;   -0,409
660,368;44442,300;   -2,173;   -0,682
660,944;43810,899;   -2,082;    1,227
661,519;38664,226;   -0,628;    0,409
662,095;32806,552;   -1,719;    0,591
662,670;28661,333;    1,281;   -0,136
663,246;27750,387;    1,009;   -0,409
663,821;27147,805;    0,281;    1,682
664,396;26645,404;    0,009;    1,864
664,972;26974,458;    0,009;   -0,500
665,547;27239,421;    1,372;    0,136
666,122;27281,293;   -1,082;    0,318
666,698;27589,256;   -0,173;    0,318
667,273;26952,674;   -0,173;    0,136
667,848;27757,819;    2,372;    1,500
668,423;27555,600;    2,190;    2,318
668,998;28141,290;    2,827;   -0,682
669,573;28643,162;   -3,264;   -1,500
670,148;28501,943;   -1,446;   -0,682
670,723;28243,997;   -1,810;    0,318
671,298;28708,869;    2,372;    1,045
671,873;28811,742;   -0,082;   -0,136
672,448;28741,705;    0,645;    0,136
673,023;29098,758;   -1,992;   -0,227
673,597;29415,176;    0,827;    2,318
674,172;29192,412;   -0,355;    0,318
674,747;28683,738;    0,372;   -1,045
675,321;28474,247;   -0,628;    3,318
675,896;28059,119;    0,645;    1,045
676,471;29033,627;    2,645;    1,591
677,045;28855,409;   -1,264;    0,682
677,620;28901,917;    0,190;    1,136
678,194;29194,244;   -2,628;    1,136
678,769;28752,843;   -1,083;   -0,318
679,343;29059,442;   -0,628;    1,773
679,917;28941,405;   -1,446;    1,955
680,492;29014,096;    0,826;    3,227
681,066;29148,150;    3,372;    0,409
681,640;29187,567;    1,463;   -0,318
682,214;29969,076;    0,735;    0,500
682,788;29527,584;   -1,356;   -0,773
683,363;29508,820;   -1,810;    1,682
683,937;29176,601;   -1,719;   -0,318
684,511;29930,200;    0,463;   -0,591
685,085;29606,800;   -1,356;    0,318
685,659;29304,945;   -2,538;    0,864
686,232;29613,089;   -0,356;   -0,318
686,806;29375,143;   -0,901;    0,409
687,380;29969,288;   -0,174;    0,591
687,954;30172,979;   -1,174;    1,136
688,528;29883,123;   -0,719;    1,955
689,101;30679,632;   -3,992;    1,045
689,675;30255,686;   -0,356;   -0,136
690,249;29629,376;   -0,719;    0,409
690,822;29929,975;    0,280;    0,318
691,396;30039,847;   -0,265;    1,227
691,969;29466,629;    1,280;    0,136
692,543;29905,501;   -0,447;   -1,955
693,116;29603,464;   -0,265;   -1,409
693,690;29461,609;    0,099;    0,500
694,263;30072,844;   -1,083;    2,955
694,836;30074,898;    1,371;    3,591
695,410;28700,679;   -0,265;    1,773
695,983;29160,915;    0,189;    0,591
696,556;29120,605;   -0,447;   -1,045
697,129;29514,205;   -0,356;    1,409
697,703;29190,531;   -1,629;    1,955
698,276;29188,494;    1,462;   -0,773
698,849;28975,003;    1,280;    1,409
699,422;29337,784;   -1,083;    0,591
699,995;29011,111;    0,007;    0,136
700,568;29527,892;   -0,629;    3,045
701,140;29524,128;   -2,811;    1,682
701,713;29302,000;   -0,174;    2,409
702,286;29015,599;   -0,538;    0,864
702,859;28907,380;   -0,902;   -0,591
703,432;28034,071;    0,825;    0,682
704,004;28588,761;    0,462;    0,318
704,577;28421,360;   -0,629;    0,136
705,150;29005,505;    0,189;    2,500
705,722;28781,377;   -0,356;   -3,227
706,295;28571,249;   -0,175;   -0,591
706,867;28505,667;   -0,175;    1,955
707,440;28714,630;   -1,720;   -0,409
708,012;28958,593;    0,462;    0,591
708,584;28845,465;    2,462;    0,227
709,157;29100,246;    1,825;   -0,591
709,729;28732,118;    2,280;    2,045
710,301;29571,718;    0,734;    0,045
710,874;29561,226;   -1,447;   -0,227
711,446;28510,553;    0,371;    0,864
712,018;28354,334;    0,098;    0,500
712,590;28093,206;   -1,993;    1,682
713,162;28628,260;    0,825;    1,318
713,734;28860,496;    1,825;   -2,045
714,306;28717,186;   -1,902;   -0,409
714,878;27412,785;    0,825;    0,864
715,450;28276,112;    0,643;    0,864
716,022;28529,530;    1,552;    1,318
716,593;28672,493;    0,189;    0,591
717,165;28659,728;   -3,175;   -1,227
717,737;28354,873;    0,280;    0,409
718,309;28025,291;    0,280;   -0,045
718,880;27951,436;   -0,539;   -1,409
719,452;28186,399;   -0,175;   -1,591
720,024;27795,998;    0,734;   -0,591
720,595;28333,870;   -2,902;    0,955
721,167;27888,833;    0,370;   -2,045
721,738;27448,251;   -0,812;   -1,045
722,309;27460,941;   -0,993;   -1,227
722,881;27196,449;   -1,357;    0,773
723,452;27789,958;   -2,630;    2,864
724,023;27972,830;   -0,721;    2,682
724,595;27751,884;    0,007;    0,682
725,166;27464,210;    0,007;   -0,409
725,737;27140,264;    1,734;    0,227
726,308;27221,318;   -0,266;    0,318
726,879;27701,554;   -1,630;    1,227
727,450;27550,153;    0,552;   -0,045
728,021;27472,207;    3,097;    0,682
728,592;27268,807;    0,734;    0,500
729,163;27639,133;    0,643;   -0,136
729,734;27679,369;    0,188;   -0,227
730,305;28037,514;    1,734;    0,136
730,876;28343,295;    0,188;    2,955
731,447;28094,258;    2,188;    2,682
732,017;28211,403;    1,097;    1,864
732,588;27667,548;    0,734;    1,227
733,159;27835,965;    0,643;   -1,045
733,729;27644,656;    0,006;    0,409
734,300;26960,346;    0,915;    0,864
734,870;27337,763;    3,461;    0,591
735,441;27922,090;    0,370;   -0,591
736,011;27711,053;    0,643;   -1,591
736,582;27622,471;   -0,812;    0,045
737,152;27070,434;   -1,721;   -2,045
737,722;27506,033;   -0,267;   -0,682
738,293;27225,723;   -1,358;    1,318
738,863;27118,323;    2,461;    2,318
739,433;26896,922;    5,279;    0,318
740,003;27611,340;   -0,994;   -0,682
740,573;26988,303;    2,097;   -1,591
741,143;26910,902;   -1,085;    0,318
741,713;27719,320;    1,188;   -0,500
742,283;27441,828;    0,915;    1,591
742,853;27165,246;    1,915;    1,591
743,423;26611,663;    1,733;    0,045
743,993;26735,626;   -0,358;    1,500
744,563;26155,771;    0,097;   -0,864
745,133;26067,370;   -0,812;   -0,864
745,702;26746,152;   -0,267;    1,773
746,272;25979,387;   -0,176;    0,591
746,842;25730,168;   -1,358;   -0,591
747,411;26186,768;   -0,267;   -0,318
747,981;26349,458;    0,097;    0,500
748,551;26360,148;    2,278;   -1,045
749,120;26236,293;    0,642;   -0,227
749,690;26585,711;   -0,631;    2,409
750,259;26952,765;    1,369;    2,955
750,828;26887,091;    1,551;   -1,955
751,398;27198,054;    1,278;   -0,045
751,967;26716,381;    2,187;    0,409
752,536;26884,526;   -0,813;   -0,227
753,105;27249,852;    0,096;    0,227
753,675;27107,361;    0,096;    1,773
754,244;26991,869;   -0,904;    3,591
754,813;27051,014;    0,551;    1,227
755,382;26624,977;    0,460;    0,955
755,951;27208,122;    1,551;    3,682
756,520;26750,630;   -0,085;    1,864
757,089;27315,048;    0,278;    0,500
757,658;27436,647;    1,733;    1,227
758,227;27463,065;    1,096;    0,318
758,795;27731,301;    1,187;    1,136
759,364;27956,536;   -0,086;   -0,591
759,933;26954,954;   -1,176;   -0,045
760,501;26471,462;    0,733;   -1,318
761,070;26940,607;   -2,813;   -1,409
761,639;27664,116;   -1,904;    1,318
762,207;26966,261;    1,551;   -0,955
762,776;26910,769;    0,369;    0,864
763,344;26917,641;   -0,995;    0,591
763,913;26003,331;   -0,722;    1,409
764,481;26750,476;    1,005;   -0,136
765,049;26512,985;   -1,358;    1,409
765,618;26374,584;   -0,086;    0,318
766,186;26447,547;    0,278;    0,136
766,754;26652,237;    0,005;    1,864
767,322;25639,837;   -1,995;    0,409
767,890;25686,618;   -0,722;   -1,773
768,459;26103,672;   -2,177;   -0,318
769,027;26334,999;    1,641;    3,409
769,595;25293,143;    3,278;    2,591
770,163;25689,470;    3,823;    2,955
770,730;25414,888;    0,732;   -0,136
771,298;25223,851;    0,187;   -1,409
771,866;25278,904;   -1,541;    4,955
772,434;25649,504;   -0,631;   -1,864
773,002;25849,376;    0,005;    0,682
773,569;25489,703;    0,914;    1,682
774,137;25304,575;   -0,268;   -0,045
774,705;26082,810;    0,278;   -0,136
775,272;25590,501;    0,641;    0,682
775,840;25321,373;   -0,177;    2,682
776,407;24890,518;    0,277;    1,955
776,975;24506,390;   -0,632;    0,318
777,542;25440,262;   -1,086;   -0,045
778,110;25292,407;   -1,268;   -0,045
778,677;24964,461;   -2,359;   -0,864
779,244;24750,878;    2,186;    1,045
779,812;24900,477;    1,823;    0,864
780,379;24771,168;    0,005;    1,136
780,946;24991,404;    1,005;   -0,773
781,513;25312,548;   -1,450;    0,318
782,080;24697,875;   -0,086;    2,864
782,647;25454,202;   -0,268;    3,045
783,214;25046,801;   -0,177;    3,864
783,781;24652,582;   -0,723;   -0,682
784,348;24493,272;   -0,632;    1,500
784,915;24950,963;   -3,177;    0,318
785,482;24734,108;    1,368;    2,591
786,049;25139,071;    0,186;   -0,591
786,615;25250,215;    0,277;   -0,955
787,182;25015,360;    0,186;   -0,682
787,749;24658,596;   -2,814;    1,409
788,315;24003,923;   -1,632;   -0,409
788,882;24342,522;    1,550;   -1,227
789,448;25033,303;    1,732;   -0,955
790,015;25010,630;    1,095;    3,227
790,581;24562,138;    1,459;    0,227
791,148;24438,283;    0,641;    1,045
791,714;24644,519;   -0,541;    3,136
792,280;24344,209;    0,186;    1,591
792,847;23943,263;    0,550;    2,500
793,413;24526,772;   -0,269;   -0,318
793,979;24005,825;    3,459;   -1,318
794,545;24162,698;    4,459;    2,682
795,111;23537,479;    2,186;    1,318
795,678;23720,805;    0,731;   -1,682
796,244;23353,587;    3,368;    0,136
796,810;23885,368;    1,731;    0,773
797,375;23619,967;    0,549;   -2,136
797,941;23626,021;   -0,541;    0,591
798,507;23802,439;   -0,451;   -0,955
799,073;23315,765;   -0,360;    0,591
799,639;23366,546;   -2,632;    3,136
800,205;23443,146;    0,095;    2,682
800,770;22988,109;    0,640;    1,773
801,336;23048,890;    1,368;   -0,955
801,901;22766,762;    4,549;    3,136
802,467;23275,543;   -0,542;    2,045
803,033;22632,961;   -0,087;    0,864
803,598;22868,833;    1,913;   -1,045
804,163;22878,796;    1,095;   -0,318
804,729;22881,123;   -0,178;    1,136
805,294;23245,449;    0,822;    2,227
805,859;23019,049;    0,731;   -0,409
806,425;22496,648;    1,186;    2,682
806,990;22217,702;    2,186;    4,318
807,555;22655,756;   -1,451;    2,591
808,120;22562,264;    0,822;   -0,409
808,685;22628,227;    0,185;   -2,500
809,250;22116,190;    0,004;   -0,500
809,815;22430,153;    1,913;    0,682
810,380;22957,116;   -0,269;    1,591
810,945;23510,079;   -1,087;    2,045
811,510;22648,497;    2,094;    1,591
812,075;22331,460;   -0,633;   -1,409
812,640;22388,332;    2,003;    1,409
813,204;22497,204;    0,822;   -0,227
813,769;22991,803;    2,094;   -0,045
814,334;22384,312;    0,458;    0,864
814,898;22450,911;    0,367;    0,591
815,463;22256,147;    1,276;   -0,773
816,027;22298,110;   -0,724;   -2,318
816,592;22326,709;    0,640;   -2,045
817,156;21869,672;    2,094;    1,136
817,721;21757,454;    4,276;    2,318
818,285;21661,962;    2,912;    1,500
818,849;22295,834;   -1,451;    1,682
819,414;22217,070;   -0,269;    2,955
819,978;21781,669;   -1,269;    1,773
820,542;22393,996;    2,003;    0,500
821,106;22084,595;   -0,815;    0,682
821,670;22189,286;   -0,815;    2,591
822,234;21902,158;   -0,270;    1,409
822,798;21273,757;    0,003;    0,500
823,362;21237,266;   -0,633;    4,227
823,926;20564,592;    0,094;    1,136
824,490;20791,464;   -0,997;   -0,682
825,054;21232,336;   -0,088;   -1,136
825,618;20864,572;   -1,542;   -1,500
826,181;20806,444;    0,458;   -1,318
826,745;20714,589;    1,367;   -1,045
827,309;21113,461;    1,185;    1,318
827,872;20433,242;    1,367;    0,955
828,436;21438,660;    1,185;   -0,773
828,999;21488,350;   -0,997;    1,227
829,563;20294,222;   -0,179;    1,136
830,126;20157,822;   -0,179;   -0,591
830,690;20157,512;   -1,997;    2,864
831,253;19683,293;   -0,543;    2,227
831,816;19816,711;   -1,906;    0,500
832,380;19728,219;    0,185;    0,864
832,943;19934,182;   -1,361;   -0,500
833,506;19400,236;    2,639;   -1,227
834,069;20261,290;    3,912;   -0,955
834,632;20273,980;    1,730;    1,318
835,195;20211,852;    1,003;    0,955
835,758;19326,270;   -0,997;    1,955
836,321;19179,687;    0,730;   -1,045
836,884;19263,014;   -0,725;   -0,955
837,447;19294,704;   -2,816;    1,773
838,010;19618,577;    0,366;    3,227
838,573;19926,449;   -1,179;    0,773
839,135;19843,684;   -1,361;   -0,955
839,698;19353,829;    1,275;    0,409
840,261;18884,338;    1,003;   -0,227
840,823;18681,119;   -0,543;    0,864
841,386;18979,536;   -0,452;   -2,409
841,948;18867,499;   -1,361;    1,773
842,511;18580,644;    0,912;    1,682
843,073;18756,789;    1,912;    0,227
843,636;18566,479;   -0,361;   -0,227
844,198;18524,806;    0,911;    0,591
844,760;18635,496;    1,093;    1,955
845,322;18247,641;    0,548;    1,136
845,885;18703,513;    0,730;    0,591
846,447;19130,840;   -1,998;    0,227
847,009;18752,712;    1,911;   -0,682
847,571;19028,039;    0,820;   -2,045
848,133;19120,274;   -1,089;   -1,864
848,695;18926,601;   -0,543;    1,409
849,257;18485,200;   -1,089;   -1,682
849,819;18715,800;   -0,998;   -0,409
850,381;18729,581;   -0,725;   -0,864
850,942;19112,089;    1,093;   -0,591
851,504;19073,961;    1,184;    0,227
852,066;19053,652;    1,275;   -1,591
852,628;18597,251;   -0,180;    1,955
853,189;18137,760;    1,638;    2,682
853,751;18268,995;   -0,907;    1,409
854,312;18060,231;   -0,453;   -1,682
854,874;18590,649;   -2,089;   -0,773
855,435;19092,248;   -0,907;   -1,682
855,997;19271,211;   -1,816;   -0,136
856,558;18541,356;    0,366;    1,773
857,119;18665,773;    0,820;    2,864
857,681;18344,191;    0,002;    0,318
858,242;18398,427;    1,911;   -2,136
858,803;18824,571;    0,456;   -0,773
859,364;19375,807;    0,184;   -4,773
859,925;18738,407;   -2,453;   -0,955
860,486;18616,915;   -0,453;   -0,955
861,047;18293,424;   -0,544;   -1,227
861,608;18130,659;   -1,089;   -0,773
862,169;18236,350;    0,638;   -0,045
862,730;18032,222;    0,456;    1,409
863,291;18301,639;   -0,635;   -0,500
863,852;18682,784;   -0,635;    1,955
864,412;18120,656;   -0,271;   -0,864
864,973;16688,346;   -0,089;    0,500
865,534;16585,946;   -1,726;    0,227
866,094;18049,091;    1,820;    0,227
866,655;17711,417;    1,274;    3,318
867,215;18003,744;    0,274;    0,136
867,776;17812,071;    0,547;   -0,136
868,336;17931,488;   -1,453;    0,136
868,897;17464,451;    2,638;    1,682
869,457;17168,687;    1,365;    0,318
870,017;17404,377;    0,547;   -1,227
870,578;17894,249;   -0,817;    0,773
871,138;17596,394;   -2,089;   -0,955
871,698;17173,993;   -0,817;   -1,318
872,258;17059,411;   -0,453;   -2,864
872,818;17423,010;    2,729;    0,045
873,378;17375,519;    0,638;    1,045
873,938;16894,300;    0,547;    0,500
874,498;17251,263;    0,274;   -1,955
875,058;17154,862;    2,183;    1,773
875,618;16954,098;    1,910;   -2,682
876,177;16870,970;    1,274;    0,136
876,737;16513,297;   -0,090;    1,955
877,297;16576,169;    0,183;    1,955
877,856;16576,314;   -0,362;    0,318
878,416;16496,004;    1,183;   -0,136
878,976;16685,240;   -1,817;    0,409
879,535;16866,930;    0,092;    3,136
880,095;16617,348;   -0,544;    0,045
880,654;16762,220;   -1,090;    1,318
881,213;16866,274;    2,456;    1,500
881,773;16502,237;    2,637;    2,682
882,332;16887,472;    3,365;    5,136
882,891;16668,435;    3,092;    2,136
883,451;17180,489;   -1,272;    1,682
884,010;16585,089;   -2,908;   -0,409
884,569;16713,870;   -0,999;   -0,045
885,128;16834,469;    2,819;   -1,864
885,687;16946,978;    4,455;    0,682
886,246;16640,668;    1,455;    2,136
886,805;16406,904;    2,455;    2,045
887,364;16681,685;   -0,999;   -0,500
887,922;17058,921;   -1,181;    0,045
888,481;16554,156;   -1,545;    0,591
889,040;16855,847;    1,183;    2,136
889,599;17468,173;    2,455;    1,409
890,157;17549,045;    1,455;    2,409
890,716;17247,099;   -0,090;    0,227
891,274;17068,517;    0,092;   -1,136
891,833;17483,571;    1,546;    0,864
892,391;17364,625;   -0,454;    0,500
892,950;17445,315;    1,819;   -0,773
893,508;17824,733;    0,455;   -0,409
894,067;17166,423;    0,637;    0,136
894,625;17063,113;   -0,636;   -1,500
895,183;17252,803;   -0,363;   -0,682
895,741;17163,039;    1,728;   -1,773
896,299;16979,729;   -0,545;   -2,409
896,858;17176,602;    0,819;   -1,591
897,416;17304,655;    2,728;   -1,318
897,974;17002,528;    1,819;    0,318
898,532;17220,854;    6,091;    2,682
899,089;17088,817;    2,091;   -0,682
899,647;17144,144;   -1,454;    1,318
900,205;16889,561;    1,182;    1,045
900,763;17088,706;   -0,454;    0,227
901,321;17081,215;    2,364;   -1,409
901,878;16498,541;   -1,000;   -0,773
902,436;16386,595;   -1,363;    1,318
902,994;16798,104;    4,728;    3,682
903,551;16225,430;    0,728;    0,409
904,109;16605,212;    0,182;   -1,409
904,666;16163,720;    2,455;    1,045
905,224;16006,956;    0,182;   -0,409
905,781;15793,555;    0,727;   -0,318
906,338;15860,064;   -1,363;    1,045
906,895;15760,572;    0,637;    2,045
907,453;15685,717;    1,727;    1,136
908,010;15692,498;   -0,909;    0,409
908,567;15349,552;    1,273;    0,591
909,124;14866,788;    0,364;   -1,500
909,681;14964,842;   -2,909;    0,682
910,238;15093,077;    0,636;   -1,318
910,795;15417,404;   -0,273;   -1,136
911,352;15011,768;   -2,909;   -2,682
911,909;14458,040;   -1,364;   -0,864
912,466;14937,768;   -3,182;    1,500
913,022;14507,313;   -1,636;    0,500
913,579;14859,586;   -0,909;    2,045
914,136;14551,222;    1,636;    0,955
914,692;14879,859;    0,091;   -1,227
915,249;14462,040;    1,455;    0,409
915,806;14703,495;    0,182;    1,955
916,362;14474,222;    1,909;    1,864
916,918;14052,495;    2,000;    1,045
917,475;14023,859;   -1,182;    0,955
918,031;14084,768;    3,364;   -0,045
918,587;13524,040;   -0,909;   -0,318
919,144;13750,677;   -2,273;    0,227
919,700;14057,040;    1,727;    0,773
920,256;13625,131;    0,727;    0,045
920,812;13247,131;   -0,727;   -1,045
921,368;13265,768;   -1,727;   -1,045
921,924;12897,222;    0,182;   -0,136
922,480;12523,222;   -0,545;    1,227
923,036;13080,586;    1,273;    1,955
923,592;13016,768;    0,455;    0,318
924,148;12932,404;    0,455;   -0,955
924,704;12261,677;   -1,364;   -0,409
925,259;12521,949;   -0,273;    0,591
925,815;12286,495;    1,455;    0,500
926,371;11781,677;    2,909;    1,409
926,926;11690,222;    2,091;    0,591
927,482;11310,859;   -1,364;    0,773
928,037;11206,131;    0,909;    2,045
928,593;11530,131;    1,636;    1,045
929,148;11306,768;   -1,818;   -1,500
929,704;10809,040;   -1,455;   -0,500
930,259;11036,495;    0,091;   -0,136
930,814;10100,586;   -0,818;    1,955
931,369; 9762,677;    1,091;   -0,773
931,925; 9658,768;   -0,091;    0,136
932,480; 9592,222;   -2,818;   -2,591
933,035; 9472,313;    0,545;   -0,318
933,590; 9237,313;    0,364;   -1,773
934,145; 8880,677;   -1,364;   -0,318
934,700; 9207,768;    0,455;   -0,591
935,255; 9033,859;   -0,091;    0,045
935,809; 8312,586;    3,182;    0,864
936,364; 7446,040;   -0,455;   -0,136
936,919; 7396,313;    0,455;   -1,773
937,474; 7278,677;    1,455;    0,136
938,028; 7041,495;   -1,636;    1,136
938,583; 6548,495;    1,818;    4,682
939,138; 6809,949;    2,091;    2,136
939,692; 6225,586;    1,636;   -1,136
940,247; 5966,859;   -0,727;   -1,045
940,801; 5502,586;   -0,636;    0,227
941,355; 5398,949;   -0,364;    2,591
941,910; 5044,586;   -0,273;   -2,136
942,464; 5151,586;   -0,818;   -0,318
943,018; 4964,586;    1,000;   -0,227
943,572; 4907,586;    2,545;   -0,682
944,126; 4321,404;    0,091;   -0,409
944,681; 4235,586;    3,091;    0,227
945,235; 4238,404;    1,000;   -0,591
945,789; 4142,949;    0,364;   -1,864
946,342; 4241,222;    0,455;   -0,591
946,896; 4061,313;   -2,273;    0,955
947,450; 3843,859;    1,545;   -0,227
948,004; 4019,131;    1,727;   -0,045
948,558; 4014,313;    0,273;   -0,864
949,111; 3939,949;   -0,273;   -0,318
949,665; 3968,677;    1,636;   -0,682
950,219; 3854,677;   -0,091;   -1,045
950,772; 3930,768;   -1,909;    1,864
951,326; 3811,495;    0,545;   -0,955
951,879; 3943,859;    0,727;   -2,318
952,433; 3975,040;    0,000;    2,227
952,986; 3803,586;    2,909;    0,682
953,539; 3756,131;   -0,273;    0,591
954,093; 3670,677;    0,545;   -1,318
954,646; 3830,404;    0,909;    1,318
955,199; 3619,404;    0,000;   -0,500
955,752; 3516,859;   -0,455;    1,773
956,305; 3475,859;   -0,091;    2,955
956,858; 3653,313;    0,818;   -0,318
957,411; 3802,949;   -0,545;    2,136
957,964; 3633,404;    1,364;    2,136
958,517; 3623,586;   -1,545;    3,136
959,070; 3450,495;   -0,455;    1,955
959,623; 3544,222;    1,091;    1,500
960,176; 3315,495;    1,727;    2,045
960,728; 3288,768;   -2,727;    0,773
961,281; 3356,404;    0,545;    0,500
961,834; 3378,949;   -0,909;    0,864
962,386; 3302,949;    1,727;    1,045
962,939; 3240,040;    0,364;   -0,318
963,491; 3371,495;    0,455;    1,136
964,043; 3228,404;    1,182;    2,409
964,596; 3379,586;   -1,000;    2,227
965,148; 3203,131;   -1,000;    1,773
965,700; 3129,586;    1,091;   -0,227
966,253; 3292,131;   -0,636;    0,318
966,805; 3123,313;   -2,273;    0,773
967,357; 3148,222;    1,091;   -1,500
967,909; 3122,404;    0,455;   -1,227
968,461; 3218,768;    0,545;    3,136
969,013; 3164,949;   -0,182;   -0,864
969,565; 3251,677;   -0,455;   -1,136
970,117; 3310,949;   -0,364;    1,045
970,669; 3130,768;    0,182;   -0,136
971,220; 2988,949;   -0,455;   -1,500
971,772; 2930,313;   -0,636;   -0,318
972,324; 3043,768;    0,091;   -0,500
972,876; 2979,859;    0,818;   -0,045
973,427; 3133,677;    1,909;   -1,045
973,979; 3094,040;   -0,727;   -2,500
974,530; 3124,222;    1,818;    1,318
975,082; 3125,313;   -0,545;    1,682
975,633; 3042,404;    1,091;    1,682
976,184; 3178,404;    0,909;    0,773
976,736; 2955,949;    0,091;    0,227
977,287; 2765,495;   -0,909;   -0,500
977,838; 2966,313;    0,909;   -0,318
978,389; 3008,040;   -1,000;   -0,500
978,940; 2876,495;    0,545;   -0,409
979,491; 2910,404;    0,091;   -0,500
980,042; 2886,768;    0,182;    3,045
980,593; 2925,040;   -2,545;    0,227
981,144; 2961,677;    2,545;   -0,500
981,695; 2934,313;    1,455;    1,500
982,246; 2910,677;   -0,273;    1,045
982,797; 3056,313;   -1,727;    0,682
983,347; 3164,495;    0,364;    0,591
983,898; 3336,677;    3,091;    0,409
984,449; 3167,859;    2,182;    0,773
984,999; 3063,949;    1,455;   -1,136
985,550; 2830,677;    0,182;   -0,318
986,100; 2862,222;   -0,455;   -0,318
986,651; 2894,677;   -0,818;    0,045
987,201; 2871,222;   -1,000;   -0,591
987,751; 2947,859;    0,818;    2,864
988,302; 2947,040;    2,636;    1,500
988,852; 2963,677;    0,455;   -1,136
989,402; 3011,131;    0,091;    0,682
989,952; 2922,131;   -2,182;    0,864
990,502; 3016,313;   -0,091;    0,682
991,052; 2960,313;   -0,727;    0,045
991,602; 2852,404;   -2,909;    1,318
992,152; 2856,949;    0,455;    0,682
992,702; 2844,768;    1,364;   -0,045
993,252; 2776,949;   -3,000;   -0,500
993,802; 2863,586;   -0,273;    1,318
994,352; 3090,222;   -1,545;    1,136
994,901; 3175,586;   -0,182;    3,227
995,451; 3093,040;   -0,182;    0,318
996,000; 3183,677;    1,636;    0,318
996,550; 2885,131;    2,273;    0,227
997,100; 2877,586;    1,273;   -0,045
997,649; 3165,677;    2,182;    0,955
998,198; 2796,222;    1,727;   -1,500
998,748; 2998,040;    1,091;   -2,318
999,297; 2902,131;   -0,818;   -0,409
999,846; 2944,677;    1,000;   -0,773
1000,395; 3006,495;   -0,818;    0,500
1000,945; 2981,768;    1,818;   -0,773
1001,494; 3060,495;    2,364;    0,682
1002,043; 3033,859;    4,636;    0,864
1002,592; 2871,404;   -1,091;    1,955
1003,141; 3043,404;   -0,455;   -0,682
1003,690; 2903,586;    1,727;    0,500
1004,238; 2971,768;    1,455;   -0,045
1004,787; 2599,949;    1,364;    1,227
1005,336; 2847,040;    0,364;    0,682
1005,885; 3007,222;    1,364;   -2,773
1006,433; 3138,131;    0,545;    0,955
1006,982; 3201,677;    0,455;    1,682
1007,531; 3093,131;   -1,818;   -0,227
1008,079; 3033,495;   -2,273;    0,500
1008,627; 3164,040;   -1,455;    0,409
1009,176; 2890,768;    0,000;   -1,955
1009,724; 2958,040;    1,091;    0,864
1010,273; 3015,768;    1,273;    0,500
1010,821; 3128,949;    0,091;    1,409
1011,369; 2870,859;   -1,364;    1,318
1011,917; 2851,495;   -1,364;   -0,591
1012,465; 3137,131;    1,273;   -1,591
1013,013; 3228,404;    2,091;   -1,682
1013,561; 3113,495;    0,455;   -0,773
1014,109; 3177,222;   -1,909;    1,682
1014,657; 3035,313;    0,364;    0,591
1015,205; 3174,040;    1,636;   -0,955
1015,753; 3218,768;   -0,545;   -1,409
1016,301; 3245,949;   -2,636;    3,045
1016,848; 3222,131;   -1,273;    0,409
1017,396; 3297,131;    2,545;    0,045
1017,944; 3413,586;    1,182;    1,864
1018,491; 3156,677;    0,273;    1,409
1019,039; 3309,313;    0,455;    0,591
1019,586; 3204,313;   -1,364;    1,682
1020,134; 3314,222;    0,455;    1,500
1020,681; 3350,495;    0,182;   -1,136
1021,228; 3336,768;    2,909;   -2,227
1021,776; 3179,859;    1,182;   -1,136
1022,323; 3411,313;    0,455;    0,773
1022,870; 3324,859;   -1,000;   -0,045
1023,417; 3218,677;    2,636;    1,864
1023,964; 3342,768;    2,636;    1,227
1024,511; 3206,859;    1,000;    0,773
1025,058; 2999,313;    3,182;   -0,045
1025,605; 3046,404;   -2,273;    3,136
1026,152; 3277,222;    1,727;   -0,591
1026,699; 3001,859;    1,818;    1,318
1027,245; 3154,949;   -0,091;    0,318
1027,792; 3365,495;   -1,000;    1,409
1028,339; 3265,586;    2,364;   -0,045
1028,885; 3107,313;    1,000;   -0,227
1029,432; 3058,404;   -0,091;    0,227
1029,978; 3123,586;   -1,000;   -1,591
1030,525; 3011,222;    1,000;    0,409
1031,071; 3240,495;   -1,364;    1,136
1031,618; 3361,586;    0,364;    1,682
1032,164; 3142,768;   -0,091;    3,045
1032,710; 3191,040;    1,636;   -1,500
1033,256; 3106,040;   -0,636;   -0,136
1033,803; 3100,495;   -0,545;    1,500
1034,349; 2802,495;   -1,364;    0,136
1034,895; 2941,859;    0,000;   -0,318
1035,441; 2944,222;   -0,818;    0,318
1035,987; 2938,222;   -2,364;   -0,682
1036,533; 2936,495;   -1,455;   -0,955
1037,078; 3148,131;    1,455;    1,682
1037,624; 2960,313;    2,455;   -0,955
1038,170; 2999,677;    0,455;   -0,318
1038,716; 2914,859;    1,636;   -0,409
1039,261; 2816,495;   -2,273;   -0,773
1039,807; 2752,222;   -0,091;    3,409
1040,352; 2824,768;   -1,909;   -0,318
1040,898; 2844,131;   -1,545;   -0,682
1041,443; 2745,586;   -1,455;   -2,591
1041,989; 2796,222;    1,091;    1,591
1042,534; 2665,677;   -0,364;    2,591
1043,079; 2776,677;    2,909;    0,955
1043,625; 2582,495;    1,818;    0,500
1044,170; 2613,768;   -1,364;    1,045
1044,715; 2879,131;    2,455;    0,955
1045,260; 2692,222;    2,182;   -0,955
1045,805; 2739,313;    1,182;   -0,591
1046,350; 2659,768;    1,364;   -0,409
1046,895; 2619,131;    2,909;    1,591
1047,440; 2570,313;    5,364;    0,409
1047,985; 2478,495;    2,818;   -0,955
1048,530; 2397,313;    1,545;    1,227
1049,074; 2482,404;    0,000;    0,318
1049,619; 2435,495;   -1,364;    1,955
1050,164; 2249,949;    0,455;    0,227
1050,708; 2300,222;   -0,455;    0,045
1051,253; 2673,677;    1,273;   -2,227
1051,797; 2368,404;    0,818;   -1,318
1052,342; 2377,313;   -1,182;    1,045
1052,886; 2379,040;    0,364;   -1,409
1053,430; 2254,040;   -1,364;    0,136
1053,975; 2267,586;   -0,818;   -0,318
1054,519; 2248,313;   -0,727;    3,227
1055,063; 2256,313;    0,909;    1,318
1055,607; 2145,404;   -0,182;    0,227
1056,151; 2190,313;    2,909;    1,682
1056,695; 2099,222;    2,273;   -1,136
1057,239; 2164,949;   -1,727;   -0,682
1057,783; 2171,495;    0,818;   -1,500
1058,327; 2117,586;    0,000;    1,409
1058,871; 2347,131;   -0,545;    1,318
1059,415; 2073,404;   -0,818;   -0,045
1059,958; 2346,586;    1,455;    2,591
1060,502; 2046,040;   -1,000;   -0,773
1061,046; 1938,768;    0,364;   -0,955
1061,589; 1921,313;   -3,000;   -1,136
1062,133; 1806,949;   -1,273;    1,864
1062,676; 1740,586;    1,182;    0,864
1063,220; 1752,040;    1,091;    0,500
1063,763; 1774,949;    0,909;    1,136
1064,306; 1859,768;   -0,909;    1,864
1064,849; 1741,222;   -0,909;    0,591
1065,393; 1743,313;    2,000;   -1,500
1065,936; 1864,586;    0,182;   -0,409
1066,479; 1743,677;   -1,455;    1,318
1067,022; 1774,768;   -0,273;   -0,227
1067,565; 1662,404;   -0,091;   -1,318
1068,108; 1689,313;    0,727;   -0,591
1068,651; 1668,131;   -0,636;    1,409
1069,194; 1594,222;   -0,455;   -1,682
1069,736; 1598,495;   -1,273;    0,955
1070,279; 1564,768;   -1,364;   -0,500
1070,822; 1635,677;   -2,000;   -0,318
1071,364; 1733,586;   -0,364;    1,318
1071,907; 1549,222;   -0,727;    3,227
1072,450; 1438,222;    0,000;   -0,045
1072,992; 1437,131;   -0,273;    3,136
1073,535; 1586,495;    2,091;    2,136
1074,077; 1366,040;   -0,727;    2,045
1074,619; 1332,949;   -1,364;    0,591
1075,161; 1380,313;   -1,091;    1,500
1075,704; 1570,313;    1,545;    1,227
1076,246; 1351,131;   -0,182;    0,682
1076,788; 1286,131;   -0,364;    1,773
1077,330; 1346,949;    1,273;    2,136
1077,872; 1312,404;    0,909;    0,955
1078,414; 1561,949;    2,727;    0,773
1078,956; 1292,040;    1,273;   -0,227
1079,498; 1546,313;    1,636;    0,318
1080,040; 1259,404;    1,909;   -1,318
1080,581; 1193,131;    1,636;   -0,318
1081,123; 1108,222;    0,091;   -0,773
1081,665; 1161,222;   -1,182;   -0,955
1082,206; 1479,131;    1,364;   -0,500
1082,748; 1324,586;    0,727;    2,045
1083,289; 1192,586;   -2,000;    1,318
1083,831; 1104,768;   -0,545;    0,227
1084,372; 1151,586;    0,000;    0,591
1084,913; 1142,222;    1,091;    0,864
1085,455; 1101,313;   -1,909;   -2,045
1085,996; 1074,222;   -2,273;    0,136
1086,537; 1107,040;   -0,091;    0,864
1087,078; 1146,222;   -0,909;   -2,136
1087,619; 1185,495;   -1,273;    0,227
1088,160; 1101,040;    0,000;    1,318
1088,701; 1083,040;   -1,091;    0,682
1089,242; 1016,040;    1,364;   -2,227
1089,783; 1121,313;   -0,273;    1,409
1090,324; 1099,313;    0,455;    0,682
1090,865;  975,040;    2,727;   -0,409
1091,405;  932,677;    0,727;    2,227
1091,946;  953,313;    0,182;   -0,955
1092,487;  875,040;    0,818;   -1,409
1093,027; 1064,040;   -1,364;   -1,500
1093,568;  911,404;   -0,364;    1,227
1094,108; 1028,222;    0,273;    1,773
1094,649;  954,131;   -1,182;    0,136
1095,189;  868,222;   -0,636;   -0,682
1095,729;  838,222;   -0,091;    0,955
1096,269;  826,222;    0,727;   -0,955
1096,810; 1159,222;   -1,364;    0,500
1097,350;  992,495;    1,364;   -0,773
1097,890;  883,677;    0,364;    1,227
1098,430; 1148,586;    2,364;    2,864
1098,970; 1023,222;    2,182;    1,682
1099,510;  873,131;    0,545;   -2,318
1100,050;  799,495;    1,000;   -1,591
1100,589;  765,677;   -0,727;   -0,318
1101,129;  898,949;    0,818;   -0,955
1101,669; 1049,040;    1,727;    2,136
1102,209;  868,222;   -0,091;    2,227
1102,748;  821,222;    0,000;    0,955
1103,288;  821,768;    1,273;   -1,227
1103,827;  845,859;    3,091;   -2,227
1104,367;  718,677;   -0,091;   -2,409
1104,906;  682,495;    1,364;   -1,136
1105,445;  760,586;    0,636;   -1,136
1105,985;  704,131;   -0,727;    1,500
1106,524;  759,768;   -1,727;   -0,682
1107,063;  725,586;   -2,727;    1,409
1107,602;  700,040;   -1,909;   -1,500
1108,141;  618,313;   -1,909;    1,500
1108,680;  731,495;   -3,455;   -0,591
1109,219;  659,586;   -0,909;   -0,500
1109,758;  668,404;    0,455;    0,682
1110,297;  639,040;    1,000;   -0,682
1110,836;  590,586;   -0,727;    0,955
1111,375;  765,859;   -2,545;    0,409
1111,913;  761,768;   -1,000;    0,773
1112,452;  694,586;   -0,273;    0,136
1112,991;  581,313;    1,091;    1,955
1113,529;  540,040;   -0,818;   -0,045
1114,068;  605,586;   -0,273;    2,955
1114,606;  510,586;   -0,364;   -0,955
1115,144;  672,222;   -1,273;    1,045
1115,683;  602,859;   -0,727;    0,318
1116,221;  661,313;   -0,455;   -0,864
1116,759;  566,949;    0,636;   -0,864
1117,297;  765,677;    0,000;    1,864
1117,836;  558,859;   -2,182;   -1,227
1118,374;  574,313;    0,182;   -0,682
1118,912;  511,404;    0,909;    2,682
1119,450;  505,768;    1,000;    0,864
1119,988;  561,586;    1,545;    2,136
1120,525; 1028,222;    5,091;    3,318
1121,063;  721,949;    1,182;    1,864
1121,601;  522,313;   -0,909;   -1,227
1122,139;  482,586;   -0,727;   -2,045
1122,676;  691,313;   -0,727;    2,773
1123,214;  611,586;   -1,182;    4,409
1123,751;  420,131;    1,727;    2,227
1124,289;  561,313;   -0,091;   -0,409
1124,826;  416,949;    1,727;    0,227
1125,364;  345,313;    1,727;   -0,955
1125,901;  539,949;    1,182;    1,227
1126,438;  659,859;    0,818;    0,955
1126,975;  376,859;   -0,727;   -0,773
1127,513;  449,768;    0,273;    2,136
1128,050;  345,495;    1,636;   -0,682
1128,587;  449,313;    2,000;   -0,227
1129,124;  490,949;    0,091;    1,318
1129,661;  350,040;    0,273;    0,227
1130,198;  521,131;    1,636;    0,773
1130,734;  473,949;    0,182;    1,409
1131,271;  319,949;   -0,909;    0,864
1131,808;  509,859;    2,909;    3,045
1132,345;  373,313;    1,545;    0,318
1132,881;  230,313;   -1,545;   -1,864
1133,418;  386,859;    0,727;   -1,136
1133,954;  328,768;    2,455;   -2,682
1134,491;  402,859;    1,364;   -0,773
1135,027;  289,131;    2,364;    0,864
1135,564;  391,040;    0,273;    2,955
1136,100;  365,495;    0,364;    2,136
1136,636;  250,949;   -1,273;   -1,045
1137,172;  362,495;    0,000;   -1,045
1137,708;  284,404;   -1,364;   -1,045
1138,245;  280,040;    1,273;   -1,227
1138,781;  221,222;    1,091;   -3,318
1139,317;  296,586;    1,273;   -1,409
1139,852;  285,131;    3,091;    0,136
1140,388;  412,768;   -1,182;   -0,409
1140,924;  303,222;   -1,091;   -2,227
1141,460;  226,495;   -1,636;    0,136
1141,996;  161,313;   -1,364;    2,682
1142,531;  211,131;    1,364;    3,318
1143,067;  423,949;    1,182;    1,045
1143,602;  493,040;   -0,091;   -0,318
1144,138;  329,404;   -2,636;    1,045
1144,673;  195,313;   -1,455;    1,409
1145,209;  263,586;   -1,909;   -0,318
1145,744;  183,495;   -0,727;    0,864
1146,279;  319,949;    1,818;   -0,136
1146,815;  235,040;    1,545;   -2,682
1147,350;  276,768;   -1,364;    0,045
1147,885;  188,677;   -0,818;   -1,318
1148,420;  188,313;   -2,273;    0,773
1148,955;  165,404;   -1,727;    1,864
1149,490;  192,313;   -0,909;   -1,591
1150,025;  177,859;    0,455;   -1,773
1150,560;  296,222;    1,091;   -0,955
1151,094;  250,949;    1,455;   -0,591
1151,629;  262,586;    1,636;    0,864
1152,164;  186,859;    1,364;    1,318
1152,698;  147,313;   -0,182;   -0,136
1153,233;  109,586;    0,091;   -0,682
1153,767;  149,586;   -3,000;   -2,318
1154,302;  205,586;   -1,455;    1,773
1154,836;  207,404;   -0,455;   -2,136
1155,371;  258,768;   -1,364;    3,682
1155,905;  203,768;   -0,636;    1,682
1156,439;  174,677;   -0,636;   -0,500
1156,973;  210,495;    0,364;    0,318
1157,507;  142,949;   -0,364;    0,682
1158,042;  177,859;   -0,727;    1,045
1158,576;  220,495;    0,182;    1,773
1159,110;  209,586;   -0,818;    2,409
1159,643;  178,222;    0,636;   -0,045
1160,177;  115,859;   -1,545;    1,500

