
Integration time [ms]:   0,040
Averaging Nr. [scans]: 11
Smoothing Nr. [pixels]: 0
Data measured with spectrometer [name]: 7318044SP
Wave   ;Sample   ;Dark     ;Reference
[nm]   ;[counts] ;[counts] ;[counts] 

186,757;   26,947;   31,551;    1,318
187,357;   57,484;   22,551;    0,955
187,958;   40,653;   15,460;   -1,591
188,558;   84,664;    8,915;   -1,227
189,159;   55,135;    6,733;   -4,500
189,759;   23,825;    7,278;   -3,591
190,360;   29,311;    2,824;   -2,136
190,960;   64,729;    2,915;   -4,136
191,560;   76,648;    3,189;   -6,591
192,161;  351,052;    4,372;   -3,500
192,761;  174,028;    4,010;   -3,227
193,361;  121,695;    1,556;   -3,773
193,962;  165,898;    2,010;   -2,682
194,562;   90,901;    1,189;   -3,955
195,162;  136,155;   -2,448;   -2,227
195,762;  301,837;   -3,176;   -0,045
196,362;  247,259;    1,370;   -2,500
196,963;   96,738;    2,006;   -0,864
197,563;  189,942;    1,551;   -0,955
198,163;  123,235;    0,096;   -0,682
198,763;  139,820;    1,733;   -0,500
199,363;  254,985;    3,096;   -0,500
199,963;  207,413;    0,369;    0,409
200,563;  176,599;    2,823;   -1,409
201,163;  161,254;    3,277;   -0,227
201,763;  258,685;    3,732;    0,318
202,363;  191,606;    1,459;    1,500
202,963;  322,747;    1,459;    1,045
203,563;  422,180;    0,277;    0,500
204,162;  261,200;    2,096;   -1,864
204,762;  251,863;    0,550;    0,591
205,362;  216,294;    3,004;    1,955
205,962;  317,068;    3,096;    1,955
206,562;  316,646;    1,823;    2,318
207,161;  290,339;   -0,087;    0,318
207,761;  459,678;    1,277;    2,409
208,361;  314,846;   -0,268;    1,409
208,960;  435,413;    0,459;    1,500
209,560;  520,969;    1,277;    1,591
210,160;  483,810;    0,550;    1,864
210,759;  439,429;    4,186;    1,227
211,359;  456,860;    1,459;    1,045
211,958;  738,370;    1,277;    2,045
212,558;  827,977;    1,732;    1,864
213,157;  660,313;    1,822;    1,500
213,757; 1129,980;    3,822;   -0,227
214,356;  809,298;    1,277;   -0,409
214,956; 1172,579;    3,095;    0,409
215,555;  774,550;    2,095;    2,136
216,154;  707,400;   -2,723;   -0,591
216,754;  712,208;    0,277;    0,773
217,353;  860,165;   -0,268;   -1,045
217,952;  711,165;   -0,178;    0,318
218,552;  965,806;    1,368;   -0,773
219,151;  846,806;    0,277;    0,955
219,750;  852,417;    0,004;   -0,227
220,349; 1003,435;   -0,451;    1,045
220,948; 1055,321;   -1,360;    1,136
221,548; 1108,777;    0,913;    1,227
222,147; 1220,149;   -0,087;   -0,409
222,746; 1510,670;   -0,451;   -0,955
223,345; 1399,513;    0,731;    0,500
223,944; 1416,752;   -0,451;    0,773
224,543; 1594,507;    1,004;   -1,409
225,142; 1698,215;    0,094;    0,136
225,741; 1616,300;   -0,814;    1,045
226,340; 1657,265;   -0,451;   -0,955
226,939; 2135,684;   -0,996;   -0,136
227,538; 2115,408;   -0,360;   -0,773
228,137; 2275,613;   -0,814;    0,864
228,735; 2456,518;   -0,541;    1,227
229,334; 2198,053;   -0,905;   -0,227
229,933; 2576,400;    0,459;    0,591
230,532; 2690,523;    1,186;   -0,409
231,131; 2735,153;    1,732;    0,318
231,729; 2918,739;   -2,450;   -2,318
232,328; 3078,056;   -0,723;   -1,500
232,927; 3176,001;    1,004;   -0,500
233,525; 3310,782;    3,640;    0,045
234,124; 3561,128;    2,368;   -1,591
234,723; 3578,894;    0,913;   -1,045
235,321; 3749,394;    2,277;    0,136
235,920; 4004,744;    1,186;   -1,227
236,518; 4272,608;    3,459;    0,318
237,117; 4490,387;    0,004;   -0,227
237,715; 4655,208;    0,640;   -0,500
238,314; 4690,083;   -0,087;   -2,318
238,912; 4799,933;   -0,723;   -1,409
239,510; 4851,914;    0,459;   -1,227
240,109; 5049,448;    0,004;    3,773
240,707; 5098,986;   -0,996;    1,227
241,305; 5513,325;    0,550;    0,136
241,904; 5727,961;   -0,178;   -2,045
242,502; 5687,521;   -0,632;   -0,227
243,100; 5588,562;   -0,087;   -0,955
243,698; 5830,656;    0,732;    1,682
244,297; 6065,331;   -0,632;    0,682
244,895; 5868,203;   -0,269;   -2,318
245,493; 6220,310;    2,186;   -0,591
246,091; 6240,623;    1,368;   -1,318
246,689; 6228,799;    1,004;    0,591
247,287; 6415,308;    0,822;   -1,136
247,885; 6733,405;   -1,451;    1,227
248,483; 6769,453;    1,822;   -0,500
249,081; 6931,829;    0,185;    1,591
249,679; 7107,660;   -0,178;    1,682
250,277; 7391,371;   -1,723;    0,864
250,875; 7377,567;   -1,087;   -1,045
251,473; 7399,423;   -1,178;    0,500
252,071; 7574,999;    1,459;    1,045
252,669; 7760,480;   -1,814;    0,318
253,267; 8033,281;   -0,087;    0,773
253,864; 8005,399;   -0,360;    0,682
254,462; 7806,754;    1,640;    1,591
255,060; 7798,821;   -0,269;    1,318
255,658; 8142,752;    0,822;   -0,136
256,255; 8579,121;    0,186;   -2,045
256,853; 8436,405;   -0,269;    1,409
257,451; 8459,301;    0,822;    1,864
258,048; 8740,822;    1,822;    1,864
258,646; 8487,568;    1,731;   -1,045
259,243; 8670,860;   -0,087;    2,227
259,841; 8726,725;   -0,814;    0,318
260,438; 8618,106;   -0,087;    0,864
261,036; 9351,822;   -1,905;    1,409
261,633; 9235,762;   -0,087;    2,227
262,231; 8996,042;    2,731;   -0,045
262,828; 9060,970;   -0,905;    1,136
263,425; 9096,903;    0,913;   -0,591
264,023; 9411,821;    0,186;    0,045
264,620; 8935,194;   -0,360;   -0,318
265,217; 9284,484;   -2,087;    3,136
265,815; 9371,274;   -1,905;    2,136
266,412; 9125,585;    0,731;    0,136
267,009; 9245,114;   -1,451;    0,773
267,606; 9119,659;    0,822;   -0,955
268,203; 9059,510;   -0,269;   -0,591
268,801; 9348,143;    1,731;    0,591
269,398; 9693,906;   -0,360;    2,500
269,995; 9680,606;    0,277;    1,591
270,592; 9430,449;   -0,632;   -0,500
271,189; 9672,847;    0,186;    0,409
271,786; 9786,576;   -0,632;    1,227
272,383; 9601,014;   -1,087;    0,227
272,980; 9765,819;    0,277;    0,318
273,577;10304,482;    0,004;    1,227
274,174; 9852,533;    0,822;    2,591
274,771; 9851,661;   -0,814;   -0,773
275,367;10017,840;    2,277;    1,409
275,964; 9952,053;    0,731;   -0,500
276,561;10055,221;    1,549;   -1,045
277,158;10307,842;    0,095;   -1,773
277,755;10408,466;    2,185;    0,409
278,351; 9788,017;   -0,451;   -1,500
278,948;10127,974;   -0,815;    0,045
279,545;10122,766;   -1,360;    2,318
280,141;10769,281;   -1,723;   -2,045
280,738;10658,470;   -0,451;   -0,136
281,334;10898,997;   -1,633;    0,591
281,931;10260,489;   -0,087;   -1,318
282,528;10337,679;    0,822;   -0,500
283,124;11083,209;   -1,087;   -0,500
283,721;10989,288;   -0,451;    1,409
284,317;10778,649;    0,185;    2,500
284,913;11365,266;   -1,360;    0,591
285,510;11551,084;    0,640;   -0,318
286,106;11574,807;   -2,269;   -0,955
286,703;11170,473;   -0,360;    1,955
287,299;11385,998;   -1,451;   -0,591
287,895;11593,772;    0,822;   -1,045
288,491;12158,179;    0,186;    2,136
289,088;11856,373;   -2,360;    2,409
289,684;11975,389;   -1,723;    1,500
290,280;11994,630;    0,368;    0,682
290,876;12077,521;    1,822;    5,500
291,472;11953,419;    1,276;    2,227
292,068;12040,908;    1,367;    0,227
292,665;11728,634;    2,095;    0,773
293,261;11328,675;    0,276;    2,136
293,857;11767,075;    2,913;    2,136
294,453;11693,395;    3,550;    0,955
295,049;11540,009;   -0,268;    1,955
295,644;11538,205;    0,095;    0,136
296,240;11471,454;   -0,905;   -0,136
296,836;11529,801;   -0,995;    0,318
297,432;11801,109;    1,096;   -0,500
298,028;11868,264;    0,732;    0,773
298,624;12275,634;    1,459;    1,864
299,220;12540,195;    2,368;    0,591
299,815;12164,862;    1,005;   -0,409
300,411;11970,555;    0,914;    1,773
301,007;11997,340;    1,368;    0,227
301,602;12062,143;   -0,541;   -2,318
302,198;12200,110;    0,732;   -0,773
302,794;12520,330;    1,187;   -0,500
303,389;12678,345;   -1,177;    1,045
303,985;12754,782;    0,550;    1,409
304,580;12735,780;    1,459;    1,591
305,176;12668,705;   -3,086;    0,136
305,771;12602,781;   -1,268;   -1,227
306,367;12495,419;    4,095;    0,136
306,962;12819,415;    0,641;    1,500
307,558;12533,715;   -0,450;    0,136
308,153;12443,164;    1,095;   -1,136
308,748;12679,194;   -0,814;    1,682
309,344;12655,269;   -0,632;   -1,318
309,939;12764,712;   -1,905;   -1,318
310,534;13044,945;   -0,086;   -1,682
311,130;12977,081;    0,459;   -2,500
311,725;12682,393;    1,004;   -0,500
312,320;13055,484;    2,459;    0,045
312,915;12875,041;    1,459;   -1,045
313,510;12968,066;    1,550;   -0,500
314,105;13467,542;    1,096;    1,409
314,700;12796,671;   -3,086;   -1,045
315,295;12441,234;   -0,904;    0,045
315,890;12001,406;    1,277;    0,864
316,485;12406,766;   -0,359;   -0,318
317,080;12486,516;   -3,086;    1,591
317,675;13092,762;    2,005;   -0,682
318,270;12521,680;    5,550;    3,318
318,865;12493,857;    3,278;    3,045
319,460;12316,565;   -0,904;    0,591
320,055;12545,236;   -0,541;   -1,227
320,650;12190,816;   -1,995;   -0,591
321,244;12241,533;   -0,177;   -1,409
321,839;13206,504;   -1,541;   -0,227
322,434;13101,666;   -1,086;   -1,591
323,029;12742,191;    1,732;    1,591
323,623;12579,103;    1,550;    0,773
324,218;12305,066;    2,368;    1,409
324,812;12205,971;    1,096;    1,591
325,407;12000,020;   -0,814;    2,045
326,002;11917,998;    0,277;   -0,409
326,596;12211,202;    0,914;    1,318
327,191;12410,792;    0,823;   -1,045
327,785;12001,748;   -0,813;   -0,227
328,379;12222,096;    1,368;    0,136
328,974;12009,401;    0,914;   -3,955
329,568;12194,099;    0,186;   -2,409
330,163;11987,687;    2,096;    1,045
330,757;12360,840;    2,459;    1,591
331,351;11678,909;    0,459;    0,682
331,945;11993,416;    0,914;    1,409
332,540;11610,096;   -1,723;   -0,591
333,134;11746,817;   -1,086;    0,773
333,728;12033,427;    0,005;    0,318
334,322;12293,664;   -1,177;   -0,864
334,916;11567,657;    0,277;    0,955
335,510;11950,113;   -0,450;   -0,136
336,105;12207,337;   -1,086;    1,591
336,699;11925,383;   -1,086;    0,591
337,293;11837,706;   -1,723;    0,318
337,887;12005,334;   -2,723;    1,955
338,481;12103,577;    0,459;    0,591
339,074;12232,379;   -0,359;    2,682
339,668;12027,323;   -1,632;    1,227
340,262;12323,854;    1,732;    3,227
340,856;11795,946;    1,822;   -0,682
341,450;11139,867;    1,004;    1,864
342,044;12051,524;    1,459;    0,136
342,637;11813,175;    0,913;   -2,136
343,231;11710,546;   -2,360;    0,682
343,825;11667,923;   -1,086;   -0,591
344,419;11607,718;   -1,995;    0,500
345,012;11437,706;    2,459;    4,045
345,606;11474,191;    4,641;    1,591
346,199;11253,977;   -1,813;   -0,227
346,793;10759,921;    1,914;    2,045
347,386;10919,934;   -0,813;   -1,136
347,980;10903,168;   -0,268;   -0,045
348,573;10705,876;    2,278;    0,409
349,167;10389,211;    5,278;    4,773
349,760;10734,344;    2,914;    2,682
350,354;10723,693;   -0,813;    1,136
350,947;10470,372;    1,096;    1,682
351,540;10121,031;   -0,358;   -1,409
352,134;10038,830;    1,096;    1,136
352,727;10130,416;   -0,086;    1,136
353,320; 9925,523;    0,005;    0,591
353,913; 9768,675;   -1,995;    1,864
354,507;10000,517;    0,823;   -1,227
355,100; 9975,124;    0,460;    0,864
355,693; 9190,672;    2,005;    2,409
356,286; 9241,825;    0,823;    2,773
356,879; 9584,626;   -0,722;    1,227
357,472; 9192,218;   -0,904;    1,500
358,065; 9421,017;   -0,722;    2,500
358,658; 9294,349;   -0,540;    2,318
359,251; 8951,813;   -1,631;   -0,591
359,844; 8426,639;   -1,904;   -1,136
360,437; 8617,648;   -2,995;    0,045
361,030; 8908,508;    1,369;   -0,682
361,623; 8464,045;    2,824;    0,318
362,215; 8523,398;   -0,086;    2,045
362,808; 8338,519;   -2,358;   -1,682
363,401; 8531,065;   -2,449;    0,136
363,994; 8280,990;   -0,631;   -1,500
364,586; 8191,153;    0,824;   -1,500
365,179; 8397,370;   -0,449;   -1,136
365,772; 7862,305;   -1,995;    2,045
366,364; 8217,269;    1,915;   -3,227
366,957; 8391,864;    2,279;   -0,045
367,549; 8424,928;    2,188;   -0,864
368,142; 8028,443;    1,825;   -1,500
368,734; 8258,959;    0,734;   -2,136
369,327; 8220,776;    1,643;   -0,500
369,919; 8144,675;   -1,538;    0,409
370,512; 7921,382;   -1,083;   -0,500
371,104; 7696,569;   -0,901;    1,591
371,696; 7875,559;    1,191;   -0,955
372,289; 7961,857;    0,373;    1,136
372,881; 8104,003;   -2,080;    1,318
373,473; 8061,370;   -2,170;    1,136
374,066; 7868,796;   -0,169;    0,500
374,658; 7689,506;    0,378;    1,136
375,250; 8016,724;    0,653;   -1,409
375,842; 7872,983;    0,473;   -0,045
376,434; 7744,735;   -0,435;   -0,409
377,026; 8330,169;    0,204;   -2,500
377,618; 8221,871;   -0,158;   -0,682
378,210; 8062,804;   -0,338;   -1,955
378,802; 7889,909;    0,754;   -0,591
379,394; 7883,122;    1,846;    0,682
379,986; 8493,250;    1,393;   -0,955
380,578; 8588,900;   -0,153;    0,773
381,170; 7911,858;   -0,972;    0,045
381,762; 7889,940;    0,755;    1,409
382,354; 8079,006;   -0,065;   -1,318
382,945; 8193,665;   -2,976;    0,318
383,537; 8339,207;   -2,705;   -1,955
384,129; 8327,540;   -2,160;   -1,136
384,721; 8540,967;   -0,252;    0,955
385,312; 8483,734;   -0,161;   -0,955
385,904; 8568,919;   -2,706;    1,591
386,496; 7920,390;   -0,979;    1,045
387,087; 8073,912;    1,022;    2,500
387,679; 8138,862;   -1,160;    0,045
388,270; 8267,023;    2,840;    2,045
388,862; 8385,496;    1,295;   -0,318
389,453; 8287,993;   -0,887;    1,045
390,045; 8530,961;   -0,705;   -2,682
390,636; 8476,344;    0,204;   -0,591
391,227; 8338,327;   -0,523;   -0,045
391,819; 8451,864;    0,204;    0,773
392,410; 8510,313;    1,022;    0,045
393,001; 8435,871;   -0,979;   -1,591
393,593; 8749,885;    1,930;   -0,045
394,184; 8634,245;    1,385;   -0,409
394,775; 8544,282;    1,839;    2,136
395,366; 8741,166;    1,385;    0,773
395,957; 8744,809;    0,113;    0,136
396,548; 9056,390;   -0,342;    2,682
397,139; 9400,650;   -2,433;    0,591
397,730; 9102,760;   -1,888;    0,955
398,321; 9146,332;   -1,252;    0,955
398,912; 9180,857;   -0,615;    0,136
399,503; 9237,061;   -3,524;   -1,409
400,094; 8668,080;    0,294;    1,682
400,685; 8500,162;   -0,433;    0,045
401,276; 8611,396;    0,930;   -0,955
401,867; 8924,488;   -0,888;    0,773
402,458; 9007,173;   -2,251;   -2,318
403,048; 9014,704;    1,112;    0,591
403,639; 8589,190;    0,840;    0,864
404,230; 8815,473;    2,476;    0,318
404,821; 8760,879;   -0,615;    0,045
405,411; 8902,544;    1,203;   -2,591
406,002; 8495,473;   -1,252;   -1,136
406,592; 8360,867;    2,294;    0,045
407,183; 8650,151;    0,566;   -1,500
407,774; 8597,237;    3,475;   -0,136
408,364; 8926,798;    0,930;    0,409
408,954; 8523,729;    0,384;    1,227
409,545; 8588,532;    1,021;    1,045
410,135; 8092,396;    1,293;    0,500
410,726; 8264,216;    1,838;    0,318
411,316; 8667,100;    0,111;    0,773
411,906; 8331,512;   -0,253;   -0,409
412,497; 7782,818;   -1,070;   -0,045
413,087; 8441,346;   -1,980;   -0,227
413,677; 8841,612;   -0,707;    3,864
414,267; 8667,197;    0,656;    1,409
414,857; 8663,044;   -2,980;    4,227
415,448; 8952,312;    0,839;    0,500
416,038; 8636,459;    0,020;   -0,591
416,628; 8618,324;   -0,889;    0,409
417,218; 8080,179;    0,565;    3,318
417,808; 8343,026;    0,202;   -0,409
418,398; 8840,154;    0,020;    2,682
418,988; 8850,328;    2,020;    0,591
419,578; 9099,427;   -0,707;    1,409
420,168; 9484,430;   -1,343;   -0,955
420,757; 9078,525;   -1,343;   -1,500
421,347; 8708,162;    0,111;   -0,227
421,937; 8887,907;    2,292;    1,409
422,527; 8863,788;    0,838;   -0,773
423,116; 8680,635;   -0,253;   -0,045
423,706; 8985,212;   -1,889;    0,318
424,296; 8972,202;    1,384;    0,682
424,885; 9442,748;   -0,071;   -3,045
425,475; 9703,548;    1,474;   -2,864
426,065; 9598,752;   -0,980;   -0,318
426,654; 9193,015;   -0,435;   -0,318
427,244; 9397,236;    0,020;    1,409
427,833; 8828,202;    1,383;   -0,500
428,423; 9292,930;   -0,526;    1,136
429,012;10091,334;   -0,344;   -1,136
429,601; 9565,434;   -1,344;    0,136
430,191; 9778,157;    1,292;    4,318
430,780; 9434,817;   -0,344;   -0,409
431,369; 9384,529;    0,746;   -0,045
431,959;10001,495;   -1,254;    0,500
432,548; 9799,905;   -1,163;   -0,045
433,137; 9907,872;   -1,254;   -1,318
433,726;10466,010;    0,292;    0,500
434,315; 9831,659;   -0,526;    2,409
434,905; 9922,794;   -1,254;    1,409
435,494; 9802,183;    0,746;    0,955
436,083;10243,366;   -0,981;   -0,955
436,672;10142,061;    0,110;    0,500
437,261; 9675,591;    0,292;   -1,955
437,850; 9836,510;    1,383;    0,682
438,439; 9838,385;    3,291;    1,955
439,027; 9687,333;    3,655;    1,773
439,616;10006,917;    2,927;    1,227
440,205; 9861,065;    0,200;   -2,136
440,794; 9994,032;    2,109;   -0,045
441,383;10256,031;   -1,346;   -0,591
441,971;10095,102;   -2,436;    0,591
442,560; 9980,796;    0,563;   -1,773
443,149; 9712,654;    0,379;   -1,318
443,737; 9840,289;   -0,074;   -2,318
444,326;10125,902;    0,018;    0,318
444,915;10186,546;   -1,982;    0,864
445,503;10644,947;   -2,891;   -0,318
446,092; 9864,259;    0,382;    2,136
446,680;10396,786;    0,382;    0,318
447,269;10578,343;   -0,346;   -0,318
447,857;10337,622;    0,018;   -1,773
448,445;10478,779;    0,563;    1,318
449,034;10712,418;   -1,528;   -1,136
449,622;10844,696;   -1,073;    3,500
450,210;10030,269;    2,017;    2,227
450,799;10587,575;    0,290;   -0,591
451,387;10523,464;    1,381;   -0,591
451,975;10158,411;    2,654;    0,864
452,563;10268,382;    3,472;    2,318
453,151;10306,251;   -0,528;   -1,227
453,739;10249,054;   -1,347;    0,136
454,328;10071,323;    2,381;   -2,136
454,916; 9797,978;    2,562;   -0,136
455,504; 9959,301;    1,017;    1,227
456,092;10144,997;    0,017;   -1,591
456,679;10143,252;    1,472;    0,682
457,267;10082,713;    4,017;    1,045
457,855;10223,285;    1,017;    1,409
458,443; 9989,583;   -0,165;    1,682
459,031;10129,510;    0,108;    2,409
459,619;10599,506;   -1,801;    2,864
460,206;10738,673;    0,835;    2,045
460,794;10811,864;   -2,983;   -0,227
461,382;11098,678;   -0,529;   -0,864
461,970;10647,705;    1,198;    1,864
462,557;10633,545;   -0,711;   -0,682
463,145;10827,914;   -3,165;   -1,682
463,732;11020,524;    2,016;   -1,045
464,320;10977,946;   -0,075;   -3,045
464,907;10641,779;    2,743;   -0,773
465,495;10496,253;    0,743;   -1,227
466,082;10659,509;   -1,984;   -0,045
466,670;10580,801;   -2,529;    1,227
467,257;10966,031;   -1,711;    2,045
467,844;11144,016;   -0,075;    0,045
468,432;11163,158;    0,834;    3,500
469,019;10636,535;    0,925;   -1,773
469,606;11181,971;    0,470;    3,682
470,193;10970,478;   -1,439;    0,227
470,780;10498,486;   -2,075;    0,864
471,368;10828,606;   -1,257;   -0,773
471,955;10657,199;    1,379;   -0,682
472,542;10275,539;    0,652;   -1,136
473,129;10500,105;   -0,166;    0,136
473,716;10224,403;    1,470;    0,591
474,303;10471,140;    0,652;   -0,864
474,890;10812,854;   -1,439;   -0,500
475,477;10797,068;   -1,621;    0,409
476,064;10720,481;    1,106;   -1,591
476,650;10670,355;    0,288;    0,318
477,237;10500,628;   -0,258;    0,955
477,824;10656,507;   -1,076;    0,864
478,411;10650,487;   -1,894;   -0,318
478,997;10884,599;    0,560;   -0,773
479,584;10942,077;    1,196;   -0,409
480,171;11693,382;   -0,440;   -0,773
480,757;11320,182;    2,651;    0,773
481,344;11648,087;    0,469;    0,409
481,931;11158,358;    1,105;    1,045
482,517;12258,647;   -1,258;    0,318
483,104;12928,499;    1,106;    2,864
483,690;13211,150;   -1,804;    0,045
484,276;13543,562;   -0,895;    0,227
484,863;13293,408;    2,469;    1,136
485,449;13864,195;   -0,077;    0,318
486,035;13863,792;   -1,986;   -0,136
486,622;14301,417;   -0,895;    0,045
487,208;14229,180;    1,378;    1,500
487,794;14037,123;    0,741;    0,318
488,380;14155,434;    0,105;   -1,409
488,967;14263,715;   -1,168;   -0,409
489,553;14339,214;   -1,895;   -1,409
490,139;14484,556;    1,559;    0,773
490,725;13854,307;    0,741;   -0,227
491,311;13358,433;    3,287;    3,045
491,897;12661,266;   -0,986;    1,500
492,483;12471,791;    0,105;    1,227
493,069;12299,253;    3,923;    0,864
493,655;12308,014;    1,650;    0,682
494,241;12173,049;    1,377;   -0,955
494,826;12634,937;    0,287;   -1,045
495,412;12068,332;    2,559;   -0,682
495,998;12210,580;   -0,805;   -0,318
496,584;12356,276;    0,377;    1,045
497,169;12355,752;    1,014;   -0,682
497,755;12307,259;    0,650;    1,227
498,341;12889,020;    0,559;    0,318
498,926;12471,793;    1,832;    1,955
499,512;12628,846;    1,286;    2,955
500,097;12764,044;    0,195;   -0,318
500,683;12702,440;   -0,350;    2,136
501,268;13077,118;   -0,169;   -0,955
501,854;12746,327;   -0,169;    1,227
502,439;12640,917;   -0,624;   -1,773
503,024;12869,243;    0,195;    0,500
503,610;12974,442;   -0,078;   -0,682
504,195;12978,618;    0,558;    1,955
504,780;13095,320;    2,922;    1,227
505,366;12925,836;    3,013;    2,864
505,951;12665,280;    0,740;    1,045
506,536;12662,646;   -3,260;   -3,682
507,121;12612,892;    0,285;   -0,318
507,706;13163,634;    2,376;    1,045
508,291;13589,648;    2,649;    1,136
508,876;13030,856;   -0,988;    2,591
509,461;12473,391;   -0,169;   -0,773
510,046;12882,494;    0,194;    0,318
510,631;13168,230;   -0,351;   -0,773
511,216;12788,629;    2,467;   -0,500
511,801;13162,992;   -0,442;    2,591
512,386;13497,055;    0,740;    0,500
512,971;13433,555;   -2,988;    0,955
513,555;12963,067;   -0,897;   -1,500
514,140;13753,405;   -0,442;   -3,136
514,725;13754,347;   -0,715;   -1,136
515,309;13908,591;   -0,533;    0,318
515,894;13343,099;   -0,624;   -2,227
516,479;13793,057;   -0,624;   -0,955
517,063;13616,104;    0,376;    1,227
517,648;13753,578;    1,012;   -1,136
518,232;13403,121;   -0,261;   -1,409
518,817;13737,644;   -0,079;    1,682
519,401;13970,401;    2,194;    0,591
519,985;13466,908;    1,103;    1,136
520,570;13355,664;    0,830;   -1,955
521,154;13629,427;    2,102;    0,591
521,738;13819,109;   -2,352;    2,409
522,323;14385,943;   -0,170;    1,682
522,907;14131,608;    0,466;   -0,136
523,491;13838,440;    0,557;    0,955
524,075;13832,509;    2,284;    0,591
524,659;13940,277;    1,466;    0,591
525,243;13353,055;    1,739;    0,409
525,827;13612,209;    0,648;   -0,045
526,411;14477,458;   -1,989;   -0,136
526,995;14712,930;   -0,352;    1,409
527,579;14295,837;   -0,443;   -1,045
528,163;14620,492;    0,375;   -1,500
528,747;14515,831;    2,466;   -0,773
529,331;14820,839;   -0,080;   -1,409
529,915;15060,715;    1,738;    0,955
530,499;14998,047;   -0,807;    1,227
531,082;14674,645;   -0,534;    1,591
531,666;14134,014;    1,374;    0,773
532,250;14823,173;    1,284;    2,682
532,833;15173,685;    0,920;    2,773
533,417;15036,090;   -1,807;    0,864
534,001;15015,851;    1,647;   -0,318
534,584;15733,167;    0,374;    0,500
535,168;15569,521;    0,465;    1,409
535,751;15638,869;    0,647;    0,045
536,334;15051,367;   -0,898;   -0,409
536,918;15618,930;    0,011;    1,591
537,501;15740,453;   -0,899;    1,318
538,085;15739,668;   -0,444;    1,045
538,668;15933,373;    0,829;    2,409
539,251;16258,897;    1,829;    3,773
539,834;16256,695;    0,101;    0,773
540,418;16193,863;   -1,990;    4,318
541,001;16319,974;   -0,990;    1,773
541,584;16287,535;    2,101;    2,227
542,167;16002,278;    1,374;    2,955
542,750;16165,990;    1,919;   -0,773
543,333;15785,301;    0,555;    2,136
543,916;16505,135;    0,192;    2,500
544,499;17157,697;   -1,354;    0,227
545,082;17196,134;    1,374;    3,591
545,665;17327,673;    1,919;    1,500
546,248;17668,846;    1,010;   -0,318
546,830;17296,790;   -0,445;    1,955
547,413;17743,961;    1,010;   -0,773
547,996;18253,265;    0,555;    0,500
548,579;18029,043;    0,919;    0,955
549,161;17812,207;    1,828;    2,682
549,744;17596,076;   -0,809;    0,409
550,326;18104,359;   -0,809;   -1,136
550,909;17924,395;    2,737;    0,591
551,492;18302,966;   -0,263;    0,227
552,074;18116,193;   -0,173;   -1,318
552,657;18680,439;    2,373;    0,045
553,239;18368,463;   -0,173;   -0,773
553,821;18273,184;   -1,082;    1,045
554,404;17833,311;    1,282;    1,136
554,986;18200,733;    0,464;    1,045
555,568;18821,030;    1,191;   -0,955
556,151;18000,099;    1,191;   -0,227
556,733;18212,345;   -0,264;   -0,864
557,315;18724,500;    0,100;    0,500
557,897;18515,176;    0,554;   -0,500
558,479;18560,854;   -1,991;    1,318
559,061;18734,546;   -0,719;   -0,864
559,643;19148,264;   -0,264;    0,045
560,225;19517,467;    1,645;    2,864
560,807;19519,537;    0,918;    0,318
561,389;19000,534;    0,554;    2,318
561,971;19794,446;    0,463;    2,136
562,553;19552,673;   -1,628;    1,591
563,135;19710,782;   -0,537;    1,136
563,717;19327,654;    3,372;    1,136
564,298;20066,916;    3,645;   -0,045
564,880;19767,184;    0,645;   -1,409
565,462;19943,821;    0,645;    1,318
566,043;21131,238;   -0,446;    2,318
566,625;20696,414;    1,918;    1,227
567,207;20591,866;    1,099;    1,682
567,788;21713,799;   -1,264;    1,500
568,370;22583,252;    1,917;   -0,500
568,951;22400,983;    0,190;    0,227
569,533;23247,684;   -0,628;   -0,500
570,114;23764,313;   -0,446;    0,682
570,695;24299,048;   -0,174;   -1,318
571,277;24820,107;   -0,265;   -1,682
571,858;25642,817;    2,008;   -1,136
572,439;26545,267;    1,554;   -1,045
573,021;26683,648;    2,099;   -2,773
573,602;27215,767;   -1,265;    0,318
574,183;28181,434;   -2,083;    2,227
574,764;28309,660;   -1,629;    0,409
575,345;28903,532;    0,917;   -0,136
575,926;29491,229;   -0,356;    0,136
576,507;29429,489;    1,099;   -0,227
577,088;30575,912;    3,099;    1,682
577,669;30624,063;    0,735;    1,955
578,250;31475,161;    0,644;   -1,045
578,831;32148,749;   -1,356;   -2,227
579,412;32384,223;   -0,810;    0,955
579,993;33227,296;    1,008;    0,227
580,573;33555,969;   -0,629;   -0,955
581,154;32509,009;    0,735;   -0,591
581,735;33441,935;    0,644;    0,773
582,315;32938,117;   -0,629;    2,136
582,896;33125,024;   -0,174;    1,227
583,477;32583,141;    0,189;    1,227
584,057;32805,537;    0,553;    0,955
584,638;33136,933;    2,553;    2,318
585,218;33159,345;   -0,538;    2,682
585,799;33264,338;    0,281;   -0,227
586,379;33222,275;    0,372;    1,591
586,959;31914,316;    0,735;    0,318
587,540;31177,730;   -0,629;    2,227
588,120;30741,080;    1,007;   -0,045
588,700;29685,909;    2,553;    2,136
589,281;30036,087;    0,462;   -0,955
589,861;30045,239;    0,099;   -1,682
590,441;29797,642;    2,371;   -2,682
591,021;28742,019;   -0,265;   -2,591
591,601;28950,455;   -0,537;    0,500
592,181;28953,195;   -0,719;   -0,773
592,761;28219,216;    0,007;    1,409
593,341;28137,461;   -0,901;    0,045
593,921;28192,698;   -0,265;    1,591
594,501;28059,439;   -0,538;    1,318
595,081;27898,811;    0,917;   -0,318
595,661;28296,560;   -1,447;    0,955
596,240;28788,032;   -0,537;    0,136
596,820;28518,063;    0,372;    1,955
597,400;28615,395;    2,008;    0,773
597,980;28826,934;    2,008;    1,045
598,559;28824,108;    2,735;   -0,227
599,139;28522,774;   -0,174;   -1,227
599,718;28426,319;   -0,174;   -0,409
600,298;28660,231;    0,735;    0,682
600,877;28917,040;    2,917;    1,409
601,457;29205,343;    2,281;    1,136
602,036;29101,268;    0,190;    2,045
602,616;29332,748;    0,644;    1,682
603,195;29654,066;   -0,355;    3,500
603,774;29213,245;   -0,901;    2,045
604,354;29054,041;    0,826;   -0,500
604,933;28577,077;    0,463;    1,864
605,512;28684,023;    3,554;    0,591
606,091;28708,181;   -0,537;    3,773
606,671;29554,680;    0,281;    0,773
607,250;28660,689;    1,644;    3,136
607,829;28842,669;    2,372;    3,227
608,408;28749,503;    1,190;    2,591
608,987;27747,625;    1,281;    3,409
609,566;28073,201;   -1,265;   -2,500
610,145;28188,249;   -1,082;    0,682
610,723;28584,573;    4,372;    6,864
611,302;27833,854;   -0,446;    1,682
611,881;27314,802;    5,008;   11,227
612,460;28186,785;    1,645;    3,955
613,039;28577,720;   -0,082;    2,045
613,617;27326,265;    1,736;    4,773
614,196;27483,453;    1,099;    1,227
614,775;27821,860;    1,009;    2,409
615,353;27739,775;    0,736;    0,864
615,932;27531,666;    0,100;    2,409
616,510;28041,673;    0,554;    0,591
617,089;27583,104;    7,100;   17,591
617,667;27302,126;    2,372;    6,136
618,246;27144,463;   -1,537;    1,318
618,824;27288,269;   -3,355;   -0,955
619,402;26929,546;   -2,900;   -1,773
619,981;27441,483;   -0,173;   -1,045
620,559;27204,135;    0,009;    1,682
621,137;26716,768;   -0,718;    1,864
621,715;26797,729;   -1,173;   -0,682
622,293;26755,459;   -0,537;   -0,773
622,871;27087,955;   -0,718;    0,500
623,450;26727,843;    0,373;   -0,864
624,028;26609,980;    0,191;   -0,955
624,606;26242,049;   -1,718;    1,682
625,183;26635,222;   -1,536;   -1,136
625,761;26255,308;    1,009;    1,136
626,339;26562,405;    1,373;    2,591
626,917;26944,661;   -0,172;   -0,045
627,495;26948,071;   -0,354;    1,318
628,073;26396,393;   -0,263;    2,864
628,650;26075,478;    0,100;    2,136
629,228;26519,219;    0,373;    4,409
629,806;25918,215;    2,282;    1,136
630,383;26130,100;    1,464;   -0,318
630,961;25925,611;    2,555;   -0,955
631,539;25707,513;    2,464;    0,227
632,116;25098,974;   11,373;   15,409
632,694;25676,837;    2,555;    6,500
633,271;25998,623;    0,828;    2,682
633,848;25896,691;    1,828;    2,045
634,426;25871,270;   -1,081;    1,773
635,003;24965,154;    1,101;   -0,409
635,580;25316,407;    1,192;    3,682
636,158;25899,147;    3,737;    1,227
636,735;25830,746;    0,555;   -0,500
637,312;25971,865;   -0,809;   -0,682
637,889;26110,850;   -4,354;   -0,682
638,466;25532,560;   -3,990;   -0,409
639,043;25535,996;    2,101;   -1,136
639,620;25868,505;   -2,262;   -0,955
640,197;26205,399;    1,100;    1,682
640,774;26285,638;   -0,172;    1,136
641,351;26699,696;    0,737;    1,136
641,928;26181,117;   -0,627;    1,409
642,505;25817,083;    0,828;   -0,500
643,082;25917,686;   -1,718;    1,227
643,658;24904,198;   -0,718;    1,500
644,235;25622,619;    1,191;    2,500
644,812;25981,222;    1,918;    0,773
645,388;25732,643;   -0,991;    1,409
645,965;25835,973;   -0,809;    1,682
646,542;25915,576;   -1,445;   -0,227
647,118;25892,269;    1,009;   -0,955
647,695;26157,145;   -0,263;    1,136
648,271;26101,566;   -0,536;    0,500
648,848;26424,532;    0,736;    2,227
649,424;26240,953;    0,827;    1,318
650,000;25974,374;   -0,354;   -1,045
650,577;25808,341;   -0,627;   -0,955
651,153;26299,671;   -1,809;    0,955
651,729;27334,183;    1,191;    0,864
652,305;27949,967;    0,645;    2,773
652,881;33403,025;   -0,082;    1,136
653,458;40400,809;    1,100;    0,227
654,034;43761,867;    0,282;    1,591
654,610;45012,197;    0,554;    0,773
655,186;46281,891;    0,645;    3,045
655,762;45951,766;   -0,991;    0,409
656,338;45917,096;    0,100;    0,136
656,913;46819,881;   -0,082;    0,409
657,489;45987,756;    0,827;   -0,318
658,065;45953,814;   -0,173;   -1,591
658,641;46591,053;   -0,900;   -0,864
659,217;45861,383;   -0,991;    0,409
659,792;45341,259;    0,645;   -0,409
660,368;45454,225;   -2,173;   -0,682
660,944;44694,919;   -2,082;    1,227
661,519;39248,431;   -0,628;    0,409
662,095;33203,488;   -1,719;    0,591
662,670;29063,636;    1,281;   -0,136
663,246;28223,875;    1,009;   -0,409
663,821;27568,660;    0,281;    1,682
664,396;27052,627;    0,009;    1,864
664,972;27358,775;    0,009;   -0,500
665,547;27679,923;    1,372;    0,136
666,122;27682,708;   -1,082;    0,318
666,698;28005,947;   -0,173;    0,318
667,273;27344,277;   -0,173;    0,136
667,848;28152,607;    2,372;    1,500
668,423;27952,028;    2,190;    2,318
668,998;28491,267;    2,827;   -0,682
669,573;29066,779;   -3,264;   -1,500
670,148;28950,291;   -1,446;   -0,682
670,723;28681,076;   -1,810;    0,318
671,298;29115,315;    2,372;    1,045
671,873;29260,736;   -0,082;   -0,136
672,448;29184,066;    0,645;    0,136
673,023;29487,123;   -1,992;   -0,227
673,597;29858,272;    0,827;    2,318
674,172;29641,420;   -0,355;    0,318
674,747;29086,750;    0,372;   -1,045
675,321;28927,626;   -0,628;    3,318
675,896;28510,683;    0,645;    1,045
676,471;29522,922;    2,645;    1,591
677,045;29231,616;   -1,264;    0,682
677,620;29371,764;    0,190;    1,136
678,194;29635,458;   -2,628;    1,136
678,769;29179,697;   -1,083;   -0,318
679,343;29470,845;   -0,628;    1,773
679,917;29364,175;   -1,446;    1,955
680,492;29470,415;    0,826;    3,227
681,066;29567,745;    3,372;    0,409
681,640;29600,893;    1,463;   -0,318
682,214;30400,769;    0,735;    0,500
682,788;29943,644;   -1,356;   -0,773
683,363;29861,883;   -1,810;    1,682
683,937;29626,486;   -1,719;   -0,318
684,511;30309,453;    0,463;   -0,591
685,085;30050,965;   -1,356;    0,318
685,659;29769,931;   -2,538;    0,864
686,232;30070,716;   -0,356;   -0,318
686,806;29779,773;   -0,901;    0,409
687,380;30451,376;   -0,174;    0,591
687,954;30664,342;   -1,174;    1,136
688,528;30355,581;   -0,719;    1,955
689,101;31142,093;   -3,992;    1,045
689,675;30671,696;   -0,356;   -0,136
690,249;30057,299;   -0,719;    0,409
690,822;30385,265;    0,280;    0,318
691,396;30489,505;   -0,265;    1,227
691,969;29905,926;    1,280;    0,136
692,543;30372,528;   -0,447;   -1,955
693,116;30022,949;   -0,265;   -1,409
693,690;29893,189;    0,099;    0,500
694,263;30456,246;   -1,083;    2,955
694,836;30548,576;    1,371;    3,591
695,410;29179,997;   -0,265;    1,773
695,983;29620,873;    0,189;    0,591
696,556;29578,930;   -0,447;   -1,045
697,129;29970,442;   -0,356;    1,409
697,703;29605,772;   -1,629;    1,955
698,276;29585,193;    1,462;   -0,773
698,849;29378,159;    1,280;    1,409
699,422;29713,399;   -1,083;    0,591
699,995;29391,001;    0,007;    0,136
700,568;29990,422;   -0,629;    3,045
701,140;29945,934;   -2,811;    1,682
701,713;29657,174;   -0,174;    2,409
702,286;29402,867;   -0,538;    0,864
702,859;29326,197;   -0,902;   -0,591
703,432;28490,073;    0,825;    0,682
704,004;28985,676;    0,462;    0,318
704,577;28852,824;   -0,629;    0,136
705,150;29444,790;    0,189;    2,500
705,722;29196,121;   -0,356;   -3,227
706,295;28982,451;   -0,175;   -0,591
706,867;28909,690;   -0,175;    1,955
707,440;29104,747;   -1,720;   -0,409
708,012;29402,259;    0,462;    0,591
708,584;29312,953;    2,462;    0,227
709,157;29568,283;    1,825;   -0,591
709,729;29233,340;    2,280;    2,045
710,301;30048,307;    0,734;    0,045
710,874;30017,273;   -1,447;   -0,227
711,446;28891,058;    0,371;    0,864
712,018;28730,570;    0,098;    0,500
712,590;28495,627;   -1,993;    1,682
713,162;29062,321;    0,825;    1,318
713,734;29300,560;    1,825;   -2,045
714,306;29199,345;   -1,902;   -0,409
714,878;27896,675;    0,825;    0,864
715,450;28679,732;    0,643;    0,864
716,022;28909,699;    1,552;    1,318
716,593;29094,665;    0,189;    0,591
717,165;29027,450;   -3,175;   -1,227
717,737;28739,325;    0,280;    0,409
718,309;28401,292;    0,280;   -0,045
718,880;28362,531;   -0,539;   -1,409
719,452;28627,497;   -0,175;   -1,591
720,024;28204,918;    0,734;   -0,591
720,595;28760,521;   -2,902;    0,955
721,167;28373,760;    0,370;   -2,045
721,738;27854,636;   -0,812;   -1,045
722,309;27846,693;   -0,993;   -1,227
722,881;27619,387;   -1,357;    0,773
723,452;28256,626;   -2,630;    2,864
724,023;28419,502;   -0,721;    2,682
724,595;28204,741;    0,007;    0,682
725,166;27954,707;    0,007;   -0,409
725,737;27634,765;    1,734;    0,227
726,308;27615,458;   -0,266;    0,318
726,879;28115,698;   -1,630;    1,227
727,450;27963,028;    0,552;   -0,045
728,021;27929,540;    3,097;    0,682
728,592;27746,415;    0,734;    0,500
729,163;28058,473;    0,643;   -0,136
729,734;28104,803;    0,188;   -0,227
730,305;28421,678;    1,734;    0,136
730,876;28776,827;    0,188;    2,955
731,447;28473,975;    2,188;    2,682
732,017;28608,578;    1,097;    1,864
732,588;28107,453;    0,734;    1,227
733,159;28261,783;    0,643;   -1,045
733,729;28086,841;    0,006;    0,409
734,300;27422,716;    0,915;    0,864
734,870;27763,592;    3,461;    0,591
735,441;28337,195;    0,370;   -0,591
736,011;28130,888;    0,643;   -1,591
736,582;28069,946;   -0,812;    0,045
737,152;27512,548;   -1,721;   -2,045
737,722;27945,515;   -0,267;   -0,682
738,293;27658,300;   -1,358;    1,318
738,863;27566,993;    2,461;    2,318
739,433;27329,869;    5,279;    0,318
740,003;27971,744;   -0,994;   -0,682
740,573;27413,347;    2,097;   -1,591
741,143;27343,859;   -1,085;    0,318
741,713;28106,189;    1,188;   -0,500
742,283;27842,974;    0,915;    1,591
742,853;27576,213;    1,915;    1,591
743,423;27009,634;    1,733;    0,045
743,993;27177,419;   -0,358;    1,500
744,563;26570,385;    0,097;   -0,864
745,133;26488,715;   -0,812;   -0,864
745,702;27132,045;   -0,267;    1,773
746,272;26345,375;   -0,176;    0,591
746,842;26117,524;   -1,358;   -0,591
747,411;26589,490;   -0,267;   -0,318
747,981;26733,547;    0,097;    0,500
748,551;26787,787;    2,278;   -1,045
749,120;26681,480;    0,642;   -0,227
749,690;27040,810;   -0,631;    2,409
750,259;27336,777;    1,369;    2,955
750,828;27274,652;    1,551;   -1,955
751,398;27522,983;    1,278;   -0,045
751,967;27057,404;    2,187;    0,409
752,536;27297,006;   -0,813;   -0,227
753,105;27675,791;    0,096;    0,227
753,675;27502,212;    0,096;    1,773
754,244;27433,633;   -0,904;    3,591
754,813;27425,963;    0,551;    1,227
755,382;26999,475;    0,460;    0,955
755,951;27659,714;    1,551;    3,682
756,520;27145,499;   -0,085;    1,864
757,089;27728,374;    0,278;    0,500
757,658;27896,523;    1,733;    1,227
758,227;27896,398;    1,096;    0,318
758,795;28239,274;    1,187;    1,136
759,364;28375,877;   -0,086;   -0,591
759,933;27389,025;   -1,176;   -0,045
760,501;26851,628;    0,733;   -1,318
761,070;27324,140;   -2,813;   -1,409
761,639;28040,197;   -1,904;    1,318
762,207;27442,800;    1,551;   -0,955
762,776;27333,766;    0,369;    0,864
763,344;27290,642;   -0,995;    0,591
763,913;26383,972;   -0,722;    1,409
764,481;27173,757;    1,005;   -0,136
765,049;26951,087;   -1,358;    1,409
765,618;26798,235;   -0,086;    0,318
766,186;26867,565;    0,278;    0,136
766,754;27105,531;    0,005;    1,864
767,322;26093,589;   -1,995;    0,409
767,890;26126,737;   -0,722;   -1,773
768,459;26493,067;   -2,177;   -0,318
769,027;26702,579;    1,641;    3,409
769,595;25642,727;    3,278;    2,591
770,163;26093,694;    3,823;    2,955
770,730;25792,933;    0,732;   -0,136
771,298;25651,354;    0,187;   -1,409
771,866;25705,320;   -1,541;    4,955
772,434;26095,378;   -0,631;   -1,864
773,002;26264,708;    0,005;    0,682
773,569;25884,493;    0,914;    1,682
774,137;25699,550;   -0,268;   -0,045
774,705;26474,971;    0,278;   -0,136
775,272;25991,937;    0,641;    0,682
775,840;25729,631;   -0,177;    2,682
776,407;25277,779;    0,277;    1,955
776,975;24889,746;   -0,632;    0,318
777,542;25878,440;   -1,086;   -0,045
778,110;25749,133;   -1,268;   -0,045
778,677;25438,463;   -2,359;   -0,864
779,244;25179,157;    2,186;    1,045
779,812;25281,215;    1,823;    0,864
780,379;25148,272;    0,005;    1,136
780,946;25347,420;    1,005;   -0,773
781,513;25674,659;   -1,450;    0,318
782,080;25058,626;   -0,086;    2,864
782,647;25823,774;   -0,268;    3,045
783,214;25375,468;   -0,177;    3,864
783,781;24988,707;   -0,723;   -0,682
784,348;24862,219;   -0,632;    1,500
784,915;25300,913;   -3,177;    0,318
785,482;25054,152;    1,368;    2,591
786,049;25499,118;    0,186;   -0,591
786,615;25601,085;    0,277;   -0,955
787,182;25323,778;    0,186;   -0,682
787,749;25000,018;   -2,814;    1,409
788,315;24363,893;   -1,632;   -0,409
788,882;24628,587;    1,550;   -1,227
789,448;25379,008;    1,732;   -0,955
790,015;25381,793;    1,095;    3,227
790,581;24995,395;    1,459;    0,227
791,148;24855,362;    0,641;    1,045
791,714;25051,419;   -0,541;    3,136
792,280;24754,295;    0,186;    1,591
792,847;24317,170;    0,550;    2,500
793,413;24904,591;   -0,269;   -0,318
793,979;24411,194;    3,459;   -1,318
794,545;24532,615;    4,459;    2,682
795,111;23969,218;    2,186;    1,318
795,678;24112,912;    0,731;   -1,682
796,244;23742,696;    3,368;    0,136
796,810;24240,208;    1,731;    0,773
797,375;23984,266;    0,549;   -2,136
797,941;24025,232;   -0,541;    0,591
798,507;24165,289;   -0,451;   -0,955
799,073;23677,892;   -0,360;    0,591
799,639;23722,404;   -2,632;    3,136
800,205;23749,371;    0,095;    2,682
800,770;23277,883;    0,640;    1,773
801,336;23403,849;    1,368;   -0,955
801,901;23096,906;    4,549;    3,136
802,467;23681,600;   -0,542;    2,045
803,033;22990,476;   -0,087;    0,864
803,598;23261,624;    1,913;   -1,045
804,163;23289,863;    1,095;   -0,318
804,729;23218,557;   -0,178;    1,136
805,294;23607,069;    0,822;    2,227
805,859;23445,490;    0,731;   -0,409
806,425;22883,365;    1,186;    2,682
806,990;22595,332;    2,186;    4,318
807,555;23008,116;   -1,451;    2,591
808,120;22881,446;    0,822;   -0,409
808,685;22937,140;    0,185;   -2,500
809,250;22468,561;    0,004;   -0,500
809,815;22767,891;    1,913;    0,682
810,380;23319,312;   -0,269;    1,591
810,945;23923,824;   -1,087;    2,045
811,510;23067,609;    2,094;    1,591
812,075;22727,393;   -0,633;   -1,409
812,640;22760,087;    2,003;    1,409
813,204;22790,872;    0,822;   -0,227
813,769;23247,475;    2,094;   -0,045
814,334;22688,168;    0,458;    0,864
814,898;22813,862;    0,367;    0,591
815,463;22640,738;    1,276;   -0,773
816,027;22565,704;   -0,724;   -2,318
816,592;22675,125;    0,640;   -2,045
817,156;22238,183;    2,094;    1,136
817,721;22072,785;    4,276;    2,318
818,285;22006,115;    2,912;    1,500
818,849;22691,355;   -1,451;    1,682
819,414;22585,957;   -0,269;    2,955
819,978;22145,106;   -1,269;    1,773
820,542;22694,527;    2,003;    0,500
821,106;22391,857;   -0,815;    0,682
821,670;22541,551;   -0,815;    2,591
822,234;22238,426;   -0,270;    1,409
822,798;21605,847;    0,003;    0,500
823,362;21570,995;   -0,633;    4,227
823,926;20853,144;    0,094;    1,136
824,490;21124,201;   -0,997;   -0,682
825,054;21565,349;   -0,088;   -1,136
825,618;21180,679;   -1,542;   -1,500
826,181;21122,191;    0,458;   -1,318
826,745;21088,521;    1,367;   -1,045
827,309;21426,306;    1,185;    1,318
827,872;20754,091;    1,367;    0,955
828,436;21724,057;    1,185;   -0,773
828,999;21787,024;   -0,997;    1,227
829,563;20594,899;   -0,179;    1,136
830,126;20403,866;   -0,179;   -0,591
830,690;20455,105;   -1,997;    2,864
831,253;19946,435;   -0,543;    2,227
831,816;20071,401;   -1,906;    0,500
832,380;20011,550;    0,185;    0,864
832,943;20292,607;   -1,361;   -0,500
833,506;19701,028;    2,639;   -1,227
834,069;20474,540;    3,912;   -0,955
834,632;20560,870;    1,730;    1,318
835,195;20475,291;    1,003;    0,955
835,758;19659,257;   -0,997;    1,955
836,321;19509,315;    0,730;   -1,045
836,884;19571,372;   -0,725;   -0,955
837,447;19561,248;   -2,816;    1,773
838,010;19910,305;    0,366;    3,227
838,573;20153,272;   -1,179;    0,773
839,135;20146,511;   -1,361;   -0,955
839,698;19607,114;    1,275;    0,409
840,261;19116,625;    1,003;   -0,227
840,823;18926,683;   -0,543;    0,864
841,386;19255,922;   -0,452;   -2,409
841,948;19167,343;   -1,361;    1,773
842,511;18904,582;    0,912;    1,682
843,073;19047,094;    1,912;    0,227
843,636;18798,242;   -0,361;   -0,227
844,198;18751,300;    0,911;    0,591
844,760;18901,539;    1,093;    1,955
845,322;18516,505;    0,548;    1,136
845,885;18939,017;    0,730;    0,591
846,447;19366,802;   -1,998;    0,227
847,009;19021,768;    1,911;   -0,682
847,571;19321,008;    0,820;   -2,045
848,133;19403,883;   -1,089;   -1,864
848,695;19182,213;   -0,543;    1,409
849,257;18785,361;   -1,089;   -1,682
849,819;18951,510;   -0,998;   -0,409
850,381;19002,022;   -0,725;   -0,864
850,942;19333,715;    1,093;   -0,591
851,504;19345,136;    1,184;    0,227
852,066;19353,376;    1,275;   -1,591
852,628;18862,433;   -0,180;    1,955
853,189;18437,399;    1,638;    2,682
853,751;18562,548;   -0,907;    1,409
854,312;18387,150;   -0,453;   -1,682
854,874;18890,026;   -2,089;   -0,773
855,435;19370,992;   -0,907;   -1,682
855,997;19525,959;   -1,816;   -0,136
856,558;18865,198;    0,366;    1,773
857,119;18936,165;    0,820;    2,864
857,681;18603,586;    0,002;    0,318
858,242;18676,825;    1,911;   -2,136
858,803;19107,882;    0,456;   -0,773
859,364;19664,667;    0,184;   -4,773
859,925;18986,815;   -2,453;   -0,955
860,486;18894,600;   -0,453;   -0,955
861,047;18624,930;   -0,544;   -1,227
861,608;18415,896;   -1,089;   -0,773
862,169;18545,499;    0,638;   -0,045
862,730;18265,466;    0,456;    1,409
863,291;18529,796;   -0,635;   -0,500
863,852;18920,126;   -0,635;    1,955
864,412;18364,729;   -0,271;   -0,864
864,973;16945,786;   -0,089;    0,500
865,534;16834,389;   -1,726;    0,227
866,094;18360,082;    1,820;    0,227
866,655;18017,594;    1,274;    3,318
867,215;18268,379;    0,274;    0,136
867,776;18104,164;    0,547;   -0,136
868,336;18213,676;   -1,453;    0,136
868,897;17694,915;    2,638;    1,682
869,457;17407,790;    1,365;    0,318
870,017;17600,120;    0,547;   -1,227
870,578;18165,905;   -0,817;    0,773
871,138;17828,871;   -2,089;   -0,955
871,698;17364,747;   -0,817;   -1,318
872,258;17266,623;   -0,453;   -2,864
872,818;17664,044;    2,729;    0,045
873,378;17604,465;    0,638;    1,045
873,938;17110,795;    0,547;    0,500
874,498;17440,125;    0,274;   -1,955
875,058;17346,273;    2,183;    1,773
875,618;17205,149;    1,910;   -2,682
876,177;17098,751;    1,274;    0,136
876,737;16767,172;   -0,090;    1,955
877,297;16855,684;    0,183;    1,955
877,856;16846,469;   -0,362;    0,318
878,416;16778,254;    1,183;   -0,136
878,976;16989,220;   -1,817;    0,409
879,535;17122,005;    0,092;    3,136
880,095;16864,335;   -0,544;    0,045
880,654;16986,574;   -1,090;    1,318
881,213;17101,813;    2,456;    1,500
881,773;16735,325;    2,637;    2,682
882,332;17118,473;    3,365;    5,136
882,891;16959,985;    3,092;    2,136
883,451;17438,406;   -1,272;    1,682
884,010;16821,464;   -2,908;   -0,409
884,569;16943,612;   -0,999;   -0,045
885,128;17083,306;    2,819;   -1,864
885,687;17187,636;    4,455;    0,682
886,246;16874,693;    1,455;    2,136
886,805;16636,023;    2,455;    2,045
887,364;16925,899;   -0,999;   -0,500
887,922;17327,683;   -1,181;    0,045
888,481;16817,104;   -1,545;    0,591
889,040;17134,707;    1,183;    2,136
889,599;17758,855;    2,455;    1,409
890,157;17867,549;    1,455;    2,409
890,716;17487,061;   -0,090;    0,227
891,274;17309,846;    0,092;   -1,136
891,833;17753,358;    1,546;    0,864
892,391;17628,870;   -0,454;    0,500
892,950;17687,200;    1,819;   -0,773
893,508;18046,712;    0,455;   -0,409
894,067;17383,496;    0,637;    0,136
894,625;17289,281;   -0,636;   -1,500
895,183;17508,156;   -0,363;   -0,682
895,741;17413,759;    1,728;   -1,773
896,299;17226,089;   -0,545;   -2,409
896,858;17443,147;    0,819;   -1,591
897,416;17527,022;    2,728;   -1,318
897,974;17269,534;    1,819;    0,318
898,532;17460,955;    6,091;    2,682
899,089;17340,649;    2,091;   -0,682
899,647;17379,888;   -1,454;    1,318
900,205;17143,945;    1,182;    1,045
900,763;17289,548;   -0,454;    0,227
901,321;17310,878;    2,364;   -1,409
901,878;16686,754;   -1,000;   -0,773
902,436;16578,357;   -1,363;    1,318
902,994;17004,596;    4,728;    3,682
903,551;16455,744;    0,728;    0,409
904,109;16831,165;    0,182;   -1,409
904,666;16369,313;    2,455;    1,045
905,224;16204,462;    0,182;   -0,409
905,781;16009,065;    0,727;   -0,318
906,338;16063,486;   -1,363;    1,045
906,895;15996,634;    0,637;    2,045
907,453;15907,964;    1,727;    1,136
908,010;15939,839;   -0,909;    0,409
908,567;15615,170;    1,273;    0,591
909,124;15083,500;    0,364;   -1,500
909,681;15167,557;   -2,909;    0,682
910,238;15305,523;    0,636;   -1,318
910,795;15604,126;   -0,273;   -1,136
911,352;15230,217;   -2,909;   -2,682
911,909;14666,763;   -1,364;   -0,864
912,466;15139,763;   -3,182;    1,500
913,022;14670,126;   -1,636;    0,500
913,579;15056,126;   -0,909;    2,045
914,136;14745,217;    1,636;    0,955
914,692;15097,581;    0,091;   -1,227
915,249;14726,581;    1,455;    0,409
915,806;14950,399;    0,182;    1,955
916,362;14667,308;    1,909;    1,864
916,918;14250,944;    2,000;    1,045
917,475;14234,035;   -1,182;    0,955
918,031;14279,944;    3,364;   -0,045
918,587;13708,399;   -0,909;   -0,318
919,144;13963,126;   -2,273;    0,227
919,700;14249,581;    1,727;    0,773
920,256;13820,672;    0,727;    0,045
920,812;13437,490;   -0,727;   -1,045
921,368;13466,672;   -1,727;   -1,045
921,924;13064,308;    0,182;   -0,136
922,480;12657,854;   -0,545;    1,227
923,036;13271,126;    1,273;    1,955
923,592;13198,126;    0,455;    0,318
924,148;13133,490;    0,455;   -0,955
924,704;12422,581;   -1,364;   -0,409
925,259;12689,308;   -0,273;    0,591
925,815;12445,308;    1,455;    0,500
926,371;11973,308;    2,909;    1,409
926,926;11864,308;    2,091;    0,591
927,482;11491,217;   -1,364;    0,773
928,037;11379,490;    0,909;    2,045
928,593;11690,581;    1,636;    1,045
929,148;11476,581;   -1,818;   -1,500
929,704;10962,399;   -1,455;   -0,500
930,259;11185,581;    0,091;   -0,136
930,814;10255,944;   -0,818;    1,955
931,369; 9920,490;    1,091;   -0,773
931,925; 9817,854;   -0,091;    0,136
932,480; 9730,035;   -2,818;   -2,591
933,035; 9609,399;    0,545;   -0,318
933,590; 9407,672;    0,364;   -1,773
934,145; 8997,854;   -1,364;   -0,318
934,700; 9326,035;    0,455;   -0,591
935,255; 9136,399;   -0,091;    0,045
935,809; 8440,763;    3,182;    0,864
936,364; 7537,399;   -0,455;   -0,136
936,919; 7498,126;    0,455;   -1,773
937,474; 7390,763;    1,455;    0,136
938,028; 7143,672;   -1,636;    1,136
938,583; 6633,763;    1,818;    4,682
939,138; 6876,672;    2,091;    2,136
939,692; 6288,944;    1,636;   -1,136
940,247; 6015,035;   -0,727;   -1,045
940,801; 5575,126;   -0,636;    0,227
941,355; 5449,126;   -0,364;    2,591
941,910; 5119,035;   -0,273;   -2,136
942,464; 5233,854;   -0,818;   -0,318
943,018; 5028,399;    1,000;   -0,227
943,572; 5006,217;    2,545;   -0,682
944,126; 4404,126;    0,091;   -0,409
944,681; 4307,763;    3,091;    0,227
945,235; 4272,490;    1,000;   -0,591
945,789; 4213,035;    0,364;   -1,864
946,342; 4329,126;    0,455;   -0,591
946,896; 4108,672;   -2,273;    0,955
947,450; 3857,035;    1,545;   -0,227
948,004; 4069,217;    1,727;   -0,045
948,558; 4069,944;    0,273;   -0,864
949,111; 4005,581;   -0,273;   -0,318
949,665; 4028,763;    1,636;   -0,682
950,219; 3888,581;   -0,091;   -1,045
950,772; 3981,490;   -1,909;    1,864
951,326; 3869,944;    0,545;   -0,955
951,879; 3981,217;    0,727;   -2,318
952,433; 3998,217;    0,000;    2,227
952,986; 3825,308;    2,909;    0,682
953,539; 3800,854;   -0,273;    0,591
954,093; 3708,944;    0,545;   -1,318
954,646; 3867,763;    0,909;    1,318
955,199; 3681,490;    0,000;   -0,500
955,752; 3569,126;   -0,455;    1,773
956,305; 3534,399;   -0,091;    2,955
956,858; 3704,854;    0,818;   -0,318
957,411; 3848,763;   -0,545;    2,136
957,964; 3692,490;    1,364;    2,136
958,517; 3689,854;   -1,545;    3,136
959,070; 3496,308;   -0,455;    1,955
959,623; 3571,035;    1,091;    1,500
960,176; 3349,490;    1,727;    2,045
960,728; 3345,944;   -2,727;    0,773
961,281; 3398,126;    0,545;    0,500
961,834; 3436,854;   -0,909;    0,864
962,386; 3325,763;    1,727;    1,045
962,939; 3265,581;    0,364;   -0,318
963,491; 3413,399;    0,455;    1,136
964,043; 3282,490;    1,182;    2,409
964,596; 3414,399;   -1,000;    2,227
965,148; 3244,763;   -1,000;    1,773
965,700; 3150,126;    1,091;   -0,227
966,253; 3316,308;   -0,636;    0,318
966,805; 3149,035;   -2,273;    0,773
967,357; 3217,399;    1,091;   -1,500
967,909; 3191,399;    0,455;   -1,227
968,461; 3285,217;    0,545;    3,136
969,013; 3219,944;   -0,182;   -0,864
969,565; 3296,763;   -0,455;   -1,136
970,117; 3350,308;   -0,364;    1,045
970,669; 3171,217;    0,182;   -0,136
971,220; 3045,035;   -0,455;   -1,500
971,772; 2966,217;   -0,636;   -0,318
972,324; 3081,035;    0,091;   -0,500
972,876; 3030,126;    0,818;   -0,045
973,427; 3176,126;    1,909;   -1,045
973,979; 3140,854;   -0,727;   -2,500
974,530; 3175,672;    1,818;    1,318
975,082; 3190,399;   -0,545;    1,682
975,633; 3076,763;    1,091;    1,682
976,184; 3223,672;    0,909;    0,773
976,736; 2999,217;    0,091;    0,227
977,287; 2817,308;   -0,909;   -0,500
977,838; 3000,035;    0,909;   -0,318
978,389; 3070,126;   -1,000;   -0,500
978,940; 2921,490;    0,545;   -0,409
979,491; 2950,126;    0,091;   -0,500
980,042; 2913,672;    0,182;    3,045
980,593; 2986,308;   -2,545;    0,227
981,144; 3031,763;    2,545;   -0,500
981,695; 2983,763;    1,455;    1,500
982,246; 2937,490;   -0,273;    1,045
982,797; 3114,944;   -1,727;    0,682
983,347; 3201,854;    0,364;    0,591
983,898; 3368,944;    3,091;    0,409
984,449; 3190,854;    2,182;    0,773
984,999; 3102,308;    1,455;   -1,136
985,550; 2865,581;    0,182;   -0,318
986,100; 2890,217;   -0,455;   -0,318
986,651; 2924,672;   -0,818;    0,045
987,201; 2896,217;   -1,000;   -0,591
987,751; 2971,308;    0,818;    2,864
988,302; 2978,763;    2,636;    1,500
988,852; 3011,944;    0,455;   -1,136
989,402; 3045,581;    0,091;    0,682
989,952; 2965,308;   -2,182;    0,864
990,502; 3057,854;   -0,091;    0,682
991,052; 3011,490;   -0,727;    0,045
991,602; 2886,399;   -2,909;    1,318
992,152; 2883,035;    0,455;    0,682
992,702; 2876,126;    1,364;   -0,045
993,252; 2794,763;   -3,000;   -0,500
993,802; 2901,308;   -0,273;    1,318
994,352; 3111,854;   -1,545;    1,136
994,901; 3202,763;   -0,182;    3,227
995,451; 3115,944;   -0,182;    0,318
996,000; 3194,308;    1,636;    0,318
996,550; 2928,217;    2,273;    0,227
997,100; 2913,763;    1,273;   -0,045
997,649; 3192,854;    2,182;    0,955
998,198; 2836,399;    1,727;   -1,500
998,748; 3046,763;    1,091;   -2,318
999,297; 2938,672;   -0,818;   -0,409
999,846; 3003,490;    1,000;   -0,773
1000,395; 3046,035;   -0,818;    0,500
1000,945; 3016,763;    1,818;   -0,773
1001,494; 3104,308;    2,364;    0,682
1002,043; 3081,763;    4,636;    0,864
1002,592; 2920,035;   -1,091;    1,955
1003,141; 3068,581;   -0,455;   -0,682
1003,690; 2932,126;    1,727;    0,500
1004,238; 3025,763;    1,455;   -0,045
1004,787; 2651,581;    1,364;    1,227
1005,336; 2892,126;    0,364;    0,682
1005,885; 3020,854;    1,364;   -2,773
1006,433; 3145,763;    0,545;    0,955
1006,982; 3223,944;    0,455;    1,682
1007,531; 3137,217;   -1,818;   -0,227
1008,079; 3064,944;   -2,273;    0,500
1008,627; 3207,399;   -1,455;    0,409
1009,176; 2948,217;    0,000;   -1,955
1009,724; 2999,035;    1,091;    0,864
1010,273; 3058,308;    1,273;    0,500
1010,821; 3163,035;    0,091;    1,409
1011,369; 2901,763;   -1,364;    1,318
1011,917; 2887,854;   -1,364;   -0,591
1012,465; 3153,854;    1,273;   -1,591
1013,013; 3254,672;    2,091;   -1,682
1013,561; 3150,672;    0,455;   -0,773
1014,109; 3214,581;   -1,909;    1,682
1014,657; 3078,217;    0,364;    0,591
1015,205; 3197,581;    1,636;   -0,955
1015,753; 3217,399;   -0,545;   -1,409
1016,301; 3279,672;   -2,636;    3,045
1016,848; 3271,854;   -1,273;    0,409
1017,396; 3299,035;    2,545;    0,045
1017,944; 3421,854;    1,182;    1,864
1018,491; 3182,581;    0,273;    1,409
1019,039; 3347,399;    0,455;    0,591
1019,586; 3246,490;   -1,364;    1,682
1020,134; 3336,672;    0,455;    1,500
1020,681; 3380,672;    0,182;   -1,136
1021,228; 3364,672;    2,909;   -2,227
1021,776; 3202,126;    1,182;   -1,136
1022,323; 3424,944;    0,455;    0,773
1022,870; 3364,399;   -1,000;   -0,045
1023,417; 3256,672;    2,636;    1,864
1023,964; 3373,490;    2,636;    1,227
1024,511; 3223,763;    1,000;    0,773
1025,058; 3016,490;    3,182;   -0,045
1025,605; 3086,944;   -2,273;    3,136
1026,152; 3327,854;    1,727;   -0,591
1026,699; 3051,581;    1,818;    1,318
1027,245; 3199,035;   -0,091;    0,318
1027,792; 3394,490;   -1,000;    1,409
1028,339; 3288,035;    2,364;   -0,045
1028,885; 3144,035;    1,000;   -0,227
1029,432; 3094,399;   -0,091;    0,227
1029,978; 3159,308;   -1,000;   -1,591
1030,525; 3036,217;    1,000;    0,409
1031,071; 3267,763;   -1,364;    1,136
1031,618; 3412,490;    0,364;    1,682
1032,164; 3166,399;   -0,091;    3,045
1032,710; 3214,672;    1,636;   -1,500
1033,256; 3121,217;   -0,636;   -0,136
1033,803; 3120,035;   -0,545;    1,500
1034,349; 2839,126;   -1,364;    0,136
1034,895; 2979,672;    0,000;   -0,318
1035,441; 2977,308;   -0,818;    0,318
1035,987; 2974,126;   -2,364;   -0,682
1036,533; 2967,126;   -1,455;   -0,955
1037,078; 3161,854;    1,455;    1,682
1037,624; 2971,126;    2,455;   -0,955
1038,170; 3030,854;    0,455;   -0,318
1038,716; 2942,399;    1,636;   -0,409
1039,261; 2845,308;   -2,273;   -0,773
1039,807; 2764,944;   -0,091;    3,409
1040,352; 2841,217;   -1,909;   -0,318
1040,898; 2888,035;   -1,545;   -0,682
1041,443; 2771,581;   -1,455;   -2,591
1041,989; 2815,763;    1,091;    1,591
1042,534; 2713,308;   -0,364;    2,591
1043,079; 2792,035;    2,909;    0,955
1043,625; 2580,217;    1,818;    0,500
1044,170; 2639,944;   -1,364;    1,045
1044,715; 2897,399;    2,455;    0,955
1045,260; 2715,035;    2,182;   -0,955
1045,805; 2759,217;    1,182;   -0,591
1046,350; 2681,763;    1,364;   -0,409
1046,895; 2655,308;    2,909;    1,591
1047,440; 2598,035;    5,364;    0,409
1047,985; 2483,035;    2,818;   -0,955
1048,530; 2415,399;    1,545;    1,227
1049,074; 2501,217;    0,000;    0,318
1049,619; 2473,217;   -1,364;    1,955
1050,164; 2281,581;    0,455;    0,227
1050,708; 2309,763;   -0,455;    0,045
1051,253; 2689,126;    1,273;   -2,227
1051,797; 2390,217;    0,818;   -1,318
1052,342; 2375,217;   -1,182;    1,045
1052,886; 2397,490;    0,364;   -1,409
1053,430; 2272,854;   -1,364;    0,136
1053,975; 2290,581;   -0,818;   -0,318
1054,519; 2268,763;   -0,727;    3,227
1055,063; 2291,581;    0,909;    1,318
1055,607; 2163,126;   -0,182;    0,227
1056,151; 2192,944;    2,909;    1,682
1056,695; 2092,672;    2,273;   -1,136
1057,239; 2180,944;   -1,727;   -0,682
1057,783; 2181,672;    0,818;   -1,500
1058,327; 2137,035;    0,000;    1,409
1058,871; 2359,399;   -0,545;    1,318
1059,415; 2057,399;   -0,818;   -0,045
1059,958; 2352,672;    1,455;    2,591
1060,502; 2065,126;   -1,000;   -0,773
1061,046; 1943,763;    0,364;   -0,955
1061,589; 1931,763;   -3,000;   -1,136
1062,133; 1815,944;   -1,273;    1,864
1062,676; 1765,490;    1,182;    0,864
1063,220; 1765,944;    1,091;    0,500
1063,763; 1791,490;    0,909;    1,136
1064,306; 1866,944;   -0,909;    1,864
1064,849; 1749,581;   -0,909;    0,591
1065,393; 1765,308;    2,000;   -1,500
1065,936; 1873,035;    0,182;   -0,409
1066,479; 1738,126;   -1,455;    1,318
1067,022; 1757,854;   -0,273;   -0,227
1067,565; 1657,126;   -0,091;   -1,318
1068,108; 1706,399;    0,727;   -0,591
1068,651; 1677,763;   -0,636;    1,409
1069,194; 1605,490;   -0,455;   -1,682
1069,736; 1610,308;   -1,273;    0,955
1070,279; 1590,854;   -1,364;   -0,500
1070,822; 1641,490;   -2,000;   -0,318
1071,364; 1729,399;   -0,364;    1,318
1071,907; 1548,581;   -0,727;    3,227
1072,450; 1439,399;    0,000;   -0,045
1072,992; 1443,399;   -0,273;    3,136
1073,535; 1599,763;    2,091;    2,136
1074,077; 1376,035;   -0,727;    2,045
1074,619; 1357,763;   -1,364;    0,591
1075,161; 1391,217;   -1,091;    1,500
1075,704; 1577,399;    1,545;    1,227
1076,246; 1369,399;   -0,182;    0,682
1076,788; 1281,944;   -0,364;    1,773
1077,330; 1355,944;    1,273;    2,136
1077,872; 1327,944;    0,909;    0,955
1078,414; 1565,035;    2,727;    0,773
1078,956; 1292,854;    1,273;   -0,227
1079,498; 1571,399;    1,636;    0,318
1080,040; 1269,854;    1,909;   -1,318
1080,581; 1199,308;    1,636;   -0,318
1081,123; 1109,490;    0,091;   -0,773
1081,665; 1168,308;   -1,182;   -0,955
1082,206; 1480,854;    1,364;   -0,500
1082,748; 1340,581;    0,727;    2,045
1083,289; 1202,944;   -2,000;    1,318
1083,831; 1104,217;   -0,545;    0,227
1084,372; 1149,581;    0,000;    0,591
1084,913; 1157,035;    1,091;    0,864
1085,455; 1118,126;   -1,909;   -2,045
1085,996; 1084,854;   -2,273;    0,136
1086,537; 1114,217;   -0,091;    0,864
1087,078; 1137,308;   -0,909;   -2,136
1087,619; 1190,944;   -1,273;    0,227
1088,160; 1102,854;    0,000;    1,318
1088,701; 1088,308;   -1,091;    0,682
1089,242; 1035,581;    1,364;   -2,227
1089,783; 1124,854;   -0,273;    1,409
1090,324; 1091,672;    0,455;    0,682
1090,865;  969,308;    2,727;   -0,409
1091,405;  931,672;    0,727;    2,227
1091,946;  958,217;    0,182;   -0,955
1092,487;  880,854;    0,818;   -1,409
1093,027; 1054,944;   -1,364;   -1,500
1093,568;  907,854;   -0,364;    1,227
1094,108; 1017,217;    0,273;    1,773
1094,649;  954,217;   -1,182;    0,136
1095,189;  887,490;   -0,636;   -0,682
1095,729;  842,035;   -0,091;    0,955
1096,269;  841,490;    0,727;   -0,955
1096,810; 1170,672;   -1,364;    0,500
1097,350;  986,581;    1,364;   -0,773
1097,890;  888,308;    0,364;    1,227
1098,430; 1149,672;    2,364;    2,864
1098,970; 1018,308;    2,182;    1,682
1099,510;  872,854;    0,545;   -2,318
1100,050;  790,217;    1,000;   -1,591
1100,589;  761,944;   -0,727;   -0,318
1101,129;  906,308;    0,818;   -0,955
1101,669; 1064,490;    1,727;    2,136
1102,209;  876,308;   -0,091;    2,227
1102,748;  827,490;    0,000;    0,955
1103,288;  816,672;    1,273;   -1,227
1103,827;  856,854;    3,091;   -2,227
1104,367;  713,581;   -0,091;   -2,409
1104,906;  684,399;    1,364;   -1,136
1105,445;  765,854;    0,636;   -1,136
1105,985;  717,399;   -0,727;    1,500
1106,524;  764,672;   -1,727;   -0,682
1107,063;  731,308;   -2,727;    1,409
1107,602;  700,399;   -1,909;   -1,500
1108,141;  622,854;   -1,909;    1,500
1108,680;  737,672;   -3,455;   -0,591
1109,219;  668,035;   -0,909;   -0,500
1109,758;  664,854;    0,455;    0,682
1110,297;  632,308;    1,000;   -0,682
1110,836;  578,490;   -0,727;    0,955
1111,375;  752,763;   -2,545;    0,409
1111,913;  766,308;   -1,000;    0,773
1112,452;  690,854;   -0,273;    0,136
1112,991;  567,035;    1,091;    1,955
1113,529;  534,126;   -0,818;   -0,045
1114,068;  600,854;   -0,273;    2,955
1114,606;  512,126;   -0,364;   -0,955
1115,144;  683,399;   -1,273;    1,045
1115,683;  608,399;   -0,727;    0,318
1116,221;  657,126;   -0,455;   -0,864
1116,759;  563,944;    0,636;   -0,864
1117,297;  777,854;    0,000;    1,864
1117,836;  574,490;   -2,182;   -1,227
1118,374;  581,944;    0,182;   -0,682
1118,912;  514,944;    0,909;    2,682
1119,450;  505,763;    1,000;    0,864
1119,988;  565,854;    1,545;    2,136
1120,525; 1027,944;    5,091;    3,318
1121,063;  729,308;    1,182;    1,864
1121,601;  528,035;   -0,909;   -1,227
1122,139;  483,763;   -0,727;   -2,045
1122,676;  688,217;   -0,727;    2,773
1123,214;  611,308;   -1,182;    4,409
1123,751;  413,126;    1,727;    2,227
1124,289;  548,308;   -0,091;   -0,409
1124,826;  419,308;    1,727;    0,227
1125,364;  346,763;    1,727;   -0,955
1125,901;  541,217;    1,182;    1,227
1126,438;  657,035;    0,818;    0,955
1126,975;  374,854;   -0,727;   -0,773
1127,513;  451,399;    0,273;    2,136
1128,050;  350,035;    1,636;   -0,682
1128,587;  456,126;    2,000;   -0,227
1129,124;  493,308;    0,091;    1,318
1129,661;  358,581;    0,273;    0,227
1130,198;  529,944;    1,636;    0,773
1130,734;  468,672;    0,182;    1,409
1131,271;  321,308;   -0,909;    0,864
1131,808;  505,944;    2,909;    3,045
1132,345;  383,490;    1,545;    0,318
1132,881;  246,490;   -1,545;   -1,864
1133,418;  395,399;    0,727;   -1,136
1133,954;  319,217;    2,455;   -2,682
1134,491;  398,308;    1,364;   -0,773
1135,027;  296,308;    2,364;    0,864
1135,564;  390,399;    0,273;    2,955
1136,100;  378,035;    0,364;    2,136
1136,636;  260,217;   -1,273;   -1,045
1137,172;  351,308;    0,000;   -1,045
1137,708;  277,399;   -1,364;   -1,045
1138,245;  283,763;    1,273;   -1,227
1138,781;  228,490;    1,091;   -3,318
1139,317;  305,944;    1,273;   -1,409
1139,852;  296,944;    3,091;    0,136
1140,388;  415,399;   -1,182;   -0,409
1140,924;  297,399;   -1,091;   -2,227
1141,460;  229,944;   -1,636;    0,136
1141,996;  156,035;   -1,364;    2,682
1142,531;  209,944;    1,364;    3,318
1143,067;  443,308;    1,182;    1,045
1143,602;  504,490;   -0,091;   -0,318
1144,138;  333,854;   -2,636;    1,045
1144,673;  190,126;   -1,455;    1,409
1145,209;  261,399;   -1,909;   -0,318
1145,744;  178,854;   -0,727;    0,864
1146,279;  329,126;    1,818;   -0,136
1146,815;  242,854;    1,545;   -2,682
1147,350;  288,126;   -1,364;    0,045
1147,885;  183,944;   -0,818;   -1,318
1148,420;  192,308;   -2,273;    0,773
1148,955;  171,308;   -1,727;    1,864
1149,490;  193,944;   -0,909;   -1,591
1150,025;  179,854;    0,455;   -1,773
1150,560;  298,126;    1,091;   -0,955
1151,094;  258,763;    1,455;   -0,591
1151,629;  271,944;    1,636;    0,864
1152,164;  182,763;    1,364;    1,318
1152,698;  146,308;   -0,182;   -0,136
1153,233;   96,763;    0,091;   -0,682
1153,767;  145,763;   -3,000;   -2,318
1154,302;  201,763;   -1,455;    1,773
1154,836;  197,944;   -0,455;   -2,136
1155,371;  255,308;   -1,364;    3,682
1155,905;  208,035;   -0,636;    1,682
1156,439;  174,763;   -0,636;   -0,500
1156,973;  205,581;    0,364;    0,318
1157,507;  134,944;   -0,364;    0,682
1158,042;  165,399;   -0,727;    1,045
1158,576;  229,217;    0,182;    1,773
1159,110;  210,854;   -0,818;    2,409
1159,643;  184,763;    0,636;   -0,045
1160,177;  118,217;   -1,545;    1,500

