
Integration time [ms]:   0,040
Averaging Nr. [scans]: 11
Smoothing Nr. [pixels]: 0
Data measured with spectrometer [name]: 7318044SP
Wave   ;Sample   ;Dark     ;Reference
[nm]   ;[counts] ;[counts] ;[counts] 

186,757;   35,530;   31,551;    1,318
187,357;   73,524;   22,551;    0,955
187,958;   38,420;   15,460;   -1,591
188,558;   82,248;    8,915;   -1,227
189,159;   49,629;    6,733;   -4,500
189,759;   15,592;    7,278;   -3,591
190,360;   24,718;    2,824;   -2,136
190,960;   70,775;    2,915;   -4,136
191,560;   87,882;    3,189;   -6,591
192,161;  357,935;    4,372;   -3,500
192,761;  190,559;    4,010;   -3,227
193,361;  127,864;    1,556;   -3,773
193,962;  177,878;    2,010;   -2,682
194,562;   93,502;    1,189;   -3,955
195,162;  135,111;   -2,448;   -2,227
195,762;  319,426;   -3,176;   -0,045
196,362;  264,120;    1,370;   -2,500
196,963;  105,506;    2,006;   -0,864
197,563;  177,526;    1,551;   -0,955
198,163;  123,725;    0,096;   -0,682
198,763;  141,858;    1,733;   -0,500
199,363;  257,295;    3,096;   -0,500
199,963;  218,357;    0,369;    0,409
200,563;  183,906;    2,823;   -1,409
201,163;  169,560;    3,277;   -0,227
201,763;  271,900;    3,732;    0,318
202,363;  196,275;    1,459;    1,500
202,963;  316,961;    1,459;    1,045
203,563;  439,485;    0,277;    0,500
204,162;  272,504;    2,096;   -1,864
204,762;  248,983;    0,550;    0,591
205,362;  221,325;    3,004;    1,955
205,962;  327,646;    3,096;    1,955
206,562;  326,677;    1,823;    2,318
207,161;  290,004;   -0,087;    0,318
207,761;  458,254;    1,277;    2,409
208,361;  328,878;   -0,268;    1,409
208,960;  438,808;    0,459;    1,500
209,560;  519,362;    1,277;    1,591
210,160;  483,113;    0,550;    1,864
210,759;  445,096;    4,186;    1,227
211,359;  455,797;    1,459;    1,045
211,958;  735,672;    1,277;    2,045
212,558;  830,280;    1,732;    1,864
213,157;  665,888;    1,822;    1,500
213,757; 1131,371;    3,822;   -0,227
214,356;  821,690;    1,277;   -0,409
214,956; 1177,883;    3,095;    0,409
215,555;  771,668;    2,095;    2,136
216,154;  703,064;   -2,723;   -0,591
216,754;  716,327;    0,277;    0,773
217,353;  867,012;   -0,268;   -1,045
217,952;  716,737;   -0,178;    0,318
218,552;  974,469;    1,368;   -0,773
219,151;  860,649;    0,277;    0,955
219,750;  856,804;    0,004;   -0,227
220,349;  993,552;   -0,451;    1,045
220,948; 1059,983;   -1,360;    1,136
221,548; 1103,804;    0,913;    1,227
222,147; 1217,994;   -0,087;   -0,409
222,746; 1510,514;   -0,451;   -0,955
223,345; 1384,265;    0,731;    0,500
223,944; 1414,142;   -0,451;    0,773
224,543; 1595,898;    1,004;   -1,409
225,142; 1714,693;    0,094;    0,136
225,741; 1616,962;   -0,814;    1,045
226,340; 1642,381;   -0,451;   -0,955
226,939; 2122,529;   -0,996;   -0,136
227,538; 2110,979;   -0,360;   -0,773
228,137; 2272,823;   -0,814;    0,864
228,735; 2449,727;   -0,541;    1,227
229,334; 2188,990;   -0,905;   -0,227
229,933; 2577,245;    0,459;    0,591
230,532; 2690,006;    1,186;   -0,409
231,131; 2749,272;    1,732;    0,318
231,729; 2931,767;   -2,450;   -2,318
232,328; 3085,175;   -0,723;   -1,500
232,927; 3173,575;    1,004;   -0,500
233,525; 3318,354;    3,640;    0,045
234,124; 3532,429;    2,368;   -1,591
234,723; 3561,558;    0,913;   -1,045
235,321; 3735,239;    2,277;    0,136
235,920; 4011,772;    1,186;   -1,227
236,518; 4275,544;    3,459;    0,318
237,117; 4480,686;    0,004;   -0,227
237,715; 4639,690;    0,640;   -0,500
238,314; 4707,111;   -0,087;   -2,318
238,912; 4794,416;   -0,723;   -1,409
239,510; 4863,579;    0,459;   -1,227
240,109; 5044,114;    0,004;    3,773
240,707; 5085,197;   -0,996;    1,227
241,305; 5458,808;    0,550;    0,136
241,904; 5714,990;   -0,178;   -2,045
242,502; 5675,732;   -0,632;   -0,227
243,100; 5617,044;   -0,087;   -0,955
243,698; 5852,231;    0,732;    1,682
244,297; 6044,450;   -0,632;    0,682
244,895; 5857,139;   -0,269;   -2,318
245,493; 6226,518;    2,186;   -0,591
246,091; 6213,922;    1,368;   -1,318
246,689; 6216,372;    1,004;    0,591
247,287; 6424,517;    0,822;   -1,136
247,885; 6720,613;   -1,451;    1,227
248,483; 6835,116;    1,822;   -0,500
249,081; 6954,308;    0,185;    1,591
249,679; 7139,776;   -0,178;    1,682
250,277; 7387,943;   -1,723;    0,864
250,875; 7391,322;   -1,087;   -1,045
251,473; 7360,268;   -1,178;    0,500
252,071; 7616,298;    1,459;    1,045
252,669; 7753,869;   -1,814;    0,318
253,267; 7986,214;   -0,087;    0,773
253,864; 7983,244;   -0,360;    0,682
254,462; 7846,962;    1,640;    1,591
255,060; 7807,665;   -0,269;    1,318
255,658; 8185,687;    0,822;   -0,136
256,255; 8601,966;    0,186;   -2,045
256,853; 8470,067;   -0,269;    1,409
257,451; 8460,963;    0,822;    1,864
258,048; 8724,485;    1,822;    1,864
258,646; 8463,866;    1,731;   -1,045
259,243; 8654,067;   -0,087;    2,227
259,841; 8732,206;   -0,814;    0,318
260,438; 8590,767;   -0,087;    0,864
261,036; 9338,214;   -1,905;    1,409
261,633; 9225,152;   -0,087;    2,227
262,231; 8960,705;    2,731;   -0,045
262,828; 9032,998;   -0,905;    1,136
263,425; 9089,657;    0,913;   -0,591
264,023; 9392,847;    0,186;    0,045
264,620; 8900,584;   -0,360;   -0,318
265,217; 9299,965;   -2,087;    3,136
265,815; 9411,844;   -1,905;    2,136
266,412; 9172,520;    0,731;    0,136
267,009; 9224,959;   -1,451;    0,773
267,606; 9102,321;    0,822;   -0,955
268,203; 9083,174;   -0,269;   -0,591
268,801; 9378,442;    1,731;    0,591
269,398; 9674,568;   -0,360;    2,500
269,995; 9646,180;    0,277;    1,591
270,592; 9455,931;   -0,632;   -0,500
271,189; 9637,782;    0,186;    0,409
271,786; 9746,966;   -0,632;    1,227
272,383; 9578,223;   -1,087;    0,227
272,980; 9792,391;    0,277;    0,318
273,577;10289,146;    0,004;    1,227
274,174; 9821,743;    0,822;    2,591
274,771; 9800,506;   -0,814;   -0,773
275,367; 9973,323;    2,277;    1,409
275,964; 9957,354;    0,731;   -0,500
276,561;10022,520;    1,549;   -1,045
277,158;10268,230;    0,095;   -1,773
277,755;10384,399;    2,185;    0,409
278,351; 9800,316;   -0,451;   -1,500
278,948;10124,090;   -0,815;    0,045
279,545;10108,337;   -1,360;    2,318
280,141;10766,217;   -1,723;   -2,045
280,738;10622,587;   -0,451;   -0,136
281,334;10891,204;   -1,633;    0,591
281,931;10263,240;   -0,087;   -1,318
282,528;10292,702;    0,822;   -0,500
283,124;11063,416;   -1,087;   -0,500
283,721;11000,221;   -0,451;    1,409
284,317;10737,490;    0,185;    2,500
284,913;11335,107;   -1,360;    0,591
285,510;11554,380;    0,640;   -0,318
286,106;11577,104;   -2,269;   -0,955
286,703;11162,134;   -0,360;    1,955
287,299;11370,479;   -1,451;   -0,591
287,895;11571,161;    0,822;   -1,045
288,491;12157,113;    0,186;    2,136
289,088;11850,670;   -2,360;    2,409
289,684;11975,778;   -1,723;    1,500
290,280;11969,021;    0,368;    0,682
290,876;12043,729;    1,822;    5,500
291,472;11917,080;    1,276;    2,227
292,068;12018,659;    1,367;    0,227
292,665;11718,660;    2,095;    0,773
293,261;11330,246;    0,276;    2,136
293,857;11749,284;    2,913;    2,136
294,453;11661,695;    3,550;    0,955
295,049;11527,495;   -0,268;    1,955
295,644;11515,052;    0,095;    0,136
296,240;11410,666;   -0,905;   -0,136
296,836;11481,833;   -0,995;    0,318
297,432;11802,506;    1,096;   -0,500
298,028;11883,388;    0,732;    0,773
298,624;12274,302;    1,459;    1,864
299,220;12547,409;    2,368;    0,591
299,815;12196,167;    1,005;   -0,409
300,411;11957,222;    0,914;    1,773
301,007;11979,283;    1,368;    0,227
301,602;12027,084;   -0,541;   -2,318
302,198;12215,780;    0,732;   -0,773
302,794;12543,272;    1,187;   -0,500
303,389;12639,559;   -1,177;    1,045
303,985;12761,996;    0,550;    1,409
304,580;12684,630;    1,459;    1,591
305,176;12635,463;   -3,086;    0,136
305,771;12582,266;   -1,268;   -1,227
306,367;12446,449;    4,095;    0,136
306,962;12783,811;    0,641;    1,500
307,558;12523,656;   -0,450;    0,136
308,153;12447,104;    1,095;   -1,136
308,748;12645,316;   -0,814;    1,682
309,344;12652,026;   -0,632;   -1,318
309,939;12761,652;   -1,905;   -1,318
310,534;13065,703;   -0,086;   -1,682
311,130;12962,658;    0,459;   -2,500
311,725;12660,060;    1,004;   -0,500
312,320;13034,243;    2,459;    0,045
312,915;12863,344;    1,459;   -1,045
313,510;12963,187;    1,550;   -0,500
314,105;13465,393;    1,096;    1,409
314,700;12796,795;   -3,086;   -1,045
315,295;12465,812;   -0,904;    0,045
315,890;11993,801;    1,277;    0,864
316,485;12362,160;   -0,359;   -0,318
317,080;12484,184;   -3,086;    1,591
317,675;13079,521;    2,005;   -0,682
318,270;12506,804;    5,550;    3,318
318,865;12480,890;    3,278;    3,045
319,460;12313,233;   -0,904;    0,591
320,055;12542,633;   -0,541;   -1,227
320,650;12189,668;   -1,995;   -0,591
321,244;12262,839;   -0,177;   -1,409
321,839;13223,900;   -1,541;   -0,227
322,434;13108,061;   -1,086;   -1,591
323,029;12720,496;    1,732;    1,591
323,623;12540,862;    1,550;    0,773
324,218;12310,463;    2,368;    1,409
324,812;12197,185;    1,096;    1,591
325,407;12002,870;   -0,814;    2,045
326,002;11906,120;    0,277;   -0,409
326,596;12222,599;    0,914;    1,318
327,191;12403,096;    0,823;   -1,045
327,785;12006,599;   -0,813;   -0,227
328,379;12209,492;    1,368;    0,136
328,974;12022,978;    0,914;   -3,955
329,568;12218,949;    0,186;   -2,409
330,163;12037,901;    2,096;    1,045
330,757;12384,415;    2,459;    1,591
331,351;11673,576;    0,459;    0,682
331,945;11983,903;    0,914;    1,409
332,540;11562,763;   -1,723;   -0,591
333,134;11743,211;   -1,086;    0,773
333,728;12031,277;    0,005;    0,318
334,322;12356,878;   -1,177;   -0,864
334,916;11576,869;    0,277;    0,955
335,510;11915,417;   -0,450;   -0,136
336,105;12174,914;   -1,086;    1,591
336,699;11886,050;   -1,086;    0,591
337,293;11819,100;   -1,723;    0,318
337,887;11985,184;   -2,723;    1,955
338,481;12090,608;    0,459;    0,591
339,074;12173,591;   -0,359;    2,682
339,668;12035,626;   -1,632;    1,227
340,262;12335,975;    1,732;    3,227
340,856;11814,612;    1,822;   -0,682
341,450;11133,805;    1,004;    1,864
342,044;12065,736;    1,459;    0,136
342,637;11833,387;    0,913;   -2,136
343,231;11684,118;   -2,360;    0,682
343,825;11654,227;   -1,086;   -0,591
344,419;11611,114;   -1,995;    0,500
345,012;11394,921;    2,459;    4,045
345,606;11423,133;    4,641;    1,591
346,199;11207,739;   -1,813;   -0,227
346,793;10744,683;    1,914;    2,045
347,386;10938,058;   -0,813;   -1,136
347,980;10942,748;   -0,268;   -0,045
348,573;10723,457;    2,278;    0,409
349,167;10373,430;    5,278;    4,773
349,760;10715,290;    2,914;    2,682
350,354;10702,642;   -0,813;    1,136
350,947;10439,774;    1,096;    1,682
351,540;10111,524;   -0,358;   -1,409
352,134;10038,594;    1,096;    1,136
352,727;10148,269;   -0,086;    1,136
353,320; 9932,741;    0,005;    0,591
353,913; 9773,347;   -1,995;    1,864
354,507; 9981,553;    0,823;   -1,227
355,100; 9965,888;    0,460;    0,864
355,693; 9215,438;    2,005;    2,409
356,286; 9242,317;    0,823;    2,773
356,879; 9574,936;   -0,722;    1,227
357,472; 9208,437;   -0,904;    1,500
358,065; 9417,055;   -0,722;    2,500
358,658; 9316,658;   -0,540;    2,318
359,251; 8910,941;   -1,631;   -0,591
359,844; 8393,677;   -1,904;   -1,136
360,437; 8581,048;   -2,995;    0,045
361,030; 8865,090;    1,369;   -0,682
361,623; 8442,629;    2,824;    0,318
362,215; 8501,800;   -0,086;    2,045
362,808; 8323,556;   -2,358;   -1,682
363,401; 8557,468;   -2,449;    0,136
363,994; 8270,575;   -0,631;   -1,500
364,586; 8158,468;    0,824;   -1,500
365,179; 8388,595;   -0,449;   -1,136
365,772; 7858,526;   -1,995;    2,045
366,364; 8191,493;    1,915;   -3,227
366,957; 8398,454;    2,279;   -0,045
367,549; 8408,610;    2,188;   -0,864
368,142; 8064,945;    1,825;   -1,500
368,734; 8249,282;    0,734;   -2,136
369,327; 8196,646;    1,643;   -0,500
369,919; 8129,274;   -1,538;    0,409
370,512; 7935,166;   -1,083;   -0,500
371,104; 7677,358;   -0,901;    1,591
371,696; 7858,264;    1,191;   -0,955
372,289; 7954,021;    0,373;    1,136
372,881; 8098,993;   -2,080;    1,318
373,473; 8016,728;   -2,170;    1,136
374,066; 7831,257;   -0,169;    0,500
374,658; 7659,345;    0,378;    1,136
375,250; 8044,123;    0,653;   -1,409
375,842; 7894,488;    0,473;   -0,045
376,434; 7777,798;   -0,435;   -0,409
377,026; 8328,067;    0,204;   -2,500
377,618; 8219,331;   -0,158;   -0,682
378,210; 8067,733;   -0,338;   -1,955
378,802; 7890,756;    0,754;   -0,591
379,394; 7883,524;    1,846;    0,682
379,986; 8486,112;    1,393;   -0,955
380,578; 8592,310;   -0,153;    0,773
381,170; 7921,989;   -0,972;    0,045
381,762; 7873,426;    0,755;    1,409
382,354; 8078,299;   -0,065;   -1,318
382,945; 8194,946;   -2,976;    0,318
383,537; 8354,838;   -2,705;   -1,955
384,129; 8358,161;   -2,160;   -1,136
384,721; 8520,584;   -0,252;    0,955
385,312; 8471,167;   -0,161;   -0,955
385,904; 8560,627;   -2,706;    1,591
386,496; 7925,919;   -0,979;    1,045
387,087; 8109,262;    1,022;    2,500
387,679; 8146,305;   -1,160;    0,045
388,270; 8242,831;    2,840;    2,045
388,862; 8402,213;    1,295;   -0,318
389,453; 8284,619;   -0,887;    1,045
390,045; 8557,860;   -0,705;   -2,682
390,636; 8480,608;    0,204;   -0,591
391,227; 8327,043;   -0,523;   -0,045
391,819; 8437,398;    0,204;    0,773
392,410; 8499,572;    1,022;    0,045
393,001; 8442,763;   -0,979;   -1,591
393,593; 8768,775;    1,930;   -0,045
394,184; 8620,772;    1,385;   -0,409
394,775; 8549,991;    1,839;    2,136
395,366; 8739,695;    1,385;    0,773
395,957; 8739,341;    0,113;    0,136
396,548; 9052,465;   -0,342;    2,682
397,139; 9397,364;   -2,433;    0,591
397,730; 9093,835;   -1,888;    0,955
398,321; 9159,860;   -1,252;    0,955
398,912; 9194,021;   -0,615;    0,136
399,503; 9223,861;   -3,524;   -1,409
400,094; 8666,515;    0,294;    1,682
400,685; 8493,145;   -0,433;    0,045
401,276; 8621,561;    0,930;   -0,955
401,867; 8946,289;   -0,888;    0,773
402,458; 9060,702;   -2,251;   -2,318
403,048; 9033,050;    1,112;    0,591
403,639; 8596,992;    0,840;    0,864
404,230; 8837,546;    2,476;    0,318
404,821; 8768,316;   -0,615;    0,045
405,411; 8919,161;    1,203;   -2,591
406,002; 8510,728;   -1,252;   -1,136
406,592; 8341,757;    2,294;    0,045
407,183; 8660,038;    0,566;   -1,500
407,774; 8595,853;    3,475;   -0,136
408,364; 8920,596;    0,930;    0,409
408,954; 8514,071;    0,384;    1,227
409,545; 8564,602;    1,021;    1,045
410,135; 8105,009;    1,293;    0,500
410,726; 8278,917;    1,838;    0,318
411,316; 8670,167;    0,111;    0,773
411,906; 8307,759;   -0,253;   -0,409
412,497; 7800,068;   -1,070;   -0,045
413,087; 8426,142;   -1,980;   -0,227
413,677; 8849,313;   -0,707;    3,864
414,267; 8676,262;    0,656;    1,409
414,857; 8650,654;   -2,980;    4,227
415,448; 8931,743;    0,839;    0,500
416,038; 8605,435;    0,020;   -0,591
416,628; 8598,389;   -0,889;    0,409
417,218; 8061,425;    0,565;    3,318
417,808; 8325,362;    0,202;   -0,409
418,398; 8851,126;    0,020;    2,682
418,988; 8873,664;    2,020;    0,591
419,578; 9128,219;   -0,707;    1,409
420,168; 9416,678;   -1,343;   -0,955
420,757; 9034,229;   -1,343;   -1,500
421,347; 8688,224;    0,111;   -0,227
421,937; 8884,514;    2,292;    1,409
422,527; 8855,395;    0,838;   -0,773
423,116; 8664,426;   -0,253;   -0,045
423,706; 8970,457;   -1,889;    0,318
424,296; 8952,174;    1,384;    0,682
424,885; 9429,993;   -0,071;   -3,045
425,475; 9685,065;    1,474;   -2,864
426,065; 9589,814;   -0,980;   -0,318
426,654; 9212,256;   -0,435;   -0,318
427,244; 9368,843;    0,020;    1,409
427,833; 8836,446;    1,383;   -0,500
428,423; 9283,263;   -0,526;    1,136
429,012;10056,301;   -0,344;   -1,136
429,601; 9569,764;   -1,344;    0,136
430,191; 9800,035;    1,292;    4,318
430,780; 9428,604;   -0,344;   -0,409
431,369; 9374,405;    0,746;   -0,045
431,959;10024,279;   -1,254;    0,500
432,548; 9792,144;   -1,163;   -0,045
433,137; 9899,201;   -1,254;   -1,318
433,726;10484,976;    0,292;    0,500
434,315; 9803,260;   -0,526;    2,409
434,905; 9887,939;   -1,254;    1,409
435,494; 9770,420;    0,746;    0,955
436,083;10231,786;   -0,981;   -0,955
436,672;10145,753;    0,110;    0,500
437,261; 9693,100;    0,292;   -1,955
437,850; 9824,838;    1,383;    0,682
438,439; 9827,529;    3,291;    1,955
439,027; 9673,840;    3,655;    1,773
439,616;10036,786;    2,927;    1,227
440,205; 9861,299;    0,200;   -2,136
440,794; 9985,628;    2,109;   -0,045
441,383;10235,171;   -1,346;   -0,591
441,971;10109,788;   -2,436;    0,591
442,560; 9962,117;    0,563;   -1,773
443,149; 9699,956;    0,379;   -1,318
443,737; 9854,150;   -0,074;   -2,318
444,326;10127,222;    0,018;    0,318
444,915;10175,866;   -1,982;    0,864
445,503;10597,177;   -2,891;   -0,318
446,092; 9862,670;    0,382;    2,136
446,680;10378,288;    0,382;    0,318
447,269;10556,390;   -0,346;   -0,318
447,857;10328,940;    0,018;   -1,773
448,445;10442,915;    0,563;    1,318
449,034;10675,463;   -1,528;   -1,136
449,622;10816,377;   -1,073;    3,500
450,210;10028,038;    2,017;    2,227
450,799;10573,435;    0,290;   -0,591
451,387;10528,233;    1,381;   -0,591
451,975;10143,998;    2,654;    0,864
452,563;10245,880;    3,472;    2,318
453,151;10305,565;   -0,528;   -1,227
453,739;10225,820;   -1,347;    0,136
454,328;10076,181;    2,381;   -2,136
454,916; 9815,835;    2,562;   -0,136
455,504; 9966,795;    1,017;    1,227
456,092;10135,219;    0,017;   -1,591
456,679;10125,928;    1,472;    0,682
457,267;10088,752;    4,017;    1,045
457,855;10241,141;    1,017;    1,409
458,443;10014,256;   -0,165;    1,682
459,031;10164,821;    0,108;    2,409
459,619;10605,090;   -1,801;    2,864
460,206;10723,801;    0,835;    2,045
460,794;10788,173;   -2,983;   -0,227
461,382;11049,349;   -0,529;   -0,864
461,970;10651,649;    1,198;    1,864
462,557;10627,126;   -0,711;   -0,682
463,145;10831,768;   -3,165;   -1,682
463,732;11021,831;    2,016;   -1,045
464,320;10980,887;   -0,075;   -3,045
464,907;10665,357;    2,743;   -0,773
465,495;10472,647;    0,743;   -1,227
466,082;10689,632;   -1,984;   -0,045
466,670;10593,924;   -2,529;    1,227
467,257;10980,608;   -1,711;    2,045
467,844;11102,956;   -0,075;    0,045
468,432;11137,734;    0,834;    3,500
469,019;10619,200;    0,925;   -1,773
469,606;11133,092;    0,470;    3,682
470,193;10942,778;   -1,439;    0,227
470,780;10508,425;   -2,075;    0,864
471,368;10839,543;   -1,257;   -0,773
471,955;10630,591;    1,379;   -0,682
472,542;10302,111;    0,652;   -1,136
473,129;10523,315;   -0,166;    0,136
473,716;10245,886;    1,470;    0,591
474,303;10465,896;    0,652;   -0,864
474,890;10801,608;   -1,439;   -0,500
475,477;10791,365;   -1,621;    0,409
476,064;10675,232;    1,106;   -1,591
476,650;10620,925;    0,288;    0,318
477,237;10452,652;   -0,258;    0,955
477,824;10622,622;   -1,076;    0,864
478,411;10661,694;   -1,894;   -0,318
478,997;10854,622;    0,560;   -0,773
479,584;10926,643;    1,196;   -0,409
480,171;11679,586;   -0,440;   -0,773
480,757;11338,020;    2,651;    0,773
481,344;11624,109;    0,469;    0,409
481,931;11137,284;    1,105;    1,045
482,517;12255,757;   -1,258;    0,318
483,104;12928,066;    1,106;    2,864
483,690;13212,081;   -1,804;    0,045
484,276;13525,854;   -0,895;    0,227
484,863;13273,519;    2,469;    1,136
485,449;13899,395;   -0,077;    0,318
486,035;13851,901;   -1,986;   -0,136
486,622;14294,346;   -0,895;    0,045
487,208;14265,472;    1,378;    1,500
487,794;14067,777;    0,741;    0,318
488,380;14159,815;    0,105;   -1,409
488,967;14228,366;   -1,168;   -0,409
489,553;14302,775;   -1,895;   -1,409
490,139;14475,299;    1,559;    0,773
490,725;13856,959;    0,741;   -0,227
491,311;13355,994;    3,287;    3,045
491,897;12678,736;   -0,986;    1,500
492,483;12478,170;    0,105;    1,227
493,069;12286,905;    3,923;    0,864
493,655;12280,573;    1,650;    0,682
494,241;12168,426;    1,377;   -0,955
494,826;12598,680;    0,287;   -1,045
495,412;12054,712;    2,559;   -0,682
495,998;12177,229;   -0,805;   -0,318
496,584;12340,017;    0,377;    1,045
497,169;12310,674;    1,014;   -0,682
497,755;12306,997;    0,650;    1,227
498,341;12877,760;    0,559;    0,318
498,926;12422,259;    1,832;    1,955
499,512;12594,034;    1,286;    2,955
500,097;12726,507;    0,195;   -0,318
500,683;12678,177;   -0,350;    2,136
501,268;13043,582;   -0,169;   -0,955
501,854;12726,790;   -0,169;    1,227
502,439;12688,288;   -0,624;   -1,773
503,024;12896,523;    0,195;    0,500
503,610;13001,904;   -0,078;   -0,682
504,195;12983,353;    0,558;    1,955
504,780;13097,419;    2,922;    1,227
505,366;12899,209;    3,013;    2,864
505,951;12622,194;    0,740;    1,045
506,536;12650,470;   -3,260;   -3,682
507,121;12594,171;    0,285;   -0,318
507,706;13157,731;    2,376;    1,045
508,291;13580,471;    2,649;    1,136
508,876;13015,949;   -0,988;    2,591
509,461;12495,575;   -0,169;   -0,773
510,046;12919,043;    0,194;    0,318
510,631;13133,779;   -0,351;   -0,773
511,216;12793,724;    2,467;   -0,500
511,801;13182,361;   -0,442;    2,591
512,386;13506,695;    0,740;    0,500
512,971;13424,738;   -2,988;    0,955
513,555;12967,252;   -0,897;   -1,500
514,140;13746,772;   -0,442;   -3,136
514,725;13735,348;   -0,715;   -1,136
515,309;13872,410;   -0,533;    0,318
515,894;13337,555;   -0,624;   -2,227
516,479;13775,785;   -0,624;   -0,955
517,063;13629,196;    0,376;    1,227
517,648;13768,397;    1,012;   -1,136
518,232;13406,937;   -0,261;   -1,409
518,817;13739,096;   -0,079;    1,682
519,401;13959,308;    2,194;    0,591
519,985;13461,815;    1,103;    1,136
520,570;13357,025;    0,830;   -1,955
521,154;13633,514;    2,102;    0,591
521,738;13810,558;   -2,352;    2,409
522,323;14338,122;   -0,170;    1,682
522,907;14081,421;    0,466;   -0,136
523,491;13811,435;    0,557;    0,955
524,075;13802,231;    2,284;    0,591
524,659;13907,090;    1,466;    0,591
525,243;13361,596;    1,739;    0,409
525,827;13567,931;    0,648;   -0,045
526,411;14451,090;   -1,989;   -0,136
526,995;14670,470;   -0,352;    1,409
527,579;14230,557;   -0,443;   -1,045
528,163;14609,756;    0,375;   -1,500
528,747;14489,096;    2,466;   -0,773
529,331;14795,104;   -0,080;   -1,409
529,915;15018,616;    1,738;    0,955
530,499;14980,311;   -0,807;    1,227
531,082;14681,729;   -0,534;    1,591
531,666;14128,913;    1,374;    0,773
532,250;14833,619;    1,284;    2,682
532,833;15167,584;    0,920;    2,773
533,417;15007,808;   -1,807;    0,864
534,001;14959,931;    1,647;   -0,318
534,584;15682,154;    0,374;    0,500
535,168;15547,508;    0,465;    1,409
535,751;15643,586;    0,647;    0,045
536,334;15040,629;   -0,898;   -0,409
536,918;15606,828;    0,011;    1,591
537,501;15765,441;   -0,899;    1,318
538,085;15753,293;   -0,444;    1,045
538,668;15911,089;    0,829;    2,409
539,251;16245,521;    1,829;    3,773
539,834;16258,320;    0,101;    0,773
540,418;16215,122;   -1,990;    4,318
541,001;16315,234;   -0,990;    1,773
541,584;16305,791;    2,101;    2,227
542,167;16020,992;    1,374;    2,955
542,750;16172,158;    1,919;   -0,773
543,333;15772,557;    0,555;    2,136
543,916;16506,392;    0,192;    2,500
544,499;17144,590;   -1,354;    0,227
545,082;17183,845;    1,374;    3,591
545,665;17303,475;    1,919;    1,500
546,248;17687,375;    1,010;   -0,318
546,830;17318,774;   -0,445;    1,955
547,413;17733,034;    1,010;   -0,773
547,996;18273,155;    0,555;    0,500
548,579;18025,387;    0,919;    0,955
549,161;17839,278;    1,828;    2,682
549,744;17594,237;   -0,809;    0,409
550,326;18084,156;   -0,809;   -1,136
550,909;17895,373;    2,737;    0,591
551,492;18281,309;   -0,263;    0,227
552,074;18088,170;   -0,173;   -1,318
552,657;18675,780;    2,373;    0,045
553,239;18368,531;   -0,173;   -0,773
553,821;18281,799;   -1,082;    1,045
554,404;17822,016;    1,282;    1,136
554,986;18210,528;    0,464;    1,045
555,568;18835,825;    1,191;   -0,955
556,151;18018,620;    1,191;   -0,227
556,733;18219,777;   -0,264;   -0,864
557,315;18707,112;    0,100;    0,500
557,897;18513,515;    0,554;   -0,500
558,479;18617,830;   -1,991;    1,318
559,061;18714,428;   -0,719;   -0,864
559,643;19097,602;   -0,264;    0,045
560,225;19488,443;    1,645;    2,864
560,807;19480,965;    0,918;    0,318
561,389;18934,962;    0,554;    2,318
561,971;19778,417;    0,463;    2,136
562,553;19538,556;   -1,628;    1,591
563,135;19664,573;   -0,537;    1,136
563,717;19316,264;    3,372;    1,136
564,298;20019,434;    3,645;   -0,045
564,880;19738,336;    0,645;   -1,409
565,462;19950,154;    0,645;    1,318
566,043;21109,301;   -0,446;    2,318
566,625;20691,569;    1,918;    1,227
567,207;20528,109;    1,099;    1,682
567,788;21710,133;   -1,264;    1,500
568,370;22542,858;    1,917;   -0,500
568,951;22412,771;    0,190;    0,227
569,533;23288,016;   -0,628;   -0,500
570,114;23718,648;   -0,446;    0,682
570,695;24295,290;   -0,174;   -1,318
571,277;24829,802;   -0,265;   -1,682
571,858;25587,241;    2,008;   -1,136
572,439;26467,874;    1,554;   -1,045
573,021;26688,069;    2,099;   -2,773
573,602;27176,825;   -1,265;    0,318
574,183;28189,492;   -2,083;    2,227
574,764;28343,082;   -1,629;    0,409
575,345;28882,498;    0,917;   -0,136
575,926;29441,924;   -0,356;    0,136
576,507;29415,093;    1,099;   -0,227
577,088;30608,424;    3,099;    1,682
577,669;30601,484;    0,735;    1,955
578,250;31496,582;    0,644;   -1,045
578,831;32165,077;   -1,356;   -2,227
579,412;32358,370;   -0,810;    0,955
579,993;33198,444;    1,008;    0,227
580,573;33533,935;   -0,629;   -0,955
581,154;32509,975;    0,735;   -0,591
581,735;33401,447;    0,644;    0,773
582,315;32920,538;   -0,629;    2,136
582,896;33143,536;   -0,174;    1,227
583,477;32575,379;    0,189;    1,227
584,057;32752,957;    0,553;    0,955
584,638;33091,989;    2,553;    2,318
585,218;33137,221;   -0,538;    2,682
585,799;33254,487;    0,281;   -0,227
586,379;33184,606;    0,372;    1,591
586,959;31845,737;    0,735;    0,318
587,540;31092,149;   -0,629;    2,227
588,120;30653,497;    1,007;   -0,045
588,700;29694,510;    2,553;    2,136
589,281;30013,053;    0,462;   -0,955
589,861;29991,023;    0,099;   -1,682
590,441;29741,517;    2,371;   -2,682
591,021;28712,530;   -0,265;   -2,591
591,601;28926,695;   -0,537;    0,500
592,181;28931,072;   -0,719;   -0,773
592,761;28159,998;    0,007;    1,409
593,341;28095,973;   -0,901;    0,045
593,921;28160,756;   -0,265;    1,591
594,501;28021,496;   -0,538;    1,318
595,081;27810,324;    0,917;   -0,318
595,661;28211,527;   -1,447;    0,955
596,240;28761,727;   -0,537;    0,136
596,820;28461,214;    0,372;    1,955
597,400;28627,180;    2,008;    0,773
597,980;28769,085;    2,008;    1,045
598,559;28799,802;    2,735;   -0,227
599,139;28499,468;   -0,174;   -1,227
599,718;28426,013;   -0,174;   -0,409
600,298;28680,289;    0,735;    0,682
600,877;28967,826;    2,917;    1,409
601,457;29147,221;    2,281;    1,136
602,036;29034,600;    0,190;    2,045
602,616;29317,534;    0,644;    1,682
603,195;29670,035;   -0,355;    3,500
603,774;29184,032;   -0,901;    2,045
604,354;29002,373;    0,826;   -0,500
604,933;28525,954;    0,463;    1,864
605,512;28653,537;    3,554;    0,591
606,091;28694,788;   -0,537;    3,773
606,671;29534,103;    0,281;    0,773
607,250;28664,204;    1,644;    3,136
607,829;28918,094;    2,372;    3,227
608,408;28646,928;    1,190;    2,591
608,987;27695,597;    1,281;    3,409
609,566;28033,440;   -1,265;   -2,500
610,145;28202,676;   -1,082;    0,682
610,723;28499,454;    4,372;    6,864
611,302;27794,736;   -0,446;    1,682
611,881;27322,047;    5,008;   11,227
612,460;28159,757;    1,645;    3,955
613,039;28544,875;   -0,082;    2,045
613,617;27221,690;    1,736;    4,773
614,196;27455,607;    1,099;    1,227
614,775;27821,379;    1,009;    2,409
615,353;27744,839;    0,736;    0,864
615,932;27467,367;    0,100;    2,409
616,510;28006,647;    0,554;    0,591
617,089;27588,441;    7,100;   17,591
617,667;27254,736;    2,372;    6,136
618,246;27102,346;   -1,537;    1,318
618,824;27294,425;   -3,355;   -0,955
619,402;26839,520;   -2,900;   -1,773
619,981;27371,276;   -0,173;   -1,045
620,559;27166,747;    0,009;    1,682
621,137;26656,289;   -0,718;    1,864
621,715;26731,431;   -1,173;   -0,682
622,293;26648,616;   -0,537;   -0,773
622,871;27059,112;   -0,718;    0,500
623,450;26691,456;    0,373;   -0,864
624,028;26563,592;    0,191;   -0,955
624,606;26185,116;   -1,718;    1,682
625,183;26607,745;   -1,536;   -1,136
625,761;26229,558;    1,009;    1,136
626,339;26545,472;    1,373;    2,591
626,917;26901,548;   -0,172;   -0,045
627,495;26957,049;   -0,354;    1,318
628,073;26373,100;   -0,263;    2,864
628,650;26049,001;    0,100;    2,136
629,228;26519,287;    0,373;    4,409
629,806;25933,738;    2,282;    1,136
630,383;26198,625;    1,464;   -0,318
630,961;25916,952;    2,555;   -0,955
631,539;25670,129;    2,464;    0,227
632,116;25077,406;   11,373;   15,409
632,694;25601,907;    2,555;    6,500
633,271;25899,604;    0,828;    2,682
633,848;25810,216;    1,828;    2,045
634,426;25816,796;   -1,081;    1,773
635,003;24975,956;    1,101;   -0,409
635,580;25310,754;    1,192;    3,682
636,158;25897,311;    3,737;    1,227
636,735;25856,817;    0,555;   -0,500
637,312;26001,754;   -0,809;   -0,682
637,889;26073,104;   -4,354;   -0,682
638,466;25547,453;   -3,990;   -0,409
639,043;25567,437;    2,101;   -1,136
639,620;25858,582;   -2,262;   -0,955
640,197;26196,288;    1,100;    1,682
640,774;26282,800;   -0,172;    1,136
641,351;26703,039;    0,737;    1,136
641,928;26160,642;   -0,627;    1,409
642,505;25821,062;    0,828;   -0,500
643,082;25884,574;   -1,718;    1,227
643,658;24868,722;   -0,718;    1,500
644,235;25688,507;    1,191;    2,500
644,812;26054,019;    1,918;    0,773
645,388;25684,894;   -0,991;    1,409
645,965;25759,678;   -0,809;    1,682
646,542;25883,190;   -1,445;   -0,227
647,118;25917,066;    1,009;   -0,955
647,695;26164,123;   -0,263;    1,136
648,271;26072,998;   -0,536;    0,500
648,848;26389,874;    0,736;    2,227
649,424;26257,022;    0,827;    1,318
650,000;26025,352;   -0,354;   -1,045
650,577;25835,227;   -0,627;   -0,955
651,153;26248,739;   -1,809;    0,955
651,729;27306,432;    1,191;    0,864
652,305;27965,308;    0,645;    2,773
652,881;33443,274;   -0,082;    1,136
653,458;40467,877;    1,100;    0,227
654,034;43840,388;    0,282;    1,591
654,610;45072,446;    0,554;    0,773
655,186;46343,139;    0,645;    3,045
655,762;45813,287;   -0,991;    0,409
656,338;45885,254;    0,100;    0,136
656,913;46806,038;   -0,082;    0,409
657,489;45947,459;    0,827;   -0,318
658,065;45959,789;   -0,173;   -1,591
658,641;46572,664;   -0,900;   -0,864
659,217;45841,812;   -0,991;    0,409
659,792;45205,324;    0,645;   -0,409
660,368;45433,472;   -2,173;   -0,682
660,944;44724,893;   -2,082;    1,227
661,519;39255,496;   -0,628;    0,409
662,095;33204,644;   -1,719;    0,591
662,670;29030,974;    1,281;   -0,136
663,246;28097,304;    1,009;   -0,409
663,821;27550,997;    0,281;    1,682
664,396;27042,145;    0,009;    1,864
664,972;27326,021;    0,009;   -0,500
665,547;27622,896;    1,372;    0,136
666,122;27682,681;   -1,082;    0,318
666,698;27950,102;   -0,173;    0,318
667,273;27248,068;   -0,173;    0,136
667,848;28123,307;    2,372;    1,500
668,423;27935,455;    2,190;    2,318
668,998;28540,421;    2,827;   -0,682
669,573;29096,024;   -3,264;   -1,500
670,148;28913,263;   -1,446;   -0,682
670,723;28656,320;   -1,810;    0,318
671,298;29053,559;    2,372;    1,045
671,873;29202,707;   -0,082;   -0,136
672,448;29108,310;    0,645;    0,136
673,023;29460,367;   -1,992;   -0,227
673,597;29858,152;    0,827;    2,318
674,172;29659,300;   -0,355;    0,318
674,747;29065,812;    0,372;   -1,045
675,321;28886,596;   -0,628;    3,318
675,896;28474,926;    0,645;    1,045
676,471;29509,347;    2,645;    1,591
677,045;29247,222;   -1,264;    0,682
677,620;29269,461;    0,190;    1,136
678,194;29567,064;   -2,628;    1,136
678,769;29160,576;   -1,083;   -0,318
679,343;29477,633;   -0,628;    1,773
679,917;29297,235;   -1,446;    1,955
680,492;29405,293;    0,826;    3,227
681,066;29557,895;    3,372;    0,409
681,640;29557,407;    1,463;   -0,318
682,214;30381,010;    0,735;    0,500
682,788;29927,158;   -1,356;   -0,773
683,363;29885,488;   -1,810;    1,682
683,937;29612,272;   -1,719;   -0,318
684,511;30331,330;    0,463;   -0,591
685,085;30064,296;   -1,356;    0,318
685,659;29782,171;   -2,538;    0,864
686,232;30068,592;   -0,356;   -0,318
686,806;29775,831;   -0,901;    0,409
687,380;30407,070;   -0,174;    0,591
687,954;30592,673;   -1,174;    1,136
688,528;30319,821;   -0,719;    1,955
689,101;31070,787;   -3,992;    1,045
689,675;30669,208;   -0,356;   -0,136
690,249;30014,447;   -0,719;    0,409
690,822;30347,141;    0,280;    0,318
691,396;30502,561;   -0,265;    1,227
691,969;29933,437;    1,280;    0,136
692,543;30383,221;   -0,447;   -1,955
693,116;30017,097;   -0,265;   -1,409
693,690;29887,699;    0,099;    0,500
694,263;30451,484;   -1,083;    2,955
694,836;30497,359;    1,371;    3,591
695,410;29131,780;   -0,265;    1,773
695,983;29625,655;    0,189;    0,591
696,556;29594,076;   -0,447;   -1,045
697,129;29916,224;   -0,356;    1,409
697,703;29615,463;   -1,629;    1,955
698,276;29583,157;    1,462;   -0,773
698,849;29376,487;    1,280;    1,409
699,422;29750,271;   -1,083;    0,591
699,995;29428,601;    0,007;    0,136
700,568;29911,113;   -0,629;    3,045
701,140;29926,534;   -2,811;    1,682
701,713;29617,591;   -0,174;    2,409
702,286;29373,376;   -0,538;    0,864
702,859;29333,069;   -0,902;   -0,591
703,432;28479,581;    0,825;    0,682
704,004;28938,184;    0,462;    0,318
704,577;28833,604;   -0,629;    0,136
705,150;29392,389;    0,189;    2,500
705,722;29191,628;   -0,356;   -3,227
706,295;28979,867;   -0,175;   -0,591
706,867;28838,379;   -0,175;    1,955
707,440;29067,618;   -1,720;   -0,409
708,012;29362,493;    0,462;    0,591
708,584;29233,823;    2,462;    0,227
709,157;29521,698;    1,825;   -0,591
709,729;29200,210;    2,280;    2,045
710,301;30040,540;    0,734;    0,045
710,874;30050,688;   -1,447;   -0,227
711,446;28881,745;    0,371;    0,864
712,018;28763,530;    0,098;    0,500
712,590;28510,405;   -1,993;    1,682
713,162;29039,917;    0,825;    1,318
713,734;29267,792;    1,825;   -2,045
714,306;29152,486;   -1,902;   -0,409
714,878;27817,452;    0,825;    0,864
715,450;28643,510;    0,643;    0,864
716,022;28917,839;    1,552;    1,318
716,593;29053,897;    0,189;    0,591
717,165;29031,318;   -3,175;   -1,227
717,737;28796,829;    0,280;    0,409
718,309;28418,432;    0,280;   -0,045
718,880;28335,398;   -0,539;   -1,409
719,452;28546,183;   -0,175;   -1,591
720,024;28086,876;    0,734;   -0,591
720,595;28640,843;   -2,902;    0,955
721,167;28222,718;    0,370;   -2,045
721,738;27787,775;   -0,812;   -1,045
722,309;27748,923;   -0,993;   -1,227
722,881;27588,890;   -1,357;    0,773
723,452;28226,947;   -2,630;    2,864
724,023;28382,277;   -0,721;    2,682
724,595;28131,879;    0,007;    0,682
725,166;27869,300;    0,007;   -0,409
725,737;27554,267;    1,734;    0,227
726,308;27583,142;   -0,266;    0,318
726,879;28089,381;   -1,630;    1,227
727,450;27936,075;    0,552;   -0,045
728,021;27868,132;    3,097;    0,682
728,592;27654,734;    0,734;    0,500
729,163;28054,883;    0,643;   -0,136
729,734;28090,940;    0,188;   -0,227
730,305;28399,724;    1,734;    0,136
730,876;28741,600;    0,188;    2,955
731,447;28474,020;    2,188;    2,682
732,017;28581,623;    1,097;    1,864
732,588;28038,408;    0,734;    1,227
733,159;28265,919;    0,643;   -1,045
733,729;28044,704;    0,006;    0,409
734,300;27352,670;    0,915;    0,864
734,870;27777,091;    3,461;    0,591
735,441;28323,148;    0,370;   -0,591
736,011;28076,751;    0,643;   -1,591
736,582;28046,808;   -0,812;    0,045
737,152;27471,502;   -1,721;   -2,045
737,722;27911,741;   -0,267;   -0,682
738,293;27627,071;   -1,358;    1,318
738,863;27521,946;    2,461;    2,318
739,433;27346,276;    5,279;    0,318
740,003;27943,879;   -0,994;   -0,682
740,573;27349,481;    2,097;   -1,591
741,143;27309,084;   -1,085;    0,318
741,713;28082,687;    1,188;   -0,500
742,283;27828,289;    0,915;    1,591
742,853;27532,074;    1,915;    1,591
743,423;26993,404;    1,733;    0,045
743,993;27123,097;   -0,358;    1,500
744,563;26460,245;    0,097;   -0,864
745,133;26458,030;   -0,812;   -0,864
745,702;27166,269;   -0,267;    1,773
746,272;26384,781;   -0,176;    0,591
746,842;26112,292;   -1,358;   -0,591
747,411;26497,622;   -0,267;   -0,318
747,981;26728,679;    0,097;    0,500
748,551;26713,918;    2,278;   -1,045
749,120;26602,430;    0,642;   -0,227
749,690;27042,487;   -0,631;    2,409
750,259;27337,363;    1,369;    2,955
750,828;27269,511;    1,551;   -1,955
751,398;27526,295;    1,278;   -0,045
751,967;27046,534;    2,187;    0,409
752,536;27258,319;   -0,813;   -0,227
753,105;27657,740;    0,096;    0,227
753,675;27458,888;    0,096;    1,773
754,244;27447,036;   -0,904;    3,591
754,813;27496,275;    0,551;    1,227
755,382;27013,150;    0,460;    0,955
755,951;27644,844;    1,551;    3,682
756,520;27161,447;   -0,085;    1,864
757,089;27707,958;    0,278;    0,500
757,658;27844,652;    1,733;    1,227
758,227;27821,164;    1,096;    0,318
758,795;28130,312;    1,187;    1,136
759,364;28343,187;   -0,086;   -0,591
759,933;27366,153;   -1,176;   -0,045
760,501;26842,847;    0,733;   -1,318
761,070;27354,722;   -2,813;   -1,409
761,639;28051,507;   -1,904;    1,318
762,207;27458,564;    1,551;   -0,955
762,776;27337,530;    0,369;    0,864
763,344;27325,497;   -0,995;    0,591
763,913;26365,281;   -0,722;    1,409
764,481;27106,975;    1,005;   -0,136
765,049;26950,214;   -1,358;    1,409
765,618;26779,907;   -0,086;    0,318
766,186;26852,419;    0,278;    0,136
766,754;27040,385;    0,005;    1,864
767,322;26059,534;   -1,995;    0,409
767,890;26051,227;   -0,722;   -1,773
768,459;26469,375;   -2,177;   -0,318
769,027;26653,160;    1,641;    3,409
769,595;25596,853;    3,278;    2,591
770,163;26020,638;    3,823;    2,955
770,730;25798,240;    0,732;   -0,136
771,298;25636,389;    0,187;   -1,409
771,866;25704,991;   -1,541;    4,955
772,434;26070,776;   -0,631;   -1,864
773,002;26272,651;    0,005;    0,682
773,569;25866,799;    0,914;    1,682
774,137;25688,584;   -0,268;   -0,045
774,705;26429,823;    0,278;   -0,136
775,272;25928,334;    0,641;    0,682
775,840;25683,664;   -0,177;    2,682
776,407;25278,267;    0,277;    1,955
776,975;24840,779;   -0,632;    0,318
777,542;25862,745;   -1,086;   -0,045
778,110;25676,348;   -1,268;   -0,045
778,677;25359,132;   -2,359;   -0,864
779,244;25119,462;    2,186;    1,045
779,812;25193,338;    1,823;    0,864
780,379;25105,940;    0,005;    1,136
780,946;25336,543;    1,005;   -0,773
781,513;25662,327;   -1,450;    0,318
782,080;25027,112;   -0,086;    2,864
782,647;25778,260;   -0,268;    3,045
783,214;25341,590;   -0,177;    3,864
783,781;24965,920;   -0,723;   -0,682
784,348;24842,159;   -0,632;    1,500
784,915;25312,034;   -3,177;    0,318
785,482;25072,364;    1,368;    2,591
786,049;25508,058;    0,186;   -0,591
786,615;25619,479;    0,277;   -0,955
787,182;25325,808;    0,186;   -0,682
787,749;25013,593;   -2,814;    1,409
788,315;24380,741;   -1,632;   -0,409
788,882;24654,616;    1,550;   -1,227
789,448;25373,583;    1,732;   -0,955
790,015;25351,549;    1,095;    3,227
790,581;24940,334;    1,459;    0,227
791,148;24863,482;    0,641;    1,045
791,714;25030,903;   -0,541;    3,136
792,280;24705,778;    0,186;    1,591
792,847;24274,926;    0,550;    2,500
793,413;24836,983;   -0,269;   -0,318
793,979;24374,040;    3,459;   -1,318
794,545;24501,279;    4,459;    2,682
795,111;23872,973;    2,186;    1,318
795,678;24055,394;    0,731;   -1,682
796,244;23695,633;    3,368;    0,136
796,810;24266,326;    1,731;    0,773
797,375;23952,202;    0,549;   -2,136
797,941;24009,350;   -0,541;    0,591
798,507;24124,862;   -0,451;   -0,955
799,073;23656,919;   -0,360;    0,591
799,639;23736,885;   -2,632;    3,136
800,205;23721,579;    0,095;    2,682
800,770;23284,091;    0,640;    1,773
801,336;23414,239;    1,368;   -0,955
801,901;23152,660;    4,549;    3,136
802,467;23675,808;   -0,542;    2,045
803,033;22992,865;   -0,087;    0,864
803,598;23220,013;    1,913;   -1,045
804,163;23221,888;    1,095;   -0,318
804,729;23160,036;   -0,178;    1,136
805,294;23588,003;    0,822;    2,227
805,859;23380,151;    0,731;   -0,409
806,425;22836,844;    1,186;    2,682
806,990;22506,811;    2,186;    4,318
807,555;22985,959;   -1,451;    2,591
808,120;22872,743;    0,822;   -0,409
808,685;22934,437;    0,185;   -2,500
809,250;22382,040;    0,004;   -0,500
809,815;22687,188;    1,913;    0,682
810,380;23274,609;   -0,269;    1,591
810,945;23841,029;   -1,087;    2,045
811,510;22978,359;    2,094;    1,591
812,075;22672,871;   -0,633;   -1,409
812,640;22755,656;    2,003;    1,409
813,204;22769,895;    0,822;   -0,227
813,769;23236,134;    2,094;   -0,045
814,334;22677,827;    0,458;    0,864
814,898;22727,248;    0,367;    0,591
815,463;22604,942;    1,276;   -0,773
816,027;22547,362;   -0,724;   -2,318
816,592;22631,329;    0,640;   -2,045
817,156;22179,840;    2,094;    1,136
817,721;22064,716;    4,276;    2,318
818,285;22007,773;    2,912;    1,500
818,849;22662,012;   -1,451;    1,682
819,414;22502,706;   -0,269;    2,955
819,978;22106,945;   -1,269;    1,773
820,542;22730,820;    2,003;    0,500
821,106;22403,059;   -0,815;    0,682
821,670;22518,207;   -0,815;    2,591
822,234;22203,264;   -0,270;    1,409
822,798;21599,776;    0,003;    0,500
823,362;21559,652;   -0,633;    4,227
823,926;20879,709;    0,094;    1,136
824,490;21096,402;   -0,997;   -0,682
825,054;21588,550;   -0,088;   -1,136
825,618;21198,062;   -1,542;   -1,500
826,181;21099,847;    0,458;   -1,318
826,745;21041,177;    1,367;   -1,045
827,309;21377,597;    1,185;    1,318
827,872;20706,109;    1,367;    0,955
828,436;21701,530;    1,185;   -0,773
828,999;21781,951;   -0,997;    1,227
829,563;20553,463;   -0,179;    1,136
830,126;20427,065;   -0,179;   -0,591
830,690;20430,032;   -1,997;    2,864
831,253;19963,362;   -0,543;    2,227
831,816;20068,964;   -1,906;    0,500
832,380;19984,840;    0,185;    0,864
832,943;20222,988;   -1,361;   -0,500
833,506;19661,045;    2,639;   -1,227
834,069;20466,193;    3,912;   -0,955
834,632;20525,159;    1,730;    1,318
835,195;20433,762;    1,003;    0,955
835,758;19644,092;   -0,997;    1,955
836,321;19514,604;    0,730;   -1,045
836,884;19592,206;   -0,725;   -0,955
837,447;19594,264;   -2,816;    1,773
838,010;19897,412;    0,366;    3,227
838,573;20152,196;   -1,179;    0,773
839,135;20133,344;   -1,361;   -0,955
839,698;19596,129;    1,275;    0,409
840,261;19127,186;    1,003;   -0,227
840,823;18947,789;   -0,543;    0,864
841,386;19265,573;   -0,452;   -2,409
841,948;19098,267;   -1,361;    1,773
842,511;18826,506;    0,912;    1,682
843,073;19001,108;    1,912;    0,227
843,636;18776,620;   -0,361;   -0,227
844,198;18719,677;    0,911;    0,591
844,760;18880,916;    1,093;    1,955
845,322;18538,428;    0,548;    1,136
845,885;18952,031;    0,730;    0,591
846,447;19367,906;   -1,998;    0,227
847,009;19017,781;    1,911;   -0,682
847,571;19293,293;    0,820;   -2,045
848,133;19404,260;   -1,089;   -1,864
848,695;19224,953;   -0,543;    1,409
849,257;18756,647;   -1,089;   -1,682
849,819;18928,522;   -0,998;   -0,409
850,381;19014,943;   -0,725;   -0,864
850,942;19382,546;    1,093;   -0,591
851,504;19381,057;    1,184;    0,227
852,066;19355,660;    1,275;   -1,591
852,628;18833,626;   -0,180;    1,955
853,189;18374,683;    1,638;    2,682
853,751;18498,013;   -0,907;    1,409
854,312;18311,252;   -0,453;   -1,682
854,874;18862,673;   -2,089;   -0,773
855,435;19393,276;   -0,907;   -1,682
855,997;19531,060;   -1,816;   -0,136
856,558;18802,390;    0,366;    1,773
857,119;18924,084;    0,820;    2,864
857,681;18575,687;    0,002;    0,318
858,242;18636,835;    1,911;   -2,136
858,803;19092,983;    0,456;   -0,773
859,364;19663,858;    0,184;   -4,773
859,925;18956,552;   -2,453;   -0,955
860,486;18842,609;   -0,453;   -0,955
861,047;18564,303;   -0,544;   -1,227
861,608;18404,632;   -1,089;   -0,773
862,169;18527,690;    0,638;   -0,045
862,730;18299,747;    0,456;    1,409
863,291;18530,259;   -0,635;   -0,500
863,852;18894,861;   -0,635;    1,955
864,412;18344,919;   -0,271;   -0,864
864,973;16945,976;   -0,089;    0,500
865,534;16835,487;   -1,726;    0,227
866,094;18372,272;    1,820;    0,227
866,655;18013,056;    1,274;    3,318
867,215;18250,932;    0,274;    0,136
867,776;18081,171;    0,547;   -0,136
868,336;18188,955;   -1,453;    0,136
868,897;17672,922;    2,638;    1,682
869,457;17417,706;    1,365;    0,318
870,017;17633,218;    0,547;   -1,227
870,578;18165,184;   -0,817;    0,773
871,138;17840,514;   -2,089;   -0,955
871,698;17368,389;   -0,817;   -1,318
872,258;17259,719;   -0,453;   -2,864
872,818;17689,413;    2,729;    0,045
873,378;17640,107;    0,638;    1,045
873,938;17157,255;    0,547;    0,500
874,498;17496,403;    0,274;   -1,955
875,058;17387,824;    2,183;    1,773
875,618;17216,517;    1,910;   -2,682
876,177;17108,665;    1,274;    0,136
876,737;16704,904;   -0,090;    1,955
877,297;16792,143;    0,183;    1,955
877,856;16782,837;   -0,362;    0,318
878,416;16745,803;    1,183;   -0,136
878,976;16948,770;   -1,817;    0,409
879,535;17086,554;    0,092;    3,136
880,095;16818,702;   -0,544;    0,045
880,654;16976,305;   -1,090;    1,318
881,213;17100,089;    2,456;    1,500
881,773;16761,783;    2,637;    2,682
882,332;17130,840;    3,365;    5,136
882,891;16928,988;    3,092;    2,136
883,451;17405,318;   -1,272;    1,682
884,010;16820,739;   -2,908;   -0,409
884,569;16929,342;   -0,999;   -0,045
885,128;17069,490;    2,819;   -1,864
885,687;17154,183;    4,455;    0,682
886,246;16919,877;    1,455;    2,136
886,805;16691,843;    2,455;    2,045
887,364;16893,173;   -0,999;   -0,500
887,922;17272,867;   -1,181;    0,045
888,481;16833,106;   -1,545;    0,591
889,040;17102,345;    1,183;    2,136
889,599;17780,856;    2,455;    1,409
890,157;17814,641;    1,455;    2,409
890,716;17494,607;   -0,090;    0,227
891,274;17312,392;    0,092;   -1,136
891,833;17745,631;    1,546;    0,864
892,391;17582,415;   -0,454;    0,500
892,950;17701,018;    1,819;   -0,773
893,508;18102,621;    0,455;   -0,409
894,067;17388,769;    0,637;    0,136
894,625;17286,553;   -0,636;   -1,500
895,183;17517,610;   -0,363;   -0,682
895,741;17416,758;    1,728;   -1,773
896,299;17242,270;   -0,545;   -2,409
896,858;17441,327;    0,819;   -1,591
897,416;17577,657;    2,728;   -1,318
897,974;17302,624;    1,819;    0,318
898,532;17472,408;    6,091;    2,682
899,089;17329,011;    2,091;   -0,682
899,647;17408,341;   -1,454;    1,318
900,205;17094,762;    1,182;    1,045
900,763;17283,819;   -0,454;    0,227
901,321;17316,967;    2,364;   -1,409
901,878;16721,570;   -1,000;   -0,773
902,436;16621,263;   -1,363;    1,318
902,994;17002,411;    4,728;    3,682
903,551;16451,105;    0,728;    0,409
904,109;16843,798;    0,182;   -1,409
904,666;16382,219;    2,455;    1,045
905,224;16217,458;    0,182;   -0,409
905,781;15947,515;    0,727;   -0,318
906,338;16040,845;   -1,363;    1,045
906,895;15994,630;    0,637;    2,045
907,453;15919,960;    1,727;    1,136
908,010;15981,017;   -0,909;    0,409
908,567;15596,438;    1,273;    0,591
909,124;15058,768;    0,364;   -1,500
909,681;15153,189;   -2,909;    0,682
910,238;15283,064;    0,636;   -1,318
910,795;15615,939;   -0,273;   -1,136
911,352;15204,576;   -2,909;   -2,682
911,909;14632,121;   -1,364;   -0,864
912,466;15169,576;   -3,182;    1,500
913,022;14694,576;   -1,636;    0,500
913,579;15057,758;   -0,909;    2,045
914,136;14759,121;    1,636;    0,955
914,692;15104,939;    0,091;   -1,227
915,249;14744,303;    1,455;    0,409
915,806;14944,121;    0,182;    1,955
916,362;14666,667;    1,909;    1,864
916,918;14252,030;    2,000;    1,045
917,475;14243,121;   -1,182;    0,955
918,031;14277,303;    3,364;   -0,045
918,587;13720,303;   -0,909;   -0,318
919,144;13939,848;   -2,273;    0,227
919,700;14226,303;    1,727;    0,773
920,256;13803,758;    0,727;    0,045
920,812;13450,212;   -0,727;   -1,045
921,368;13454,030;   -1,727;   -1,045
921,924;13049,576;    0,182;   -0,136
922,480;12648,485;   -0,545;    1,227
923,036;13268,848;    1,273;    1,955
923,592;13179,485;    0,455;    0,318
924,148;13093,667;    0,455;   -0,955
924,704;12412,848;   -1,364;   -0,409
925,259;12681,848;   -0,273;    0,591
925,815;12475,030;    1,455;    0,500
926,371;11931,030;    2,909;    1,409
926,926;11851,758;    2,091;    0,591
927,482;11502,758;   -1,364;    0,773
928,037;11369,667;    0,909;    2,045
928,593;11689,030;    1,636;    1,045
929,148;11451,848;   -1,818;   -1,500
929,704;10967,848;   -1,455;   -0,500
930,259;11187,667;    0,091;   -0,136
930,814;10250,848;   -0,818;    1,955
931,369; 9911,848;    1,091;   -0,773
931,925; 9795,394;   -0,091;    0,136
932,480; 9700,848;   -2,818;   -2,591
933,035; 9607,121;    0,545;   -0,318
933,590; 9390,394;    0,364;   -1,773
934,145; 8974,667;   -1,364;   -0,318
934,700; 9298,030;    0,455;   -0,591
935,255; 9156,030;   -0,091;    0,045
935,809; 8432,848;    3,182;    0,864
936,364; 7518,667;   -0,455;   -0,136
936,919; 7487,394;    0,455;   -1,773
937,474; 7381,576;    1,455;    0,136
938,028; 7147,848;   -1,636;    1,136
938,583; 6622,848;    1,818;    4,682
939,138; 6868,667;    2,091;    2,136
939,692; 6300,394;    1,636;   -1,136
940,247; 6010,030;   -0,727;   -1,045
940,801; 5577,303;   -0,636;    0,227
941,355; 5459,939;   -0,364;    2,591
941,910; 5113,576;   -0,273;   -2,136
942,464; 5239,848;   -0,818;   -0,318
943,018; 5021,030;    1,000;   -0,227
943,572; 4965,030;    2,545;   -0,682
944,126; 4391,030;    0,091;   -0,409
944,681; 4290,848;    3,091;    0,227
945,235; 4256,576;    1,000;   -0,591
945,789; 4193,303;    0,364;   -1,864
946,342; 4301,576;    0,455;   -0,591
946,896; 4105,303;   -2,273;    0,955
947,450; 3868,667;    1,545;   -0,227
948,004; 4072,939;    1,727;   -0,045
948,558; 4065,485;    0,273;   -0,864
949,111; 3985,121;   -0,273;   -0,318
949,665; 4029,939;    1,636;   -0,682
950,219; 3890,030;   -0,091;   -1,045
950,772; 3982,939;   -1,909;    1,864
951,326; 3878,212;    0,545;   -0,955
951,879; 3992,303;    0,727;   -2,318
952,433; 4016,485;    0,000;    2,227
952,986; 3825,485;    2,909;    0,682
953,539; 3793,667;   -0,273;    0,591
954,093; 3716,758;    0,545;   -1,318
954,646; 3874,667;    0,909;    1,318
955,199; 3684,485;    0,000;   -0,500
955,752; 3559,030;   -0,455;    1,773
956,305; 3526,576;   -0,091;    2,955
956,858; 3700,394;    0,818;   -0,318
957,411; 3872,848;   -0,545;    2,136
957,964; 3698,758;    1,364;    2,136
958,517; 3674,121;   -1,545;    3,136
959,070; 3499,212;   -0,455;    1,955
959,623; 3575,303;    1,091;    1,500
960,176; 3356,394;    1,727;    2,045
960,728; 3348,576;   -2,727;    0,773
961,281; 3375,939;    0,545;    0,500
961,834; 3438,485;   -0,909;    0,864
962,386; 3328,394;    1,727;    1,045
962,939; 3271,394;    0,364;   -0,318
963,491; 3391,939;    0,455;    1,136
964,043; 3274,303;    1,182;    2,409
964,596; 3422,394;   -1,000;    2,227
965,148; 3252,576;   -1,000;    1,773
965,700; 3163,848;    1,091;   -0,227
966,253; 3308,303;   -0,636;    0,318
966,805; 3140,394;   -2,273;    0,773
967,357; 3197,758;    1,091;   -1,500
967,909; 3172,303;    0,455;   -1,227
968,461; 3286,212;    0,545;    3,136
969,013; 3223,758;   -0,182;   -0,864
969,565; 3300,576;   -0,455;   -1,136
970,117; 3346,939;   -0,364;    1,045
970,669; 3169,394;    0,182;   -0,136
971,220; 3025,758;   -0,455;   -1,500
971,772; 2951,030;   -0,636;   -0,318
972,324; 3091,303;    0,091;   -0,500
972,876; 3048,121;    0,818;   -0,045
973,427; 3179,848;    1,909;   -1,045
973,979; 3135,030;   -0,727;   -2,500
974,530; 3159,030;    1,818;    1,318
975,082; 3163,485;   -0,545;    1,682
975,633; 3066,121;    1,091;    1,682
976,184; 3209,667;    0,909;    0,773
976,736; 3015,576;    0,091;    0,227
977,287; 2827,667;   -0,909;   -0,500
977,838; 2992,394;    0,909;   -0,318
978,389; 3058,939;   -1,000;   -0,500
978,940; 2920,121;    0,545;   -0,409
979,491; 2939,758;    0,091;   -0,500
980,042; 2925,303;    0,182;    3,045
980,593; 2965,848;   -2,545;    0,227
981,144; 3005,939;    2,545;   -0,500
981,695; 2987,121;    1,455;    1,500
982,246; 2945,030;   -0,273;    1,045
982,797; 3090,758;   -1,727;    0,682
983,347; 3208,303;    0,364;    0,591
983,898; 3378,394;    3,091;    0,409
984,449; 3204,212;    2,182;    0,773
984,999; 3114,848;    1,455;   -1,136
985,550; 2883,030;    0,182;   -0,318
986,100; 2896,030;   -0,455;   -0,318
986,651; 2928,030;   -0,818;    0,045
987,201; 2908,394;   -1,000;   -0,591
987,751; 2988,394;    0,818;    2,864
988,302; 2982,848;    2,636;    1,500
988,852; 3011,212;    0,455;   -1,136
989,402; 3042,758;    0,091;    0,682
989,952; 2963,576;   -2,182;    0,864
990,502; 3056,667;   -0,091;    0,682
991,052; 3018,939;   -0,727;    0,045
991,602; 2900,939;   -2,909;    1,318
992,152; 2887,758;    0,455;    0,682
992,702; 2878,485;    1,364;   -0,045
993,252; 2804,030;   -3,000;   -0,500
993,802; 2885,576;   -0,273;    1,318
994,352; 3132,303;   -1,545;    1,136
994,901; 3198,485;   -0,182;    3,227
995,451; 3114,212;   -0,182;    0,318
996,000; 3206,394;    1,636;    0,318
996,550; 2939,848;    2,273;    0,227
997,100; 2930,758;    1,273;   -0,045
997,649; 3198,848;    2,182;    0,955
998,198; 2828,667;    1,727;   -1,500
998,748; 3052,303;    1,091;   -2,318
999,297; 2942,758;   -0,818;   -0,409
999,846; 2995,394;    1,000;   -0,773
1000,395; 3053,485;   -0,818;    0,500
1000,945; 3010,394;    1,818;   -0,773
1001,494; 3109,939;    2,364;    0,682
1002,043; 3084,576;    4,636;    0,864
1002,592; 2894,121;   -1,091;    1,955
1003,141; 3057,121;   -0,455;   -0,682
1003,690; 2928,848;    1,727;    0,500
1004,238; 3025,394;    1,455;   -0,045
1004,787; 2643,758;    1,364;    1,227
1005,336; 2899,667;    0,364;    0,682
1005,885; 3021,212;    1,364;   -2,773
1006,433; 3174,848;    0,545;    0,955
1006,982; 3224,758;    0,455;    1,682
1007,531; 3119,848;   -1,818;   -0,227
1008,079; 3068,939;   -2,273;    0,500
1008,627; 3215,576;   -1,455;    0,409
1009,176; 2953,212;    0,000;   -1,955
1009,724; 2988,030;    1,091;    0,864
1010,273; 3052,576;    1,273;    0,500
1010,821; 3148,576;    0,091;    1,409
1011,369; 2890,485;   -1,364;    1,318
1011,917; 2880,485;   -1,364;   -0,591
1012,465; 3157,394;    1,273;   -1,591
1013,013; 3281,576;    2,091;   -1,682
1013,561; 3151,121;    0,455;   -0,773
1014,109; 3210,303;   -1,909;    1,682
1014,657; 3088,394;    0,364;    0,591
1015,205; 3206,939;    1,636;   -0,955
1015,753; 3231,576;   -0,545;   -1,409
1016,301; 3262,212;   -2,636;    3,045
1016,848; 3267,121;   -1,273;    0,409
1017,396; 3307,303;    2,545;    0,045
1017,944; 3440,212;    1,182;    1,864
1018,491; 3194,121;    0,273;    1,409
1019,039; 3347,576;    0,455;    0,591
1019,586; 3259,485;   -1,364;    1,682
1020,134; 3344,212;    0,455;    1,500
1020,681; 3382,030;    0,182;   -1,136
1021,228; 3386,485;    2,909;   -2,227
1021,776; 3209,939;    1,182;   -1,136
1022,323; 3415,576;    0,455;    0,773
1022,870; 3365,212;   -1,000;   -0,045
1023,417; 3262,485;    2,636;    1,864
1023,964; 3396,303;    2,636;    1,227
1024,511; 3230,485;    1,000;    0,773
1025,058; 3024,939;    3,182;   -0,045
1025,605; 3082,121;   -2,273;    3,136
1026,152; 3338,212;    1,727;   -0,591
1026,699; 3062,939;    1,818;    1,318
1027,245; 3201,576;   -0,091;    0,318
1027,792; 3396,212;   -1,000;    1,409
1028,339; 3296,576;    2,364;   -0,045
1028,885; 3151,394;    1,000;   -0,227
1029,432; 3087,485;   -0,091;    0,227
1029,978; 3158,121;   -1,000;   -1,591
1030,525; 3050,485;    1,000;    0,409
1031,071; 3263,939;   -1,364;    1,136
1031,618; 3394,667;    0,364;    1,682
1032,164; 3171,030;   -0,091;    3,045
1032,710; 3254,758;    1,636;   -1,500
1033,256; 3139,121;   -0,636;   -0,136
1033,803; 3112,121;   -0,545;    1,500
1034,349; 2832,576;   -1,364;    0,136
1034,895; 2997,667;    0,000;   -0,318
1035,441; 2985,030;   -0,818;    0,318
1035,987; 2964,485;   -2,364;   -0,682
1036,533; 2954,212;   -1,455;   -0,955
1037,078; 3169,485;    1,455;    1,682
1037,624; 2990,576;    2,455;   -0,955
1038,170; 3026,576;    0,455;   -0,318
1038,716; 2936,848;    1,636;   -0,409
1039,261; 2830,030;   -2,273;   -0,773
1039,807; 2767,939;   -0,091;    3,409
1040,352; 2834,303;   -1,909;   -0,318
1040,898; 2874,394;   -1,545;   -0,682
1041,443; 2788,576;   -1,455;   -2,591
1041,989; 2821,576;    1,091;    1,591
1042,534; 2705,121;   -0,364;    2,591
1043,079; 2815,939;    2,909;    0,955
1043,625; 2603,848;    1,818;    0,500
1044,170; 2646,576;   -1,364;    1,045
1044,715; 2915,212;    2,455;    0,955
1045,260; 2725,939;    2,182;   -0,955
1045,805; 2765,848;    1,182;   -0,591
1046,350; 2696,394;    1,364;   -0,409
1046,895; 2662,485;    2,909;    1,591
1047,440; 2610,394;    5,364;    0,409
1047,985; 2491,394;    2,818;   -0,955
1048,530; 2415,576;    1,545;    1,227
1049,074; 2496,758;    0,000;    0,318
1049,619; 2466,030;   -1,364;    1,955
1050,164; 2269,758;    0,455;    0,227
1050,708; 2303,303;   -0,455;    0,045
1051,253; 2694,485;    1,273;   -2,227
1051,797; 2405,303;    0,818;   -1,318
1052,342; 2385,848;   -1,182;    1,045
1052,886; 2406,848;    0,364;   -1,409
1053,430; 2272,758;   -1,364;    0,136
1053,975; 2285,121;   -0,818;   -0,318
1054,519; 2272,394;   -0,727;    3,227
1055,063; 2290,667;    0,909;    1,318
1055,607; 2173,212;   -0,182;    0,227
1056,151; 2194,667;    2,909;    1,682
1056,695; 2091,939;    2,273;   -1,136
1057,239; 2161,121;   -1,727;   -0,682
1057,783; 2193,212;    0,818;   -1,500
1058,327; 2138,394;    0,000;    1,409
1058,871; 2372,394;   -0,545;    1,318
1059,415; 2079,758;   -0,818;   -0,045
1059,958; 2344,485;    1,455;    2,591
1060,502; 2054,667;   -1,000;   -0,773
1061,046; 1953,394;    0,364;   -0,955
1061,589; 1932,394;   -3,000;   -1,136
1062,133; 1821,939;   -1,273;    1,864
1062,676; 1761,939;    1,182;    0,864
1063,220; 1766,667;    1,091;    0,500
1063,763; 1790,576;    0,909;    1,136
1064,306; 1877,848;   -0,909;    1,864
1064,849; 1759,394;   -0,909;    0,591
1065,393; 1759,758;    2,000;   -1,500
1065,936; 1876,485;    0,182;   -0,409
1066,479; 1761,576;   -1,455;    1,318
1067,022; 1788,576;   -0,273;   -0,227
1067,565; 1678,848;   -0,091;   -1,318
1068,108; 1701,121;    0,727;   -0,591
1068,651; 1670,848;   -0,636;    1,409
1069,194; 1596,121;   -0,455;   -1,682
1069,736; 1606,394;   -1,273;    0,955
1070,279; 1583,394;   -1,364;   -0,500
1070,822; 1642,485;   -2,000;   -0,318
1071,364; 1728,758;   -0,364;    1,318
1071,907; 1536,121;   -0,727;    3,227
1072,450; 1442,394;    0,000;   -0,045
1072,992; 1455,394;   -0,273;    3,136
1073,535; 1598,848;    2,091;    2,136
1074,077; 1378,485;   -0,727;    2,045
1074,619; 1338,848;   -1,364;    0,591
1075,161; 1390,030;   -1,091;    1,500
1075,704; 1572,758;    1,545;    1,227
1076,246; 1364,667;   -0,182;    0,682
1076,788; 1277,848;   -0,364;    1,773
1077,330; 1347,485;    1,273;    2,136
1077,872; 1325,303;    0,909;    0,955
1078,414; 1569,030;    2,727;    0,773
1078,956; 1298,303;    1,273;   -0,227
1079,498; 1567,758;    1,636;    0,318
1080,040; 1262,667;    1,909;   -1,318
1080,581; 1198,303;    1,636;   -0,318
1081,123; 1114,394;    0,091;   -0,773
1081,665; 1170,030;   -1,182;   -0,955
1082,206; 1480,758;    1,364;   -0,500
1082,748; 1330,121;    0,727;    2,045
1083,289; 1197,576;   -2,000;    1,318
1083,831; 1115,030;   -0,545;    0,227
1084,372; 1163,848;    0,000;    0,591
1084,913; 1160,030;    1,091;    0,864
1085,455; 1120,212;   -1,909;   -2,045
1085,996; 1096,758;   -2,273;    0,136
1086,537; 1119,212;   -0,091;    0,864
1087,078; 1146,394;   -0,909;   -2,136
1087,619; 1197,303;   -1,273;    0,227
1088,160; 1115,030;    0,000;    1,318
1088,701; 1097,303;   -1,091;    0,682
1089,242; 1038,121;    1,364;   -2,227
1089,783; 1143,576;   -0,273;    1,409
1090,324; 1100,939;    0,455;    0,682
1090,865;  972,939;    2,727;   -0,409
1091,405;  936,303;    0,727;    2,227
1091,946;  959,121;    0,182;   -0,955
1092,487;  893,212;    0,818;   -1,409
1093,027; 1067,667;   -1,364;   -1,500
1093,568;  915,667;   -0,364;    1,227
1094,108; 1020,667;    0,273;    1,773
1094,649;  948,485;   -1,182;    0,136
1095,189;  889,303;   -0,636;   -0,682
1095,729;  846,485;   -0,091;    0,955
1096,269;  840,394;    0,727;   -0,955
1096,810; 1177,485;   -1,364;    0,500
1097,350;  989,848;    1,364;   -0,773
1097,890;  888,394;    0,364;    1,227
1098,430; 1157,758;    2,364;    2,864
1098,970; 1022,848;    2,182;    1,682
1099,510;  878,848;    0,545;   -2,318
1100,050;  807,212;    1,000;   -1,591
1100,589;  765,939;   -0,727;   -0,318
1101,129;  903,576;    0,818;   -0,955
1101,669; 1062,848;    1,727;    2,136
1102,209;  878,030;   -0,091;    2,227
1102,748;  826,212;    0,000;    0,955
1103,288;  825,667;    1,273;   -1,227
1103,827;  855,030;    3,091;   -2,227
1104,367;  727,758;   -0,091;   -2,409
1104,906;  693,485;    1,364;   -1,136
1105,445;  771,576;    0,636;   -1,136
1105,985;  712,030;   -0,727;    1,500
1106,524;  757,758;   -1,727;   -0,682
1107,063;  735,121;   -2,727;    1,409
1107,602;  706,485;   -1,909;   -1,500
1108,141;  630,394;   -1,909;    1,500
1108,680;  733,394;   -3,455;   -0,591
1109,219;  659,939;   -0,909;   -0,500
1109,758;  663,121;    0,455;    0,682
1110,297;  642,030;    1,000;   -0,682
1110,836;  591,394;   -0,727;    0,955
1111,375;  752,667;   -2,545;    0,409
1111,913;  762,576;   -1,000;    0,773
1112,452;  692,939;   -0,273;    0,136
1112,991;  576,939;    1,091;    1,955
1113,529;  539,576;   -0,818;   -0,045
1114,068;  602,212;   -0,273;    2,955
1114,606;  508,939;   -0,364;   -0,955
1115,144;  680,576;   -1,273;    1,045
1115,683;  612,030;   -0,727;    0,318
1116,221;  664,303;   -0,455;   -0,864
1116,759;  561,121;    0,636;   -0,864
1117,297;  776,758;    0,000;    1,864
1117,836;  566,121;   -2,182;   -1,227
1118,374;  584,121;    0,182;   -0,682
1118,912;  525,667;    0,909;    2,682
1119,450;  529,394;    1,000;    0,864
1119,988;  572,939;    1,545;    2,136
1120,525; 1033,667;    5,091;    3,318
1121,063;  726,121;    1,182;    1,864
1121,601;  526,485;   -0,909;   -1,227
1122,139;  485,212;   -0,727;   -2,045
1122,676;  702,212;   -0,727;    2,773
1123,214;  632,485;   -1,182;    4,409
1123,751;  433,758;    1,727;    2,227
1124,289;  565,485;   -0,091;   -0,409
1124,826;  422,303;    1,727;    0,227
1125,364;  340,758;    1,727;   -0,955
1125,901;  539,576;    1,182;    1,227
1126,438;  663,758;    0,818;    0,955
1126,975;  377,303;   -0,727;   -0,773
1127,513;  452,667;    0,273;    2,136
1128,050;  350,121;    1,636;   -0,682
1128,587;  451,121;    2,000;   -0,227
1129,124;  505,667;    0,091;    1,318
1129,661;  362,303;    0,273;    0,227
1130,198;  534,303;    1,636;    0,773
1130,734;  482,667;    0,182;    1,409
1131,271;  326,121;   -0,909;    0,864
1131,808;  507,030;    2,909;    3,045
1132,345;  376,667;    1,545;    0,318
1132,881;  237,848;   -1,545;   -1,864
1133,418;  393,394;    0,727;   -1,136
1133,954;  321,758;    2,455;   -2,682
1134,491;  408,394;    1,364;   -0,773
1135,027;  291,303;    2,364;    0,864
1135,564;  390,667;    0,273;    2,955
1136,100;  379,667;    0,364;    2,136
1136,636;  260,939;   -1,273;   -1,045
1137,172;  371,030;    0,000;   -1,045
1137,708;  288,576;   -1,364;   -1,045
1138,245;  289,303;    1,273;   -1,227
1138,781;  226,576;    1,091;   -3,318
1139,317;  308,667;    1,273;   -1,409
1139,852;  284,848;    3,091;    0,136
1140,388;  413,303;   -1,182;   -0,409
1140,924;  292,576;   -1,091;   -2,227
1141,460;  222,303;   -1,636;    0,136
1141,996;  158,848;   -1,364;    2,682
1142,531;  212,485;    1,364;    3,318
1143,067;  440,485;    1,182;    1,045
1143,602;  501,848;   -0,091;   -0,318
1144,138;  334,394;   -2,636;    1,045
1144,673;  185,394;   -1,455;    1,409
1145,209;  268,758;   -1,909;   -0,318
1145,744;  193,121;   -0,727;    0,864
1146,279;  333,848;    1,818;   -0,136
1146,815;  241,030;    1,545;   -2,682
1147,350;  293,485;   -1,364;    0,045
1147,885;  195,576;   -0,818;   -1,318
1148,420;  191,030;   -2,273;    0,773
1148,955;  175,848;   -1,727;    1,864
1149,490;  202,485;   -0,909;   -1,591
1150,025;  185,758;    0,455;   -1,773
1150,560;  304,212;    1,091;   -0,955
1151,094;  271,212;    1,455;   -0,591
1151,629;  267,848;    1,636;    0,864
1152,164;  190,030;    1,364;    1,318
1152,698;  147,667;   -0,182;   -0,136
1153,233;   97,848;    0,091;   -0,682
1153,767;  153,758;   -3,000;   -2,318
1154,302;  210,576;   -1,455;    1,773
1154,836;  205,576;   -0,455;   -2,136
1155,371;  262,939;   -1,364;    3,682
1155,905;  209,576;   -0,636;    1,682
1156,439;  176,848;   -0,636;   -0,500
1156,973;  209,121;    0,364;    0,318
1157,507;  142,848;   -0,364;    0,682
1158,042;  178,848;   -0,727;    1,045
1158,576;  233,485;    0,182;    1,773
1159,110;  225,212;   -0,818;    2,409
1159,643;  181,939;    0,636;   -0,045
1160,177;  115,939;   -1,545;    1,500

