
Integration time [ms]:   0,040
Averaging Nr. [scans]: 11
Smoothing Nr. [pixels]: 0
Data measured with spectrometer [name]: 7318044SP
Wave   ;Sample   ;Dark     ;Reference
[nm]   ;[counts] ;[counts] ;[counts] 

186,757;   15,338;   31,551;    1,318
187,357;   54,008;   22,551;    0,955
187,958;   33,263;   15,460;   -1,591
188,558;   84,604;    8,915;   -1,227
189,159;   49,018;    6,733;   -4,500
189,759;   15,893;    7,278;   -3,591
190,360;   11,085;    2,824;   -2,136
190,960;   50,029;    2,915;   -4,136
191,560;   65,649;    3,189;   -6,591
192,161;  323,105;    4,372;   -3,500
192,761;  156,297;    4,010;   -3,227
193,361;   92,902;    1,556;   -3,773
193,962;  140,656;    2,010;   -2,682
194,562;   62,978;    1,189;   -3,955
195,162;   88,757;   -2,448;   -2,227
195,762;  244,071;   -3,176;   -0,045
196,362;  188,383;    1,370;   -2,500
196,963;   66,470;    2,006;   -0,864
197,563;  143,971;    1,551;   -0,955
198,163;   71,389;    0,096;   -0,682
198,763;   89,274;    1,733;   -0,500
199,363;  184,980;    3,096;   -0,500
199,963;  149,539;    0,369;    0,409
200,563;  121,158;    2,823;   -1,409
201,163;   99,515;    3,277;   -0,227
201,763;  181,680;    3,732;    0,318
202,363;  118,315;    1,459;    1,500
202,963;  212,248;    1,459;    1,045
203,563;  311,971;    0,277;    0,500
204,162;  168,620;    2,096;   -1,864
204,762;  164,306;    0,550;    0,591
205,362;  123,946;    3,004;    1,955
205,962;  222,512;    3,096;    1,955
206,562;  214,039;    1,823;    2,318
207,161;  181,219;   -0,087;    0,318
207,761;  341,434;    1,277;    2,409
208,361;  215,717;   -0,268;    1,409
208,960;  312,722;    0,459;    1,500
209,560;  364,497;    1,277;    1,591
210,160;  345,997;    0,550;    1,864
210,759;  307,632;    4,186;    1,227
211,359;  317,546;    1,459;    1,045
211,958;  573,825;    1,277;    2,045
212,558;  635,260;    1,732;    1,864
213,157;  482,030;    1,822;    1,500
213,757;  899,384;    3,822;   -0,227
214,356;  604,545;    1,277;   -0,409
214,956;  899,510;    3,095;    0,409
215,555;  540,310;    2,095;    2,136
216,154;  486,977;   -2,723;   -0,591
216,754;  487,334;    0,277;    0,773
217,353;  618,235;   -0,268;   -1,045
217,952;  471,347;   -0,178;    0,318
218,552;  701,259;    1,368;   -0,773
219,151;  571,512;    0,277;    0,955
219,750;  573,727;    0,004;   -0,227
220,349;  631,971;   -0,451;    1,045
220,948;  757,926;   -1,360;    1,136
221,548;  706,330;    0,913;    1,227
222,147;  803,982;   -0,087;   -0,409
222,746; 1084,735;   -0,451;   -0,955
223,345;  925,024;    0,731;    0,500
223,944;  928,748;   -0,451;    0,773
224,543; 1048,706;    1,004;   -1,409
225,142; 1161,785;    0,094;    0,136
225,741; 1048,103;   -0,814;    1,045
226,340; 1036,878;   -0,451;   -0,955
226,939; 1422,884;   -0,996;   -0,136
227,538; 1262,034;   -0,360;   -0,773
228,137; 1440,463;   -0,814;    0,864
228,735; 1465,369;   -0,541;    1,227
229,334; 1220,181;   -0,905;   -0,227
229,933; 1587,796;    0,459;    0,591
230,532; 1685,575;    1,186;   -0,409
231,131; 1751,853;    1,732;    0,318
231,729; 1734,597;   -2,450;   -2,318
232,328; 1701,374;   -0,723;   -1,500
232,927; 1690,256;    1,004;   -0,500
233,525; 1721,879;    3,640;    0,045
234,124; 1898,634;    2,368;   -1,591
234,723; 1827,478;    0,913;   -1,045
235,321; 1912,681;    2,277;    0,136
235,920; 2045,146;    1,186;   -1,227
236,518; 2275,712;    3,459;    0,318
237,117; 2264,030;    0,004;   -0,227
237,715; 2374,334;    0,640;   -0,500
238,314; 2420,221;   -0,087;   -2,318
238,912; 2580,343;   -0,723;   -1,409
239,510; 2521,239;    0,459;   -1,227
240,109; 2702,352;    0,004;    3,773
240,707; 2690,428;   -0,996;    1,227
241,305; 2878,755;    0,550;    0,136
241,904; 3092,573;   -0,178;   -2,045
242,502; 3148,947;   -0,632;   -0,227
243,100; 3074,964;   -0,087;   -0,955
243,698; 3278,451;    0,732;    1,682
244,297; 3461,820;   -0,632;    0,682
244,895; 3405,765;   -0,269;   -2,318
245,493; 3732,312;    2,186;   -0,591
246,091; 3748,995;    1,368;   -1,318
246,689; 3770,446;    1,004;    0,591
247,287; 3918,139;    0,822;   -1,136
247,885; 4222,477;   -1,451;    1,227
248,483; 4327,831;    1,822;   -0,500
249,081; 4472,144;    0,185;    1,591
249,679; 4658,980;   -0,178;    1,682
250,277; 4902,909;   -1,723;    0,864
250,875; 4922,877;   -1,087;   -1,045
251,473; 4960,882;   -1,178;    0,500
252,071; 5199,286;    1,459;    1,045
252,669; 5344,021;   -1,814;    0,318
253,267; 5544,587;   -0,087;    0,773
253,864; 5536,230;   -0,360;    0,682
254,462; 5519,194;    1,640;    1,591
255,060; 5459,451;   -0,269;    1,318
255,658; 5747,294;    0,822;   -0,136
256,255; 6156,499;    0,186;   -2,045
256,853; 6053,477;   -0,269;    1,409
257,451; 6054,124;    0,822;    1,864
258,048; 6419,744;    1,822;    1,864
258,646; 6169,282;    1,731;   -1,045
259,243; 6345,750;   -0,087;    2,227
259,841; 6381,811;   -0,814;    0,318
260,438; 6275,267;   -0,087;    0,864
261,036; 6914,855;   -1,905;    1,409
261,633; 6828,209;   -0,087;    2,227
262,231; 6663,497;    2,731;   -0,045
262,828; 6801,650;   -0,905;    1,136
263,425; 6841,374;    0,913;   -0,591
264,023; 7082,360;    0,186;    0,045
264,620; 6681,548;   -0,360;   -0,318
265,217; 7051,024;   -2,087;    3,136
265,815; 7131,501;   -1,905;    2,136
266,412; 6985,304;    0,731;    0,136
267,009; 7050,575;   -1,451;    0,773
267,606; 6976,009;    0,822;   -0,955
268,203; 6922,900;   -0,269;   -0,591
268,801; 7206,231;    1,731;    0,591
269,398; 7482,245;   -0,360;    2,500
269,995; 7461,650;    0,277;    1,591
270,592; 7255,939;   -0,632;   -0,500
271,189; 7445,186;    0,186;    0,409
271,786; 7564,408;   -0,632;    1,227
272,383; 7415,589;   -1,087;    0,227
272,980; 7576,823;    0,277;    0,318
273,577; 7998,718;    0,004;    1,227
274,174; 7569,672;    0,822;    2,591
274,771; 7564,294;   -0,814;   -0,773
275,367; 7733,352;    2,277;    1,409
275,964; 7704,090;    0,731;   -0,500
276,561; 7776,213;    1,549;   -1,045
277,158; 7954,162;    0,095;   -1,773
277,755; 8136,235;    2,185;    0,409
278,351; 7562,915;   -0,451;   -1,500
278,948; 7865,927;   -0,815;    0,045
279,545; 7823,011;   -1,360;    2,318
280,141; 8465,838;   -1,723;   -2,045
280,738; 8342,560;   -0,451;   -0,136
281,334; 8487,245;   -1,633;    0,591
281,931; 7960,413;   -0,087;   -1,318
282,528; 8080,973;    0,822;   -0,500
283,124; 8765,467;   -1,087;   -0,500
283,721; 8654,763;   -0,451;    1,409
284,317; 8484,751;    0,185;    2,500
284,913; 9063,011;   -1,360;    0,591
285,510; 9251,738;    0,640;   -0,318
286,106; 9312,119;   -2,269;   -0,955
286,703; 8907,795;   -0,360;    1,955
287,299; 9156,448;   -1,451;   -0,591
287,895; 9351,216;    0,822;   -1,045
288,491; 9903,154;    0,186;    2,136
289,088; 9680,698;   -2,360;    2,409
289,684; 9789,385;   -1,723;    1,500
290,280; 9849,737;    0,368;    0,682
290,876; 9981,150;    1,822;    5,500
291,472; 9874,375;    1,276;    2,227
292,068;10006,580;    1,367;    0,227
292,665; 9757,175;    2,095;    0,773
293,261; 9444,829;    0,276;    2,136
293,857; 9900,367;    2,913;    2,136
294,453; 9810,156;    3,550;    0,955
295,049; 9729,766;   -0,268;    1,955
295,644; 9806,826;    0,095;    0,136
296,240; 9754,558;   -0,905;   -0,136
296,836; 9882,304;   -0,995;    0,318
297,432;10183,277;    1,096;   -0,500
298,028;10253,976;    0,732;    0,773
298,624;10642,496;    1,459;    1,864
299,220;10899,617;    2,368;    0,591
299,815;10572,628;    1,005;   -0,409
300,411;10387,312;    0,914;    1,773
301,007;10457,875;    1,368;    0,227
301,602;10497,552;   -0,541;   -2,318
302,198;10672,479;    0,732;   -0,773
302,794;11016,939;    1,187;   -0,500
303,389;11131,676;   -1,177;    1,045
303,985;11215,564;    0,550;    1,409
304,580;11228,027;    1,459;    1,591
305,176;11186,917;   -3,086;    0,136
305,771;11130,341;   -1,268;   -1,227
306,367;11023,151;    4,095;    0,136
306,962;11324,188;    0,641;    1,500
307,558;11000,489;   -0,450;    0,136
308,153;10932,556;    1,095;   -1,136
308,748;11170,505;   -0,814;    1,682
309,344;11128,091;   -0,632;   -1,318
309,939;11212,275;   -1,905;   -1,318
310,534;11471,501;   -0,086;   -1,682
311,130;11365,026;    0,459;   -2,500
311,725;11112,870;    1,004;   -0,500
312,320;11430,254;    2,459;    0,045
312,915;11281,323;    1,459;   -1,045
313,510;11383,360;    1,550;   -0,500
314,105;11802,797;    1,096;    1,409
314,700;11199,823;   -3,086;   -1,045
315,295;10823,209;   -0,904;    0,045
315,890;10388,455;    1,277;    0,864
316,485;10749,059;   -0,359;   -0,318
317,080;10852,831;   -3,086;    1,591
317,675;11360,349;    2,005;   -0,682
318,270;10830,041;    5,550;    3,318
318,865;10809,128;    3,278;    3,045
319,460;10632,430;   -0,904;    0,591
320,055;10807,522;   -0,541;   -1,227
320,650;10463,020;   -1,995;   -0,591
321,244;10481,629;   -0,177;   -1,409
321,839;11411,379;   -1,541;   -0,227
322,434;11283,345;   -1,086;   -1,591
323,029;10932,543;    1,732;    1,591
323,623;10783,324;    1,550;    0,773
324,218;10569,702;    2,368;    1,409
324,812;10448,215;    1,096;    1,591
325,407;10296,066;   -0,814;    2,045
326,002;10221,587;    0,277;   -0,409
326,596;10496,814;    0,914;    1,318
327,191;10674,752;    0,823;   -1,045
327,785;10314,086;   -0,813;   -0,227
328,379;10535,602;    1,368;    0,136
328,974;10388,451;    0,914;   -3,955
329,568;10602,613;    0,186;   -2,409
330,163;10459,581;    2,096;    1,045
330,757;10831,310;    2,459;    1,591
331,351;10206,305;    0,459;    0,682
331,945;10500,845;    0,914;    1,409
332,540;10152,490;   -1,723;   -0,591
333,134;10318,740;   -1,086;    0,773
333,728;10615,186;    0,005;    0,318
334,322;10924,990;   -1,177;   -0,864
334,916;10235,471;    0,277;    0,955
335,510;10601,876;   -0,450;   -0,136
336,105;10842,298;   -1,086;    1,591
336,699;10599,773;   -1,086;    0,591
337,293;10556,252;   -1,723;    0,318
337,887;10710,922;   -2,723;    1,955
338,481;10829,519;    0,459;    0,591
339,074;11036,286;   -0,359;    2,682
339,668;10904,057;   -1,632;    1,227
340,262;11227,138;    1,732;    3,227
340,856;10693,745;    1,822;   -0,682
341,450;10084,743;    1,004;    1,864
342,044;10968,888;    1,459;    0,136
342,637;10758,352;    0,913;   -2,136
343,231;10658,459;   -2,360;    0,682
343,825;10633,951;   -1,086;   -0,591
344,419;10610,592;   -1,995;    0,500
345,012;10465,776;    2,459;    4,045
345,606;10480,361;    4,641;    1,591
346,199;10307,895;   -1,813;   -0,227
346,793; 9861,030;    1,914;    2,045
347,386;10100,999;   -0,813;   -1,136
347,980;10101,931;   -0,268;   -0,045
348,573; 9900,938;    2,278;    0,409
349,167; 9604,484;    5,278;    4,773
349,760; 9952,250;    2,914;    2,682
350,354; 9951,491;   -0,813;    1,136
350,947; 9689,046;    1,096;    1,682
351,540; 9361,798;   -0,358;   -1,409
352,134; 9298,008;    1,096;    1,136
352,727; 9395,915;   -0,086;    1,136
353,320; 9194,874;    0,005;    0,591
353,913; 9027,925;   -1,995;    1,864
354,507; 9262,669;    0,823;   -1,227
355,100; 9243,195;    0,460;    0,864
355,693; 8487,710;    2,005;    2,409
356,286; 8538,641;    0,823;    2,773
356,879; 8880,074;   -0,722;    1,227
357,472; 8473,752;   -0,904;    1,500
358,065; 8673,759;   -0,722;    2,500
358,658; 8577,526;   -0,540;    2,318
359,251; 8219,259;   -1,631;   -0,591
359,844; 7737,840;   -1,904;   -1,136
360,437; 7927,261;   -2,995;    0,045
361,030; 8156,592;    1,369;   -0,682
361,623; 7764,262;    2,824;    0,318
362,215; 7829,690;   -0,086;    2,045
362,808; 7649,437;   -2,358;   -1,682
363,401; 7839,659;   -2,449;    0,136
363,994; 7604,417;   -0,631;   -1,500
364,586; 7481,990;    0,824;   -1,500
365,179; 7684,780;   -0,449;   -1,136
365,772; 7198,062;   -1,995;    2,045
366,364; 7478,844;    1,915;   -3,227
366,957; 7684,422;    2,279;   -0,045
367,549; 7697,050;    2,188;   -0,864
368,142; 7344,605;    1,825;   -1,500
368,734; 7546,291;    0,734;   -2,136
369,327; 7494,138;    1,643;   -0,500
369,919; 7404,817;   -1,538;    0,409
370,512; 7226,237;   -1,083;   -0,500
371,104; 6984,471;   -0,901;    1,591
371,696; 7119,260;    1,191;   -0,955
372,289; 7229,386;    0,373;    1,136
372,881; 7358,623;   -2,080;    1,318
373,473; 7298,864;   -2,170;    1,136
374,066; 7111,387;   -0,169;    0,500
374,658; 6948,461;    0,378;    1,136
375,250; 7281,571;    0,653;   -1,409
375,842; 7147,495;    0,473;   -0,045
376,434; 7038,830;   -0,435;   -0,409
377,026; 7585,598;    0,204;   -2,500
377,618; 7471,615;   -0,158;   -0,682
378,210; 7272,181;   -0,338;   -1,955
378,802; 7143,812;    0,754;   -0,591
379,394; 7152,234;    1,846;    0,682
379,986; 7693,610;    1,393;   -0,955
380,578; 7775,396;   -0,153;    0,773
381,170; 7132,653;   -0,972;    0,045
381,762; 7084,711;    0,755;    1,409
382,354; 7290,487;   -0,065;   -1,318
382,945; 7387,032;   -2,976;    0,318
383,537; 7541,974;   -2,705;   -1,955
384,129; 7535,503;   -2,160;   -1,136
384,721; 7703,839;   -0,252;    0,955
385,312; 7645,361;   -0,161;   -0,955
385,904; 7746,959;   -2,706;    1,591
386,496; 7126,212;   -0,979;    1,045
387,087; 7308,376;    1,022;    2,500
387,679; 7307,373;   -1,160;    0,045
388,270; 7444,207;    2,840;    2,045
388,862; 7564,381;    1,295;   -0,318
389,453; 7438,076;   -0,887;    1,045
390,045; 7705,681;   -0,705;   -2,682
390,636; 7611,016;    0,204;   -0,591
391,227; 7457,036;   -0,523;   -0,045
391,819; 7590,182;    0,204;    0,773
392,410; 7624,229;    1,022;    0,045
393,001; 7558,856;   -0,979;   -1,591
393,593; 7861,846;    1,930;   -0,045
394,184; 7732,954;    1,385;   -0,409
394,775; 7655,897;    1,839;    2,136
395,366; 7850,021;    1,385;    0,773
395,957; 7838,540;    0,113;    0,136
396,548; 8139,988;   -0,342;    2,682
397,139; 8441,949;   -2,433;    0,591
397,730; 8184,892;   -1,888;    0,955
398,321; 8221,698;   -1,252;    0,955
398,912; 8270,119;   -0,615;    0,136
399,503; 8298,871;   -3,524;   -1,409
400,094; 7768,591;    0,294;    1,682
400,685; 7640,807;   -0,433;    0,045
401,276; 7711,781;    0,930;   -0,955
401,867; 8024,479;   -0,888;    0,773
402,458; 8094,379;   -2,251;   -2,318
403,048; 8081,593;    1,112;    0,591
403,639; 7672,492;    0,840;    0,864
404,230; 7981,267;    2,476;    0,318
404,821; 7895,689;   -0,615;    0,045
405,411; 7988,143;    1,203;   -2,591
406,002; 7597,540;   -1,252;   -1,136
406,592; 7478,531;    2,294;    0,045
407,183; 7735,943;    0,566;   -1,500
407,774; 7629,142;    3,475;   -0,136
408,364; 7974,717;    0,930;    0,409
408,954; 7579,722;    0,384;    1,227
409,545; 7603,985;    1,021;    1,045
410,135; 7136,894;    1,293;    0,500
410,726; 7293,271;    1,838;    0,318
411,316; 7654,031;    0,111;    0,773
411,906; 7292,861;   -0,253;   -0,409
412,497; 6817,408;   -1,070;   -0,045
413,087; 7382,296;   -1,980;   -0,227
413,677; 7746,029;   -0,707;    3,864
414,267; 7564,803;    0,656;    1,409
414,857; 7521,914;   -2,980;    4,227
415,448; 7802,525;    0,839;    0,500
416,038; 7481,846;    0,020;   -0,591
416,628; 7434,201;   -0,889;    0,409
417,218; 6923,579;    0,565;    3,318
417,808; 7141,417;    0,202;   -0,409
418,398; 7524,361;    0,020;    2,682
418,988; 7519,891;    2,020;    0,591
419,578; 7771,836;   -0,707;    1,409
420,168; 8059,141;   -1,343;   -0,955
420,757; 7626,648;   -1,343;   -1,500
421,347; 7301,236;    0,111;   -0,227
421,937; 7429,530;    2,292;    1,409
422,527; 7368,391;    0,838;   -0,773
423,116; 7147,844;   -0,253;   -0,045
423,706; 7441,037;   -1,889;    0,318
424,296; 7370,303;    1,384;    0,682
424,885; 7760,485;   -0,071;   -3,045
425,475; 7995,534;    1,474;   -2,864
426,065; 7851,922;   -0,980;   -0,318
426,654; 7486,573;   -0,435;   -0,318
427,244; 7632,669;    0,020;    1,409
427,833; 7092,010;    1,383;   -0,500
428,423; 7450,233;   -0,526;    1,136
429,012; 8095,412;   -0,344;   -1,136
429,601; 7610,035;   -1,344;    0,136
430,191; 7812,709;    1,292;    4,318
430,780; 7443,481;   -0,344;   -0,409
431,369; 7360,402;    0,746;   -0,045
431,959; 7894,358;   -1,254;    0,500
432,548; 7651,400;   -1,163;   -0,045
433,137; 7727,257;   -1,254;   -1,318
433,726; 8205,409;    0,292;    0,500
434,315; 7596,680;   -0,526;    2,409
434,905; 7620,569;   -1,254;    1,409
435,494; 7498,263;    0,746;    0,955
436,083; 7831,758;   -0,981;   -0,955
436,672; 7691,706;    0,110;    0,500
437,261; 7302,474;    0,292;   -1,955
437,850; 7400,046;    1,383;    0,682
438,439; 7337,590;    3,291;    1,955
439,027; 7173,526;    3,655;    1,773
439,616; 7382,440;    2,927;    1,227
440,205; 7194,256;    0,200;   -2,136
440,794; 7176,639;    2,109;   -0,045
441,383; 7345,780;   -1,346;   -0,591
441,971; 7143,221;   -2,436;    0,591
442,560; 6954,695;    0,563;   -1,773
443,149; 6654,556;    0,379;   -1,318
443,737; 6766,701;   -0,074;   -2,318
444,326; 6933,432;    0,018;    0,318
444,915; 6917,538;   -1,982;    0,864
445,503; 7163,956;   -2,891;   -0,318
446,092; 6556,891;    0,382;    2,136
446,680; 6935,395;    0,382;    0,318
447,269; 7001,666;   -0,346;   -0,318
447,857; 6741,095;    0,018;   -1,773
448,445; 6755,240;    0,563;    1,318
449,034; 6884,706;   -1,528;   -1,136
449,622; 6908,164;   -1,073;    3,500
450,210; 6336,304;    2,017;    2,227
450,799; 6718,782;    0,290;   -0,591
451,387; 6579,476;    1,381;   -0,591
451,975; 6282,531;    2,654;    0,864
452,563; 6338,440;    3,472;    2,318
453,151; 6247,808;   -0,528;   -1,227
453,739; 6132,728;   -1,347;    0,136
454,328; 6047,746;    2,381;   -2,136
454,916; 5766,920;    2,562;   -0,136
455,504; 5844,630;    1,017;    1,227
456,092; 5927,619;    0,017;   -1,591
456,679; 5819,870;    1,472;    0,682
457,267; 5927,753;    4,017;    1,045
457,855; 5867,398;    1,017;    1,409
458,443; 5510,294;   -0,165;    1,682
459,031; 5738,518;    0,108;    2,409
459,619; 5981,898;   -1,801;    2,864
460,206; 5943,414;    0,835;    2,045
460,794; 5993,309;   -2,983;   -0,227
461,382; 6131,711;   -0,529;   -0,864
461,970; 5767,921;    1,198;    1,864
462,557; 5761,764;   -0,711;   -0,682
463,145; 5906,879;   -3,165;   -1,682
463,732; 5977,438;    2,016;   -1,045
464,320; 5821,820;   -0,075;   -3,045
464,907; 5605,850;    2,743;   -0,773
465,495; 5445,339;    0,743;   -1,227
466,082; 5509,751;   -1,984;   -0,045
466,670; 5321,855;   -2,529;    1,227
467,257; 5631,251;   -1,711;    2,045
467,844; 5788,403;   -0,075;    0,045
468,432; 5750,993;    0,834;    3,500
469,019; 5324,053;    0,925;   -1,773
469,606; 5615,242;    0,470;    3,682
470,193; 5474,692;   -1,439;    0,227
470,780; 5170,929;   -2,075;    0,864
471,368; 5319,656;   -1,257;   -0,773
471,955; 5119,808;    1,379;   -0,682
472,542; 4838,288;    0,652;   -1,136
473,129; 4911,978;   -0,166;    0,136
473,716; 4674,469;    1,470;    0,591
474,303; 4705,567;    0,652;   -0,864
474,890; 4833,479;   -1,439;   -0,500
475,477; 4860,126;   -1,621;    0,409
476,064; 4687,312;    1,106;   -1,591
476,650; 4506,136;    0,288;    0,318
477,237; 4311,500;   -0,258;    0,955
477,824; 4358,005;   -1,076;    0,864
478,411; 4236,356;   -1,894;   -0,318
478,997; 4291,522;    0,560;   -0,773
479,584; 4201,407;    1,196;   -0,409
480,171; 4613,367;   -0,440;   -0,773
480,757; 4385,851;    2,651;    0,773
481,344; 4371,524;    0,469;    0,409
481,931; 3952,121;    1,105;    1,045
482,517; 4452,010;   -1,258;    0,318
483,104; 4609,103;    1,106;    2,864
483,690; 4565,749;   -1,804;    0,045
484,276; 4555,852;   -0,895;    0,227
484,863; 4452,809;    2,469;    1,136
485,449; 4568,092;   -0,077;    0,318
486,035; 4440,864;   -1,986;   -0,136
486,622; 4688,796;   -0,895;    0,045
487,208; 4528,355;    1,378;    1,500
487,794; 4394,631;    0,741;    0,318
488,380; 4446,384;    0,105;   -1,409
488,967; 4447,239;   -1,168;   -0,409
489,553; 4493,672;   -1,895;   -1,409
490,139; 4630,102;    1,559;    0,773
490,725; 4365,937;    0,741;   -0,227
491,311; 4179,525;    3,287;    3,045
491,897; 3873,444;   -0,986;    1,500
492,483; 3967,593;    0,105;    1,227
493,069; 4429,335;    3,923;    0,864
493,655; 4170,519;    1,650;    0,682
494,241; 4123,199;    1,377;   -0,955
494,826; 4404,578;    0,287;   -1,045
495,412; 4168,246;    2,559;   -0,682
495,998; 4344,049;   -0,805;   -0,318
496,584; 4477,129;    0,377;    1,045
497,169; 4524,224;    1,014;   -0,682
497,755; 4647,128;    0,650;    1,227
498,341; 5286,857;    0,559;    0,318
498,926; 5192,423;    1,832;    1,955
499,512; 5325,349;    1,286;    2,955
500,097; 5483,420;    0,195;   -0,318
500,683; 5653,563;   -0,350;    2,136
501,268; 6139,964;   -0,169;   -0,955
501,854; 6219,881;   -0,169;    1,227
502,439; 6326,973;   -0,624;   -1,773
503,024; 6683,603;    0,195;    0,500
503,610; 6968,352;   -0,078;   -0,682
504,195; 7189,510;    0,558;    1,955
504,780; 7567,159;    2,922;    1,227
505,366; 7712,412;    3,013;    2,864
505,951; 7716,659;    0,740;    1,045
506,536; 8012,944;   -3,260;   -3,682
507,121; 8248,118;    0,285;   -0,318
507,706; 8896,218;    2,376;    1,045
508,291; 9436,208;    2,649;    1,136
508,876; 9154,237;   -0,988;    2,591
509,461; 8956,532;   -0,169;   -0,773
510,046; 9525,914;    0,194;    0,318
510,631; 9956,586;   -0,351;   -0,773
511,216; 9834,782;    2,467;   -0,500
511,801;10391,104;   -0,442;    2,591
512,386;10871,217;    0,740;    0,500
512,971;10943,581;   -2,988;    0,955
513,555;10713,124;   -0,897;   -1,500
514,140;11609,724;   -0,442;   -3,136
514,725;11764,251;   -0,715;   -1,136
515,309;12006,959;   -0,533;    0,318
515,894;11644,924;   -0,624;   -2,227
516,479;12180,412;   -0,624;   -0,955
517,063;12172,018;    0,376;    1,227
517,648;12377,668;    1,012;   -1,136
518,232;12131,950;   -0,261;   -1,409
518,817;12538,471;   -0,079;    1,682
519,401;12857,602;    2,194;    0,591
519,985;12422,848;    1,103;    1,136
520,570;12399,575;    0,830;   -1,955
521,154;12759,407;    2,102;    0,591
521,738;12976,771;   -2,352;    2,409
522,323;13562,024;   -0,170;    1,682
522,907;13341,639;    0,466;   -0,136
523,491;13144,467;    0,557;    0,955
524,075;13093,715;    2,284;    0,591
524,659;13257,600;    1,466;    0,591
525,243;12783,554;    1,739;    0,409
525,827;13065,414;    0,648;   -0,045
526,411;13896,509;   -1,989;   -0,136
526,995;14172,601;   -0,352;    1,409
527,579;13800,995;   -0,443;   -1,045
528,163;14136,624;    0,375;   -1,500
528,747;14062,244;    2,466;   -0,773
529,331;14342,805;   -0,080;   -1,409
529,915;14554,935;    1,738;    0,955
530,499;14554,267;   -0,807;    1,227
531,082;14280,261;   -0,534;    1,591
531,666;13692,649;    1,374;    0,773
532,250;14399,128;    1,284;    2,682
532,833;14770,056;    0,920;    2,773
533,417;14579,003;   -1,807;    0,864
534,001;14587,915;    1,647;   -0,318
534,584;15283,742;    0,374;    0,500
535,168;15146,099;    0,465;    1,409
535,751;15238,230;    0,647;    0,045
536,334;14685,532;   -0,898;   -0,409
536,918;15254,735;    0,011;    1,591
537,501;15383,781;   -0,899;    1,318
538,085;15397,349;   -0,444;    1,045
538,668;15583,324;    0,829;    2,409
539,251;15922,027;    1,829;    3,773
539,834;15899,923;    0,101;    0,773
540,418;15859,773;   -1,990;    4,318
541,001;15964,624;   -0,990;    1,773
541,584;15946,019;    2,101;    2,227
542,167;15685,635;    1,374;    2,955
542,750;15822,514;    1,919;   -0,773
543,333;15416,772;    0,555;    2,136
543,916;16198,096;    0,192;    2,500
544,499;16806,551;   -1,354;    0,227
545,082;16813,712;    1,374;    3,591
545,665;16945,808;    1,919;    1,500
546,248;17301,045;    1,010;   -0,318
546,830;16940,270;   -0,445;    1,955
547,413;17366,041;    1,010;   -0,773
547,996;17892,234;    0,555;    0,500
548,579;17630,895;    0,919;    0,955
549,161;17479,782;    1,828;    2,682
549,744;17229,352;   -0,809;    0,409
550,326;17721,358;   -0,809;   -1,136
550,909;17594,918;    2,737;    0,591
551,492;17972,975;   -0,263;    0,227
552,074;17764,430;   -0,173;   -1,318
552,657;18294,765;    2,373;    0,045
553,239;18047,327;   -0,173;   -0,773
553,821;17960,171;   -1,082;    1,045
554,404;17461,004;    1,282;    1,136
554,986;17838,679;    0,464;    1,045
555,568;18477,150;    1,191;   -0,955
556,151;17684,125;    1,191;   -0,227
556,733;17840,026;   -0,264;   -0,864
557,315;18323,040;    0,100;    0,500
557,897;18146,359;    0,554;   -0,500
558,479;18251,124;   -1,991;    1,318
559,061;18424,677;   -0,719;   -0,864
559,643;18733,327;   -0,264;    0,045
560,225;19098,856;    1,645;    2,864
560,807;19085,600;    0,918;    0,318
561,389;18616,224;    0,554;    2,318
561,971;19403,712;    0,463;    2,136
562,553;19157,530;   -1,628;    1,591
563,135;19329,369;   -0,537;    1,136
563,717;18945,335;    3,372;    1,136
564,298;19628,308;    3,645;   -0,045
564,880;19388,871;    0,645;   -1,409
565,462;19544,417;    0,645;    1,318
566,043;20730,250;   -0,446;    2,318
566,625;20272,701;    1,918;    1,227
567,207;20154,396;    1,099;    1,682
567,788;21313,049;   -1,264;    1,500
568,370;22083,735;    1,917;   -0,500
568,951;21928,313;    0,190;    0,227
569,533;22814,963;   -0,628;   -0,500
570,114;23260,947;   -0,446;    0,682
570,695;23741,074;   -0,174;   -1,318
571,277;24314,568;   -0,265;   -1,682
571,858;25078,385;    2,008;   -1,136
572,439;25930,129;    1,554;   -1,045
573,021;26110,788;    2,099;   -2,773
573,602;26608,291;   -1,265;    0,318
574,183;27516,029;   -2,083;    2,227
574,764;27660,352;   -1,629;    0,409
575,345;28279,842;    0,917;   -0,136
575,926;28834,670;   -0,356;    0,136
576,507;28755,924;    1,099;   -0,227
577,088;29905,438;    3,099;    1,682
577,669;29954,651;    0,735;    1,955
578,250;30756,939;    0,644;   -1,045
578,831;31384,473;   -1,356;   -2,227
579,412;31601,353;   -0,810;    0,955
579,993;32474,332;    1,008;    0,227
580,573;32793,275;   -0,629;   -0,955
581,154;31805,322;    0,735;   -0,591
581,735;32676,707;    0,644;    0,773
582,315;32175,889;   -0,629;    2,136
582,896;32398,079;   -0,174;    1,227
583,477;31834,067;    0,189;    1,227
584,057;32038,664;    0,553;    0,955
584,638;32359,332;    2,553;    2,318
585,218;32362,930;   -0,538;    2,682
585,799;32493,572;    0,281;   -0,227
586,379;32407,984;    0,372;    1,591
586,959;31118,092;    0,735;    0,318
587,540;30436,914;   -0,629;    2,227
588,120;29992,037;    1,007;   -0,045
588,700;29071,084;    2,553;    2,136
589,281;29391,394;    0,462;   -0,955
589,861;29319,991;    0,099;   -1,682
590,441;29076,855;    2,371;   -2,682
591,021;28089,783;   -0,265;   -2,591
591,601;28349,265;   -0,537;    0,500
592,181;28280,738;   -0,719;   -0,773
592,761;27598,562;    0,007;    1,409
593,341;27559,785;   -0,901;    0,045
593,921;27568,680;   -0,265;    1,591
594,501;27458,942;   -0,538;    1,318
595,081;27280,341;    0,917;   -0,318
595,661;27670,164;   -1,447;    0,955
596,240;28195,842;   -0,537;    0,136
596,820;27872,629;    0,372;    1,955
597,400;28032,367;    2,008;    0,773
597,980;28216,574;    2,008;    1,045
598,559;28182,994;    2,735;   -0,227
599,139;27893,013;   -0,174;   -1,227
599,718;27805,831;   -0,174;   -0,409
600,298;28066,934;    0,735;    0,682
600,877;28335,766;    2,917;    1,409
601,457;28582,190;    2,281;    1,136
602,036;28519,171;    0,190;    2,045
602,616;28756,026;    0,644;    1,682
603,195;29089,005;   -0,355;    3,500
603,774;28613,538;   -0,901;    2,045
604,354;28484,059;    0,826;   -0,500
604,933;28033,710;    0,463;    1,864
605,512;28088,765;    3,554;    0,591
606,091;28145,405;   -0,537;    3,773
606,671;28941,707;    0,281;    0,773
607,250;28072,987;    1,644;    3,136
607,829;28253,093;    2,372;    3,227
608,408;28080,367;    1,190;    2,591
608,987;27110,266;    1,281;    3,409
609,566;27463,530;   -1,265;   -2,500
610,145;27612,793;   -1,082;    0,682
610,723;27966,383;    4,372;    6,864
611,302;27231,691;   -0,446;    1,682
611,881;26788,081;    5,008;   11,227
612,460;27596,605;    1,645;    3,955
613,039;28019,844;   -0,082;    2,045
613,617;26728,501;    1,736;    4,773
614,196;26962,273;    1,099;    1,227
614,775;27327,351;    1,009;    2,409
615,353;27249,011;    0,736;    0,864
615,932;26968,262;    0,100;    2,409
616,510;27518,439;    0,554;    0,591
617,089;27081,241;    7,100;   17,591
617,667;26810,811;    2,372;    6,136
618,246;26619,258;   -1,537;    1,318
618,824;26824,058;   -3,355;   -0,955
619,402;26373,243;   -2,900;   -1,773
619,981;26885,927;   -0,173;   -1,045
620,559;26720,321;    0,009;    1,682
621,137;26261,400;   -0,718;    1,864
621,715;26234,536;   -1,173;   -0,682
622,293;26215,911;   -0,537;   -0,773
622,871;26648,858;   -0,718;    0,500
623,450;26207,056;    0,373;   -0,864
624,028;26091,986;    0,191;   -0,955
624,606;25794,163;   -1,718;    1,682
625,183;26159,904;   -1,536;   -1,136
625,761;25745,174;    1,009;    1,136
626,339;26017,330;    1,373;    2,591
626,917;26386,105;   -0,172;   -0,045
627,495;26457,146;   -0,354;    1,318
628,073;25885,492;   -0,263;    2,864
628,650;25614,539;    0,100;    2,136
629,228;26012,620;    0,373;    4,409
629,806;25449,909;    2,282;    1,136
630,383;25679,550;    1,464;   -0,318
630,961;25467,304;    2,555;   -0,955
631,539;25224,421;    2,464;    0,227
632,116;24661,395;   11,373;   15,409
632,694;25187,556;    2,555;    6,500
633,271;25467,483;    0,828;    2,682
633,848;25405,802;    1,828;    2,045
634,426;25461,874;   -1,081;    1,773
635,003;24603,361;    1,101;   -0,409
635,580;24914,439;    1,192;    3,682
636,158;25416,408;    3,737;    1,227
636,735;25426,605;    0,555;   -0,500
637,312;25583,241;   -0,809;   -0,682
637,889;25649,644;   -4,354;   -0,682
638,466;25111,783;   -3,990;   -0,409
639,043;25127,992;    2,101;   -1,136
639,620;25434,231;   -2,262;   -0,955
640,197;25749,427;    1,100;    1,682
640,774;25853,480;   -0,172;    1,136
641,351;26242,715;    0,737;    1,136
641,928;25734,132;   -0,627;    1,409
642,505;25357,913;    0,828;   -0,500
643,082;25443,421;   -1,718;    1,227
643,658;24477,656;   -0,718;    1,500
644,235;25242,800;    1,191;    2,500
644,812;25550,763;    1,918;    0,773
645,388;25266,816;   -0,991;    1,409
645,965;25367,779;   -0,809;    1,682
646,542;25440,105;   -1,445;   -0,227
647,118;25416,976;    1,009;   -0,955
647,695;25745,484;   -0,263;    1,136
648,271;25619,992;   -0,536;    0,500
648,848;25967,046;    0,736;    2,227
649,424;25842,553;    0,827;    1,318
650,000;25594,425;   -0,354;   -1,045
650,577;25393,933;   -0,627;   -0,955
651,153;25851,895;   -1,809;    0,955
651,729;26878,494;    1,191;    0,864
652,305;27415,820;    0,645;    2,773
652,881;32550,237;   -0,082;    1,136
653,458;39333,291;    1,100;    0,227
654,034;42645,344;    0,282;    1,591
654,610;43903,034;    0,554;    0,773
655,186;45166,815;    0,645;    3,045
655,762;44709,232;   -0,991;    0,409
656,338;44711,558;    0,100;    0,136
656,913;45672,247;   -0,082;    0,409
657,489;44887,028;    0,827;   -0,318
658,065;44862,263;   -0,173;   -1,591
658,641;45488,498;   -0,900;   -0,864
659,217;44761,915;   -0,991;    0,409
659,792;44219,696;    0,645;   -0,409
660,368;44352,659;   -2,173;   -0,682
660,944;43733,439;   -2,082;    1,227
661,519;38533,220;   -0,628;    0,409
662,095;32699,182;   -1,719;    0,591
662,670;28578,599;    1,281;   -0,136
663,246;27725,835;    1,009;   -0,409
663,821;27162,615;    0,281;    1,682
664,396;26642,850;    0,009;    1,864
664,972;26872,904;    0,009;   -0,500
665,547;27180,230;    1,372;    0,136
666,122;27263,192;   -1,082;    0,318
666,698;27526,700;   -0,173;    0,318
667,273;26819,481;   -0,173;    0,136
667,848;27682,171;    2,372;    1,500
668,423;27560,133;    2,190;    2,318
668,998;28081,550;    2,827;   -0,682
669,573;28558,422;   -3,264;   -1,500
670,148;28379,930;   -1,446;   -0,682
670,723;28170,529;   -1,810;    0,318
671,298;28582,400;    2,372;    1,045
671,873;28718,181;   -0,082;   -0,136
672,448;28692,961;    0,645;    0,136
673,023;29040,833;   -1,992;   -0,227
673,597;29417,159;    0,827;    2,318
674,172;29172,849;   -0,355;    0,318
674,747;28589,629;    0,372;   -1,045
675,321;28406,501;   -0,628;    3,318
675,896;27973,282;    0,645;    1,045
676,471;28969,244;    2,645;    1,591
677,045;28798,752;   -1,264;    0,682
677,620;28862,260;    0,190;    1,136
678,194;29085,859;   -2,628;    1,136
678,769;28673,094;   -1,083;   -0,318
679,343;28965,147;   -0,628;    1,773
679,917;28895,746;   -1,446;    1,955
680,492;28936,891;    0,826;    3,227
681,066;29079,853;    3,372;    0,409
681,640;29135,997;    1,463;   -0,318
682,214;29919,960;    0,735;    0,500
682,788;29496,286;   -1,356;   -0,773
683,363;29453,885;   -1,810;    1,682
683,937;29118,211;   -1,719;   -0,318
684,511;29868,173;    0,463;   -0,591
685,085;29554,136;   -1,356;    0,318
685,659;29261,371;   -2,538;    0,864
686,232;29558,152;   -0,356;   -0,318
686,806;29230,114;   -0,901;    0,409
687,380;29888,440;   -0,174;    0,591
687,954;30127,494;   -1,174;    1,136
688,528;29818,001;   -0,719;    1,955
689,101;30630,328;   -3,992;    1,045
689,675;30195,290;   -0,356;   -0,136
690,249;29539,071;   -0,719;    0,409
690,822;29851,851;    0,280;    0,318
691,396;29956,541;   -0,265;    1,227
691,969;29431,776;    1,280;    0,136
692,543;29864,648;   -0,447;   -1,955
693,116;29487,429;   -0,265;   -1,409
693,690;29394,664;    0,099;    0,500
694,263;29974,081;   -1,083;    2,955
694,836;29985,861;    1,371;    3,591
695,410;28675,642;   -0,265;    1,773
695,983;29138,332;    0,189;    0,591
696,556;29048,022;   -0,447;   -1,045
697,129;29463,984;   -0,356;    1,409
697,703;29114,492;   -1,629;    1,955
698,276;29075,909;    1,462;   -0,773
698,849;28897,326;    1,280;    1,409
699,422;29276,016;   -1,083;    0,591
699,995;28903,978;    0,007;    0,136
700,568;29436,850;   -0,629;    3,045
701,140;29478,721;   -2,811;    1,682
701,713;29212,956;   -0,174;    2,409
702,286;28975,283;   -0,538;    0,864
702,859;28857,063;   -0,902;   -0,591
703,432;28038,662;    0,825;    0,682
704,004;28483,715;    0,462;    0,318
704,577;28409,223;   -0,629;    0,136
705,150;28992,549;    0,189;    2,500
705,722;28714,057;   -0,356;   -3,227
706,295;28507,929;   -0,175;   -0,591
706,867;28397,710;   -0,175;    1,955
707,440;28582,308;   -1,720;   -0,409
708,012;28862,453;    0,462;    0,591
708,584;28804,961;    2,462;    0,227
709,157;29045,105;    1,825;   -0,591
709,729;28748,522;    2,280;    2,045
710,301;29538,848;    0,734;    0,045
710,874;29584,720;   -1,447;   -0,227
711,446;28464,228;    0,371;    0,864
712,018;28316,826;    0,098;    0,500
712,590;28058,516;   -1,993;    1,682
713,162;28568,297;    0,825;    1,318
713,734;28812,896;    1,825;   -2,045
714,306;28716,494;   -1,902;   -0,409
714,878;27385,821;    0,825;    0,864
715,450;28203,056;    0,643;    0,864
716,022;28403,927;    1,552;    1,318
716,593;28620,163;    0,189;    0,591
717,165;28556,307;   -3,175;   -1,227
717,737;28243,087;    0,280;    0,409
718,309;27888,323;    0,280;   -0,045
718,880;27870,740;   -0,539;   -1,409
719,452;28109,520;   -0,175;   -1,591
720,024;27656,028;    0,734;   -0,591
720,595;28221,809;   -2,902;    0,955
721,167;27830,135;    0,370;   -2,045
721,738;27357,461;   -0,812;   -1,045
722,309;27319,515;   -0,993;   -1,227
722,881;27108,841;   -1,357;    0,773
723,452;27752,530;   -2,630;    2,864
724,023;27903,402;   -0,721;    2,682
724,595;27612,455;    0,007;    0,682
725,166;27404,963;    0,007;   -0,409
725,737;27103,653;    1,734;    0,227
726,308;27181,525;   -0,266;    0,318
726,879;27625,851;   -1,630;    1,227
727,450;27476,995;    0,552;   -0,045
728,021;27440,503;    3,097;    0,682
728,592;27217,829;    0,734;    0,500
729,163;27558,610;    0,643;   -0,136
729,734;27566,754;    0,188;   -0,227
730,305;27926,625;    1,734;    0,136
730,876;28328,133;    0,188;    2,955
731,447;28033,460;    2,188;    2,682
732,017;28124,149;    1,097;    1,864
732,588;27543,203;    0,734;    1,227
733,159;27770,711;    0,643;   -1,045
733,729;27556,946;    0,006;    0,409
734,300;26859,726;    0,915;    0,864
734,870;27306,780;    3,461;    0,591
735,441;27813,106;    0,370;   -0,591
736,011;27603,432;    0,643;   -1,591
736,582;27512,576;   -0,812;    0,045
737,152;27000,902;   -1,721;   -2,045
737,722;27426,501;   -0,267;   -0,682
738,293;27162,918;   -1,358;    1,318
738,863;27024,426;    2,461;    2,318
739,433;26827,570;    5,279;    0,318
740,003;27493,351;   -0,994;   -0,682
740,573;26912,677;    2,097;   -1,591
741,143;26827,731;   -1,085;    0,318
741,713;27610,511;    1,188;   -0,500
742,283;27317,565;    0,915;    1,591
742,853;27054,891;    1,915;    1,591
743,423;26511,944;    1,733;    0,045
743,993;26690,816;   -0,358;    1,500
744,563;26085,324;    0,097;   -0,864
745,133;26044,832;   -0,812;   -0,864
745,702;26690,794;   -0,267;    1,773
746,272;25978,756;   -0,176;    0,591
746,842;25738,901;   -1,358;   -0,591
747,411;26146,045;   -0,267;   -0,318
747,981;26291,098;    0,097;    0,500
748,551;26310,515;    2,278;   -1,045
749,120;26149,932;    0,642;   -0,227
749,690;26531,259;   -0,631;    2,409
750,259;26887,676;    1,369;    2,955
750,828;26833,638;    1,551;   -1,955
751,398;27081,237;    1,278;   -0,045
751,967;26634,472;    2,187;    0,409
752,536;26815,344;   -0,813;   -0,227
753,105;27226,943;    0,096;    0,227
753,675;26980,905;    0,096;    1,773
754,244;26929,231;   -0,904;    3,591
754,813;26974,194;    0,551;    1,227
755,382;26573,247;    0,460;    0,955
755,951;27153,573;    1,551;    3,682
756,520;26699,899;   -0,085;    1,864
757,089;27293,225;    0,278;    0,500
757,658;27399,006;    1,733;    1,227
758,227;27329,332;    1,096;    0,318
758,795;27672,204;    1,187;    1,136
759,364;27914,166;   -0,086;   -0,591
759,933;26882,856;   -1,176;   -0,045
760,501;26413,364;    0,733;   -1,318
761,070;26903,417;   -2,813;   -1,409
761,639;27595,834;   -1,904;    1,318
762,207;26970,978;    1,551;   -0,955
762,776;26917,850;    0,369;    0,864
763,344;26887,358;   -0,995;    0,591
763,913;25945,139;   -0,722;    1,409
764,481;26658,101;    1,005;   -0,136
765,049;26426,427;   -1,358;    1,409
765,618;26308,390;   -0,086;    0,318
766,186;26376,079;    0,278;    0,136
766,754;26615,951;    0,005;    1,864
767,322;25613,004;   -1,995;    0,409
767,890;25678,512;   -0,722;   -1,773
768,459;26069,747;   -2,177;   -0,318
769,027;26209,437;    1,641;    3,409
769,595;25159,400;    3,278;    2,591
770,163;25607,817;    3,823;    2,955
770,730;25379,961;    0,732;   -0,136
771,298;25250,014;    0,187;   -1,409
771,866;25302,159;   -1,541;    4,955
772,434;25585,667;   -0,631;   -1,864
773,002;25791,538;    0,005;    0,682
773,569;25483,319;    0,914;    1,682
774,137;25267,372;   -0,268;   -0,045
774,705;26028,971;    0,278;   -0,136
775,272;25519,752;    0,641;    0,682
775,840;25288,260;   -0,177;    2,682
776,407;24861,222;    0,277;    1,955
776,975;24433,094;   -0,632;    0,318
777,542;25423,874;   -1,086;   -0,045
778,110;25254,018;   -1,268;   -0,045
778,677;24942,799;   -2,359;   -0,864
779,244;24669,216;    2,186;    1,045
779,812;24831,360;    1,823;    0,864
780,379;24707,323;    0,005;    1,136
780,946;24964,831;    1,005;   -0,773
781,513;25302,884;   -1,450;    0,318
782,080;24634,938;   -0,086;    2,864
782,647;25412,536;   -0,268;    3,045
783,214;24990,590;   -0,177;    3,864
783,781;24568,370;   -0,723;   -0,682
784,348;24409,242;   -0,632;    1,500
784,915;24871,841;   -3,177;    0,318
785,482;24655,167;    1,368;    2,591
786,049;25069,039;    0,186;   -0,591
786,615;25196,183;    0,277;   -0,955
787,182;24926,236;    0,186;   -0,682
787,749;24628,380;   -2,814;    1,409
788,315;23969,707;   -1,632;   -0,409
788,882;24259,305;    1,550;   -1,227
789,448;24977,177;    1,732;   -0,955
790,015;24981,958;    1,095;    3,227
790,581;24543,556;    1,459;    0,227
791,148;24447,246;    0,641;    1,045
791,714;24634,300;   -0,541;    3,136
792,280;24322,535;    0,186;    1,591
792,847;23853,406;    0,550;    2,500
793,413;24419,369;   -0,269;   -0,318
793,979;23996,695;    3,459;   -1,318
794,545;24047,930;    4,459;    2,682
795,111;23481,256;    2,186;    1,318
795,678;23646,946;    0,731;   -1,682
796,244;23308,636;    3,368;    0,136
796,810;23850,325;    1,731;    0,773
797,375;23555,833;    0,549;   -2,136
797,941;23618,069;   -0,541;    0,591
798,507;23726,940;   -0,451;   -0,955
799,073;23258,175;   -0,360;    0,591
799,639;23334,774;   -2,632;    3,136
800,205;23362,009;    0,095;    2,682
800,770;22930,426;    0,640;    1,773
801,336;23012,207;    1,368;   -0,955
801,901;22759,260;    4,549;    3,136
802,467;23248,314;   -0,542;    2,045
803,033;22561,276;   -0,087;    0,864
803,598;22818,602;    1,913;   -1,045
804,163;22838,110;    1,095;   -0,318
804,729;22835,073;   -0,178;    1,136
805,294;23182,672;    0,822;    2,227
805,859;22971,180;    0,731;   -0,409
806,425;22470,506;    1,186;    2,682
806,990;22105,650;    2,186;    4,318
807,555;22610,158;   -1,451;    2,591
808,120;22499,484;    0,822;   -0,409
808,685;22536,901;    0,185;   -2,500
809,250;22067,863;    0,004;   -0,500
809,815;22415,644;    1,913;    0,682
810,380;22931,425;   -0,269;    1,591
810,945;23491,387;   -1,087;    2,045
811,510;22608,804;    2,094;    1,591
812,075;22328,676;   -0,633;   -1,409
812,640;22362,547;    2,003;    1,409
813,204;22447,964;    0,822;   -0,227
813,769;22919,200;    2,094;   -0,045
814,334;22327,071;    0,458;    0,864
814,898;22382,397;    0,367;    0,591
815,463;22231,360;    1,276;   -0,773
816,027;22225,322;   -0,724;   -2,318
816,592;22225,467;    0,640;   -2,045
817,156;21774,247;    2,094;    1,136
817,721;21666,664;    4,276;    2,318
818,285;21637,808;    2,912;    1,500
818,849;22292,680;   -1,451;    1,682
819,414;22159,006;   -0,269;    2,955
819,978;21717,696;   -1,269;    1,773
820,542;22357,204;    2,003;    0,500
821,106;22022,166;   -0,815;    0,682
821,670;22129,311;   -0,815;    2,591
822,234;21808,546;   -0,270;    1,409
822,798;21172,417;    0,003;    0,500
823,362;21206,925;   -0,633;    4,227
823,926;20543,160;    0,094;    1,136
824,490;20765,396;   -0,997;   -0,682
825,054;21206,176;   -0,088;   -1,136
825,618;20836,139;   -1,542;   -1,500
826,181;20748,010;    0,458;   -1,318
826,745;20676,518;    1,367;   -1,045
827,309;21049,208;    1,185;    1,318
827,872;20437,807;    1,367;    0,955
828,436;21390,769;    1,185;   -0,773
828,999;21431,732;   -0,997;    1,227
829,563;20228,149;   -0,179;    1,136
830,126;20036,020;   -0,179;   -0,591
830,690;20102,165;   -1,997;    2,864
831,253;19579,036;   -0,543;    2,227
831,816;19750,544;   -1,906;    0,500
832,380;19692,143;    0,185;    0,864
832,943;19920,015;   -1,361;   -0,500
833,506;19398,432;    2,639;   -1,227
834,069;20213,576;    3,912;   -0,955
834,632;20270,993;    1,730;    1,318
835,195;20142,410;    1,003;    0,955
835,758;19321,736;   -0,997;    1,955
836,321;19195,698;    0,730;   -1,045
836,884;19271,479;   -0,725;   -0,955
837,447;19272,532;   -2,816;    1,773
838,010;19594,949;    0,366;    3,227
838,573;19893,821;   -1,179;    0,773
839,135;19824,420;   -1,361;   -0,955
839,698;19267,382;    1,275;    0,409
840,261;18815,254;    1,003;   -0,227
840,823;18651,580;   -0,543;    0,864
841,386;18977,997;   -0,452;   -2,409
841,948;18864,505;   -1,361;    1,773
842,511;18541,558;    0,912;    1,682
843,073;18709,430;    1,912;    0,227
843,636;18490,483;   -0,361;   -0,227
844,198;18474,173;    0,911;    0,591
844,760;18585,681;    1,093;    1,955
845,322;18235,825;    0,548;    1,136
845,885;18680,333;    0,730;    0,591
846,447;19082,114;   -1,998;    0,227
847,009;18722,985;    1,911;   -0,682
847,571;19045,493;    0,820;   -2,045
848,133;19096,910;   -1,089;   -1,864
848,695;18869,146;   -0,543;    1,409
849,257;18461,563;   -1,089;   -1,682
849,819;18610,889;   -0,998;   -0,409
850,381;18668,306;   -0,725;   -0,864
850,942;19028,450;    1,093;   -0,591
851,504;19020,231;    1,184;    0,227
852,066;19056,466;    1,275;   -1,591
852,628;18571,246;   -0,180;    1,955
853,189;18112,118;    1,638;    2,682
853,751;18232,171;   -0,907;    1,409
854,312;17995,952;   -0,453;   -1,682
854,874;18513,369;   -2,089;   -0,773
855,435;19035,968;   -0,907;   -1,682
855,997;19232,749;   -1,816;   -0,136
856,558;18529,893;    0,366;    1,773
857,119;18604,310;    0,820;    2,864
857,681;18284,454;    0,002;    0,318
858,242;18322,326;    1,911;   -2,136
858,803;18766,379;    0,456;   -0,773
859,364;19341,342;    0,184;   -4,773
859,925;18686,486;   -2,453;   -0,955
860,486;18568,903;   -0,453;   -0,955
861,047;18261,229;   -0,544;   -1,227
861,608;18144,919;   -1,089;   -0,773
862,169;18244,790;    0,638;   -0,045
862,730;18019,207;    0,456;    1,409
863,291;18277,533;   -0,635;   -0,500
863,852;18643,132;   -0,635;    1,955
864,412;18082,640;   -0,271;   -0,864
864,973;16662,784;   -0,089;    0,500
865,534;16533,747;   -1,726;    0,227
866,094;18028,800;    1,820;    0,227
866,655;17694,490;    1,274;    3,318
867,215;17957,271;    0,274;    0,136
867,776;17755,506;    0,547;   -0,136
868,336;17875,650;   -1,453;    0,136
868,897;17382,431;    2,638;    1,682
869,457;17117,757;    1,365;    0,318
870,017;17365,719;    0,547;   -1,227
870,578;17899,318;   -0,817;    0,773
871,138;17570,281;   -2,089;   -0,955
871,698;17113,152;   -0,817;   -1,318
872,258;16996,933;   -0,453;   -2,864
872,818;17388,350;    2,729;    0,045
873,378;17325,676;    0,638;    1,045
873,938;16847,457;    0,547;    0,500
874,498;17158,783;    0,274;   -1,955
875,058;17078,473;    2,183;    1,773
875,618;16909,071;    1,910;   -2,682
876,177;16843,579;    1,274;    0,136
876,737;16450,087;   -0,090;    1,955
877,297;16510,686;    0,183;    1,955
877,856;16506,649;   -0,362;    0,318
878,416;16457,793;    1,183;   -0,136
878,976;16643,574;   -1,817;    0,409
879,535;16807,263;    0,092;    3,136
880,095;16575,862;   -0,544;    0,045
880,654;16702,188;   -1,090;    1,318
881,213;16831,696;    2,456;    1,500
881,773;16478,477;    2,637;    2,682
882,332;16861,348;    3,365;    5,136
882,891;16671,038;    3,092;    2,136
883,451;17141,273;   -1,272;    1,682
884,010;16522,145;   -2,908;   -0,409
884,569;16632,653;   -0,999;   -0,045
885,128;16759,797;    2,819;   -1,864
885,687;16866,487;    4,455;    0,682
886,246;16580,267;    1,455;    2,136
886,805;16377,684;    2,455;    2,045
887,364;16625,556;   -0,999;   -0,500
887,922;16983,518;   -1,181;    0,045
888,481;16502,663;   -1,545;    0,591
889,040;16821,353;    1,183;    2,136
889,599;17481,770;    2,455;    1,409
890,157;17549,641;    1,455;    2,409
890,716;17207,422;   -0,090;    0,227
891,274;17028,748;    0,092;   -1,136
891,833;17485,892;    1,546;    0,864
892,391;17329,218;   -0,454;    0,500
892,950;17428,999;    1,819;   -0,773
893,508;17752,234;    0,455;   -0,409
894,067;17059,560;    0,637;    0,136
894,625;17010,795;   -0,636;   -1,500
895,183;17228,394;   -0,363;   -0,682
895,741;17124,266;    1,728;   -1,773
896,299;16968,683;   -0,545;   -2,409
896,858;17142,463;    0,819;   -1,591
897,416;17278,790;    2,728;   -1,318
897,974;17019,025;    1,819;    0,318
898,532;17200,169;    6,091;    2,682
899,089;17085,222;    2,091;   -0,682
899,647;17125,912;   -1,454;    1,318
900,205;16804,238;    1,182;    1,045
900,763;17016,019;   -0,454;    0,227
901,321;17023,163;    2,364;   -1,409
901,878;16432,671;   -1,000;   -0,773
902,436;16351,634;   -1,363;    1,318
902,994;16738,687;    4,728;    3,682
903,551;16155,740;    0,728;    0,409
904,109;16532,248;    0,182;   -1,409
904,666;16152,938;    2,455;    1,045
905,224;15935,446;    0,182;   -0,409
905,781;15691,499;    0,727;   -0,318
906,338;15753,916;   -1,363;    1,045
906,895;15684,606;    0,637;    2,045
907,453;15641,750;    1,727;    1,136
908,010;15674,895;   -0,909;    0,409
908,567;15346,039;    1,273;    0,591
909,124;14797,729;    0,364;   -1,500
909,681;14909,418;   -2,909;    0,682
910,238;15062,654;    0,636;   -1,318
910,795;15354,525;   -0,273;   -1,136
911,352;14998,616;   -2,909;   -2,682
911,909;14437,343;   -1,364;   -0,864
912,466;14946,343;   -3,182;    1,500
913,022;14486,616;   -1,636;    0,500
913,579;14827,162;   -0,909;    2,045
914,136;14523,889;    1,636;    0,955
914,692;14851,525;    0,091;   -1,227
915,249;14445,071;    1,455;    0,409
915,806;14685,253;    0,182;    1,955
916,362;14459,980;    1,909;    1,864
916,918;14021,707;    2,000;    1,045
917,475;14008,071;   -1,182;    0,955
918,031;14045,798;    3,364;   -0,045
918,587;13492,343;   -0,909;   -0,318
919,144;13712,162;   -2,273;    0,227
919,700;14058,889;    1,727;    0,773
920,256;13594,980;    0,727;    0,045
920,812;13209,253;   -0,727;   -1,045
921,368;13243,253;   -1,727;   -1,045
921,924;12859,525;    0,182;   -0,136
922,480;12459,798;   -0,545;    1,227
923,036;13049,071;    1,273;    1,955
923,592;13037,889;    0,455;    0,318
924,148;12960,071;    0,455;   -0,955
924,704;12244,889;   -1,364;   -0,409
925,259;12500,071;   -0,273;    0,591
925,815;12253,162;    1,455;    0,500
926,371;11762,889;    2,909;    1,409
926,926;11673,253;    2,091;    0,591
927,482;11345,525;   -1,364;    0,773
928,037;11184,889;    0,909;    2,045
928,593;11514,253;    1,636;    1,045
929,148;11303,525;   -1,818;   -1,500
929,704;10825,525;   -1,455;   -0,500
930,259;11041,525;    0,091;   -0,136
930,814;10075,343;   -0,818;    1,955
931,369; 9770,525;    1,091;   -0,773
931,925; 9641,707;   -0,091;    0,136
932,480; 9519,434;   -2,818;   -2,591
933,035; 9440,162;    0,545;   -0,318
933,590; 9214,525;    0,364;   -1,773
934,145; 8828,253;   -1,364;   -0,318
934,700; 9170,980;    0,455;   -0,591
935,255; 8980,071;   -0,091;    0,045
935,809; 8283,071;    3,182;    0,864
936,364; 7391,616;   -0,455;   -0,136
936,919; 7382,525;    0,455;   -1,773
937,474; 7274,162;    1,455;    0,136
938,028; 7033,071;   -1,636;    1,136
938,583; 6528,071;    1,818;    4,682
939,138; 6774,343;    2,091;    2,136
939,692; 6208,980;    1,636;   -1,136
940,247; 5928,616;   -0,727;   -1,045
940,801; 5509,343;   -0,636;    0,227
941,355; 5389,980;   -0,364;    2,591
941,910; 5038,616;   -0,273;   -2,136
942,464; 5143,707;   -0,818;   -0,318
943,018; 4939,343;    1,000;   -0,227
943,572; 4911,253;    2,545;   -0,682
944,126; 4325,253;    0,091;   -0,409
944,681; 4218,253;    3,091;    0,227
945,235; 4210,162;    1,000;   -0,591
945,789; 4138,434;    0,364;   -1,864
946,342; 4244,980;    0,455;   -0,591
946,896; 4048,980;   -2,273;    0,955
947,450; 3800,343;    1,545;   -0,227
948,004; 4017,980;    1,727;   -0,045
948,558; 3987,162;    0,273;   -0,864
949,111; 3920,707;   -0,273;   -0,318
949,665; 3971,616;    1,636;   -0,682
950,219; 3845,525;   -0,091;   -1,045
950,772; 3919,253;   -1,909;    1,864
951,326; 3805,162;    0,545;   -0,955
951,879; 3923,889;    0,727;   -2,318
952,433; 3939,434;    0,000;    2,227
952,986; 3753,798;    2,909;    0,682
953,539; 3738,798;   -0,273;    0,591
954,093; 3658,343;    0,545;   -1,318
954,646; 3806,525;    0,909;    1,318
955,199; 3605,071;    0,000;   -0,500
955,752; 3511,525;   -0,455;    1,773
956,305; 3451,980;   -0,091;    2,955
956,858; 3653,616;    0,818;   -0,318
957,411; 3807,980;   -0,545;    2,136
957,964; 3617,434;    1,364;    2,136
958,517; 3610,889;   -1,545;    3,136
959,070; 3439,253;   -0,455;    1,955
959,623; 3537,616;    1,091;    1,500
960,176; 3316,798;    1,727;    2,045
960,728; 3281,616;   -2,727;    0,773
961,281; 3321,071;    0,545;    0,500
961,834; 3354,889;   -0,909;    0,864
962,386; 3289,889;    1,727;    1,045
962,939; 3232,071;    0,364;   -0,318
963,491; 3365,434;    0,455;    1,136
964,043; 3232,253;    1,182;    2,409
964,596; 3353,162;   -1,000;    2,227
965,148; 3200,253;   -1,000;    1,773
965,700; 3113,434;    1,091;   -0,227
966,253; 3256,889;   -0,636;    0,318
966,805; 3093,525;   -2,273;    0,773
967,357; 3148,798;    1,091;   -1,500
967,909; 3127,343;    0,455;   -1,227
968,461; 3211,980;    0,545;    3,136
969,013; 3141,707;   -0,182;   -0,864
969,565; 3228,707;   -0,455;   -1,136
970,117; 3305,798;   -0,364;    1,045
970,669; 3143,343;    0,182;   -0,136
971,220; 2993,616;   -0,455;   -1,500
971,772; 2929,980;   -0,636;   -0,318
972,324; 3039,253;    0,091;   -0,500
972,876; 2976,889;    0,818;   -0,045
973,427; 3140,525;    1,909;   -1,045
973,979; 3088,434;   -0,727;   -2,500
974,530; 3121,616;    1,818;    1,318
975,082; 3134,616;   -0,545;    1,682
975,633; 3025,980;    1,091;    1,682
976,184; 3162,162;    0,909;    0,773
976,736; 2966,889;    0,091;    0,227
977,287; 2765,162;   -0,909;   -0,500
977,838; 2920,343;    0,909;   -0,318
978,389; 3013,253;   -1,000;   -0,500
978,940; 2872,707;    0,545;   -0,409
979,491; 2892,162;    0,091;   -0,500
980,042; 2875,889;    0,182;    3,045
980,593; 2936,525;   -2,545;    0,227
981,144; 2968,343;    2,545;   -0,500
981,695; 2936,616;    1,455;    1,500
982,246; 2908,434;   -0,273;    1,045
982,797; 3053,162;   -1,727;    0,682
983,347; 3166,798;    0,364;    0,591
983,898; 3344,253;    3,091;    0,409
984,449; 3158,525;    2,182;    0,773
984,999; 3055,525;    1,455;   -1,136
985,550; 2837,071;    0,182;   -0,318
986,100; 2854,162;   -0,455;   -0,318
986,651; 2862,343;   -0,818;    0,045
987,201; 2868,980;   -1,000;   -0,591
987,751; 2941,798;    0,818;    2,864
988,302; 2955,434;    2,636;    1,500
988,852; 2972,616;    0,455;   -1,136
989,402; 3004,980;    0,091;    0,682
989,952; 2929,798;   -2,182;    0,864
990,502; 3023,616;   -0,091;    0,682
991,052; 2997,616;   -0,727;    0,045
991,602; 2872,253;   -2,909;    1,318
992,152; 2849,525;    0,455;    0,682
992,702; 2836,616;    1,364;   -0,045
993,252; 2754,525;   -3,000;   -0,500
993,802; 2871,980;   -0,273;    1,318
994,352; 3085,343;   -1,545;    1,136
994,901; 3160,980;   -0,182;    3,227
995,451; 3086,980;   -0,182;    0,318
996,000; 3152,616;    1,636;    0,318
996,550; 2859,889;    2,273;    0,227
997,100; 2878,162;    1,273;   -0,045
997,649; 3173,980;    2,182;    0,955
998,198; 2784,162;    1,727;   -1,500
998,748; 2999,343;    1,091;   -2,318
999,297; 2903,525;   -0,818;   -0,409
999,846; 2972,343;    1,000;   -0,773
1000,395; 3021,253;   -0,818;    0,500
1000,945; 2965,707;    1,818;   -0,773
1001,494; 3054,343;    2,364;    0,682
1002,043; 3038,707;    4,636;    0,864
1002,592; 2880,253;   -1,091;    1,955
1003,141; 3021,071;   -0,455;   -0,682
1003,690; 2874,253;    1,727;    0,500
1004,238; 2951,616;    1,455;   -0,045
1004,787; 2600,980;    1,364;    1,227
1005,336; 2845,253;    0,364;    0,682
1005,885; 2979,980;    1,364;   -2,773
1006,433; 3094,071;    0,545;    0,955
1006,982; 3174,162;    0,455;    1,682
1007,531; 3085,798;   -1,818;   -0,227
1008,079; 3030,253;   -2,273;    0,500
1008,627; 3164,071;   -1,455;    0,409
1009,176; 2906,525;    0,000;   -1,955
1009,724; 2942,525;    1,091;    0,864
1010,273; 3029,980;    1,273;    0,500
1010,821; 3117,707;    0,091;    1,409
1011,369; 2873,162;   -1,364;    1,318
1011,917; 2859,980;   -1,364;   -0,591
1012,465; 3105,343;    1,273;   -1,591
1013,013; 3216,253;    2,091;   -1,682
1013,561; 3104,616;    0,455;   -0,773
1014,109; 3169,980;   -1,909;    1,682
1014,657; 3038,616;    0,364;    0,591
1015,205; 3152,253;    1,636;   -0,955
1015,753; 3181,616;   -0,545;   -1,409
1016,301; 3231,253;   -2,636;    3,045
1016,848; 3222,253;   -1,273;    0,409
1017,396; 3282,707;    2,545;    0,045
1017,944; 3386,162;    1,182;    1,864
1018,491; 3146,434;    0,273;    1,409
1019,039; 3301,707;    0,455;    0,591
1019,586; 3201,889;   -1,364;    1,682
1020,134; 3309,162;    0,455;    1,500
1020,681; 3323,798;    0,182;   -1,136
1021,228; 3320,889;    2,909;   -2,227
1021,776; 3150,707;    1,182;   -1,136
1022,323; 3391,525;    0,455;    0,773
1022,870; 3309,889;   -1,000;   -0,045
1023,417; 3203,162;    2,636;    1,864
1023,964; 3347,889;    2,636;    1,227
1024,511; 3194,253;    1,000;    0,773
1025,058; 2978,525;    3,182;   -0,045
1025,605; 3032,525;   -2,273;    3,136
1026,152; 3278,434;    1,727;   -0,591
1026,699; 2996,162;    1,818;    1,318
1027,245; 3168,980;   -0,091;    0,318
1027,792; 3361,162;   -1,000;    1,409
1028,339; 3271,253;    2,364;   -0,045
1028,885; 3103,525;    1,000;   -0,227
1029,432; 3042,525;   -0,091;    0,227
1029,978; 3108,707;   -1,000;   -1,591
1030,525; 3018,343;    1,000;    0,409
1031,071; 3247,525;   -1,364;    1,136
1031,618; 3362,889;    0,364;    1,682
1032,164; 3144,616;   -0,091;    3,045
1032,710; 3194,707;    1,636;   -1,500
1033,256; 3096,980;   -0,636;   -0,136
1033,803; 3073,525;   -0,545;    1,500
1034,349; 2783,616;   -1,364;    0,136
1034,895; 2935,798;    0,000;   -0,318
1035,441; 2935,798;   -0,818;    0,318
1035,987; 2954,253;   -2,364;   -0,682
1036,533; 2939,798;   -1,455;   -0,955
1037,078; 3134,162;    1,455;    1,682
1037,624; 2946,616;    2,455;   -0,955
1038,170; 2979,525;    0,455;   -0,318
1038,716; 2901,343;    1,636;   -0,409
1039,261; 2797,798;   -2,273;   -0,773
1039,807; 2726,889;   -0,091;    3,409
1040,352; 2805,162;   -1,909;   -0,318
1040,898; 2838,253;   -1,545;   -0,682
1041,443; 2745,707;   -1,455;   -2,591
1041,989; 2792,707;    1,091;    1,591
1042,534; 2662,071;   -0,364;    2,591
1043,079; 2764,071;    2,909;    0,955
1043,625; 2572,980;    1,818;    0,500
1044,170; 2619,707;   -1,364;    1,045
1044,715; 2881,798;    2,455;    0,955
1045,260; 2697,889;    2,182;   -0,955
1045,805; 2709,889;    1,182;   -0,591
1046,350; 2646,162;    1,364;   -0,409
1046,895; 2619,071;    2,909;    1,591
1047,440; 2577,071;    5,364;    0,409
1047,985; 2462,525;    2,818;   -0,955
1048,530; 2387,162;    1,545;    1,227
1049,074; 2465,071;    0,000;    0,318
1049,619; 2440,434;   -1,364;    1,955
1050,164; 2226,889;    0,455;    0,227
1050,708; 2270,071;   -0,455;    0,045
1051,253; 2651,162;    1,273;   -2,227
1051,797; 2354,343;    0,818;   -1,318
1052,342; 2370,525;   -1,182;    1,045
1052,886; 2382,707;    0,364;   -1,409
1053,430; 2239,162;   -1,364;    0,136
1053,975; 2271,798;   -0,818;   -0,318
1054,519; 2241,343;   -0,727;    3,227
1055,063; 2264,707;    0,909;    1,318
1055,607; 2143,798;   -0,182;    0,227
1056,151; 2166,798;    2,909;    1,682
1056,695; 2071,071;    2,273;   -1,136
1057,239; 2148,798;   -1,727;   -0,682
1057,783; 2177,707;    0,818;   -1,500
1058,327; 2123,434;    0,000;    1,409
1058,871; 2352,707;   -0,545;    1,318
1059,415; 2051,071;   -0,818;   -0,045
1059,958; 2335,071;    1,455;    2,591
1060,502; 2038,343;   -1,000;   -0,773
1061,046; 1929,616;    0,364;   -0,955
1061,589; 1898,616;   -3,000;   -1,136
1062,133; 1777,162;   -1,273;    1,864
1062,676; 1732,071;    1,182;    0,864
1063,220; 1750,253;    1,091;    0,500
1063,763; 1764,525;    0,909;    1,136
1064,306; 1856,343;   -0,909;    1,864
1064,849; 1746,616;   -0,909;    0,591
1065,393; 1747,343;    2,000;   -1,500
1065,936; 1868,343;    0,182;   -0,409
1066,479; 1752,343;   -1,455;    1,318
1067,022; 1756,707;   -0,273;   -0,227
1067,565; 1656,798;   -0,091;   -1,318
1068,108; 1686,616;    0,727;   -0,591
1068,651; 1654,798;   -0,636;    1,409
1069,194; 1579,162;   -0,455;   -1,682
1069,736; 1589,798;   -1,273;    0,955
1070,279; 1557,162;   -1,364;   -0,500
1070,822; 1616,707;   -2,000;   -0,318
1071,364; 1735,434;   -0,364;    1,318
1071,907; 1531,889;   -0,727;    3,227
1072,450; 1420,162;    0,000;   -0,045
1072,992; 1413,798;   -0,273;    3,136
1073,535; 1567,889;    2,091;    2,136
1074,077; 1357,889;   -0,727;    2,045
1074,619; 1335,616;   -1,364;    0,591
1075,161; 1377,525;   -1,091;    1,500
1075,704; 1555,253;    1,545;    1,227
1076,246; 1334,798;   -0,182;    0,682
1076,788; 1262,707;   -0,364;    1,773
1077,330; 1336,162;    1,273;    2,136
1077,872; 1324,616;    0,909;    0,955
1078,414; 1549,616;    2,727;    0,773
1078,956; 1268,616;    1,273;   -0,227
1079,498; 1553,707;    1,636;    0,318
1080,040; 1263,343;    1,909;   -1,318
1080,581; 1197,434;    1,636;   -0,318
1081,123; 1099,071;    0,091;   -0,773
1081,665; 1160,525;   -1,182;   -0,955
1082,206; 1472,434;    1,364;   -0,500
1082,748; 1316,343;    0,727;    2,045
1083,289; 1193,162;   -2,000;    1,318
1083,831; 1100,071;   -0,545;    0,227
1084,372; 1149,343;    0,000;    0,591
1084,913; 1157,253;    1,091;    0,864
1085,455; 1100,798;   -1,909;   -2,045
1085,996; 1076,343;   -2,273;    0,136
1086,537; 1103,162;   -0,091;    0,864
1087,078; 1122,434;   -0,909;   -2,136
1087,619; 1189,253;   -1,273;    0,227
1088,160; 1095,162;    0,000;    1,318
1088,701; 1077,253;   -1,091;    0,682
1089,242; 1014,707;    1,364;   -2,227
1089,783; 1121,980;   -0,273;    1,409
1090,324; 1081,798;    0,455;    0,682
1090,865;  960,798;    2,727;   -0,409
1091,405;  916,889;    0,727;    2,227
1091,946;  952,980;    0,182;   -0,955
1092,487;  868,798;    0,818;   -1,409
1093,027; 1059,071;   -1,364;   -1,500
1093,568;  910,434;   -0,364;    1,227
1094,108; 1017,616;    0,273;    1,773
1094,649;  940,253;   -1,182;    0,136
1095,189;  864,525;   -0,636;   -0,682
1095,729;  820,343;   -0,091;    0,955
1096,269;  825,343;    0,727;   -0,955
1096,810; 1167,343;   -1,364;    0,500
1097,350;  979,162;    1,364;   -0,773
1097,890;  881,980;    0,364;    1,227
1098,430; 1141,889;    2,364;    2,864
1098,970; 1011,253;    2,182;    1,682
1099,510;  853,616;    0,545;   -2,318
1100,050;  792,434;    1,000;   -1,591
1100,589;  765,707;   -0,727;   -0,318
1101,129;  891,343;    0,818;   -0,955
1101,669; 1051,525;    1,727;    2,136
1102,209;  866,707;   -0,091;    2,227
1102,748;  819,889;    0,000;    0,955
1103,288;  812,616;    1,273;   -1,227
1103,827;  844,253;    3,091;   -2,227
1104,367;  715,253;   -0,091;   -2,409
1104,906;  687,253;    1,364;   -1,136
1105,445;  762,525;    0,636;   -1,136
1105,985;  698,889;   -0,727;    1,500
1106,524;  744,071;   -1,727;   -0,682
1107,063;  721,798;   -2,727;    1,409
1107,602;  693,616;   -1,909;   -1,500
1108,141;  622,889;   -1,909;    1,500
1108,680;  737,071;   -3,455;   -0,591
1109,219;  646,616;   -0,909;   -0,500
1109,758;  662,980;    0,455;    0,682
1110,297;  628,343;    1,000;   -0,682
1110,836;  575,616;   -0,727;    0,955
1111,375;  751,071;   -2,545;    0,409
1111,913;  759,980;   -1,000;    0,773
1112,452;  694,798;   -0,273;    0,136
1112,991;  574,162;    1,091;    1,955
1113,529;  532,253;   -0,818;   -0,045
1114,068;  593,253;   -0,273;    2,955
1114,606;  501,253;   -0,364;   -0,955
1115,144;  673,162;   -1,273;    1,045
1115,683;  609,707;   -0,727;    0,318
1116,221;  650,889;   -0,455;   -0,864
1116,759;  556,071;    0,636;   -0,864
1117,297;  775,071;    0,000;    1,864
1117,836;  568,616;   -2,182;   -1,227
1118,374;  587,343;    0,182;   -0,682
1118,912;  514,162;    0,909;    2,682
1119,450;  507,707;    1,000;    0,864
1119,988;  567,071;    1,545;    2,136
1120,525; 1023,889;    5,091;    3,318
1121,063;  713,707;    1,182;    1,864
1121,601;  520,253;   -0,909;   -1,227
1122,139;  475,980;   -0,727;   -2,045
1122,676;  681,434;   -0,727;    2,773
1123,214;  613,071;   -1,182;    4,409
1123,751;  415,343;    1,727;    2,227
1124,289;  554,616;   -0,091;   -0,409
1124,826;  418,889;    1,727;    0,227
1125,364;  343,071;    1,727;   -0,955
1125,901;  537,343;    1,182;    1,227
1126,438;  652,343;    0,818;    0,955
1126,975;  376,798;   -0,727;   -0,773
1127,513;  454,889;    0,273;    2,136
1128,050;  346,798;    1,636;   -0,682
1128,587;  447,707;    2,000;   -0,227
1129,124;  493,889;    0,091;    1,318
1129,661;  348,162;    0,273;    0,227
1130,198;  525,889;    1,636;    0,773
1130,734;  478,616;    0,182;    1,409
1131,271;  322,889;   -0,909;    0,864
1131,808;  500,162;    2,909;    3,045
1132,345;  371,889;    1,545;    0,318
1132,881;  241,889;   -1,545;   -1,864
1133,418;  393,162;    0,727;   -1,136
1133,954;  318,707;    2,455;   -2,682
1134,491;  400,616;    1,364;   -0,773
1135,027;  286,525;    2,364;    0,864
1135,564;  385,162;    0,273;    2,955
1136,100;  367,434;    0,364;    2,136
1136,636;  258,707;   -1,273;   -1,045
1137,172;  352,798;    0,000;   -1,045
1137,708;  278,253;   -1,364;   -1,045
1138,245;  279,889;    1,273;   -1,227
1138,781;  222,525;    1,091;   -3,318
1139,317;  296,798;    1,273;   -1,409
1139,852;  285,889;    3,091;    0,136
1140,388;  412,980;   -1,182;   -0,409
1140,924;  296,434;   -1,091;   -2,227
1141,460;  226,798;   -1,636;    0,136
1141,996;  155,525;   -1,364;    2,682
1142,531;  209,071;    1,364;    3,318
1143,067;  433,889;    1,182;    1,045
1143,602;  490,616;   -0,091;   -0,318
1144,138;  329,525;   -2,636;    1,045
1144,673;  192,616;   -1,455;    1,409
1145,209;  268,707;   -1,909;   -0,318
1145,744;  181,162;   -0,727;    0,864
1146,279;  320,525;    1,818;   -0,136
1146,815;  235,253;    1,545;   -2,682
1147,350;  284,707;   -1,364;    0,045
1147,885;  178,798;   -0,818;   -1,318
1148,420;  176,798;   -2,273;    0,773
1148,955;  163,889;   -1,727;    1,864
1149,490;  199,071;   -0,909;   -1,591
1150,025;  179,525;    0,455;   -1,773
1150,560;  291,253;    1,091;   -0,955
1151,094;  263,434;    1,455;   -0,591
1151,629;  264,616;    1,636;    0,864
1152,164;  187,980;    1,364;    1,318
1152,698;  144,889;   -0,182;   -0,136
1153,233;   97,525;    0,091;   -0,682
1153,767;  157,253;   -3,000;   -2,318
1154,302;  199,798;   -1,455;    1,773
1154,836;  195,889;   -0,455;   -2,136
1155,371;  266,798;   -1,364;    3,682
1155,905;  204,434;   -0,636;    1,682
1156,439;  164,980;   -0,636;   -0,500
1156,973;  204,889;    0,364;    0,318
1157,507;  141,071;   -0,364;    0,682
1158,042;  168,798;   -0,727;    1,045
1158,576;  225,616;    0,182;    1,773
1159,110;  217,525;   -0,818;    2,409
1159,643;  189,343;    0,636;   -0,045
1160,177;  123,889;   -1,545;    1,500

