
Integration time [ms]:   0,040
Averaging Nr. [scans]: 11
Smoothing Nr. [pixels]: 0
Data measured with spectrometer [name]: 7318044SP
Wave   ;Sample   ;Dark     ;Reference
[nm]   ;[counts] ;[counts] ;[counts] 

186,757;   18,042;   31,551;    1,318
187,357;   63,165;   22,551;    0,955
187,958;   25,420;   15,460;   -1,591
188,558;   77,490;    8,915;   -1,227
189,159;   45,448;    6,733;   -4,500
189,759;    9,141;    7,278;   -3,591
190,360;    5,693;    2,824;   -2,136
190,960;   60,180;    2,915;   -4,136
191,560;   65,249;    3,189;   -6,591
192,161;  328,874;    4,372;   -3,500
192,761;  168,689;    4,010;   -3,227
193,361;  107,657;    1,556;   -3,773
193,962;  160,691;    2,010;   -2,682
194,562;   72,484;    1,189;   -3,955
195,162;  105,089;   -2,448;   -2,227
195,762;  278,407;   -3,176;   -0,045
196,362;  214,175;    1,370;   -2,500
196,963;   75,626;    2,006;   -0,864
197,563;  161,857;    1,551;   -0,955
198,163;  102,732;    0,096;   -0,682
198,763;  120,616;    1,733;   -0,500
199,363;  213,958;    3,096;   -0,500
199,963;  172,519;    0,369;    0,409
200,563;  149,321;    2,823;   -1,409
201,163;  127,588;    3,277;   -0,227
201,763;  224,026;    3,732;    0,318
202,363;  152,933;    1,459;    1,500
202,963;  270,322;    1,459;    1,045
203,563;  375,044;    0,277;    0,500
204,162;  213,148;    2,096;   -1,864
204,762;  202,746;    0,550;    0,591
205,362;  171,658;    3,004;    1,955
205,962;  270,857;    3,096;    1,955
206,562;  267,205;    1,823;    2,318
207,161;  231,570;   -0,087;    0,318
207,761;  395,509;    1,277;    2,409
208,361;  265,701;   -0,268;    1,409
208,960;  366,069;    0,459;    1,500
209,560;  433,302;    1,277;    1,591
210,160;  417,982;    0,550;    1,864
210,759;  369,617;    4,186;    1,227
211,359;  385,079;    1,459;    1,045
211,958;  645,901;    1,277;    2,045
212,558;  738,154;    1,732;    1,864
213,157;  560,652;    1,822;    1,500
213,757; 1004,281;    3,822;   -0,227
214,356;  701,531;    1,277;   -0,409
214,956; 1031,131;    3,095;    0,409
215,555;  656,115;    2,095;    2,136
216,154;  591,874;   -2,723;   -0,591
216,754;  595,413;    0,277;    0,773
217,353;  728,039;   -0,268;   -1,045
217,952;  578,245;   -0,178;    0,318
218,552;  819,157;    1,368;   -0,773
219,151;  701,047;    0,277;    0,955
219,750;  697,173;    0,004;   -0,227
220,349;  811,597;   -0,451;    1,045
220,948;  900,462;   -1,360;    1,136
221,548;  880,955;    0,913;    1,227
222,147;  991,243;   -0,087;   -0,409
222,746; 1285,270;   -0,451;   -0,955
223,345; 1138,378;    0,731;    0,500
223,944; 1143,828;   -0,451;    0,773
224,543; 1284,876;    1,004;   -1,409
225,142; 1402,322;    0,094;    0,136
225,741; 1289,184;   -0,814;    1,045
226,340; 1311,959;   -0,451;   -0,955
226,939; 1728,691;   -0,996;   -0,136
227,538; 1631,296;   -0,360;   -0,773
228,137; 1811,542;   -0,814;    0,864
228,735; 1888,993;   -0,541;    1,227
229,334; 1637,532;   -0,905;   -0,227
229,933; 2012,056;    0,459;    0,591
230,532; 2112,834;    1,186;   -0,409
231,131; 2152,112;    1,732;    0,318
231,729; 2227,676;   -2,450;   -2,318
232,328; 2279,543;   -0,723;   -1,500
232,927; 2305,606;    1,004;   -0,500
233,525; 2399,322;    3,640;    0,045
234,124; 2594,075;    2,368;   -1,591
234,723; 2559,557;    0,913;   -1,045
235,321; 2678,124;    2,277;    0,136
235,920; 2868,133;    1,186;   -1,227
236,518; 3119,064;    3,459;    0,318
237,117; 3207,655;    0,004;   -0,227
237,715; 3366,504;    0,640;   -0,500
238,314; 3404,662;   -0,087;   -2,318
238,912; 3533,966;   -0,723;   -1,409
239,510; 3547,953;    0,459;   -1,227
240,109; 3708,429;    0,004;    3,773
240,707; 3726,505;   -0,996;    1,227
241,305; 4048,378;    0,550;    0,136
241,904; 4281,469;   -0,178;   -2,045
242,502; 4292,842;   -0,632;   -0,227
243,100; 4214,224;   -0,087;   -0,955
243,698; 4486,074;    0,732;    1,682
244,297; 4670,172;   -0,632;    0,682
244,895; 4534,390;   -0,269;   -2,318
245,493; 4869,756;    2,186;   -0,591
246,091; 4900,074;    1,368;   -1,318
246,689; 4893,253;    1,004;    0,591
247,287; 5064,400;    0,822;   -1,136
247,885; 5365,285;   -1,451;    1,227
248,483; 5461,274;    1,822;   -0,500
249,081; 5607,317;    0,185;    1,591
249,679; 5796,244;   -0,178;    1,682
250,277; 6064,807;   -1,723;    0,864
250,875; 6070,137;   -1,087;   -1,045
251,473; 6081,598;   -1,178;    0,500
252,071; 6340,093;    1,459;    1,045
252,669; 6485,556;   -1,814;    0,318
253,267; 6727,760;   -0,087;    0,773
253,864; 6687,491;   -0,360;    0,682
254,462; 6605,366;    1,640;    1,591
255,060; 6566,076;   -0,269;    1,318
255,658; 6894,556;    0,822;   -0,136
256,255; 7330,578;    0,186;   -2,045
256,853; 7186,285;   -0,269;    1,409
257,451; 7195,749;    0,822;    1,864
258,048; 7494,369;    1,822;    1,864
258,646; 7257,362;    1,731;   -1,045
259,243; 7460,376;   -0,087;    2,227
259,841; 7498,437;   -0,814;    0,318
260,438; 7406,711;   -0,087;    0,864
261,036; 8078,661;   -1,905;    1,409
261,633; 7985,290;   -0,087;    2,227
262,231; 7732,759;    2,731;   -0,045
262,828; 7806,092;   -0,905;    1,136
263,425; 7903,635;    0,913;   -0,591
264,023; 8199,167;    0,186;    0,045
264,620; 7737,356;   -0,360;   -0,318
265,217; 8092,195;   -2,087;    3,136
265,815; 8190,855;   -1,905;    2,136
266,412; 7992,838;    0,731;    0,136
267,009; 8068,200;   -1,451;    0,773
267,606; 7962,453;    0,822;   -0,955
268,203; 7911,615;   -0,269;   -0,591
268,801; 8229,947;    1,731;    0,591
269,398; 8497,053;   -0,360;    2,500
269,995; 8503,547;    0,277;    1,591
270,592; 8261,018;   -0,632;   -0,500
271,189; 8443,812;    0,186;    0,409
271,786; 8550,124;   -0,632;    1,227
272,383; 8431,577;   -1,087;    0,227
272,980; 8587,812;    0,277;    0,318
273,577; 9051,887;    0,004;    1,227
274,174; 8627,568;    0,822;    2,591
274,771; 8596,919;   -0,814;   -0,773
275,367; 8781,611;    2,277;    1,409
275,964; 8717,714;    0,731;   -0,500
276,561; 8813,111;    1,549;   -1,045
277,158; 9010,426;    0,095;   -1,773
277,755; 9167,771;    2,185;    0,409
278,351; 8554,723;   -0,451;   -1,500
278,948; 8904,555;   -0,815;    0,045
279,545; 8888,728;   -1,360;    2,318
280,141; 9541,099;   -1,723;   -2,045
280,738; 9409,913;   -0,451;   -0,136
281,334; 9632,235;   -1,633;    0,591
281,931; 9049,586;   -0,087;   -1,318
282,528; 9141,965;    0,822;   -0,500
283,124; 9830,638;   -1,087;   -0,500
283,721; 9767,209;   -0,451;    1,409
284,317; 9597,107;    0,185;    2,500
284,913;10119,912;   -1,360;    0,591
285,510;10347,185;    0,640;   -0,318
286,106;10402,928;   -2,269;   -0,955
286,703;10016,422;   -0,360;    1,955
287,299;10207,164;   -1,451;   -0,591
287,895;10417,296;    0,822;   -1,045
288,491;10942,508;    0,186;    2,136
289,088;10740,688;   -2,360;    2,409
289,684;10794,556;   -1,723;    1,500
290,280;10827,907;    0,368;    0,682
290,876;10970,230;    1,822;    5,500
291,472;10852,275;    1,276;    2,227
292,068;10973,389;    1,367;    0,227
292,665;10664,528;    2,095;    0,773
293,261;10310,546;    0,276;    2,136
293,857;10767,901;    2,913;    2,136
294,453;10701,325;    3,550;    0,955
295,049;10595,569;   -0,268;    1,955
295,644;10625,267;    0,095;    0,136
296,240;10566,361;   -0,905;   -0,136
296,836;10648,924;   -0,995;    0,318
297,432;10910,350;    1,096;   -0,500
298,028;10975,504;    0,732;    0,773
298,624;11405,388;    1,459;    1,864
299,220;11634,872;    2,368;    0,591
299,815;11304,884;    1,005;   -0,409
300,411;11125,205;    0,914;    1,773
301,007;11171,494;    1,368;    0,227
301,602;11212,535;   -0,541;   -2,318
302,198;11374,733;    0,732;   -0,773
302,794;11720,376;    1,187;   -0,500
303,389;11861,386;   -1,177;    1,045
303,985;11936,910;    0,550;    1,409
304,580;11918,828;    1,459;    1,591
305,176;11906,446;   -3,086;    0,136
305,771;11811,235;   -1,268;   -1,227
306,367;11669,954;    4,095;    0,136
306,962;11968,172;    0,641;    1,500
307,558;11698,836;   -0,450;    0,136
308,153;11618,450;    1,095;   -1,136
308,748;11846,580;   -0,814;    1,682
309,344;11841,440;   -0,632;   -1,318
309,939;11920,442;   -1,905;   -1,318
310,534;12155,214;   -0,086;   -1,682
311,130;12076,646;    0,459;   -2,500
311,725;11819,127;    1,004;   -0,500
312,320;12132,511;    2,459;    0,045
312,915;11954,581;    1,459;   -1,045
313,510;12050,799;    1,550;   -0,500
314,105;12536,143;    1,096;    1,409
314,700;11907,897;   -3,086;   -1,045
315,295;11551,009;   -0,904;    0,045
315,890;11154,983;    1,277;    0,864
316,485;11511,861;   -0,359;   -0,318
317,080;11574,997;   -3,086;    1,591
317,675;12123,605;    2,005;   -0,682
318,270;11580,841;    5,550;    3,318
318,865;11549,564;    3,278;    3,045
319,460;11401,140;   -0,904;    0,591
320,055;11606,412;   -0,541;   -1,227
320,650;11281,819;   -1,995;   -0,591
321,244;11345,429;   -0,177;   -1,409
321,839;12279,816;   -1,541;   -0,227
322,434;12118,965;   -1,086;   -1,591
323,029;11734,980;    1,732;    1,591
323,623;11607,398;    1,550;    0,773
324,218;11358,865;    2,368;    1,409
324,812;11269,743;    1,096;    1,591
325,407;11087,231;   -0,814;    2,045
326,002;11011,206;    0,277;   -0,409
326,596;11312,614;    0,914;    1,318
327,191;11475,644;    0,823;   -1,045
327,785;11071,069;   -0,813;   -0,227
328,379;11299,403;    1,368;    0,136
328,974;11098,071;    0,914;   -3,955
329,568;11332,505;    0,186;   -2,409
330,163;11172,381;    2,096;    1,045
330,757;11508,749;    2,459;    1,591
331,351;10831,562;    0,459;    0,682
331,945;11164,100;    0,914;    1,409
332,540;10801,202;   -1,723;   -0,591
333,134;10943,633;   -1,086;    0,773
333,728;11209,170;    0,005;    0,318
334,322;11540,973;   -1,177;   -0,864
334,916;10834,820;    0,277;    0,955
335,510;11181,314;   -0,450;   -0,136
336,105;11447,826;   -1,086;    1,591
336,699;11157,121;   -1,086;    0,591
337,293;11116,873;   -1,723;    0,318
337,887;11265,451;   -2,723;    1,955
338,481;11346,957;    0,459;    0,591
339,074;11544,908;   -0,359;    2,682
339,668;11386,951;   -1,632;    1,227
340,262;11658,123;    1,732;    3,227
340,856;11178,550;    1,822;   -0,682
341,450;10549,912;    1,004;    1,864
342,044;11424,510;    1,459;    0,136
342,637;11193,974;    0,913;   -2,136
343,231;11065,357;   -2,360;    0,682
343,825;11029,390;   -1,086;   -0,591
344,419;10999,120;   -1,995;    0,500
345,012;10825,304;    2,459;    4,045
345,606;10851,434;    4,641;    1,591
346,199;10671,786;   -1,813;   -0,227
346,793;10239,101;    1,914;    2,045
347,386;10404,254;   -0,813;   -1,136
347,980;10408,911;   -0,268;   -0,045
348,573;10200,554;    2,278;    0,409
349,167; 9891,099;    5,278;    4,773
349,760;10246,046;    2,914;    2,682
350,354;10240,375;   -0,813;    1,136
350,947; 9959,749;    1,096;    1,682
351,540; 9608,592;   -0,358;   -1,409
352,134; 9554,077;    1,096;    1,136
352,727; 9659,894;   -0,086;    1,136
353,320; 9439,762;    0,005;    0,591
353,913; 9286,449;   -1,995;    1,864
354,507; 9500,921;    0,823;   -1,227
355,100; 9502,355;    0,460;    0,864
355,693; 8752,323;    2,005;    2,409
356,286; 8770,983;    0,823;    2,773
356,879; 9143,143;   -0,722;    1,227
357,472; 8724,639;   -0,904;    1,500
358,065; 8905,009;   -0,722;    2,500
358,658; 8837,413;   -0,540;    2,318
359,251; 8487,965;   -1,631;   -0,591
359,844; 7987,454;   -1,904;   -1,136
360,437; 8160,694;   -2,995;    0,045
361,030; 8412,843;    1,369;   -0,682
361,623; 8017,693;    2,824;    0,318
362,215; 8086,212;   -0,086;    2,045
362,808; 7900,051;   -2,358;   -1,682
363,401; 8089,999;   -2,449;    0,136
363,994; 7848,483;   -0,631;   -1,500
364,586; 7735,600;    0,824;   -1,500
365,179; 7930,935;   -0,449;   -1,136
365,772; 7450,402;   -1,995;    2,045
366,364; 7771,272;    1,915;   -3,227
366,957; 7930,210;    2,279;   -0,045
367,549; 7935,292;    2,188;   -0,864
368,142; 7602,118;    1,825;   -1,500
368,734; 7809,892;    0,734;   -2,136
369,327; 7758,374;    1,643;   -0,500
369,919; 7665,870;   -1,538;    0,409
370,512; 7439,378;   -1,083;   -0,500
371,104; 7222,969;   -0,901;    1,591
371,696; 7418,024;    1,191;   -0,955
372,289; 7487,420;    0,373;    1,136
372,881; 7640,558;   -2,080;    1,318
373,473; 7564,521;   -2,170;    1,136
374,066; 7361,396;   -0,169;    0,500
374,658; 7200,637;    0,378;    1,136
375,250; 7552,733;    0,653;   -1,409
375,842; 7399,096;    0,473;   -0,045
376,434; 7284,782;   -0,435;   -0,409
377,026; 7846,988;    0,204;   -2,500
377,618; 7745,897;   -0,158;   -0,682
378,210; 7585,631;   -0,338;   -1,955
378,802; 7417,798;    0,754;   -0,591
379,394; 7412,029;    1,846;    0,682
379,986; 7967,399;    1,393;   -0,955
380,578; 8054,456;   -0,153;    0,773
381,170; 7407,356;   -0,972;    0,045
381,762; 7371,331;    0,755;    1,409
382,354; 7572,846;   -0,065;   -1,318
382,945; 7655,584;   -2,976;    0,318
383,537; 7799,630;   -2,705;   -1,955
384,129; 7787,715;   -2,160;   -1,136
384,721; 7982,055;   -0,252;    0,955
385,312; 7939,943;   -0,161;   -0,955
385,904; 8061,630;   -2,706;    1,591
386,496; 7417,790;   -0,979;    1,045
387,087; 7569,678;    1,022;    2,500
387,679; 7614,581;   -1,160;    0,045
388,270; 7741,141;    2,840;    2,045
388,862; 7846,044;    1,295;   -0,318
389,453; 7732,101;   -0,887;    1,045
390,045; 8034,343;   -0,705;   -2,682
390,636; 7950,767;    0,204;   -0,591
391,227; 7794,062;   -0,523;   -0,045
391,819; 7895,300;    0,204;    0,773
392,410; 7995,440;    1,022;    0,045
393,001; 7910,253;   -0,979;   -1,591
393,593; 8202,880;    1,930;   -0,045
394,184; 8051,169;    1,385;   -0,409
394,775; 7973,476;    1,839;    2,136
395,366; 8130,961;    1,385;    0,773
395,957; 8148,205;    0,113;    0,136
396,548; 8476,655;   -0,342;    2,682
397,139; 8815,977;   -2,433;    0,591
397,730; 8490,196;   -1,888;    0,955
398,321; 8543,276;   -1,252;    0,955
398,912; 8559,697;   -0,615;    0,136
399,503; 8647,631;   -3,524;   -1,409
400,094; 8066,989;    0,294;    1,682
400,685; 7938,930;   -0,433;    0,045
401,276; 8039,449;    0,930;   -0,955
401,867; 8353,058;   -0,888;    0,773
402,458; 8442,593;   -2,251;   -2,318
403,048; 8424,627;    1,112;    0,591
403,639; 7993,796;    0,840;    0,864
404,230; 8242,210;    2,476;    0,318
404,821; 8197,722;   -0,615;    0,045
405,411; 8306,904;    1,203;   -2,591
406,002; 7914,665;   -1,252;   -1,136
406,592; 7806,930;    2,294;    0,045
407,183; 8054,707;    0,566;   -1,500
407,774; 7967,996;    3,475;   -0,136
408,364; 8303,935;    0,930;    0,409
408,954; 7908,122;    0,384;    1,227
409,545; 7988,385;    1,021;    1,045
410,135; 7485,114;    1,293;    0,500
410,726; 7625,130;    1,838;    0,318
411,316; 7996,252;    0,111;    0,773
411,906; 7697,902;   -0,253;   -0,409
412,497; 7190,992;   -1,070;   -0,045
413,087; 7754,334;   -1,980;   -0,227
413,677; 8121,343;   -0,707;    3,864
414,267; 7948,299;    0,656;    1,409
414,857; 7941,410;   -2,980;    4,227
415,448; 8247,655;    0,839;    0,500
416,038; 7897,067;    0,020;   -0,591
416,628; 7872,243;   -0,889;    0,409
417,218; 7359,167;    0,565;    3,318
417,808; 7577,550;    0,202;   -0,409
418,398; 8029,403;    0,020;    2,682
418,988; 8040,934;    2,020;    0,591
419,578; 8265,241;   -0,707;    1,409
420,168; 8572,727;   -1,343;   -0,955
420,757; 8178,414;   -1,343;   -1,500
421,347; 7821,007;    0,111;   -0,227
421,937; 7967,301;    2,292;    1,409
422,527; 7938,527;    0,838;   -0,773
423,116; 7759,613;   -0,253;   -0,045
423,706; 8013,534;   -1,889;    0,318
424,296; 7987,346;    1,384;    0,682
424,885; 8416,437;   -0,071;   -3,045
425,475; 8679,032;    1,474;   -2,864
426,065; 8531,239;   -0,980;   -0,318
426,654; 8144,438;   -0,435;   -0,318
427,244; 8294,440;    0,020;    1,409
427,833; 7755,872;    1,383;   -0,500
428,423; 8155,188;   -0,526;    1,136
429,012; 8899,733;   -0,344;   -1,136
429,601; 8394,265;   -1,344;    0,136
430,191; 8587,119;    1,292;    4,318
430,780; 8213,800;   -0,344;   -0,409
431,369; 8148,177;    0,746;   -0,045
431,959; 8733,226;   -1,254;    0,500
432,548; 8500,358;   -1,163;   -0,045
433,137; 8589,761;   -1,254;   -1,318
433,726; 9104,913;    0,292;    0,500
434,315; 8451,730;   -0,526;    2,409
434,905; 8532,804;   -1,254;    1,409
435,494; 8391,678;    0,746;    0,955
436,083; 8809,444;   -0,981;   -0,955
436,672; 8696,938;    0,110;    0,500
437,261; 8259,980;    0,292;   -1,955
437,850; 8388,643;    1,383;    0,682
438,439; 8356,916;    3,291;    1,955
439,027; 8193,761;    3,655;    1,773
439,616; 8482,223;    2,927;    1,227
440,205; 8261,583;    0,200;   -2,136
440,794; 8291,058;    2,109;   -0,045
441,383; 8526,200;   -1,346;   -0,591
441,971; 8337,914;   -2,436;    0,591
442,560; 8152,662;    0,563;   -1,773
443,149; 7885,723;    0,379;   -1,318
443,737; 8006,492;   -0,074;   -2,318
444,326; 8217,854;    0,018;    0,318
444,915; 8241,050;   -1,982;    0,864
445,503; 8562,650;   -2,891;   -0,318
446,092; 7843,313;    0,382;    2,136
446,680; 8336,272;    0,382;    0,318
447,269; 8461,816;   -0,346;   -0,318
447,857; 8182,610;    0,018;   -1,773
448,445; 8272,392;    0,563;    1,318
449,034; 8459,313;   -1,528;   -1,136
449,622; 8536,134;   -1,073;    3,500
450,210; 7849,641;    2,017;    2,227
450,799; 8317,391;    0,290;   -0,591
451,387; 8216,995;    1,381;   -0,591
451,975; 7874,958;    2,654;    0,864
452,563; 7947,685;    3,472;    2,318
453,151; 7926,145;   -0,528;   -1,227
453,739; 7862,341;   -1,347;    0,136
454,328; 7668,539;    2,381;   -2,136
454,916; 7418,624;    2,562;   -0,136
455,504; 7552,515;    1,017;    1,227
456,092; 7660,412;    0,017;   -1,591
456,679; 7598,209;    1,472;    0,682
457,267; 7637,912;    4,017;    1,045
457,855; 7666,284;    1,017;    1,409
458,443; 7373,818;   -0,165;    1,682
459,031; 7540,586;    0,108;    2,409
459,619; 7915,148;   -1,801;    2,864
460,206; 7949,937;    0,835;    2,045
460,794; 8021,197;   -2,983;   -0,227
461,382; 8202,419;   -0,529;   -0,864
461,970; 7802,447;    1,198;    1,864
462,557; 7808,017;   -0,711;   -0,682
463,145; 7983,949;   -3,165;   -1,682
463,732; 8101,056;    2,016;   -1,045
464,320; 7975,440;   -0,075;   -3,045
464,907; 7673,833;    2,743;   -0,773
465,495; 7541,870;    0,743;   -1,227
466,082; 7639,006;   -1,984;   -0,045
466,670; 7535,656;   -2,529;    1,227
467,257; 7896,780;   -1,711;    2,045
467,844; 8023,478;   -0,075;    0,045
468,432; 8010,977;    0,834;    3,500
469,019; 7565,948;    0,925;   -1,773
469,606; 7953,864;    0,470;    3,682
470,193; 7776,497;   -1,439;    0,227
470,780; 7410,824;   -2,075;    0,864
471,368; 7637,097;   -1,257;   -0,773
471,955; 7425,067;    1,379;   -0,682
472,542; 7092,822;    0,652;   -1,136
473,129; 7237,965;   -0,166;    0,136
473,716; 6971,910;    1,470;    0,591
474,303; 7092,644;    0,652;   -0,864
474,890; 7313,650;   -1,439;   -0,500
475,477; 7322,117;   -1,621;    0,409
476,064; 7136,577;    1,106;   -1,591
476,650; 7022,490;    0,288;    0,318
477,237; 6817,127;   -0,258;    0,955
477,824; 6911,542;   -1,076;    0,864
478,411; 6828,165;   -1,894;   -0,318
478,997; 6986,241;    0,560;   -0,773
479,584; 6982,855;    1,196;   -0,409
480,171; 7493,906;   -0,440;   -0,773
480,757; 7173,209;    2,651;    0,773
481,344; 7307,427;    0,469;    0,409
481,931; 6806,756;    1,105;    1,045
482,517; 7566,915;   -1,258;    0,318
483,104; 7918,460;    1,106;    2,864
483,690; 7995,015;   -1,804;    0,045
484,276; 8099,575;   -0,895;    0,227
484,863; 7857,440;    2,469;    1,136
485,449; 8257,180;   -0,077;    0,318
486,035; 8193,225;   -1,986;   -0,136
486,622; 8522,518;   -0,895;    0,045
487,208; 8387,079;    1,378;    1,500
487,794; 8237,628;    0,741;    0,318
488,380; 8328,837;    0,105;   -1,409
488,967; 8368,239;   -1,168;   -0,409
489,553; 8423,763;   -1,895;   -1,409
490,139; 8595,465;    1,559;    0,773
490,725; 8151,573;    0,741;   -0,227
491,311; 7862,434;    3,287;    3,045
491,897; 7388,080;   -0,986;    1,500
492,483; 7409,138;    0,105;    1,227
493,069; 7525,062;    3,923;    0,864
493,655; 7466,702;    1,650;    0,682
494,241; 7437,018;    1,377;   -0,955
494,826; 7812,123;    0,287;   -1,045
495,412; 7396,882;    2,559;   -0,682
495,998; 7614,234;   -0,805;   -0,318
496,584; 7763,131;    0,377;    1,045
497,169; 7830,772;    1,014;   -0,682
497,755; 7906,861;    0,650;    1,227
498,341; 8536,496;    0,559;    0,318
498,926; 8300,791;    1,832;    1,955
499,512; 8514,176;    1,286;    2,955
500,097; 8699,790;    0,195;   -0,318
500,683; 8788,114;   -0,350;    2,136
501,268; 9293,334;   -0,169;   -0,955
501,854; 9181,070;   -0,169;    1,227
502,439; 9237,799;   -0,624;   -1,773
503,024; 9554,247;    0,195;    0,500
503,610; 9786,814;   -0,078;   -0,682
504,195; 9881,700;    0,558;    1,955
504,780;10169,620;    2,922;    1,227
505,366;10190,236;    3,013;    2,864
505,951;10042,851;    0,740;    1,045
506,536;10214,226;   -3,260;   -3,682
507,121;10328,581;    0,285;   -0,318
507,706;10914,409;    2,376;    1,045
508,291;11435,309;    2,649;    1,136
508,876;11066,432;   -0,988;    2,591
509,461;10660,726;   -0,169;   -0,773
510,046;11166,199;    0,194;    0,318
510,631;11507,688;   -0,351;   -0,773
511,216;11273,430;    2,467;   -0,500
511,801;11735,477;   -0,442;    2,591
512,386;12112,137;    0,740;    0,500
512,971;12160,412;   -2,988;    0,955
513,555;11770,954;   -0,897;   -1,500
514,140;12650,282;   -0,442;   -3,136
514,725;12734,084;   -0,715;   -1,136
515,309;12881,791;   -0,533;    0,318
515,894;12397,120;   -0,624;   -2,227
516,479;12929,972;   -0,624;   -0,955
517,063;12794,305;    0,376;    1,227
517,648;12994,773;    1,012;   -1,136
518,232;12686,331;   -0,261;   -1,409
518,817;13090,216;   -0,079;    1,682
519,401;13350,983;    2,194;    0,591
519,985;12908,501;    1,103;    1,136
520,570;12785,684;    0,830;   -1,955
521,154;13115,244;    2,102;    0,591
521,738;13284,337;   -2,352;    2,409
522,323;13852,588;   -0,170;    1,682
522,907;13580,660;    0,466;   -0,136
523,491;13334,033;    0,557;    0,955
524,075;13385,281;    2,284;    0,591
524,659;13493,347;    1,466;    0,591
525,243;13004,392;    1,739;    0,409
525,827;13270,253;    0,648;   -0,045
526,411;14100,983;   -1,989;   -0,136
526,995;14307,531;   -0,352;    1,409
527,579;13936,290;   -0,443;   -1,045
528,163;14282,557;    0,375;   -1,500
528,747;14154,176;    2,466;   -0,773
529,331;14453,464;   -0,080;   -1,409
529,915;14702,958;    1,738;    0,955
530,499;14680,109;   -0,807;    1,227
531,082;14399,374;   -0,534;    1,591
531,666;13824,311;    1,374;    0,773
532,250;14515,697;    1,284;    2,682
532,833;14865,263;    0,920;    2,773
533,417;14697,028;   -1,807;    0,864
534,001;14648,305;    1,647;   -0,318
534,584;15377,133;    0,374;    0,500
535,168;15200,581;    0,465;    1,409
535,751;15273,709;    0,647;    0,045
536,334;14761,648;   -0,898;   -0,409
536,918;15286,670;    0,011;    1,591
537,501;15413,626;   -0,899;    1,318
538,085;15453,558;   -0,444;    1,045
538,668;15631,170;    0,829;    2,409
539,251;15946,963;    1,829;    3,773
539,834;15944,768;    0,101;    0,773
540,418;15884,893;   -1,990;    4,318
541,001;16006,834;   -0,990;    1,773
541,584;15991,596;    2,101;    2,227
542,167;15695,301;    1,374;    2,955
542,750;15839,544;    1,919;   -0,773
543,333;15463,259;    0,555;    2,136
543,916;16228,035;    0,192;    2,500
544,499;16841,946;   -1,354;    0,227
545,082;16867,197;    1,374;    3,591
545,665;16988,202;    1,919;    1,500
546,248;17340,532;    1,010;   -0,318
546,830;16977,484;   -0,445;    1,955
547,413;17394,983;    1,010;   -0,773
547,996;17959,450;    0,555;    0,500
548,579;17719,202;    0,919;    0,955
549,161;17516,272;    1,828;    2,682
549,744;17282,751;   -0,809;    0,409
550,326;17776,394;   -0,809;   -1,136
550,909;17612,591;    2,737;    0,591
551,492;17994,465;   -0,263;    0,227
552,074;17785,922;   -0,173;   -1,318
552,657;18294,712;    2,373;    0,045
553,239;18086,092;   -0,173;   -0,773
553,821;18015,208;   -1,082;    1,045
554,404;17518,950;    1,282;    1,136
554,986;17883,627;    0,464;    1,045
555,568;18485,461;    1,191;   -0,955
556,151;17667,800;    1,191;   -0,227
556,733;17890,155;   -0,264;   -0,864
557,315;18377,535;    0,100;    0,500
557,897;18143,672;    0,554;   -0,500
558,479;18305,073;   -1,991;    1,318
559,061;18422,719;   -0,719;   -0,864
559,643;18776,459;   -0,264;    0,045
560,225;19171,349;    1,645;    2,864
560,807;19175,368;    0,918;    0,318
561,389;18626,811;    0,554;    2,318
561,971;19414,119;    0,463;    2,136
562,553;19229,481;   -1,628;    1,591
563,135;19372,229;   -0,537;    1,136
563,717;18977,649;    3,372;    1,136
564,298;19662,350;    3,645;   -0,045
564,880;19411,098;    0,645;   -1,409
565,462;19536,007;    0,645;    1,318
566,043;20735,293;   -0,446;    2,318
566,625;20246,562;    1,918;    1,227
567,207;20136,986;    1,099;    1,682
567,788;21312,548;   -1,264;    1,500
568,370;22131,236;    1,917;   -0,500
568,951;21964,449;    0,190;    0,227
569,533;22848,555;   -0,628;   -0,500
570,114;23290,627;   -0,446;    0,682
570,695;23814,211;   -0,174;   -1,318
571,277;24328,251;   -0,265;   -1,682
571,858;25063,158;    2,008;   -1,136
572,439;25960,993;    1,554;   -1,045
573,021;26103,473;    2,099;   -2,773
573,602;26598,794;   -1,265;    0,318
574,183;27565,260;   -2,083;    2,227
574,764;27728,855;   -1,629;    0,409
575,345;28244,255;    0,917;   -0,136
575,926;28841,808;   -0,356;    0,136
576,507;28794,427;    1,099;   -0,227
577,088;29912,759;    3,099;    1,682
577,669;29931,791;    0,735;    1,955
578,250;30784,896;    0,644;   -1,045
578,831;31458,524;   -1,356;   -2,227
579,412;31671,948;   -0,810;    0,955
579,993;32523,654;    1,008;    0,227
580,573;32787,052;   -0,629;   -0,955
581,154;31772,371;    0,735;   -0,591
581,735;32687,665;    0,644;    0,773
582,315;32184,938;   -0,629;    2,136
582,896;32436,128;   -0,174;    1,227
583,477;31808,026;    0,189;    1,227
584,057;32087,168;    0,553;    0,955
584,638;32378,017;    2,553;    2,318
585,218;32392,252;   -0,538;    2,682
585,799;32515,893;    0,281;   -0,227
586,379;32418,668;    0,372;    1,591
586,959;31153,959;    0,735;    0,318
587,540;30471,238;   -0,629;    2,227
588,120;30037,362;    1,007;   -0,045
588,700;29077,226;    2,553;    2,136
589,281;29467,262;    0,462;   -0,955
589,861;29356,768;    0,099;   -1,682
590,441;29159,087;    2,371;   -2,682
591,021;28152,741;   -0,265;   -2,591
591,601;28371,040;   -0,537;    0,500
592,181;28336,421;   -0,719;   -0,773
592,761;27657,795;    0,007;    1,409
593,341;27571,652;   -0,901;    0,045
593,921;27618,000;   -0,265;    1,591
594,501;27534,900;   -0,538;    1,318
595,081;27277,207;    0,917;   -0,318
595,661;27676,303;   -1,447;    0,955
596,240;28180,798;   -0,537;    0,136
596,820;27876,767;    0,372;    1,955
597,400;28014,688;    2,008;    0,773
597,980;28203,440;    2,008;    1,045
598,559;28186,042;    2,735;   -0,227
599,139;27947,152;   -0,174;   -1,227
599,718;27881,516;   -0,174;   -0,409
600,298;28124,164;    0,735;    0,682
600,877;28385,722;    2,917;    1,409
601,457;28611,872;    2,281;    1,136
602,036;28515,855;    0,190;    2,045
602,616;28762,891;    0,644;    1,682
603,195;29119,869;   -0,355;    3,500
603,774;28601,403;   -0,901;    2,045
604,354;28474,469;    0,826;   -0,500
604,933;27989,030;    0,463;    1,864
605,512;28111,993;    3,554;    0,591
606,091;28179,178;   -0,537;    3,773
606,671;28989,481;    0,281;    0,773
607,250;28065,033;    1,644;    3,136
607,829;28348,320;    2,372;    3,227
608,408;28159,867;    1,190;    2,591
608,987;27204,309;    1,281;    3,409
609,566;27497,488;   -1,265;   -2,500
610,145;27622,746;   -1,082;    0,682
610,723;28025,700;    4,372;    6,864
611,302;27291,643;   -0,446;    1,682
611,881;26858,215;    5,008;   11,227
612,460;27701,285;    1,645;    3,955
613,039;28038,522;   -0,082;    2,045
613,617;26767,364;    1,736;    4,773
614,196;26919,770;    1,099;    1,227
614,775;27327,666;    1,009;    2,409
615,353;27240,416;    0,736;    0,864
615,932;26976,031;    0,100;    2,409
616,510;27541,481;    0,554;    0,591
617,089;27125,828;    7,100;   17,591
617,667;26847,125;    2,372;    6,136
618,246;26674,026;   -1,537;    1,318
618,824;26856,462;   -3,355;   -0,955
619,402;26385,375;   -2,900;   -1,773
619,981;26923,695;   -0,173;   -1,045
620,559;26717,088;    0,009;    1,682
621,137;26262,622;   -0,718;    1,864
621,715;26323,030;   -1,173;   -0,682
622,293;26191,769;   -0,537;   -0,773
622,871;26657,625;   -0,718;    0,500
623,450;26279,731;    0,373;   -0,864
624,028;26162,934;    0,191;   -0,955
624,606;25758,384;   -1,718;    1,682
625,183;26138,760;   -1,536;   -1,136
625,761;25744,211;    1,009;    1,136
626,339;26075,551;    1,373;    2,591
626,917;26458,414;   -0,172;   -0,045
627,495;26509,456;   -0,354;    1,318
628,073;25945,892;   -0,263;    2,864
628,650;25637,304;    0,100;    2,136
629,228;26053,294;    0,373;    4,409
629,806;25489,220;    2,282;    1,136
630,383;25701,404;    1,464;   -0,318
630,961;25502,069;    2,555;   -0,955
631,539;25252,366;    2,464;    0,227
632,116;24679,796;   11,373;   15,409
632,694;25224,411;    2,555;    6,500
633,271;25534,790;    0,828;    2,682
633,848;25460,019;    1,828;    2,045
634,426;25480,817;   -1,081;    1,773
635,003;24539,665;    1,101;   -0,409
635,580;24876,925;    1,192;    3,682
636,158;25375,896;    3,737;    1,227
636,735;25469,913;    0,555;   -0,500
637,312;25646,368;   -0,809;   -0,682
637,889;25705,769;   -4,354;   -0,682
638,466;25125,723;   -3,990;   -0,409
639,043;25149,840;    2,101;   -1,136
639,620;25467,896;   -2,262;   -0,955
640,197;25779,916;    1,100;    1,682
640,774;25917,243;   -0,172;    1,136
641,351;26299,569;    0,737;    1,136
641,928;25734,168;   -0,627;    1,409
642,505;25379,585;    0,828;   -0,500
643,082;25510,002;   -1,718;    1,227
643,658;24574,238;   -0,718;    1,500
644,235;25304,018;    1,191;    2,500
644,812;25626,890;    1,918;    0,773
645,388;25325,216;   -0,991;    1,409
645,965;25437,361;   -0,809;    1,682
646,542;25515,596;   -1,445;   -0,227
647,118;25479,650;    1,009;   -0,955
647,695;25760,249;   -0,263;    1,136
648,271;25681,666;   -0,536;    0,500
648,848;26002,719;    0,736;    2,227
649,424;25837,682;    0,827;    1,318
650,000;25588,736;   -0,354;   -1,045
650,577;25380,153;   -0,627;   -0,955
651,153;25861,479;   -1,809;    0,955
651,729;26920,532;    1,191;    0,864
652,305;27472,677;    0,645;    2,773
652,881;32648,821;   -0,082;    1,136
653,458;39397,784;    1,100;    0,227
654,034;42710,928;    0,282;    1,591
654,610;43997,891;    0,554;    0,773
655,186;45208,581;    0,645;    3,045
655,762;44863,907;   -0,991;    0,409
656,338;44820,779;    0,100;    0,136
656,913;45781,287;   -0,082;    0,409
657,489;44934,613;    0,827;   -0,318
658,065;44918,758;   -0,173;   -1,591
658,641;45508,902;   -0,900;   -0,864
659,217;44826,229;   -0,991;    0,409
659,792;44232,464;    0,645;   -0,409
660,368;44412,426;   -2,173;   -0,682
660,944;43811,025;   -2,082;    1,227
661,519;38627,352;   -0,628;    0,409
662,095;32746,678;   -1,719;    0,591
662,670;28663,277;    1,281;   -0,136
663,246;27734,694;    1,009;   -0,409
663,821;27111,020;    0,281;    1,682
664,396;26627,619;    0,009;    1,864
664,972;26929,673;    0,009;   -0,500
665,547;27221,727;    1,372;    0,136
666,122;27245,962;   -1,082;    0,318
666,698;27536,288;   -0,173;    0,318
667,273;26878,614;   -0,173;    0,136
667,848;27668,395;    2,372;    1,500
668,423;27501,267;    2,190;    2,318
668,998;28122,230;    2,827;   -0,682
669,573;28611,101;   -3,264;   -1,500
670,148;28449,882;   -1,446;   -0,682
670,723;28241,572;   -1,810;    0,318
671,298;28650,444;    2,372;    1,045
671,873;28769,406;   -0,082;   -0,136
672,448;28693,005;    0,645;    0,136
673,023;29051,968;   -1,992;   -0,227
673,597;29361,112;    0,827;    2,318
674,172;29190,166;   -0,355;    0,318
674,747;28652,856;    0,372;   -1,045
675,321;28399,000;   -0,628;    3,318
675,896;28002,236;    0,645;    1,045
676,471;29024,017;    2,645;    1,591
677,045;28751,888;   -1,264;    0,682
677,620;28862,215;    0,190;    1,136
678,194;29158,177;   -2,628;    1,136
678,769;28699,322;   -1,083;   -0,318
679,343;29001,466;   -0,628;    1,773
679,917;28866,247;   -1,446;    1,955
680,492;28924,482;    0,826;    3,227
681,066;29126,536;    3,372;    0,409
681,640;29129,407;    1,463;   -0,318
682,214;29974,006;    0,735;    0,500
682,788;29517,333;   -1,356;   -0,773
683,363;29431,568;   -1,810;    1,682
683,937;29149,713;   -1,719;   -0,318
684,511;29897,857;    0,463;   -0,591
685,085;29602,456;   -1,356;    0,318
685,659;29306,691;   -2,538;    0,864
686,232;29621,381;   -0,356;   -0,318
686,806;29294,707;   -0,901;    0,409
687,380;29946,488;   -0,174;    0,591
687,954;30164,724;   -1,174;    1,136
688,528;29850,595;   -0,719;    1,955
689,101;30659,194;   -3,992;    1,045
689,675;30263,248;   -0,356;   -0,136
690,249;29609,211;   -0,719;    0,409
690,822;29922,810;    0,280;    0,318
691,396;30043,499;   -0,265;    1,227
691,969;29445,462;    1,280;    0,136
692,543;29868,334;   -0,447;   -1,955
693,116;29518,478;   -0,265;   -1,409
693,690;29374,805;    0,099;    0,500
694,263;29979,858;   -1,083;    2,955
694,836;30030,730;    1,371;    3,591
695,410;28695,601;   -0,265;    1,773
695,983;29121,200;    0,189;    0,591
696,556;29107,436;   -0,447;   -1,045
697,129;29515,489;   -0,356;    1,409
697,703;29145,179;   -1,629;    1,955
698,276;29060,051;    1,462;   -0,773
698,849;28908,832;    1,280;    1,409
699,422;29284,794;   -1,083;    0,591
699,995;29010,939;    0,007;    0,136
700,568;29506,811;   -0,629;    3,045
701,140;29497,319;   -2,811;    1,682
701,713;29169,372;   -0,174;    2,409
702,286;28979,426;   -0,538;    0,864
702,859;28878,298;   -0,902;   -0,591
703,432;28033,351;    0,825;    0,682
704,004;28537,586;    0,462;    0,318
704,577;28373,094;   -0,629;    0,136
705,150;28948,603;    0,189;    2,500
705,722;28705,020;   -0,356;   -3,227
706,295;28528,982;   -0,175;   -0,591
706,867;28387,218;   -0,175;    1,955
707,440;28610,999;   -1,720;   -0,409
708,012;28895,052;    0,462;    0,591
708,584;28824,742;    2,462;    0,227
709,157;29048,068;    1,825;   -0,591
709,729;28711,758;    2,280;    2,045
710,301;29599,175;    0,734;    0,045
710,874;29552,774;   -1,447;   -0,227
711,446;28389,282;    0,371;    0,864
712,018;28321,609;    0,098;    0,500
712,590;28097,389;   -1,993;    1,682
713,162;28603,716;    0,825;    1,318
713,734;28821,951;    1,825;   -2,045
714,306;28746,186;   -1,902;   -0,409
714,878;27398,604;    0,825;    0,864
715,450;28207,021;    0,643;    0,864
716,022;28439,893;    1,552;    1,318
716,593;28620,037;    0,189;    0,591
717,165;28554,909;   -3,175;   -1,227
717,737;28283,053;    0,280;    0,409
718,309;27962,379;    0,280;   -0,045
718,880;27924,433;   -0,539;   -1,409
719,452;28111,577;   -0,175;   -1,591
720,024;27684,267;    0,734;   -0,591
720,595;28274,412;   -2,902;    0,955
721,167;27842,374;    0,370;   -2,045
721,738;27393,610;   -0,812;   -1,045
722,309;27394,936;   -0,993;   -1,227
722,881;27117,808;   -1,357;    0,773
723,452;27726,316;   -2,630;    2,864
724,023;27937,733;   -0,721;    2,682
724,595;27651,968;    0,007;    0,682
725,166;27404,476;    0,007;   -0,409
725,737;27134,075;    1,734;    0,227
726,308;27192,038;   -0,266;    0,318
726,879;27688,183;   -1,630;    1,227
727,450;27468,509;    0,552;   -0,045
728,021;27456,562;    3,097;    0,682
728,592;27205,798;    0,734;    0,500
729,163;27575,306;    0,643;   -0,136
729,734;27638,541;    0,188;   -0,227
730,305;27967,958;    1,734;    0,136
730,876;28332,648;    0,188;    2,955
731,447;28067,156;    2,188;    2,682
732,017;28156,119;    1,097;    1,864
732,588;27560,354;    0,734;    1,227
733,159;27773,771;    0,643;   -1,045
733,729;27607,825;    0,006;    0,409
734,300;26869,060;    0,915;    0,864
734,870;27291,932;    3,461;    0,591
735,441;27835,258;    0,370;   -0,591
736,011;27588,766;    0,643;   -1,591
736,582;27525,456;   -0,812;    0,045
737,152;26964,692;   -1,721;   -2,045
737,722;27427,836;   -0,267;   -0,682
738,293;27163,708;   -1,358;    1,318
738,863;27008,852;    2,461;    2,318
739,433;26850,451;    5,279;    0,318
740,003;27523,323;   -0,994;   -0,682
740,573;26862,013;    2,097;   -1,591
741,143;26798,794;   -1,085;    0,318
741,713;27655,302;    1,188;   -0,500
742,283;27381,810;    0,915;    1,591
742,853;27112,863;    1,915;    1,591
743,423;26523,281;    1,733;    0,045
743,993;26712,698;   -0,358;    1,500
744,563;26114,024;    0,097;   -0,864
745,133;26056,805;   -0,812;   -0,864
745,702;26696,040;   -0,267;    1,773
746,272;25897,457;   -0,176;    0,591
746,842;25703,238;   -1,358;   -0,591
747,411;26082,655;   -0,267;   -0,318
747,981;26254,527;    0,097;    0,500
748,551;26360,853;    2,278;   -1,045
749,120;26201,452;    0,642;   -0,227
749,690;26594,779;   -0,631;    2,409
750,259;26919,196;    1,369;    2,955
750,828;26864,613;    1,551;   -1,955
751,398;27051,394;    1,278;   -0,045
751,967;26624,811;    2,187;    0,409
752,536;26862,137;   -0,813;   -0,227
753,105;27228,827;    0,096;    0,227
753,675;27027,426;    0,096;    1,773
754,244;26990,662;   -0,904;    3,591
754,813;26975,170;    0,551;    1,227
755,382;26579,132;    0,460;    0,955
755,951;27178,004;    1,551;    3,682
756,520;26703,421;   -0,085;    1,864
757,089;27242,111;    0,278;    0,500
757,658;27423,983;    1,733;    1,227
758,227;27432,673;    1,096;    0,318
758,795;27650,363;    1,187;    1,136
759,364;27855,962;   -0,086;   -0,591
759,933;26903,561;   -1,176;   -0,045
760,501;26400,069;    0,733;   -1,318
761,070;26858,122;   -2,813;   -1,409
761,639;27602,812;   -1,904;    1,318
762,207;26998,229;    1,551;   -0,955
762,776;26884,737;    0,369;    0,864
763,344;26890,245;   -0,995;    0,591
763,913;25939,299;   -0,722;    1,409
764,481;26679,352;    1,005;   -0,136
765,049;26464,588;   -1,358;    1,409
765,618;26326,823;   -0,086;    0,318
766,186;26407,331;    0,278;    0,136
766,754;26628,658;    0,005;    1,864
767,322;25588,166;   -1,995;    0,409
767,890;25657,856;   -0,722;   -1,773
768,459;26072,818;   -2,177;   -0,318
769,027;26309,326;    1,641;    3,409
769,595;25187,834;    3,278;    2,591
770,163;25632,070;    3,823;    2,955
770,730;25441,760;    0,732;   -0,136
771,298;25255,177;    0,187;   -1,409
771,866;25314,048;   -1,541;    4,955
772,434;25692,829;   -0,631;   -1,864
773,002;25818,792;    0,005;    0,682
773,569;25420,118;    0,914;    1,682
774,137;25286,444;   -0,268;   -0,045
774,705;26044,316;    0,278;   -0,136
775,272;25595,552;    0,641;    0,682
775,840;25328,787;   -0,177;    2,682
776,407;24860,386;    0,277;    1,955
776,975;24500,167;   -0,632;    0,318
777,542;25467,493;   -1,086;   -0,045
778,110;25302,728;   -1,268;   -0,045
778,677;24973,600;   -2,359;   -0,864
779,244;24720,017;    2,186;    1,045
779,812;24874,525;    1,823;    0,864
780,379;24723,397;    0,005;    1,136
780,946;24984,541;    1,005;   -0,773
781,513;25318,868;   -1,450;    0,318
782,080;24720,194;   -0,086;    2,864
782,647;25433,520;   -0,268;    3,045
783,214;24979,937;   -0,177;    3,864
783,781;24606,082;   -0,723;   -0,682
784,348;24480,317;   -0,632;    1,500
784,915;24881,916;   -3,177;    0,318
785,482;24716,152;    1,368;    2,591
786,049;25122,569;    0,186;   -0,591
786,615;25292,895;    0,277;   -0,955
787,182;24968,585;    0,186;   -0,682
787,749;24630,911;   -2,814;    1,409
788,315;23965,783;   -1,632;   -0,409
788,882;24239,291;    1,550;   -1,227
789,448;24994,345;    1,732;   -0,955
790,015;25011,034;    1,095;    3,227
790,581;24572,997;    1,459;    0,227
791,148;24443,869;    0,641;    1,045
791,714;24653,195;   -0,541;    3,136
792,280;24310,249;    0,186;    1,591
792,847;23845,393;    0,550;    2,500
793,413;24463,447;   -0,269;   -0,318
793,979;24016,137;    3,459;   -1,318
794,545;24118,645;    4,459;    2,682
795,111;23517,698;    2,186;    1,318
795,678;23679,843;    0,731;   -1,682
796,244;23329,078;    3,368;    0,136
796,810;23789,768;    1,731;    0,773
797,375;23543,094;    0,549;   -2,136
797,941;23626,420;   -0,541;    0,591
798,507;23772,838;   -0,451;   -0,955
799,073;23285,164;   -0,360;    0,591
799,639;23345,854;   -2,632;    3,136
800,205;23347,180;    0,095;    2,682
800,770;22919,415;    0,640;    1,773
801,336;23058,651;    1,368;   -0,955
801,901;22742,795;    4,549;    3,136
802,467;23315,485;   -0,542;    2,045
803,033;22616,993;   -0,087;    0,864
803,598;22874,138;    1,913;   -1,045
804,163;22854,646;    1,095;   -0,318
804,729;22816,154;   -0,178;    1,136
805,294;23234,298;    0,822;    2,227
805,859;23025,988;    0,731;   -0,409
806,425;22463,042;    1,186;    2,682
806,990;22118,277;    2,186;    4,318
807,555;22648,785;   -1,451;    2,591
808,120;22547,202;    0,822;   -0,409
808,685;22594,619;    0,185;   -2,500
809,250;22085,855;    0,004;   -0,500
809,815;22404,272;    1,913;    0,682
810,380;22901,053;   -0,269;    1,591
810,945;23487,197;   -1,087;    2,045
811,510;22642,887;    2,094;    1,591
812,075;22348,577;   -0,633;   -1,409
812,640;22391,903;    2,003;    1,409
813,204;22478,593;    0,822;   -0,227
813,769;22938,010;    2,094;   -0,045
814,334;22339,700;    0,458;    0,864
814,898;22409,390;    0,367;    0,591
815,463;22266,262;    1,276;   -0,773
816,027;22260,043;   -0,724;   -2,318
816,592;22287,551;    0,640;   -2,045
817,156;21805,786;    2,094;    1,136
817,721;21708,931;    4,276;    2,318
818,285;21616,802;    2,912;    1,500
818,849;22240,765;   -1,451;    1,682
819,414;22144,546;   -0,269;    2,955
819,978;21746,781;   -1,269;    1,773
820,542;22342,107;    2,003;    0,500
821,106;21982,616;   -0,815;    0,682
821,670;22150,578;   -0,815;    2,591
822,234;21898,632;   -0,270;    1,409
822,798;21255,140;    0,003;    0,500
823,362;21197,648;   -0,633;    4,227
823,926;20513,520;    0,094;    1,136
824,490;20766,119;   -0,997;   -0,682
825,054;21256,354;   -0,088;   -1,136
825,618;20877,589;   -1,542;   -1,500
826,181;20787,643;    0,458;   -1,318
826,745;20754,605;    1,367;   -1,045
827,309;21087,659;    1,185;    1,318
827,872;20397,985;    1,367;    0,955
828,436;21408,221;    1,185;   -0,773
828,999;21458,911;   -0,997;    1,227
829,563;20270,055;   -0,179;    1,136
830,126;20108,472;   -0,179;   -0,591
830,690;20125,344;   -1,997;    2,864
831,253;19647,216;   -0,543;    2,227
831,816;19817,996;   -1,906;    0,500
832,380;19700,504;    0,185;    0,864
832,943;19952,922;   -1,361;   -0,500
833,506;19382,066;    2,639;   -1,227
834,069;20157,665;    3,912;   -0,955
834,632;20249,810;    1,730;    1,318
835,195;20193,409;    1,003;    0,955
835,758;19360,826;   -0,997;    1,955
836,321;19221,879;    0,730;   -1,045
836,884;19280,115;   -0,725;   -0,955
837,447;19267,986;   -2,816;    1,773
838,010;19584,858;    0,366;    3,227
838,573;19891,093;   -1,179;    0,773
839,135;19832,602;   -1,361;   -0,955
839,698;19317,837;    1,275;    0,409
840,261;18820,436;    1,003;   -0,227
840,823;18631,944;   -0,543;    0,864
841,386;18927,179;   -0,452;   -2,409
841,948;18855,596;   -1,361;    1,773
842,511;18564,650;    0,912;    1,682
843,073;18735,794;    1,912;    0,227
843,636;18527,484;   -0,361;   -0,227
844,198;18488,447;    0,911;    0,591
844,760;18580,591;    1,093;    1,955
845,322;18221,645;    0,548;    1,136
845,885;18682,335;    0,730;    0,591
846,447;19115,843;   -1,998;    0,227
847,009;18706,169;    1,911;   -0,682
847,571;19007,496;    0,820;   -2,045
848,133;19138,185;   -1,089;   -1,864
848,695;18922,330;   -0,543;    1,409
849,257;18472,474;   -1,089;   -1,682
849,819;18655,437;   -0,998;   -0,409
850,381;18718,945;   -0,725;   -0,864
850,942;19097,271;    1,093;   -0,591
851,504;19086,143;    1,184;    0,227
852,066;19096,833;    1,275;   -1,591
852,628;18592,159;   -0,180;    1,955
853,189;18109,485;    1,638;    2,682
853,751;18242,994;   -0,907;    1,409
854,312;18055,683;   -0,453;   -1,682
854,874;18557,646;   -2,089;   -0,773
855,435;19045,245;   -0,907;   -1,682
855,997;19238,662;   -1,816;   -0,136
856,558;18532,898;    0,366;    1,773
857,119;18605,224;    0,820;    2,864
857,681;18303,550;    0,002;    0,318
858,242;18344,785;    1,911;   -2,136
858,803;18750,112;    0,456;   -0,773
859,364;19390,529;    0,184;   -4,773
859,925;18692,492;   -2,453;   -0,955
860,486;18578,363;   -0,453;   -0,955
861,047;18331,144;   -0,544;   -1,227
861,608;18154,198;   -1,089;   -0,773
862,169;18257,069;    0,638;   -0,045
862,730;18007,759;    0,456;    1,409
863,291;18271,631;   -0,635;   -0,500
863,852;18616,321;   -0,635;    1,955
864,412;18106,738;   -0,271;   -0,864
864,973;16674,337;   -0,089;    0,500
865,534;16532,209;   -1,726;    0,227
866,094;18051,262;    1,820;    0,227
866,655;17722,316;    1,274;    3,318
867,215;17976,460;    0,274;    0,136
867,776;17794,423;    0,547;   -0,136
868,336;17889,931;   -1,453;    0,136
868,897;17400,894;    2,638;    1,682
869,457;17141,493;    1,365;    0,318
870,017;17332,455;    0,547;   -1,227
870,578;17848,691;   -0,817;    0,773
871,138;17523,017;   -2,089;   -0,955
871,698;17084,798;   -0,817;   -1,318
872,258;16987,124;   -0,453;   -2,864
872,818;17396,268;    2,729;    0,045
873,378;17348,049;    0,638;    1,045
873,938;16862,012;    0,547;    0,500
874,498;17190,702;    0,274;   -1,955
875,058;17112,573;    2,183;    1,773
875,618;16943,718;    1,910;   -2,682
876,177;16842,862;    1,274;    0,136
876,737;16481,734;   -0,090;    1,955
877,297;16567,424;    0,183;    1,955
877,856;16550,023;   -0,362;    0,318
878,416;16470,258;    1,183;   -0,136
878,976;16670,676;   -1,817;    0,409
879,535;16869,547;    0,092;    3,136
880,095;16589,874;   -0,544;    0,045
880,654;16752,291;   -1,090;    1,318
881,213;16889,708;    2,456;    1,500
881,773;16495,034;    2,637;    2,682
882,332;16896,088;    3,365;    5,136
882,891;16657,232;    3,092;    2,136
883,451;17150,377;   -1,272;    1,682
884,010;16556,794;   -2,908;   -0,409
884,569;16674,211;   -0,999;   -0,045
885,128;16858,901;    2,819;   -1,864
885,687;16881,773;    4,455;    0,682
886,246;16585,553;    1,455;    2,136
886,805;16394,607;    2,455;    2,045
887,364;16646,024;   -0,999;   -0,500
887,922;17009,532;   -1,181;    0,045
888,481;16524,858;   -1,545;    0,591
889,040;16813,457;    1,183;    2,136
889,599;17498,238;    2,455;    1,409
890,157;17543,928;    1,455;    2,409
890,716;17229,891;   -0,090;    0,227
891,274;17047,581;    0,092;   -1,136
891,833;17463,816;    1,546;    0,864
892,391;17346,870;   -0,454;    0,500
892,950;17462,105;    1,819;   -0,773
893,508;17779,704;    0,455;   -0,409
894,067;17105,848;    0,637;    0,136
894,625;17011,266;   -0,636;   -1,500
895,183;17220,774;   -0,363;   -0,682
895,741;17090,009;    1,728;   -1,773
896,299;16970,608;   -0,545;   -2,409
896,858;17190,025;    0,819;   -1,591
897,416;17290,261;    2,728;   -1,318
897,974;17026,041;    1,819;    0,318
898,532;17239,186;    6,091;    2,682
899,089;17114,876;    2,091;   -0,682
899,647;17130,384;   -1,454;    1,318
900,205;16839,710;    1,182;    1,045
900,763;16991,127;   -0,454;    0,227
901,321;17029,908;    2,364;   -1,409
901,878;16463,780;   -1,000;   -0,773
902,436;16341,197;   -1,363;    1,318
902,994;16745,250;    4,728;    3,682
903,551;16164,940;    0,728;    0,409
904,109;16517,448;    0,182;   -1,409
904,666;16076,411;    2,455;    1,045
905,224;15966,828;    0,182;   -0,409
905,781;15713,064;    0,727;   -0,318
906,338;15755,299;   -1,363;    1,045
906,895;15710,171;    0,637;    2,045
907,453;15642,497;    1,727;    1,136
908,010;15675,914;   -0,909;    0,409
908,567;15369,604;    1,273;    0,591
909,124;14840,203;    0,364;   -1,500
909,681;14877,802;   -2,909;    0,682
910,238;15050,492;    0,636;   -1,318
910,795;15389,182;   -0,273;   -1,136
911,352;15002,727;   -2,909;   -2,682
911,909;14431,273;   -1,364;   -0,864
912,466;14926,636;   -3,182;    1,500
913,022;14484,636;   -1,636;    0,500
913,579;14816,455;   -0,909;    2,045
914,136;14546,909;    1,636;    0,955
914,692;14832,000;    0,091;   -1,227
915,249;14451,818;    1,455;    0,409
915,806;14690,182;    0,182;    1,955
916,362;14461,909;    1,909;    1,864
916,918;14017,273;    2,000;    1,045
917,475;13984,727;   -1,182;    0,955
918,031;14023,455;    3,364;   -0,045
918,587;13505,000;   -0,909;   -0,318
919,144;13746,636;   -2,273;    0,227
919,700;14069,727;    1,727;    0,773
920,256;13596,091;    0,727;    0,045
920,812;13198,909;   -0,727;   -1,045
921,368;13235,636;   -1,727;   -1,045
921,924;12865,545;    0,182;   -0,136
922,480;12434,000;   -0,545;    1,227
923,036;13087,455;    1,273;    1,955
923,592;13018,273;    0,455;    0,318
924,148;12978,000;    0,455;   -0,955
924,704;12279,818;   -1,364;   -0,409
925,259;12532,727;   -0,273;    0,591
925,815;12310,091;    1,455;    0,500
926,371;11784,545;    2,909;    1,409
926,926;11712,000;    2,091;    0,591
927,482;11348,273;   -1,364;    0,773
928,037;11241,000;    0,909;    2,045
928,593;11480,091;    1,636;    1,045
929,148;11307,727;   -1,818;   -1,500
929,704;10809,364;   -1,455;   -0,500
930,259;11051,091;    0,091;   -0,136
930,814;10109,545;   -0,818;    1,955
931,369; 9750,818;    1,091;   -0,773
931,925; 9651,909;   -0,091;    0,136
932,480; 9554,455;   -2,818;   -2,591
933,035; 9466,000;    0,545;   -0,318
933,590; 9247,273;    0,364;   -1,773
934,145; 8868,909;   -1,364;   -0,318
934,700; 9187,000;    0,455;   -0,591
935,255; 9002,545;   -0,091;    0,045
935,809; 8303,364;    3,182;    0,864
936,364; 7427,000;   -0,455;   -0,136
936,919; 7398,091;    0,455;   -1,773
937,474; 7259,182;    1,455;    0,136
938,028; 7033,000;   -1,636;    1,136
938,583; 6537,091;    1,818;    4,682
939,138; 6804,909;    2,091;    2,136
939,692; 6196,545;    1,636;   -1,136
940,247; 5922,818;   -0,727;   -1,045
940,801; 5476,182;   -0,636;    0,227
941,355; 5375,000;   -0,364;    2,591
941,910; 5032,818;   -0,273;   -2,136
942,464; 5159,818;   -0,818;   -0,318
943,018; 4924,091;    1,000;   -0,227
943,572; 4899,727;    2,545;   -0,682
944,126; 4325,727;    0,091;   -0,409
944,681; 4235,818;    3,091;    0,227
945,235; 4216,818;    1,000;   -0,591
945,789; 4137,091;    0,364;   -1,864
946,342; 4255,818;    0,455;   -0,591
946,896; 4024,727;   -2,273;    0,955
947,450; 3796,000;    1,545;   -0,227
948,004; 4005,455;    1,727;   -0,045
948,558; 4011,273;    0,273;   -0,864
949,111; 3948,364;   -0,273;   -0,318
949,665; 3986,182;    1,636;   -0,682
950,219; 3853,364;   -0,091;   -1,045
950,772; 3911,727;   -1,909;    1,864
951,326; 3818,455;    0,545;   -0,955
951,879; 3931,091;    0,727;   -2,318
952,433; 3952,727;    0,000;    2,227
952,986; 3775,000;    2,909;    0,682
953,539; 3752,091;   -0,273;    0,591
954,093; 3681,818;    0,545;   -1,318
954,646; 3819,545;    0,909;    1,318
955,199; 3618,545;    0,000;   -0,500
955,752; 3525,091;   -0,455;    1,773
956,305; 3478,818;   -0,091;    2,955
956,858; 3643,545;    0,818;   -0,318
957,411; 3796,091;   -0,545;    2,136
957,964; 3648,455;    1,364;    2,136
958,517; 3611,364;   -1,545;    3,136
959,070; 3452,818;   -0,455;    1,955
959,623; 3524,909;    1,091;    1,500
960,176; 3302,727;    1,727;    2,045
960,728; 3285,455;   -2,727;    0,773
961,281; 3346,818;    0,545;    0,500
961,834; 3387,909;   -0,909;    0,864
962,386; 3296,545;    1,727;    1,045
962,939; 3219,818;    0,364;   -0,318
963,491; 3354,091;    0,455;    1,136
964,043; 3225,727;    1,182;    2,409
964,596; 3353,818;   -1,000;    2,227
965,148; 3212,727;   -1,000;    1,773
965,700; 3115,273;    1,091;   -0,227
966,253; 3279,091;   -0,636;    0,318
966,805; 3096,818;   -2,273;    0,773
967,357; 3157,636;    1,091;   -1,500
967,909; 3126,273;    0,455;   -1,227
968,461; 3226,455;    0,545;    3,136
969,013; 3171,000;   -0,182;   -0,864
969,565; 3241,636;   -0,455;   -1,136
970,117; 3301,727;   -0,364;    1,045
970,669; 3136,273;    0,182;   -0,136
971,220; 2980,455;   -0,455;   -1,500
971,772; 2913,182;   -0,636;   -0,318
972,324; 3048,909;    0,091;   -0,500
972,876; 2985,364;    0,818;   -0,045
973,427; 3125,636;    1,909;   -1,045
973,979; 3095,364;   -0,727;   -2,500
974,530; 3109,455;    1,818;    1,318
975,082; 3141,545;   -0,545;    1,682
975,633; 3034,636;    1,091;    1,682
976,184; 3174,545;    0,909;    0,773
976,736; 2957,455;    0,091;    0,227
977,287; 2774,727;   -0,909;   -0,500
977,838; 2963,909;    0,909;   -0,318
978,389; 3031,000;   -1,000;   -0,500
978,940; 2892,455;    0,545;   -0,409
979,491; 2893,182;    0,091;   -0,500
980,042; 2880,818;    0,182;    3,045
980,593; 2922,545;   -2,545;    0,227
981,144; 2958,182;    2,545;   -0,500
981,695; 2935,545;    1,455;    1,500
982,246; 2908,273;   -0,273;    1,045
982,797; 3047,636;   -1,727;    0,682
983,347; 3155,818;    0,364;    0,591
983,898; 3343,818;    3,091;    0,409
984,449; 3161,545;    2,182;    0,773
984,999; 3047,545;    1,455;   -1,136
985,550; 2834,818;    0,182;   -0,318
986,100; 2845,455;   -0,455;   -0,318
986,651; 2879,273;   -0,818;    0,045
987,201; 2863,727;   -1,000;   -0,591
987,751; 2943,636;    0,818;    2,864
988,302; 2936,091;    2,636;    1,500
988,852; 2951,727;    0,455;   -1,136
989,402; 3022,273;    0,091;    0,682
989,952; 2935,091;   -2,182;    0,864
990,502; 3019,000;   -0,091;    0,682
991,052; 2958,000;   -0,727;    0,045
991,602; 2839,545;   -2,909;    1,318
992,152; 2853,545;    0,455;    0,682
992,702; 2831,727;    1,364;   -0,045
993,252; 2769,364;   -3,000;   -0,500
993,802; 2858,727;   -0,273;    1,318
994,352; 3087,273;   -1,545;    1,136
994,901; 3183,909;   -0,182;    3,227
995,451; 3061,909;   -0,182;    0,318
996,000; 3164,909;    1,636;    0,318
996,550; 2884,818;    2,273;    0,227
997,100; 2877,636;    1,273;   -0,045
997,649; 3160,636;    2,182;    0,955
998,198; 2781,455;    1,727;   -1,500
998,748; 3007,182;    1,091;   -2,318
999,297; 2896,273;   -0,818;   -0,409
999,846; 2956,182;    1,000;   -0,773
1000,395; 3006,000;   -0,818;    0,500
1000,945; 2974,636;    1,818;   -0,773
1001,494; 3072,364;    2,364;    0,682
1002,043; 3039,818;    4,636;    0,864
1002,592; 2881,909;   -1,091;    1,955
1003,141; 3028,000;   -0,455;   -0,682
1003,690; 2888,273;    1,727;    0,500
1004,238; 2990,455;    1,455;   -0,045
1004,787; 2592,636;    1,364;    1,227
1005,336; 2825,909;    0,364;    0,682
1005,885; 2979,545;    1,364;   -2,773
1006,433; 3119,000;    0,545;    0,955
1006,982; 3177,455;    0,455;    1,682
1007,531; 3096,545;   -1,818;   -0,227
1008,079; 3054,818;   -2,273;    0,500
1008,627; 3165,818;   -1,455;    0,409
1009,176; 2897,545;    0,000;   -1,955
1009,724; 2957,727;    1,091;    0,864
1010,273; 3012,455;    1,273;    0,500
1010,821; 3095,545;    0,091;    1,409
1011,369; 2857,818;   -1,364;    1,318
1011,917; 2835,727;   -1,364;   -0,591
1012,465; 3108,545;    1,273;   -1,591
1013,013; 3195,636;    2,091;   -1,682
1013,561; 3096,091;    0,455;   -0,773
1014,109; 3146,727;   -1,909;    1,682
1014,657; 3025,000;    0,364;    0,591
1015,205; 3147,182;    1,636;   -0,955
1015,753; 3182,273;   -0,545;   -1,409
1016,301; 3221,909;   -2,636;    3,045
1016,848; 3225,091;   -1,273;    0,409
1017,396; 3280,000;    2,545;    0,045
1017,944; 3390,818;    1,182;    1,864
1018,491; 3142,818;    0,273;    1,409
1019,039; 3310,000;    0,455;    0,591
1019,586; 3203,000;   -1,364;    1,682
1020,134; 3294,273;    0,455;    1,500
1020,681; 3329,091;    0,182;   -1,136
1021,228; 3340,636;    2,909;   -2,227
1021,776; 3165,182;    1,182;   -1,136
1022,323; 3394,909;    0,455;    0,773
1022,870; 3309,364;   -1,000;   -0,045
1023,417; 3201,091;    2,636;    1,864
1023,964; 3343,455;    2,636;    1,227
1024,511; 3197,091;    1,000;    0,773
1025,058; 3003,273;    3,182;   -0,045
1025,605; 3047,364;   -2,273;    3,136
1026,152; 3281,273;    1,727;   -0,591
1026,699; 3015,636;    1,818;    1,318
1027,245; 3186,455;   -0,091;    0,318
1027,792; 3363,545;   -1,000;    1,409
1028,339; 3257,727;    2,364;   -0,045
1028,885; 3094,364;    1,000;   -0,227
1029,432; 3035,000;   -0,091;    0,227
1029,978; 3110,545;   -1,000;   -1,591
1030,525; 3014,818;    1,000;    0,409
1031,071; 3240,545;   -1,364;    1,136
1031,618; 3368,909;    0,364;    1,682
1032,164; 3150,091;   -0,091;    3,045
1032,710; 3193,545;    1,636;   -1,500
1033,256; 3085,455;   -0,636;   -0,136
1033,803; 3074,909;   -0,545;    1,500
1034,349; 2781,182;   -1,364;    0,136
1034,895; 2933,000;    0,000;   -0,318
1035,441; 2931,727;   -0,818;    0,318
1035,987; 2943,909;   -2,364;   -0,682
1036,533; 2938,364;   -1,455;   -0,955
1037,078; 3141,909;    1,455;    1,682
1037,624; 2942,727;    2,455;   -0,955
1038,170; 2969,636;    0,455;   -0,318
1038,716; 2886,273;    1,636;   -0,409
1039,261; 2803,909;   -2,273;   -0,773
1039,807; 2749,364;   -0,091;    3,409
1040,352; 2821,455;   -1,909;   -0,318
1040,898; 2846,091;   -1,545;   -0,682
1041,443; 2745,818;   -1,455;   -2,591
1041,989; 2790,636;    1,091;    1,591
1042,534; 2663,727;   -0,364;    2,591
1043,079; 2773,455;    2,909;    0,955
1043,625; 2581,364;    1,818;    0,500
1044,170; 2623,636;   -1,364;    1,045
1044,715; 2878,364;    2,455;    0,955
1045,260; 2695,818;    2,182;   -0,955
1045,805; 2723,091;    1,182;   -0,591
1046,350; 2646,545;    1,364;   -0,409
1046,895; 2619,000;    2,909;    1,591
1047,440; 2580,818;    5,364;    0,409
1047,985; 2470,091;    2,818;   -0,955
1048,530; 2389,545;    1,545;    1,227
1049,074; 2462,818;    0,000;    0,318
1049,619; 2436,545;   -1,364;    1,955
1050,164; 2235,909;    0,455;    0,227
1050,708; 2269,364;   -0,455;    0,045
1051,253; 2659,636;    1,273;   -2,227
1051,797; 2367,364;    0,818;   -1,318
1052,342; 2363,364;   -1,182;    1,045
1052,886; 2372,545;    0,364;   -1,409
1053,430; 2242,455;   -1,364;    0,136
1053,975; 2260,455;   -0,818;   -0,318
1054,519; 2247,909;   -0,727;    3,227
1055,063; 2270,818;    0,909;    1,318
1055,607; 2142,364;   -0,182;    0,227
1056,151; 2163,364;    2,909;    1,682
1056,695; 2076,000;    2,273;   -1,136
1057,239; 2149,727;   -1,727;   -0,682
1057,783; 2172,364;    0,818;   -1,500
1058,327; 2116,545;    0,000;    1,409
1058,871; 2344,455;   -0,545;    1,318
1059,415; 2048,091;   -0,818;   -0,045
1059,958; 2321,182;    1,455;    2,591
1060,502; 2033,909;   -1,000;   -0,773
1061,046; 1924,909;    0,364;   -0,955
1061,589; 1903,636;   -3,000;   -1,136
1062,133; 1792,273;   -1,273;    1,864
1062,676; 1739,545;    1,182;    0,864
1063,220; 1751,273;    1,091;    0,500
1063,763; 1779,364;    0,909;    1,136
1064,306; 1848,727;   -0,909;    1,864
1064,849; 1734,455;   -0,909;    0,591
1065,393; 1746,818;    2,000;   -1,500
1065,936; 1853,364;    0,182;   -0,409
1066,479; 1727,000;   -1,455;    1,318
1067,022; 1763,091;   -0,273;   -0,227
1067,565; 1646,545;   -0,091;   -1,318
1068,108; 1676,455;    0,727;   -0,591
1068,651; 1655,909;   -0,636;    1,409
1069,194; 1587,182;   -0,455;   -1,682
1069,736; 1588,182;   -1,273;    0,955
1070,279; 1567,545;   -1,364;   -0,500
1070,822; 1621,364;   -2,000;   -0,318
1071,364; 1729,364;   -0,364;    1,318
1071,907; 1543,000;   -0,727;    3,227
1072,450; 1428,091;    0,000;   -0,045
1072,992; 1428,818;   -0,273;    3,136
1073,535; 1586,364;    2,091;    2,136
1074,077; 1371,909;   -0,727;    2,045
1074,619; 1344,818;   -1,364;    0,591
1075,161; 1369,455;   -1,091;    1,500
1075,704; 1563,000;    1,545;    1,227
1076,246; 1346,545;   -0,182;    0,682
1076,788; 1267,909;   -0,364;    1,773
1077,330; 1328,909;    1,273;    2,136
1077,872; 1310,909;    0,909;    0,955
1078,414; 1555,818;    2,727;    0,773
1078,956; 1270,909;    1,273;   -0,227
1079,498; 1542,364;    1,636;    0,318
1080,040; 1250,273;    1,909;   -1,318
1080,581; 1190,818;    1,636;   -0,318
1081,123; 1096,818;    0,091;   -0,773
1081,665; 1154,273;   -1,182;   -0,955
1082,206; 1484,636;    1,364;   -0,500
1082,748; 1328,455;    0,727;    2,045
1083,289; 1200,818;   -2,000;    1,318
1083,831; 1097,545;   -0,545;    0,227
1084,372; 1136,545;    0,000;    0,591
1084,913; 1149,091;    1,091;    0,864
1085,455; 1103,455;   -1,909;   -2,045
1085,996; 1074,636;   -2,273;    0,136
1086,537; 1105,818;   -0,091;    0,864
1087,078; 1128,545;   -0,909;   -2,136
1087,619; 1197,818;   -1,273;    0,227
1088,160; 1103,273;    0,000;    1,318
1088,701; 1085,636;   -1,091;    0,682
1089,242; 1015,636;    1,364;   -2,227
1089,783; 1122,636;   -0,273;    1,409
1090,324; 1087,455;    0,455;    0,682
1090,865;  952,818;    2,727;   -0,409
1091,405;  918,455;    0,727;    2,227
1091,946;  946,818;    0,182;   -0,955
1092,487;  877,545;    0,818;   -1,409
1093,027; 1057,000;   -1,364;   -1,500
1093,568;  912,909;   -0,364;    1,227
1094,108; 1016,000;    0,273;    1,773
1094,649;  944,182;   -1,182;    0,136
1095,189;  873,636;   -0,636;   -0,682
1095,729;  836,091;   -0,091;    0,955
1096,269;  829,636;    0,727;   -0,955
1096,810; 1156,909;   -1,364;    0,500
1097,350;  982,364;    1,364;   -0,773
1097,890;  880,818;    0,364;    1,227
1098,430; 1135,545;    2,364;    2,864
1098,970; 1012,000;    2,182;    1,682
1099,510;  859,273;    0,545;   -2,318
1100,050;  794,455;    1,000;   -1,591
1100,589;  768,909;   -0,727;   -0,318
1101,129;  894,182;    0,818;   -0,955
1101,669; 1058,818;    1,727;    2,136
1102,209;  866,273;   -0,091;    2,227
1102,748;  825,909;    0,000;    0,955
1103,288;  819,727;    1,273;   -1,227
1103,827;  840,182;    3,091;   -2,227
1104,367;  710,273;   -0,091;   -2,409
1104,906;  675,909;    1,364;   -1,136
1105,445;  760,182;    0,636;   -1,136
1105,985;  706,727;   -0,727;    1,500
1106,524;  759,818;   -1,727;   -0,682
1107,063;  733,545;   -2,727;    1,409
1107,602;  693,636;   -1,909;   -1,500
1108,141;  622,091;   -1,909;    1,500
1108,680;  732,545;   -3,455;   -0,591
1109,219;  657,909;   -0,909;   -0,500
1109,758;  652,727;    0,455;    0,682
1110,297;  630,364;    1,000;   -0,682
1110,836;  571,182;   -0,727;    0,955
1111,375;  748,455;   -2,545;    0,409
1111,913;  766,455;   -1,000;    0,773
1112,452;  700,091;   -0,273;    0,136
1112,991;  574,000;    1,091;    1,955
1113,529;  533,909;   -0,818;   -0,045
1114,068;  604,000;   -0,273;    2,955
1114,606;  502,000;   -0,364;   -0,955
1115,144;  680,182;   -1,273;    1,045
1115,683;  602,455;   -0,727;    0,318
1116,221;  652,273;   -0,455;   -0,864
1116,759;  564,091;    0,636;   -0,864
1117,297;  771,091;    0,000;    1,864
1117,836;  565,091;   -2,182;   -1,227
1118,374;  572,273;    0,182;   -0,682
1118,912;  516,000;    0,909;    2,682
1119,450;  508,727;    1,000;    0,864
1119,988;  564,273;    1,545;    2,136
1120,525; 1026,818;    5,091;    3,318
1121,063;  727,818;    1,182;    1,864
1121,601;  526,000;   -0,909;   -1,227
1122,139;  481,273;   -0,727;   -2,045
1122,676;  683,182;   -0,727;    2,773
1123,214;  613,636;   -1,182;    4,409
1123,751;  412,727;    1,727;    2,227
1124,289;  552,364;   -0,091;   -0,409
1124,826;  416,727;    1,727;    0,227
1125,364;  330,818;    1,727;   -0,955
1125,901;  529,636;    1,182;    1,227
1126,438;  655,636;    0,818;    0,955
1126,975;  374,091;   -0,727;   -0,773
1127,513;  442,091;    0,273;    2,136
1128,050;  335,818;    1,636;   -0,682
1128,587;  443,000;    2,000;   -0,227
1129,124;  495,545;    0,091;    1,318
1129,661;  351,636;    0,273;    0,227
1130,198;  523,455;    1,636;    0,773
1130,734;  473,909;    0,182;    1,409
1131,271;  322,000;   -0,909;    0,864
1131,808;  509,727;    2,909;    3,045
1132,345;  374,364;    1,545;    0,318
1132,881;  237,818;   -1,545;   -1,864
1133,418;  383,727;    0,727;   -1,136
1133,954;  310,000;    2,455;   -2,682
1134,491;  402,364;    1,364;   -0,773
1135,027;  287,364;    2,364;    0,864
1135,564;  375,545;    0,273;    2,955
1136,100;  367,545;    0,364;    2,136
1136,636;  254,818;   -1,273;   -1,045
1137,172;  358,636;    0,000;   -1,045
1137,708;  281,545;   -1,364;   -1,045
1138,245;  284,727;    1,273;   -1,227
1138,781;  218,727;    1,091;   -3,318
1139,317;  302,364;    1,273;   -1,409
1139,852;  287,000;    3,091;    0,136
1140,388;  414,364;   -1,182;   -0,409
1140,924;  300,636;   -1,091;   -2,227
1141,460;  228,455;   -1,636;    0,136
1141,996;  144,818;   -1,364;    2,682
1142,531;  199,364;    1,364;    3,318
1143,067;  436,091;    1,182;    1,045
1143,602;  505,182;   -0,091;   -0,318
1144,138;  335,091;   -2,636;    1,045
1144,673;  189,273;   -1,455;    1,409
1145,209;  263,727;   -1,909;   -0,318
1145,744;  182,455;   -0,727;    0,864
1146,279;  318,000;    1,818;   -0,136
1146,815;  226,727;    1,545;   -2,682
1147,350;  278,000;   -1,364;    0,045
1147,885;  189,182;   -0,818;   -1,318
1148,420;  185,545;   -2,273;    0,773
1148,955;  161,909;   -1,727;    1,864
1149,490;  191,273;   -0,909;   -1,591
1150,025;  179,545;    0,455;   -1,773
1150,560;  291,636;    1,091;   -0,955
1151,094;  256,182;    1,455;   -0,591
1151,629;  266,909;    1,636;    0,864
1152,164;  181,909;    1,364;    1,318
1152,698;  149,000;   -0,182;   -0,136
1153,233;   99,818;    0,091;   -0,682
1153,767;  148,000;   -3,000;   -2,318
1154,302;  189,636;   -1,455;    1,773
1154,836;  200,909;   -0,455;   -2,136
1155,371;  254,273;   -1,364;    3,682
1155,905;  209,909;   -0,636;    1,682
1156,439;  175,182;   -0,636;   -0,500
1156,973;  207,182;    0,364;    0,318
1157,507;  139,818;   -0,364;    0,682
1158,042;  178,364;   -0,727;    1,045
1158,576;  221,727;    0,182;    1,773
1159,110;  217,364;   -0,818;    2,409
1159,643;  175,455;    0,636;   -0,045
1160,177;  115,545;   -1,545;    1,500

