
Integration time [ms]:   0,040
Averaging Nr. [scans]: 11
Smoothing Nr. [pixels]: 0
Data measured with spectrometer [name]: 7318044SP
Wave   ;Sample   ;Dark     ;Reference
[nm]   ;[counts] ;[counts] ;[counts] 

186,757;   -7,343;   31,551;    1,318
187,357;   28,663;   22,551;    0,955
187,958;   -0,794;   15,460;   -1,591
188,558;   42,006;    8,915;   -1,227
189,159;   10,595;    6,733;   -4,500
189,759;  -14,627;    7,278;   -3,591
190,360;  -11,085;    2,824;   -2,136
190,960;   24,384;    2,915;   -4,136
191,560;   30,839;    3,189;   -6,591
192,161;  244,198;    4,372;   -3,500
192,761;  105,799;    4,010;   -3,227
193,361;   44,230;    1,556;   -3,773
193,962;   83,844;    2,010;   -2,682
194,562;   11,681;    1,189;   -3,955
195,162;   26,303;   -2,448;   -2,227
195,762;  147,157;   -3,176;   -0,045
196,362;   97,159;    1,370;   -2,500
196,963;    3,869;    2,006;   -0,864
197,563;   47,013;    1,551;   -0,955
198,163;    4,863;    0,096;   -0,682
198,763;   12,673;    1,733;   -0,500
199,363;   60,482;    3,096;   -0,500
199,963;   32,821;    0,369;    0,409
200,563;   23,591;    2,823;   -1,409
201,163;    2,930;    3,277;   -0,227
201,763;   37,527;    3,732;    0,318
202,363;   14,110;    1,459;    1,500
202,963;   43,573;    1,459;    1,045
203,563;   91,247;    0,277;    0,500
204,162;   18,733;    2,096;   -1,864
204,762;   13,612;    0,550;    0,591
205,362;   -4,280;    3,004;    1,955
205,962;   22,104;    3,096;    1,955
206,562;   11,501;    1,823;    2,318
207,161;   -5,245;   -0,087;    0,318
207,761;   80,989;    1,277;    2,409
208,361;    8,112;   -0,268;    1,409
208,960;   29,710;    0,459;    1,500
209,560;   27,090;    1,277;    1,591
210,160;   41,799;    0,550;    1,864
210,759;   12,936;    4,186;    1,227
211,359;    4,206;    1,459;    1,045
211,958;  111,914;    1,277;    2,045
212,558;  109,231;    1,732;    1,864
213,157;   51,331;    1,822;    1,500
213,757;  193,162;    3,822;   -0,227
214,356;   67,343;    1,277;   -0,409
214,956;  173,358;    3,095;    0,409
215,555;   45,291;    2,095;    2,136
216,154;   16,052;   -2,723;   -0,591
216,754;    7,945;    0,277;    0,773
217,353;   21,931;   -0,268;   -1,045
217,952;  -31,488;   -0,178;    0,318
218,552;   48,066;    1,368;   -0,773
219,151;   15,192;    0,277;    0,955
219,750;   -0,959;    0,004;   -0,227
220,349;  -12,474;   -0,451;    1,045
220,948;   56,635;   -1,360;    1,136
221,548;    5,928;    0,913;    1,227
222,147;   18,650;   -0,087;   -0,409
222,746;   97,066;   -0,451;   -0,955
223,345;   40,923;    0,731;    0,500
223,944;   37,561;   -0,451;    0,773
224,543;   35,915;    1,004;   -1,409
225,142;   21,409;    0,094;    0,136
225,741;   27,219;   -0,814;    1,045
226,340;   19,290;   -0,451;   -0,955
226,939;   80,634;   -0,996;   -0,136
227,538;   14,774;   -0,360;   -0,773
228,137;   83,630;   -0,814;    0,864
228,735;   55,259;   -0,541;    1,227
229,334;  -16,302;   -0,905;   -0,227
229,933;   73,961;    0,459;    0,591
230,532;   79,413;    1,186;   -0,409
231,131;  125,748;    1,732;    0,318
231,729;   58,195;   -2,450;   -2,318
232,328;   21,320;   -0,723;   -1,500
232,927;   26,759;    1,004;   -0,500
233,525;   21,209;    3,640;    0,045
234,124;   36,926;    2,368;   -1,591
234,723;   -4,558;    0,913;   -1,045
235,321;  -10,103;    2,277;    0,136
235,920;    6,566;    1,186;   -1,227
236,518;   79,203;    3,459;    0,318
237,117;    7,994;    0,004;   -0,227
237,715;   14,218;    0,640;   -0,500
238,314;   26,618;   -0,087;   -2,318
238,912;   80,469;   -0,723;   -1,409
239,510;   45,893;    0,459;   -1,227
240,109;   95,366;    0,004;    3,773
240,707;   64,190;   -0,996;    1,227
241,305;   -2,268;    0,550;    0,136
241,904;   37,005;   -0,178;   -2,045
242,502;  107,483;   -0,632;   -0,227
243,100;   59,748;   -0,087;   -0,955
243,698;    9,881;    0,732;    1,682
244,297;   26,887;   -0,632;    0,682
244,895;   21,518;   -0,269;   -2,318
245,493;  107,199;    2,186;   -0,591
246,091;  108,681;    1,368;   -1,318
246,689;   65,855;    1,004;    0,591
247,287;   43,269;    0,822;   -1,136
247,885;   20,696;   -1,451;    1,227
248,483;    7,864;    1,822;   -0,500
249,081;   54,720;    0,185;    1,591
249,679;   58,995;   -0,178;    1,682
250,277;    7,460;   -1,723;    0,864
250,875;   56,847;   -1,087;   -1,045
251,473;   14,762;   -1,178;    0,500
252,071;   65,955;    1,459;    1,045
252,669;   19,379;   -1,814;    0,318
253,267;    4,279;   -0,087;    0,773
253,864;   22,541;   -0,360;    0,682
254,462;   81,400;    1,640;    1,591
255,060;    9,725;   -0,269;    1,318
255,658;   -2,439;    0,822;   -0,136
256,255;   15,261;    0,186;   -2,045
256,853;   45,242;   -0,269;    1,409
257,451;   23,456;    0,822;    1,864
258,048;  203,236;    1,822;    1,864
258,646;   84,120;    1,731;   -1,045
259,243;  112,151;   -0,087;    2,227
259,841;   62,990;   -0,814;    0,318
260,438;    1,944;   -0,087;    0,864
261,036;   62,746;   -1,905;    1,409
261,633;    7,485;   -0,087;    2,227
262,231;   -1,430;    2,731;   -0,045
262,828;  -12,763;   -0,905;    1,136
263,425;   12,220;    0,913;   -0,591
264,023;   12,180;    0,186;    0,045
264,620;   65,286;   -0,360;   -0,318
265,217;  112,750;   -2,087;    3,136
265,815;   30,523;   -1,905;    2,136
266,412;   64,039;    0,731;    0,136
267,009;   55,812;   -1,451;    0,773
267,606;   87,938;    0,822;   -0,955
268,203;   23,901;   -0,269;   -0,591
268,801;   26,859;    1,731;    0,591
269,398;    7,843;   -0,360;    2,500
269,995;   59,146;    0,277;    1,591
270,592;   36,367;   -0,632;   -0,500
271,189;   -1,124;    0,186;    0,409
271,786;   -9,466;   -0,632;    1,227
272,383;   75,943;   -1,087;    0,227
272,980;   26,431;    0,277;    0,318
273,577;   15,728;    0,004;    1,227
274,174;    6,520;    0,822;    2,591
274,771;   52,470;   -0,814;   -0,773
275,367;  236,357;    2,277;    1,409
275,964;  119,789;    0,731;   -0,500
276,561;   39,311;    1,549;   -1,045
277,158;   -6,642;    0,095;   -1,773
277,755;   99,265;    2,185;    0,409
278,351;   58,658;   -0,451;   -1,500
278,948;   82,770;   -0,815;    0,045
279,545;   59,165;   -1,360;    2,318
280,141;  113,152;   -1,723;   -2,045
280,738;  113,909;   -0,451;   -0,136
281,334;   33,389;   -1,633;    0,591
281,931;   23,339;   -0,087;   -1,318
282,528;   83,152;    0,822;   -0,500
283,124;  105,673;   -1,087;   -0,500
283,721;   97,763;   -0,451;    1,409
284,317;   41,777;    0,185;    2,500
284,913;  103,745;   -1,360;    0,591
285,510;  187,200;    0,640;   -0,318
286,106;  120,703;   -2,269;   -0,955
286,703;   59,623;   -0,360;    1,955
287,299;   30,536;   -1,451;   -0,591
287,895;   26,137;    0,822;   -1,045
288,491;   22,298;    0,186;    2,136
289,088;   71,426;   -2,360;    2,409
289,684;   87,561;   -1,723;    1,500
290,280;  150,311;    0,368;    0,682
290,876;  125,882;    1,822;    5,500
291,472;   99,209;    1,276;    2,227
292,068;  111,445;    1,367;    0,227
292,665;   65,263;    2,095;    0,773
293,261;   20,437;    0,276;    2,136
293,857;  110,386;    2,913;    2,136
294,453;   64,498;    3,550;    0,955
295,049;  193,319;   -0,268;    1,955
295,644;  119,322;    0,095;    0,136
296,240;   46,793;   -0,905;   -0,136
296,836;  101,986;   -0,995;    0,318
297,432;  174,334;    1,096;   -0,500
298,028;  191,036;    0,732;    0,773
298,624;  120,646;    1,459;    1,864
299,220;  121,452;    2,368;    0,591
299,815;  119,339;    1,005;   -0,409
300,411;  199,501;    0,914;    1,773
301,007;  258,740;    1,368;    0,227
301,602;  153,696;   -0,541;   -2,318
302,198;  254,208;    0,732;   -0,773
302,794;  161,305;    1,187;   -0,500
303,389;  109,692;   -1,177;    1,045
303,985;  140,410;    0,550;    1,409
304,580;  241,843;    1,459;    1,591
305,176;  189,196;   -3,086;    0,136
305,771;   96,662;   -1,268;   -1,227
306,367;  400,865;    4,095;    0,136
306,962;  228,151;    0,641;    1,500
307,558;  267,812;   -0,450;    0,136
308,153;  299,567;    1,095;   -1,136
308,748;  143,488;   -0,814;    1,682
309,344;  420,807;   -0,632;   -1,318
309,939;  417,952;   -1,905;   -1,318
310,534;  191,016;   -0,086;   -1,682
311,130;  152,197;    0,459;   -2,500
311,725;  131,805;    1,004;   -0,500
312,320;  172,043;    2,459;    0,045
312,915;  241,842;    1,459;   -1,045
313,510;  381,300;    1,550;   -0,500
314,105;  162,862;    1,096;    1,409
314,700;   74,561;   -3,086;   -1,045
315,295;  132,479;   -0,904;    0,045
315,890;   97,590;    1,277;    0,864
316,485;  164,093;   -0,359;   -0,318
317,080;   84,166;   -3,086;    1,591
317,675;  303,505;    2,005;   -0,682
318,270;  451,338;    5,550;    3,318
318,865;  341,967;    3,278;    3,045
319,460;  229,391;   -0,904;    0,591
320,055;  105,773;   -0,541;   -1,227
320,650;  109,519;   -1,995;   -0,591
321,244;  106,175;   -0,177;   -1,409
321,839;   99,311;   -1,541;   -0,227
322,434;  128,043;   -1,086;   -1,591
323,029;   90,137;    1,732;    1,591
323,623;   75,942;    1,550;    0,773
324,218;  203,173;    2,368;    1,409
324,812;  155,313;    1,096;    1,591
325,407;  150,573;   -0,814;    2,045
326,002;  243,555;    0,277;   -0,409
326,596;  200,810;    0,914;    1,318
327,191;  100,971;    0,823;   -1,045
327,785;  113,447;   -0,813;   -0,227
328,379;  100,277;    1,368;    0,136
328,974;  138,855;    0,914;   -3,955
329,568;  163,717;    0,186;   -2,409
330,163;  233,367;    2,096;    1,045
330,757;  122,265;    2,459;    1,591
331,351;   81,849;    0,459;    0,682
331,945;   87,661;    0,914;    1,409
332,540;  203,948;   -1,723;   -0,591
333,134;  210,521;   -1,086;    0,773
333,728;  218,097;    0,005;    0,318
334,322;  131,476;   -1,177;   -0,864
334,916;  149,119;    0,277;    0,955
335,510;  301,139;   -0,450;   -0,136
336,105;  296,244;   -1,086;    1,591
336,699;  225,789;   -1,086;    0,591
337,293;  288,434;   -1,723;    0,318
337,887;  233,166;   -2,723;    1,955
338,481;  389,791;    0,459;    0,591
339,074;  508,293;   -0,359;    2,682
339,668;  522,130;   -1,632;    1,227
340,262; 1112,652;    1,732;    3,227
340,856;  740,981;    1,822;   -0,682
341,450;  416,109;    1,004;    1,864
342,044;  504,161;    1,459;    0,136
342,637;  709,912;    0,913;   -2,136
343,231;  748,522;   -2,360;    0,682
343,825;  607,963;   -1,086;   -0,591
344,419;  610,799;   -1,995;    0,500
345,012; 1249,944;    2,459;    4,045
345,606; 1074,410;    4,641;    1,591
346,199;  736,523;   -1,813;   -0,227
346,793;  934,088;    1,914;    2,045
347,386;  723,727;   -0,813;   -1,136
347,980;  607,937;   -0,268;   -0,045
348,573;  808,507;    2,278;    0,409
349,167; 1147,698;    5,278;    4,773
349,760; 1112,929;    2,914;    2,682
350,354; 1039,415;   -0,813;    1,136
350,947; 1128,520;    1,096;    1,682
351,540;  940,628;   -0,358;   -1,409
352,134;  783,689;    1,096;    1,136
352,727;  880,353;   -0,086;    1,136
353,320;  928,124;    0,005;    0,591
353,913;  839,931;   -1,995;    1,864
354,507; 1115,697;    0,823;   -1,227
355,100; 1009,378;    0,460;    0,864
355,693; 1435,091;    2,005;    2,409
356,286; 1150,772;    0,823;    2,773
356,879;  980,762;   -0,722;    1,227
357,472;  933,546;   -0,904;    1,500
358,065; 1025,843;   -0,722;    2,500
358,658;  862,755;   -0,540;    2,318
359,251;  772,770;   -1,631;   -0,591
359,844;  984,456;   -1,904;   -1,136
360,437; 1111,997;   -2,995;    0,045
361,030;  935,646;    1,369;   -0,682
361,623;  881,742;    2,824;    0,318
362,215; 1155,126;   -0,086;    2,045
362,808;  965,445;   -2,358;   -1,682
363,401;  865,557;   -2,449;    0,136
363,994; 1128,090;   -0,631;   -1,500
364,586;  845,171;    0,824;   -1,500
365,179;  778,064;   -0,449;   -1,136
365,772;  577,650;   -1,995;    2,045
366,364;  763,084;    1,915;   -3,227
366,957;  860,545;    2,279;   -0,045
367,549;  756,212;    2,188;   -0,864
368,142;  753,564;    1,825;   -1,500
368,734;  693,209;    0,734;   -2,136
369,327;  580,243;    1,643;   -0,500
369,919;  648,318;   -1,538;    0,409
370,512;  672,887;   -1,083;   -0,500
371,104;  967,915;   -0,901;    1,591
371,696; 1009,974;    1,191;   -0,955
372,289;  830,089;    0,373;    1,136
372,881;  753,361;   -2,080;    1,318
373,473;  589,913;   -2,170;    1,136
374,066;  713,381;   -0,169;    0,500
374,658;  663,612;    0,378;    1,136
375,250;  579,110;    0,653;   -1,409
375,842;  631,747;    0,473;   -0,045
376,434;  578,664;   -0,435;   -0,409
377,026;  587,873;    0,204;   -2,500
377,618;  598,110;   -0,158;   -0,682
378,210;  499,844;   -0,338;   -1,955
378,802;  429,941;    0,754;   -0,591
379,394;  949,049;    1,846;    0,682
379,986;  659,983;    1,393;   -0,955
380,578;  550,460;   -0,153;    0,773
381,170;  829,063;   -0,972;    0,045
381,762;  698,337;    0,755;    1,409
382,354;  664,294;   -0,065;   -1,318
382,945;  564,126;   -2,976;    0,318
383,537;  502,444;   -2,705;   -1,955
384,129;  509,246;   -2,160;   -1,136
384,721;  664,110;   -0,252;    0,955
385,312;  546,354;   -0,161;   -0,955
385,904;  701,816;   -2,706;    1,591
386,496;  541,734;   -0,979;    1,045
387,087;  722,443;    1,022;    2,500
387,679;  641,399;   -1,160;    0,045
388,270;  643,494;    2,840;    2,045
388,862;  587,742;    1,295;   -0,318
389,453;  517,391;   -0,887;    1,045
390,045;  564,813;   -0,705;   -2,682
390,636;  445,298;    0,204;   -0,591
391,227;  502,289;   -0,523;   -0,045
391,819;  508,057;    0,204;    0,773
392,410;  814,301;    1,022;    0,045
393,001;  593,158;   -0,979;   -1,591
393,593;  674,034;    1,930;   -0,045
394,184;  745,264;    1,385;   -0,409
394,775;  541,578;    1,839;    2,136
395,366;  486,538;    1,385;    0,773
395,957;  737,168;    0,113;    0,136
396,548;  594,915;   -0,342;    2,682
397,139;  776,696;   -2,433;    0,591
397,730;  636,763;   -1,888;    0,955
398,321;  641,676;   -1,252;    0,955
398,912;  562,225;   -0,615;    0,136
399,503;  581,607;   -3,524;   -1,409
400,094;  602,854;    0,294;    1,682
400,685;  594,496;   -0,433;    0,045
401,276;  485,979;    0,930;   -0,955
401,867;  479,763;   -0,888;    0,773
402,458;  436,204;   -2,251;   -2,318
403,048;  643,908;    1,112;    0,591
403,639;  517,759;    0,840;    0,864
404,230;  708,139;    2,476;    0,318
404,821;  774,970;   -0,615;    0,045
405,411;  623,415;    1,203;   -2,591
406,002;  486,230;   -1,252;   -1,136
406,592;  794,605;    2,294;    0,045
407,183;  596,167;    0,566;   -1,500
407,774;  530,124;    3,475;   -0,136
408,364;  486,203;    0,930;    0,409
408,954;  635,256;    0,384;    1,227
409,545;  623,869;    1,021;    1,045
410,135;  528,813;    1,293;    0,500
410,726;  466,234;    1,838;    0,318
411,316;  694,376;    0,111;    0,773
411,906;  449,944;   -0,253;   -0,409
412,497;  444,962;   -1,070;   -0,045
413,087;  362,862;   -1,980;   -0,227
413,677;  272,812;   -0,707;    3,864
414,267;  247,930;    0,656;    1,409
414,857;  214,704;   -2,980;    4,227
415,448;  203,206;    0,839;    0,500
416,038;  225,550;    0,020;   -0,591
416,628;  277,244;   -0,889;    0,409
417,218;  349,138;    0,565;    3,318
417,808;  523,548;    0,202;   -0,409
418,398;  351,134;    0,020;    2,682
418,988;  179,867;    2,020;    0,591
419,578;  286,008;   -0,707;    1,409
420,168;  201,868;   -1,343;   -0,955
420,757;  373,330;   -1,343;   -1,500
421,347;  246,674;    0,111;   -0,227
421,937;  182,502;    2,292;    1,409
422,527;  331,694;    0,838;   -0,773
423,116;  471,250;   -0,253;   -0,045
423,706;  134,227;   -1,889;    0,318
424,296;   79,939;    1,384;    0,682
424,885;  228,120;   -0,071;   -3,045
425,475;  189,964;    1,474;   -2,864
426,065;   45,527;   -0,980;   -0,318
426,654;   19,638;   -0,435;   -0,318
427,244;  319,210;    0,020;    1,409
427,833;  280,065;    1,383;   -0,500
428,423;  130,702;   -0,526;    1,136
429,012;  117,093;   -0,344;   -1,136
429,601;  252,234;   -1,344;    0,136
430,191;  129,338;    1,292;    4,318
430,780;   14,139;   -0,344;   -0,409
431,369;  219,060;    0,746;   -0,045
431,959;   92,223;   -1,254;    0,500
432,548;   20,279;   -1,163;   -0,045
433,137;  -50,537;   -1,254;   -1,318
433,726;   30,484;    0,292;    0,500
434,315;   45,339;   -0,526;    2,409
434,905;  160,228;   -1,254;    1,409
435,494;  157,378;    0,746;    0,955
436,083;   17,581;   -0,981;   -0,955
436,672;  104,220;    0,110;    0,500
437,261;   56,903;    0,292;   -1,955
437,850;  290,247;    1,383;    0,682
438,439;  337,774;    3,291;    1,955
439,027;  447,654;    3,655;    1,773
439,616;  362,933;    2,927;    1,227
440,205;  132,116;    0,200;   -2,136
440,794;   76,245;    2,109;   -0,045
441,383;   -1,867;   -1,346;   -0,591
441,971;  -29,171;   -2,436;    0,591
442,560;  -20,315;    0,563;   -1,773
443,149; -118,368;    0,379;   -1,318
443,737;  -69,966;   -0,074;   -2,318
444,326;  -37,929;    0,018;    0,318
444,915;   11,429;   -1,982;    0,864
445,503;   21,344;   -2,891;   -0,318
446,092;  281,315;    0,382;    2,136
446,680;  205,886;    0,382;    0,318
447,269;  108,832;   -0,346;   -0,318
447,857;   87,805;    0,018;   -1,773
448,445;   47,620;    0,563;    1,318
449,034;   -9,030;   -1,528;   -1,136
449,622;   -2,841;   -1,073;    3,500
450,210;  283,766;    2,017;    2,227
450,799;  195,093;    0,290;   -0,591
451,387;  153,551;    1,381;   -0,591
451,975;  136,739;    2,654;    0,864
452,563;  202,384;    3,472;    2,318
453,151;   36,518;   -0,528;   -1,227
453,739;   94,167;   -1,347;    0,136
454,328;  197,397;    2,381;   -2,136
454,916;  124,554;    2,562;   -0,136
455,504;  134,834;    1,017;    1,227
456,092;   20,857;    0,017;   -1,591
456,679;   -5,425;    1,472;    0,682
457,267;  405,821;    4,017;    1,045
457,855;   83,154;    1,017;    1,409
458,443;  -51,205;   -0,165;    1,682
459,031;  112,405;    0,108;    2,409
459,619;   67,726;   -1,801;    2,864
460,206;  -39,898;    0,835;    2,045
460,794;  -39,393;   -2,983;   -0,227
461,382;   13,872;   -0,529;   -0,864
461,970;   21,807;    1,198;    1,864
462,557;  -59,721;   -0,711;   -0,682
463,145;   57,706;   -3,165;   -1,682
463,732;  307,045;    2,016;   -1,045
464,320;   83,537;   -0,075;   -3,045
464,907;  220,434;    2,743;   -0,773
465,495;  127,410;    0,743;   -1,227
466,082;   54,001;   -1,984;   -0,045
466,670;   77,305;   -2,529;    1,227
467,257;  -35,890;   -1,711;    2,045
467,844;   77,212;   -0,075;    0,045
468,432;   45,094;    0,834;    3,500
469,019;    0,461;    0,925;   -1,773
469,606;   92,394;    0,470;    3,682
470,193;  126,732;   -1,439;    0,227
470,780;   79,656;   -2,075;    0,864
471,368;    8,828;   -1,257;   -0,773
471,955;  128,213;    1,379;   -0,682
472,542;   78,629;    0,652;   -1,136
473,129;  -38,864;   -0,166;    0,136
473,716;  -29,406;    1,470;    0,591
474,303;    4,519;    0,652;   -0,864
474,890;    7,825;   -1,439;   -0,500
475,477;  114,166;   -1,621;    0,409
476,064;    6,027;    1,106;   -1,591
476,650;  137,007;    0,288;    0,318
477,237;   55,189;   -0,258;    0,955
477,824;   27,087;   -1,076;    0,864
478,411;  -74,853;   -1,894;   -0,318
478,997;  -74,311;    0,560;   -0,773
479,584; -121,202;    1,196;   -0,409
480,171;   65,614;   -0,440;   -0,773
480,757;  119,856;    2,651;    0,773
481,344;    7,960;    0,469;    0,409
481,931;  -78,808;    1,105;    1,045
482,517;   55,746;   -1,258;    0,318
483,104;  136,128;    1,106;    2,864
483,690;  -11,030;   -1,804;    0,045
484,276;  -23,463;   -0,895;    0,227
484,863;  197,891;    2,469;    1,136
485,449;   40,040;   -0,077;    0,318
486,035;   -6,532;   -1,986;   -0,136
486,622;   89,123;   -0,895;    0,045
487,208;   14,017;    1,378;    1,500
487,794;  -71,894;    0,741;    0,318
488,380;  -80,013;    0,105;   -1,409
488,967;  -72,256;   -1,168;   -0,409
489,553;  -47,347;   -1,895;   -1,409
490,139;   34,544;    1,559;    0,773
490,725;  -40,235;    0,741;   -0,227
491,311;    3,239;    3,287;    3,045
491,897;  -22,374;   -0,986;    1,500
492,483;  -22,280;    0,105;    1,227
493,069;  423,896;    3,923;    0,864
493,655;  141,713;    1,650;    0,682
494,241;   12,550;    1,377;   -0,955
494,826;   24,372;    0,287;   -1,045
495,412;   84,132;    2,559;   -0,682
495,998;   -2,381;   -0,805;   -0,318
496,584;   60,824;    0,377;    1,045
497,169;   70,330;    1,014;   -0,682
497,755;    8,577;    0,650;    1,227
498,341;  149,505;    0,559;    0,318
498,926;  265,323;    1,832;    1,955
499,512;   -4,395;    1,286;    2,955
500,097;   -0,477;    0,195;   -0,318
500,683;   26,885;   -0,350;    2,136
501,268;  -23,340;   -0,169;   -0,955
501,854;   -0,189;   -0,169;    1,227
502,439;  -10,971;   -0,624;   -1,773
503,024;   18,113;    0,195;    0,500
503,610;   32,759;   -0,078;   -0,682
504,195;  -19,759;    0,558;    1,955
504,780;   70,237;    2,922;    1,227
505,366;  161,736;    3,013;    2,864
505,951;   92,917;    0,740;    1,045
506,536;   18,267;   -3,260;   -3,682
507,121;   74,298;    0,285;   -0,318
507,706;   27,503;    2,376;    1,045
508,291;  -19,530;    2,649;    1,136
508,876;  -19,525;   -0,988;    2,591
509,461;   20,312;   -0,169;   -0,773
510,046;   72,496;    0,194;    0,318
510,631;   84,637;   -0,351;   -0,773
511,216;    7,167;    2,467;   -0,500
511,801;   68,166;   -0,442;    2,591
512,386;  101,302;    0,740;    0,500
512,971;  126,065;   -2,988;    0,955
513,555;  186,612;   -0,897;   -1,500
514,140;  157,336;   -0,442;   -3,136
514,725;  324,096;   -0,715;   -1,136
515,309;  239,959;   -0,533;    0,318
515,894;  145,918;   -0,624;   -2,227
516,479;  232,814;   -0,624;   -0,955
517,063;  294,835;    0,376;    1,227
517,648;  273,684;    1,012;   -1,136
518,232;  327,552;   -0,261;   -1,409
518,817;  509,262;   -0,079;    1,682
519,401;  791,001;    2,194;    0,591
519,985;  767,666;    1,103;    1,136
520,570;  710,020;    0,830;   -1,955
521,154; 1026,187;    2,102;    0,591
521,738; 1484,131;   -2,352;    2,409
522,323; 1541,504;   -0,170;    1,682
522,907; 1633,439;    0,466;   -0,136
523,491; 1766,280;    0,557;    0,955
524,075; 1998,445;    2,284;    0,591
524,659; 2462,073;    1,466;    0,591
525,243; 2614,682;    1,739;    0,409
525,827; 2971,874;    0,648;   -0,045
526,411; 3680,891;   -1,989;   -0,136
526,995; 4309,936;   -0,352;    1,409
527,579; 4548,041;   -0,443;   -1,045
528,163; 5127,653;    0,375;   -1,500
528,747; 5637,159;    2,466;   -0,773
529,331; 6273,426;   -0,080;   -1,409
529,915; 6804,246;    1,738;    0,955
530,499; 7261,486;   -0,807;    1,227
531,082; 7527,026;   -0,534;    1,591
531,666; 7606,978;    1,374;    0,773
532,250; 8524,778;    1,284;    2,682
532,833; 9162,270;    0,920;    2,773
533,417; 9469,046;   -1,807;    0,864
534,001; 9794,135;    1,647;   -0,318
534,584;10810,967;    0,374;    0,500
535,168;11010,315;    0,465;    1,409
535,751;11408,473;    0,647;    0,045
536,334;11204,907;   -0,898;   -0,409
536,918;12023,735;    0,011;    1,591
537,501;12382,752;   -0,899;    1,318
538,085;12650,807;   -0,444;    1,045
538,668;13031,607;    0,829;    2,409
539,251;13597,045;    1,829;    3,773
539,834;13860,286;    0,101;    0,773
540,418;14015,809;   -1,990;    4,318
541,001;14274,532;   -0,990;    1,773
541,584;14411,409;    2,101;    2,227
542,167;14309,055;    1,374;    2,955
542,750;14565,521;    1,919;   -0,773
543,333;14324,562;    0,555;    2,136
543,916;15207,970;    0,192;    2,500
544,499;15902,106;   -1,354;    0,227
545,082;16025,187;    1,374;    3,591
545,665;16276,885;    1,919;    1,500
546,248;16687,653;    1,010;   -0,318
546,830;16429,218;   -0,445;    1,955
547,413;16953,000;    1,010;   -0,773
547,996;17529,341;    0,555;    0,500
548,579;17395,531;    0,919;    0,955
549,161;17287,975;    1,828;    2,682
549,744;17102,529;   -0,809;    0,409
550,326;17671,545;   -0,809;   -1,136
550,909;17562,166;    2,737;    0,591
551,492;17980,043;   -0,263;    0,227
552,074;17821,352;   -0,173;   -1,318
552,657;18402,963;    2,373;    0,045
553,239;18191,547;   -0,173;   -0,773
553,821;18165,210;   -1,082;    1,045
554,404;17720,468;    1,282;    1,136
554,986;18103,106;    0,464;    1,045
555,568;18759,418;    1,191;   -0,955
556,151;17986,855;    1,191;   -0,227
556,733;18193,340;   -0,264;   -0,864
557,315;18690,497;    0,100;    0,500
557,897;18542,888;    0,554;   -0,500
558,479;18675,391;   -1,991;    1,318
559,061;18845,351;   -0,719;   -0,864
559,643;19218,846;   -0,264;    0,045
560,225;19617,954;    1,645;    2,864
560,807;19620,573;    0,918;    0,318
561,389;19106,496;    0,554;    2,318
561,971;19955,154;    0,463;    2,136
562,553;19734,392;   -1,628;    1,591
563,135;19875,947;   -0,537;    1,136
563,717;19498,452;    3,372;    1,136
564,298;20216,289;    3,645;   -0,045
564,880;19970,499;    0,645;   -1,409
565,462;20154,772;    0,645;    1,318
566,043;21339,458;   -0,446;    2,318
566,625;20906,814;    1,918;    1,227
567,207;20783,499;    1,099;    1,682
567,788;21989,810;   -1,264;    1,500
568,370;22799,971;    1,917;   -0,500
568,951;22653,468;    0,190;    0,227
569,533;23503,625;   -0,628;   -0,500
570,114;23967,379;   -0,446;    0,682
570,695;24491,681;   -0,174;   -1,318
571,277;25056,593;   -0,265;   -1,682
571,858;25828,639;    2,008;   -1,136
572,439;26726,687;    1,554;   -1,045
573,021;26931,858;    2,099;   -2,773
573,602;27466,666;   -1,265;    0,318
574,183;28402,643;   -2,083;    2,227
574,764;28502,678;   -1,629;    0,409
575,345;29144,309;    0,917;   -0,136
575,926;29689,024;   -0,356;    0,136
576,507;29681,295;    1,099;   -0,227
577,088;30864,353;    3,099;    1,682
577,669;30875,286;    0,735;    1,955
578,250;31726,007;    0,644;   -1,045
578,831;32364,783;   -1,356;   -2,227
579,412;32619,086;   -0,810;    0,955
579,993;33448,168;    1,008;    0,227
580,573;33830,481;   -0,629;   -0,955
581,154;32779,145;    0,735;   -0,591
581,735;33692,609;    0,644;    0,773
582,315;33260,518;   -0,629;    2,136
582,896;33442,951;   -0,174;    1,227
583,477;32863,592;    0,189;    1,227
584,057;33120,862;    0,553;    0,955
584,638;33461,441;    2,553;    2,318
585,218;33505,119;   -0,538;    2,682
585,799;33605,817;    0,281;   -0,227
586,379;33509,444;    0,372;    1,591
586,959;32233,527;    0,735;    0,318
587,540;31550,298;   -0,629;    2,227
588,120;31176,275;    1,007;   -0,045
588,700;30144,311;    2,553;    2,136
589,281;30481,779;    0,462;   -0,955
589,861;30432,586;    0,099;   -1,682
590,441;30227,795;    2,371;   -2,682
591,021;29164,524;   -0,265;   -2,591
591,601;29394,150;   -0,537;    0,500
592,181;29425,697;   -0,719;   -0,773
592,761;28770,366;    0,007;    1,409
593,341;28645,214;   -0,901;    0,045
593,921;28638,593;   -0,265;    1,591
594,501;28579,924;   -0,538;    1,318
595,081;28399,610;    0,917;   -0,318
595,661;28778,299;   -1,447;    0,955
596,240;29252,728;   -0,537;    0,136
596,820;28986,341;    0,372;    1,955
597,400;29176,036;    2,008;    0,773
597,980;29354,699;    2,008;    1,045
598,559;29320,467;    2,735;   -0,227
599,139;29036,968;   -0,174;   -1,227
599,718;28965,150;   -0,174;   -0,409
600,298;29245,773;    0,735;    0,682
600,877;29554,086;    2,917;    1,409
601,457;29846,062;    2,281;    1,136
602,036;29670,687;    0,190;    2,045
602,616;29957,691;    0,644;    1,682
603,195;30268,782;   -0,355;    3,500
603,774;29837,250;   -0,901;    2,045
604,354;29679,687;    0,826;   -0,500
604,933;29130,127;    0,463;    1,864
605,512;29240,496;    3,554;    0,591
606,091;29265,604;   -0,537;    3,773
606,671;30171,764;    0,281;    0,773
607,250;29273,144;    1,644;    3,136
607,829;29509,420;    2,372;    3,227
608,408;29313,464;    1,190;    2,591
608,987;28309,224;    1,281;    3,409
609,566;28658,580;   -1,265;   -2,500
610,145;28786,404;   -1,082;    0,682
610,723;29199,195;    4,372;    6,864
611,302;28468,881;   -0,446;    1,682
611,881;27986,307;    5,008;   11,227
612,460;28818,025;    1,645;    3,955
613,039;29201,084;   -0,082;    2,045
613,617;27927,029;    1,736;    4,773
614,196;28122,785;    1,099;    1,227
614,775;28504,672;    1,009;    2,409
615,353;28461,918;    0,736;    0,864
615,932;28173,453;    0,100;    2,409
616,510;28738,664;    0,554;    0,591
617,089;28262,080;    7,100;   17,591
617,667;27990,279;    2,372;    6,136
618,246;27836,946;   -1,537;    1,318
618,824;28038,217;   -3,355;   -0,955
619,402;27608,316;   -2,900;   -1,773
619,981;28148,851;   -0,173;   -1,045
620,559;27945,476;    0,009;    1,682
621,137;27446,308;   -0,718;    1,864
621,715;27528,554;   -1,173;   -0,682
622,293;27468,994;   -0,537;   -0,773
622,871;27919,134;   -0,718;    0,500
623,450;27458,592;    0,373;   -0,864
624,028;27342,319;    0,191;   -0,955
624,606;27018,994;   -1,718;    1,682
625,183;27469,125;   -1,536;   -1,136
625,761;27011,663;    1,009;    1,136
626,339;27331,636;    1,373;    2,591
626,917;27746,046;   -0,172;   -0,045
627,495;27730,920;   -0,354;    1,318
628,073;27206,018;   -0,263;    2,864
628,650;26867,990;    0,100;    2,136
629,228;27312,048;    0,373;    4,409
629,806;26716,278;    2,282;    1,136
630,383;26918,113;    1,464;   -0,318
630,961;26727,675;    2,555;   -0,955
631,539;26519,610;    2,464;    0,227
632,116;25884,947;   11,373;   15,409
632,694;26446,856;    2,555;    6,500
633,271;26772,095;    0,828;    2,682
633,848;26705,749;    1,828;    2,045
634,426;26710,894;   -1,081;    1,773
635,003;25838,945;    1,101;   -0,409
635,580;26204,823;    1,192;    3,682
636,158;26742,644;    3,737;    1,227
636,735;26692,583;    0,555;   -0,500
637,312;26882,119;   -0,809;   -0,682
637,889;26932,368;   -4,354;   -0,682
638,466;26374,686;   -3,990;   -0,409
639,043;26381,948;    2,101;   -1,136
639,620;26703,362;   -2,262;   -0,955
640,197;27042,170;    1,100;    1,682
640,774;27171,871;   -0,172;    1,136
641,351;27588,027;    0,737;    1,136
641,928;26967,273;   -0,627;    1,409
642,505;26661,974;    0,828;   -0,500
643,082;26782,675;   -1,718;    1,227
643,658;25725,285;   -0,718;    1,500
644,235;26529,895;    1,191;    2,500
644,812;26899,687;    1,918;    0,773
645,388;26615,570;   -0,991;    1,409
645,965;26671,816;   -0,809;    1,682
646,542;26780,245;   -1,445;   -0,227
647,118;26727,946;    1,009;   -0,955
647,695;27047,737;   -0,263;    1,136
648,271;26946,711;   -0,536;    0,500
648,848;27283,048;    0,736;    2,227
649,424;27114,658;    0,827;    1,318
650,000;26867,541;   -0,354;   -1,045
650,577;26636,697;   -0,627;   -0,955
651,153;27107,216;   -1,809;    0,955
651,729;28198,826;    1,191;    0,864
652,305;28776,527;    0,645;    2,773
652,881;34055,864;   -0,082;    1,136
653,458;41009,838;    1,100;    0,227
654,034;44414,993;    0,282;    1,591
654,610;45667,422;    0,554;    0,773
655,186;46848,123;    0,645;    3,045
655,762;46472,005;   -0,991;    0,409
656,338;46427,070;    0,100;    0,136
656,913;47407,953;   -0,082;    0,409
657,489;46610,017;    0,827;   -0,318
658,065;46585,991;   -0,173;   -1,591
658,641;47231,874;   -0,900;   -0,864
659,217;46458,211;   -0,991;    0,409
659,792;45867,367;    0,645;   -0,409
660,368;46079,522;   -2,173;   -0,682
660,944;45429,496;   -2,082;    1,227
661,519;40054,379;   -0,628;    0,409
662,095;34125,171;   -1,719;    0,591
662,670;29924,508;    1,281;   -0,136
663,246;29044,754;    1,009;   -0,409
663,821;28480,183;    0,281;    1,682
664,396;27978,247;    0,009;    1,864
664,972;28246,312;    0,009;   -0,500
665,547;28540,013;    1,372;    0,136
666,122;28634,168;   -1,082;    0,318
666,698;28904,869;   -0,173;    0,318
667,273;28231,297;   -0,173;    0,136
667,848;29040,271;    2,372;    1,500
668,423;28876,699;    2,190;    2,318
668,998;29509,219;    2,827;   -0,682
669,573;30052,374;   -3,264;   -1,500
670,148;29844,257;   -1,446;   -0,682
670,723;29674,049;   -1,810;    0,318
671,298;30008,750;    2,372;    1,045
671,873;30152,087;   -0,082;   -0,136
672,448;30127,970;    0,645;    0,136
673,023;30438,398;   -1,992;   -0,227
673,597;30814,463;    0,827;    2,318
674,172;30554,345;   -0,355;    0,318
674,747;30006,319;    0,372;   -1,045
675,321;29837,565;   -0,628;    3,318
675,896;29482,903;    0,645;    1,045
676,471;30464,786;    2,645;    1,591
677,045;30198,396;   -1,264;    0,682
677,620;30293,642;    0,190;    1,136
678,194;30563,707;   -2,628;    1,136
678,769;30113,044;   -1,083;   -0,318
679,343;30395,927;   -0,628;    1,773
679,917;30292,991;   -1,446;    1,955
680,492;30369,238;    0,826;    3,227
681,066;30494,939;    3,372;    0,409
681,640;30553,640;    1,463;   -0,318
682,214;31381,613;    0,735;    0,500
682,788;30929,769;   -1,356;   -0,773
683,363;30845,652;   -1,810;    1,682
683,937;30520,171;   -1,719;   -0,318
684,511;31307,145;    0,463;   -0,591
685,085;30996,664;   -1,356;    0,318
685,659;30741,910;   -2,538;    0,864
686,232;31048,611;   -0,356;   -0,318
686,806;30719,767;   -0,901;    0,409
687,380;31412,831;   -0,174;    0,591
687,954;31635,896;   -1,174;    1,136
688,528;31309,142;   -0,719;    1,955
689,101;32068,843;   -3,992;    1,045
689,675;31689,271;   -0,356;   -0,136
690,249;31031,063;   -0,719;    0,409
690,822;31310,764;    0,280;    0,318
691,396;31452,465;   -0,265;    1,227
691,969;30864,348;    1,280;    0,136
692,543;31353,867;   -0,447;   -1,955
693,116;30948,386;   -0,265;   -1,409
693,690;30797,178;    0,099;    0,500
694,263;31403,334;   -1,083;    2,955
694,836;31503,853;    1,371;    3,591
695,410;30115,463;   -0,265;    1,773
695,983;30559,709;    0,189;    0,591
696,556;30533,228;   -0,447;   -1,045
697,129;30885,566;   -0,356;    1,409
697,703;30523,176;   -1,629;    1,955
698,276;30512,331;    1,462;   -0,773
698,849;30357,487;    1,280;    1,409
699,422;30705,642;   -1,083;    0,591
699,995;30421,162;    0,007;    0,136
700,568;30919,499;   -0,629;    3,045
701,140;30966,291;   -2,811;    1,682
701,713;30703,355;   -0,174;    2,409
702,286;30439,511;   -0,538;    0,864
702,859;30319,575;   -0,902;   -0,591
703,432;29417,276;    0,825;    0,682
704,004;29909,977;    0,462;    0,318
704,577;29783,406;   -0,629;    0,136
705,150;30414,016;    0,189;    2,500
705,722;30209,808;   -0,356;   -3,227
706,295;29939,599;   -0,175;   -0,591
706,867;29792,937;   -0,175;    1,955
707,440;30006,547;   -1,720;   -0,409
708,012;30288,611;    0,462;    0,591
708,584;30163,494;    2,462;    0,227
709,157;30435,650;    1,825;   -0,591
709,729;30076,714;    2,280;    2,045
710,301;30908,233;    0,734;    0,045
710,874;30963,753;   -1,447;   -0,227
711,446;29888,090;    0,371;    0,864
712,018;29677,064;    0,098;    0,500
712,590;29462,765;   -1,993;    1,682
713,162;30010,556;    0,825;    1,318
713,734;30198,257;    1,825;   -2,045
714,306;30075,413;   -1,902;   -0,409
714,878;28781,659;    0,825;    0,864
715,450;29574,542;    0,643;    0,864
716,022;29809,789;    1,552;    1,318
716,593;29981,762;    0,189;    0,591
717,165;29936,645;   -3,175;   -1,227
717,737;29656,800;    0,280;    0,409
718,309;29283,592;    0,280;   -0,045
718,880;29256,930;   -0,539;   -1,409
719,452;29452,994;   -0,175;   -1,591
720,024;29056,968;    0,734;   -0,591
720,595;29629,669;   -2,902;    0,955
721,167;29192,734;    0,370;   -2,045
721,738;28696,253;   -0,812;   -1,045
722,309;28657,226;   -0,993;   -1,227
722,881;28430,018;   -1,357;    0,773
723,452;29104,083;   -2,630;    2,864
724,023;29247,511;   -0,721;    2,682
724,595;29008,485;    0,007;    0,682
725,166;28707,458;    0,007;   -0,409
725,737;28404,069;    1,734;    0,227
726,308;28565,497;   -0,266;    0,318
726,879;28958,743;   -1,630;    1,227
727,450;28806,081;    0,552;   -0,045
728,021;28770,963;    3,097;    0,682
728,592;28525,210;    0,734;    0,500
729,163;28816,820;    0,643;   -0,136
729,734;28941,339;    0,188;   -0,227
730,305;29232,222;    1,734;    0,136
730,876;29587,104;    0,188;    2,955
731,447;29392,442;    2,188;    2,682
732,017;29483,234;    1,097;    1,864
732,588;28879,116;    0,734;    1,227
733,159;29093,363;    0,643;   -1,045
733,729;28870,155;    0,006;    0,409
734,300;28177,765;    0,915;    0,864
734,870;28621,102;    3,461;    0,591
735,441;29102,349;    0,370;   -0,591
736,011;28919,777;    0,643;   -1,591
736,582;28834,932;   -0,812;    0,045
737,152;28296,542;   -1,721;   -2,045
737,722;28716,971;   -0,267;   -0,682
738,293;28419,853;   -1,358;    1,318
738,863;28316,827;    2,461;    2,318
739,433;28147,710;    5,279;    0,318
740,003;28779,865;   -0,994;   -0,682
740,573;28189,385;    2,097;   -1,591
741,143;28138,085;   -1,085;    0,318
741,713;28951,423;    1,188;   -0,500
742,283;28657,124;    0,915;    1,591
742,853;28417,370;    1,915;    1,591
743,423;27806,344;    1,733;    0,045
743,993;27956,863;   -0,358;    1,500
744,563;27337,655;    0,097;   -0,864
745,133;27320,083;   -0,812;   -0,864
745,702;27944,602;   -0,267;    1,773
746,272;27170,576;   -0,176;    0,591
746,842;26975,277;   -1,358;   -0,591
747,411;27320,978;   -0,267;   -0,318
747,981;27511,315;    0,097;    0,500
748,551;27575,562;    2,278;   -1,045
749,120;27423,899;    0,642;   -0,227
749,690;27797,054;   -0,631;    2,409
750,259;28152,665;    1,369;    2,955
750,828;28127,366;    1,551;   -1,955
751,398;28341,248;    1,278;   -0,045
751,967;27890,222;    2,187;    0,409
752,536;28094,105;   -0,813;   -0,227
753,105;28488,624;    0,096;    0,227
753,675;28314,052;    0,096;    1,773
754,244;28224,935;   -0,904;    3,591
754,813;28282,272;    0,551;    1,227
755,382;27836,701;    0,460;    0,955
755,951;28377,583;    1,551;    3,682
756,520;27895,284;   -0,085;    1,864
757,089;28487,076;    0,278;    0,500
757,658;28682,050;    1,733;    1,227
758,227;28652,205;    1,096;    0,318
758,795;28968,997;    1,187;    1,136
759,364;29186,971;   -0,086;   -0,591
759,933;28172,399;   -1,176;   -0,045
760,501;27632,736;    0,733;   -1,318
761,070;28150,437;   -2,813;   -1,409
761,639;28868,502;   -1,904;    1,318
762,207;28247,476;    1,551;   -0,955
762,776;28176,177;    0,369;    0,864
763,344;28102,241;   -0,995;    0,591
763,913;27124,851;   -0,722;    1,409
764,481;27936,734;    1,005;   -0,136
765,049;27687,162;   -1,358;    1,409
765,618;27516,500;   -0,086;    0,318
766,186;27665,292;    0,278;    0,136
766,754;27881,993;    0,005;    1,864
767,322;26868,875;   -1,995;    0,409
767,890;26912,031;   -0,722;   -1,773
768,459;27306,368;   -2,177;   -0,318
769,027;27501,978;    1,641;    3,409
769,595;26419,588;    3,278;    2,591
770,163;26836,380;    3,823;    2,955
770,730;26567,627;    0,732;   -0,136
771,298;26406,600;    0,187;   -1,409
771,866;26478,938;   -1,541;    4,955
772,434;26854,184;   -0,631;   -1,864
773,002;26979,703;    0,005;    0,682
773,569;26642,222;    0,914;    1,682
774,137;26478,923;   -0,268;   -0,045
774,705;27265,897;    0,278;   -0,136
775,272;26738,416;    0,641;    0,682
775,840;26434,390;   -0,177;    2,682
776,407;26037,000;    0,277;    1,955
776,975;25624,792;   -0,632;    0,318
777,542;26645,402;   -1,086;   -0,045
778,110;26428,921;   -1,268;   -0,045
778,677;26115,622;   -2,359;   -0,864
779,244;25877,323;    2,186;    1,045
779,812;26016,297;    1,823;    0,864
780,379;25889,179;    0,005;    1,136
780,946;26186,971;    1,005;   -0,773
781,513;26478,490;   -1,450;    0,318
782,080;25825,282;   -0,086;    2,864
782,647;26529,256;   -0,268;    3,045
783,214;26157,048;   -0,177;    3,864
783,781;25778,203;   -0,723;   -0,682
784,348;25581,086;   -0,632;    1,500
784,915;26055,514;   -3,177;    0,318
785,482;25851,215;    1,368;    2,591
786,049;26209,371;    0,186;   -0,591
786,615;26365,072;    0,277;   -0,955
787,182;26096,318;    0,186;   -0,682
787,749;25802,565;   -2,814;    1,409
788,315;25134,175;   -1,632;   -0,409
788,882;25420,512;    1,550;   -1,227
789,448;26149,577;    1,732;   -0,955
790,015;26117,550;    1,095;    3,227
790,581;25677,251;    1,459;    0,227
791,148;25634,498;    0,641;    1,045
791,714;25794,471;   -0,541;    3,136
792,280;25404,263;    0,186;    1,591
792,847;25005,419;    0,550;    2,500
793,413;25617,392;   -0,269;   -0,318
793,979;25112,457;    3,459;   -1,318
794,545;25230,067;    4,459;    2,682
795,111;24580,950;    2,186;    1,318
795,678;24749,378;    0,731;   -1,682
796,244;24405,806;    3,368;    0,136
796,810;24968,325;    1,731;    0,773
797,375;24669,026;    0,549;   -2,136
797,941;24685,182;   -0,541;    0,591
798,507;24851,065;   -0,451;   -0,955
799,073;24365,947;   -0,360;    0,591
799,639;24454,921;   -2,632;    3,136
800,205;24498,531;    0,095;    2,682
800,770;24039,869;    0,640;    1,773
801,336;24175,388;    1,368;   -0,955
801,901;23833,998;    4,549;    3,136
802,467;24404,426;   -0,542;    2,045
803,033;23673,763;   -0,087;    0,864
803,598;23919,464;    1,913;   -1,045
804,163;23958,074;    1,095;   -0,318
804,729;23910,139;   -0,178;    1,136
805,294;24311,931;    0,822;    2,227
805,859;24118,450;    0,731;   -0,409
806,425;23531,605;    1,186;    2,682
806,990;23187,034;    2,186;    4,318
807,555;23686,916;   -1,451;    2,591
808,120;23578,345;    0,822;   -0,409
808,685;23614,137;    0,185;   -2,500
809,250;23098,656;    0,004;   -0,500
809,815;23436,720;    1,913;    0,682
810,380;24019,603;   -0,269;    1,591
810,945;24575,759;   -1,087;    2,045
811,510;23702,278;    2,094;    1,591
812,075;23410,979;   -0,633;   -1,409
812,640;23451,225;    2,003;    1,409
813,204;23527,835;    0,822;   -0,227
813,769;23990,536;    2,094;   -0,045
814,334;23407,419;    0,458;    0,864
814,898;23443,938;    0,367;    0,591
815,463;23293,912;    1,276;   -0,773
816,027;23291,522;   -0,724;   -2,318
816,592;23379,677;    0,640;   -2,045
817,156;22911,560;    2,094;    1,136
817,721;22736,807;    4,276;    2,318
818,285;22689,962;    2,912;    1,500
818,849;23355,572;   -1,451;    1,682
819,414;23224,637;   -0,269;    2,955
819,978;22771,974;   -1,269;    1,773
820,542;23367,493;    2,003;    0,500
821,106;23023,012;   -0,815;    0,682
821,670;23186,077;   -0,815;    2,591
822,234;22918,869;   -0,270;    1,409
822,798;22283,479;    0,003;    0,500
823,362;22246,725;   -0,633;    4,227
823,926;21534,972;    0,094;    1,136
824,490;21791,673;   -0,997;   -0,682
825,054;22217,555;   -0,088;   -1,136
825,618;21815,438;   -1,542;   -1,500
826,181;21798,867;    0,458;   -1,318
826,745;21685,931;    1,367;   -1,045
827,309;22106,087;    1,185;    1,318
827,872;21410,606;    1,367;    0,955
828,436;22396,761;    1,185;   -0,773
828,999;22445,008;   -0,997;    1,227
829,563;21227,345;   -0,179;    1,136
830,126;21047,228;   -0,179;   -0,591
830,690;21064,656;   -1,997;    2,864
831,253;20575,721;   -0,543;    2,227
831,816;20739,240;   -1,906;    0,500
832,380;20669,486;    0,185;    0,864
832,943;20889,005;   -1,361;   -0,500
833,506;20335,070;    2,639;   -1,227
834,069;21124,316;    3,912;   -0,955
834,632;21185,199;    1,730;    1,318
835,195;21108,718;    1,003;    0,955
835,758;20229,419;   -0,997;    1,955
836,321;20121,847;    0,730;   -1,045
836,884;20234,276;   -0,725;   -0,955
837,447;20239,886;   -2,816;    1,773
838,010;20564,678;    0,366;    3,227
838,573;20866,470;   -1,179;    0,773
839,135;20794,443;   -1,361;   -0,955
839,698;20260,235;    1,275;    0,409
840,261;19704,118;    1,003;   -0,227
840,823;19542,637;   -0,543;    0,864
841,386;19867,156;   -0,452;   -2,409
841,948;19767,403;   -1,361;    1,773
842,511;19504,104;    0,912;    1,682
843,073;19618,259;    1,912;    0,227
843,636;19398,415;   -0,361;   -0,227
844,198;19378,752;    0,911;    0,591
844,760;19511,907;    1,093;    1,955
845,322;19131,972;    0,548;    1,136
845,885;19539,673;    0,730;    0,591
846,447;19974,192;   -1,998;    0,227
847,009;19601,257;    1,911;   -0,682
847,571;19908,230;    0,820;   -2,045
848,133;20001,750;   -1,089;   -1,864
848,695;19821,905;   -0,543;    1,409
849,257;19382,242;   -1,089;   -1,682
849,819;19571,125;   -0,998;   -0,409
850,381;19570,553;   -0,725;   -0,864
850,942;19961,709;    1,093;   -0,591
851,504;19958,228;    1,184;    0,227
852,066;19964,111;    1,275;   -1,591
852,628;19472,085;   -0,180;    1,955
853,189;19001,967;    1,638;    2,682
853,751;19076,577;   -0,907;    1,409
854,312;18900,824;   -0,453;   -1,682
854,874;19434,070;   -2,089;   -0,773
855,435;19959,680;   -0,907;   -1,682
855,997;20117,654;   -1,816;   -0,136
856,558;19390,628;    0,366;    1,773
857,119;19486,056;    0,820;    2,864
857,681;19128,030;    0,002;    0,318
858,242;19247,731;    1,911;   -2,136
858,803;19697,886;    0,456;   -0,773
859,364;20267,951;    0,184;   -4,773
859,925;19582,288;   -2,453;   -0,955
860,486;19492,989;   -0,453;   -0,955
861,047;19161,872;   -0,544;   -1,227
861,608;18978,300;   -1,089;   -0,773
862,169;19071,365;    0,638;   -0,045
862,730;18869,520;    0,456;    1,409
863,291;19134,130;   -0,635;   -0,500
863,852;19498,922;   -0,635;    1,955
864,412;18919,078;   -0,271;   -0,864
864,973;17501,778;   -0,089;    0,500
865,534;17395,207;   -1,726;    0,227
866,094;18906,362;    1,820;    0,227
866,655;18570,245;    1,274;    3,318
867,215;18819,037;    0,274;    0,136
867,776;18648,738;    0,547;   -0,136
868,336;18813,621;   -1,453;    0,136
868,897;18285,685;    2,638;    1,682
869,457;17963,386;    1,365;    0,318
870,017;18156,814;    0,547;   -1,227
870,578;18724,334;   -0,817;    0,773
871,138;18413,671;   -2,089;   -0,955
871,698;17959,826;   -0,817;   -1,318
872,258;17825,618;   -0,453;   -2,864
872,818;18198,319;    2,729;    0,045
873,378;18159,384;    0,638;    1,045
873,938;17657,267;    0,547;    0,500
874,498;18024,513;    0,274;   -1,955
875,058;17921,759;    2,183;    1,773
875,618;17756,188;    1,910;   -2,682
876,177;17683,889;    1,274;    0,136
876,737;17254,226;   -0,090;    1,955
877,297;17315,563;    0,183;    1,955
877,856;17328,537;   -0,362;    0,318
878,416;17228,511;    1,183;   -0,136
878,976;17452,666;   -1,817;    0,409
879,535;17628,004;    0,092;    3,136
880,095;17356,341;   -0,544;    0,045
880,654;17537,678;   -1,090;    1,318
881,213;17660,652;    2,456;    1,500
881,773;17250,989;    2,637;    2,682
882,332;17641,054;    3,365;    5,136
882,891;17479,300;    3,092;    2,136
883,451;17969,638;   -1,272;    1,682
884,010;17344,884;   -2,908;   -0,409
884,569;17436,949;   -0,999;   -0,045
885,128;17595,922;    2,819;   -1,864
885,687;17741,441;    4,455;    0,682
886,246;17421,961;    1,455;    2,136
886,805;17200,025;    2,455;    2,045
887,364;17435,817;   -0,999;   -0,500
887,922;17814,336;   -1,181;    0,045
888,481;17311,674;   -1,545;    0,591
889,040;17634,738;    1,183;    2,136
889,599;18308,803;    2,455;    1,409
890,157;18385,504;    1,455;    2,409
890,716;18047,114;   -0,090;    0,227
891,274;17847,451;    0,092;   -1,136
891,833;18298,516;    1,546;    0,864
892,391;18161,580;   -0,454;    0,500
892,950;18232,554;    1,819;   -0,773
893,508;18627,800;    0,455;   -0,409
894,067;17939,138;    0,637;    0,136
894,625;17844,021;   -0,636;   -1,500
895,183;18081,721;   -0,363;   -0,682
895,741;17948,332;    1,728;   -1,773
896,299;17766,214;   -0,545;   -2,409
896,858;17976,370;    0,819;   -1,591
897,416;18100,798;    2,728;   -1,318
897,974;17842,499;    1,819;    0,318
898,532;17982,655;    6,091;    2,682
899,089;17868,628;    2,091;   -0,682
899,647;17885,420;   -1,454;    1,318
900,205;17615,667;    1,182;    1,045
900,763;17840,186;   -0,454;    0,227
901,321;17828,068;    2,364;   -1,409
901,878;17222,406;   -1,000;   -0,773
902,436;17123,379;   -1,363;    1,318
902,994;17516,626;    4,728;    3,682
903,551;16939,690;    0,728;    0,409
904,109;17317,119;    0,182;   -1,409
904,666;16864,820;    2,455;    1,045
905,224;16748,884;    0,182;   -0,409
905,781;16498,676;    0,727;   -0,318
906,338;16599,741;   -1,363;    1,045
906,895;16452,805;    0,637;    2,045
907,453;16405,415;    1,727;    1,136
908,010;16402,753;   -0,909;    0,409
908,567;16110,726;    1,273;    0,591
909,124;15546,882;    0,364;   -1,500
909,681;15611,583;   -2,909;    0,682
910,238;15762,829;    0,636;   -1,318
910,795;16052,712;   -0,273;   -1,136
911,352;15686,894;   -2,909;   -2,682
911,909;15106,348;   -1,364;   -0,864
912,466;15604,803;   -3,182;    1,500
913,022;15146,894;   -1,636;    0,500
913,579;15530,712;   -0,909;    2,045
914,136;15226,894;    1,636;    0,955
914,692;15565,258;    0,091;   -1,227
915,249;15168,530;    1,455;    0,409
915,806;15373,076;    0,182;    1,955
916,362;15120,985;    1,909;    1,864
916,918;14698,803;    2,000;    1,045
917,475;14660,258;   -1,182;    0,955
918,031;14701,712;    3,364;   -0,045
918,587;14140,621;   -0,909;   -0,318
919,144;14343,258;   -2,273;    0,227
919,700;14686,439;    1,727;    0,773
920,256;14233,530;    0,727;    0,045
920,812;13868,894;   -0,727;   -1,045
921,368;13871,621;   -1,727;   -1,045
921,924;13487,167;    0,182;   -0,136
922,480;13063,076;   -0,545;    1,227
923,036;13697,530;    1,273;    1,955
923,592;13612,803;    0,455;    0,318
924,148;13553,167;    0,455;   -0,955
924,704;12855,076;   -1,364;   -0,409
925,259;13105,985;   -0,273;    0,591
925,815;12874,167;    1,455;    0,500
926,371;12351,985;    2,909;    1,409
926,926;12247,076;    2,091;    0,591
927,482;11889,076;   -1,364;    0,773
928,037;11733,803;    0,909;    2,045
928,593;12063,167;    1,636;    1,045
929,148;11865,530;   -1,818;   -1,500
929,704;11354,167;   -1,455;   -0,500
930,259;11558,530;    0,091;   -0,136
930,814;10590,439;   -0,818;    1,955
931,369;10229,894;    1,091;   -0,773
931,925;10102,167;   -0,091;    0,136
932,480;10058,348;   -2,818;   -2,591
933,035; 9909,621;    0,545;   -0,318
933,590; 9641,076;    0,364;   -1,773
934,145; 9266,621;   -1,364;   -0,318
934,700; 9606,985;    0,455;   -0,591
935,255; 9454,348;   -0,091;    0,045
935,809; 8720,076;    3,182;    0,864
936,364; 7787,530;   -0,455;   -0,136
936,919; 7743,258;    0,455;   -1,773
937,474; 7619,712;    1,455;    0,136
938,028; 7348,258;   -1,636;    1,136
938,583; 6863,076;    1,818;    4,682
939,138; 7099,167;    2,091;    2,136
939,692; 6507,530;    1,636;   -1,136
940,247; 6196,258;   -0,727;   -1,045
940,801; 5745,439;   -0,636;    0,227
941,355; 5643,348;   -0,364;    2,591
941,910; 5277,167;   -0,273;   -2,136
942,464; 5400,258;   -0,818;   -0,318
943,018; 5184,167;    1,000;   -0,227
943,572; 5133,258;    2,545;   -0,682
944,126; 4514,439;    0,091;   -0,409
944,681; 4428,439;    3,091;    0,227
945,235; 4442,348;    1,000;   -0,591
945,789; 4349,894;    0,364;   -1,864
946,342; 4423,712;    0,455;   -0,591
946,896; 4242,439;   -2,273;    0,955
947,450; 3995,803;    1,545;   -0,227
948,004; 4197,258;    1,727;   -0,045
948,558; 4200,167;    0,273;   -0,864
949,111; 4133,439;   -0,273;   -0,318
949,665; 4145,712;    1,636;   -0,682
950,219; 4018,894;   -0,091;   -1,045
950,772; 4102,712;   -1,909;    1,864
951,326; 3985,985;    0,545;   -0,955
951,879; 4102,530;    0,727;   -2,318
952,433; 4119,712;    0,000;    2,227
952,986; 3959,167;    2,909;    0,682
953,539; 3901,167;   -0,273;    0,591
954,093; 3839,348;    0,545;   -1,318
954,646; 3965,985;    0,909;    1,318
955,199; 3777,985;    0,000;   -0,500
955,752; 3665,621;   -0,455;    1,773
956,305; 3624,712;   -0,091;    2,955
956,858; 3817,712;    0,818;   -0,318
957,411; 3975,894;   -0,545;    2,136
957,964; 3784,348;    1,364;    2,136
958,517; 3768,076;   -1,545;    3,136
959,070; 3605,712;   -0,455;    1,955
959,623; 3666,803;    1,091;    1,500
960,176; 3433,712;    1,727;    2,045
960,728; 3426,530;   -2,727;    0,773
961,281; 3469,258;    0,545;    0,500
961,834; 3533,439;   -0,909;    0,864
962,386; 3449,348;    1,727;    1,045
962,939; 3363,621;    0,364;   -0,318
963,491; 3521,258;    0,455;    1,136
964,043; 3386,621;    1,182;    2,409
964,596; 3505,167;   -1,000;    2,227
965,148; 3350,621;   -1,000;    1,773
965,700; 3264,439;    1,091;   -0,227
966,253; 3419,167;   -0,636;    0,318
966,805; 3247,803;   -2,273;    0,773
967,357; 3316,894;    1,091;   -1,500
967,909; 3268,258;    0,455;   -1,227
968,461; 3365,621;    0,545;    3,136
969,013; 3290,621;   -0,182;   -0,864
969,565; 3376,439;   -0,455;   -1,136
970,117; 3419,803;   -0,364;    1,045
970,669; 3250,894;    0,182;   -0,136
971,220; 3124,803;   -0,455;   -1,500
971,772; 3051,894;   -0,636;   -0,318
972,324; 3174,621;    0,091;   -0,500
972,876; 3108,985;    0,818;   -0,045
973,427; 3276,167;    1,909;   -1,045
973,979; 3230,258;   -0,727;   -2,500
974,530; 3280,530;    1,818;    1,318
975,082; 3271,621;   -0,545;    1,682
975,633; 3164,439;    1,091;    1,682
976,184; 3304,076;    0,909;    0,773
976,736; 3071,258;    0,091;    0,227
977,287; 2893,621;   -0,909;   -0,500
977,838; 3071,530;    0,909;   -0,318
978,389; 3150,621;   -1,000;   -0,500
978,940; 3012,167;    0,545;   -0,409
979,491; 3035,076;    0,091;   -0,500
980,042; 3000,712;    0,182;    3,045
980,593; 3050,167;   -2,545;    0,227
981,144; 3085,894;    2,545;   -0,500
981,695; 3063,167;    1,455;    1,500
982,246; 3039,348;   -0,273;    1,045
982,797; 3189,348;   -1,727;    0,682
983,347; 3296,076;    0,364;    0,591
983,898; 3465,167;    3,091;    0,409
984,449; 3262,258;    2,182;    0,773
984,999; 3193,076;    1,455;   -1,136
985,550; 2951,985;    0,182;   -0,318
986,100; 2997,621;   -0,455;   -0,318
986,651; 3025,621;   -0,818;    0,045
987,201; 3005,348;   -1,000;   -0,591
987,751; 3087,803;    0,818;    2,864
988,302; 3095,167;    2,636;    1,500
988,852; 3107,076;    0,455;   -1,136
989,402; 3134,985;    0,091;    0,682
989,952; 3050,258;   -2,182;    0,864
990,502; 3155,167;   -0,091;    0,682
991,052; 3119,258;   -0,727;    0,045
991,602; 2989,712;   -2,909;    1,318
992,152; 2981,530;    0,455;    0,682
992,702; 2965,167;    1,364;   -0,045
993,252; 2883,803;   -3,000;   -0,500
993,802; 2994,439;   -0,273;    1,318
994,352; 3209,803;   -1,545;    1,136
994,901; 3293,258;   -0,182;    3,227
995,451; 3217,167;   -0,182;    0,318
996,000; 3309,985;    1,636;    0,318
996,550; 3022,076;    2,273;    0,227
997,100; 3032,258;    1,273;   -0,045
997,649; 3312,712;    2,182;    0,955
998,198; 2931,985;    1,727;   -1,500
998,748; 3116,167;    1,091;   -2,318
999,297; 3019,439;   -0,818;   -0,409
999,846; 3074,712;    1,000;   -0,773
1000,395; 3134,076;   -0,818;    0,500
1000,945; 3095,530;    1,818;   -0,773
1001,494; 3193,439;    2,364;    0,682
1002,043; 3159,348;    4,636;    0,864
1002,592; 3003,803;   -1,091;    1,955
1003,141; 3176,167;   -0,455;   -0,682
1003,690; 3038,621;    1,727;    0,500
1004,238; 3109,894;    1,455;   -0,045
1004,787; 2730,803;    1,364;    1,227
1005,336; 2975,348;    0,364;    0,682
1005,885; 3124,439;    1,364;   -2,773
1006,433; 3265,894;    0,545;    0,955
1006,982; 3313,076;    0,455;    1,682
1007,531; 3219,348;   -1,818;   -0,227
1008,079; 3173,712;   -2,273;    0,500
1008,627; 3333,712;   -1,455;    0,409
1009,176; 3046,621;    0,000;   -1,955
1009,724; 3085,076;    1,091;    0,864
1010,273; 3151,167;    1,273;    0,500
1010,821; 3250,621;    0,091;    1,409
1011,369; 2979,167;   -1,364;    1,318
1011,917; 2972,621;   -1,364;   -0,591
1012,465; 3264,258;    1,273;   -1,591
1013,013; 3372,348;    2,091;   -1,682
1013,561; 3238,803;    0,455;   -0,773
1014,109; 3300,712;   -1,909;    1,682
1014,657; 3161,803;    0,364;    0,591
1015,205; 3279,076;    1,636;   -0,955
1015,753; 3341,894;   -0,545;   -1,409
1016,301; 3375,348;   -2,636;    3,045
1016,848; 3374,985;   -1,273;    0,409
1017,396; 3414,621;    2,545;    0,045
1017,944; 3530,439;    1,182;    1,864
1018,491; 3291,621;    0,273;    1,409
1019,039; 3451,076;    0,455;    0,591
1019,586; 3354,803;   -1,364;    1,682
1020,134; 3454,167;    0,455;    1,500
1020,681; 3478,348;    0,182;   -1,136
1021,228; 3477,439;    2,909;   -2,227
1021,776; 3296,712;    1,182;   -1,136
1022,323; 3526,985;    0,455;    0,773
1022,870; 3456,439;   -1,000;   -0,045
1023,417; 3349,076;    2,636;    1,864
1023,964; 3531,167;    2,636;    1,227
1024,511; 3356,894;    1,000;    0,773
1025,058; 3143,076;    3,182;   -0,045
1025,605; 3191,621;   -2,273;    3,136
1026,152; 3427,621;    1,727;   -0,591
1026,699; 3146,530;    1,818;    1,318
1027,245; 3297,167;   -0,091;    0,318
1027,792; 3499,985;   -1,000;    1,409
1028,339; 3405,985;    2,364;   -0,045
1028,885; 3240,712;    1,000;   -0,227
1029,432; 3183,621;   -0,091;    0,227
1029,978; 3244,803;   -1,000;   -1,591
1030,525; 3143,348;    1,000;    0,409
1031,071; 3404,439;   -1,364;    1,136
1031,618; 3501,167;    0,364;    1,682
1032,164; 3275,621;   -0,091;    3,045
1032,710; 3320,712;    1,636;   -1,500
1033,256; 3235,076;   -0,636;   -0,136
1033,803; 3216,258;   -0,545;    1,500
1034,349; 2903,258;   -1,364;    0,136
1034,895; 3078,803;    0,000;   -0,318
1035,441; 3062,076;   -0,818;    0,318
1035,987; 3059,167;   -2,364;   -0,682
1036,533; 3051,076;   -1,455;   -0,955
1037,078; 3272,621;    1,455;    1,682
1037,624; 3063,621;    2,455;   -0,955
1038,170; 3108,894;    0,455;   -0,318
1038,716; 3023,803;    1,636;   -0,409
1039,261; 2931,712;   -2,273;   -0,773
1039,807; 2866,167;   -0,091;    3,409
1040,352; 2926,258;   -1,909;   -0,318
1040,898; 2969,348;   -1,545;   -0,682
1041,443; 2869,439;   -1,455;   -2,591
1041,989; 2884,439;    1,091;    1,591
1042,534; 2764,076;   -0,364;    2,591
1043,079; 2874,621;    2,909;    0,955
1043,625; 2688,712;    1,818;    0,500
1044,170; 2730,894;   -1,364;    1,045
1044,715; 2977,985;    2,455;    0,955
1045,260; 2796,712;    2,182;   -0,955
1045,805; 2836,439;    1,182;   -0,591
1046,350; 2763,894;    1,364;   -0,409
1046,895; 2733,621;    2,909;    1,591
1047,440; 2691,167;    5,364;    0,409
1047,985; 2571,258;    2,818;   -0,955
1048,530; 2499,348;    1,545;    1,227
1049,074; 2567,530;    0,000;    0,318
1049,619; 2536,985;   -1,364;    1,955
1050,164; 2348,439;    0,455;    0,227
1050,708; 2385,167;   -0,455;    0,045
1051,253; 2753,621;    1,273;   -2,227
1051,797; 2458,076;    0,818;   -1,318
1052,342; 2467,348;   -1,182;    1,045
1052,886; 2473,076;    0,364;   -1,409
1053,430; 2348,167;   -1,364;    0,136
1053,975; 2362,803;   -0,818;   -0,318
1054,519; 2349,894;   -0,727;    3,227
1055,063; 2347,348;    0,909;    1,318
1055,607; 2234,348;   -0,182;    0,227
1056,151; 2254,530;    2,909;    1,682
1056,695; 2178,258;    2,273;   -1,136
1057,239; 2246,439;   -1,727;   -0,682
1057,783; 2251,439;    0,818;   -1,500
1058,327; 2193,076;    0,000;    1,409
1058,871; 2434,894;   -0,545;    1,318
1059,415; 2137,076;   -0,818;   -0,045
1059,958; 2407,439;    1,455;    2,591
1060,502; 2106,894;   -1,000;   -0,773
1061,046; 2014,258;    0,364;   -0,955
1061,589; 2000,439;   -3,000;   -1,136
1062,133; 1867,530;   -1,273;    1,864
1062,676; 1812,530;    1,182;    0,864
1063,220; 1815,985;    1,091;    0,500
1063,763; 1840,348;    0,909;    1,136
1064,306; 1927,258;   -0,909;    1,864
1064,849; 1804,985;   -0,909;    0,591
1065,393; 1817,076;    2,000;   -1,500
1065,936; 1929,621;    0,182;   -0,409
1066,479; 1803,985;   -1,455;    1,318
1067,022; 1830,530;   -0,273;   -0,227
1067,565; 1721,621;   -0,091;   -1,318
1068,108; 1752,985;    0,727;   -0,591
1068,651; 1726,712;   -0,636;    1,409
1069,194; 1655,803;   -0,455;   -1,682
1069,736; 1650,712;   -1,273;    0,955
1070,279; 1631,621;   -1,364;   -0,500
1070,822; 1684,348;   -2,000;   -0,318
1071,364; 1774,076;   -0,364;    1,318
1071,907; 1582,985;   -0,727;    3,227
1072,450; 1479,348;    0,000;   -0,045
1072,992; 1486,076;   -0,273;    3,136
1073,535; 1627,803;    2,091;    2,136
1074,077; 1411,530;   -0,727;    2,045
1074,619; 1387,803;   -1,364;    0,591
1075,161; 1424,712;   -1,091;    1,500
1075,704; 1610,712;    1,545;    1,227
1076,246; 1397,712;   -0,182;    0,682
1076,788; 1328,894;   -0,364;    1,773
1077,330; 1391,439;    1,273;    2,136
1077,872; 1356,258;    0,909;    0,955
1078,414; 1582,439;    2,727;    0,773
1078,956; 1320,167;    1,273;   -0,227
1079,498; 1595,530;    1,636;    0,318
1080,040; 1290,258;    1,909;   -1,318
1080,581; 1222,803;    1,636;   -0,318
1081,123; 1144,530;    0,091;   -0,773
1081,665; 1207,076;   -1,182;   -0,955
1082,206; 1528,348;    1,364;   -0,500
1082,748; 1363,803;    0,727;    2,045
1083,289; 1228,894;   -2,000;    1,318
1083,831; 1135,530;   -0,545;    0,227
1084,372; 1184,348;    0,000;    0,591
1084,913; 1197,439;    1,091;    0,864
1085,455; 1145,167;   -1,909;   -2,045
1085,996; 1124,621;   -2,273;    0,136
1086,537; 1149,712;   -0,091;    0,864
1087,078; 1173,167;   -0,909;   -2,136
1087,619; 1214,712;   -1,273;    0,227
1088,160; 1135,621;    0,000;    1,318
1088,701; 1106,621;   -1,091;    0,682
1089,242; 1052,530;    1,364;   -2,227
1089,783; 1166,167;   -0,273;    1,409
1090,324; 1127,530;    0,455;    0,682
1090,865; 1000,167;    2,727;   -0,409
1091,405;  960,076;    0,727;    2,227
1091,946;  989,348;    0,182;   -0,955
1092,487;  906,712;    0,818;   -1,409
1093,027; 1098,621;   -1,364;   -1,500
1093,568;  941,439;   -0,364;    1,227
1094,108; 1057,803;    0,273;    1,773
1094,649;  986,439;   -1,182;    0,136
1095,189;  918,258;   -0,636;   -0,682
1095,729;  869,348;   -0,091;    0,955
1096,269;  864,167;    0,727;   -0,955
1096,810; 1200,621;   -1,364;    0,500
1097,350; 1013,348;    1,364;   -0,773
1097,890;  912,258;    0,364;    1,227
1098,430; 1185,530;    2,364;    2,864
1098,970; 1049,076;    2,182;    1,682
1099,510;  898,803;    0,545;   -2,318
1100,050;  826,439;    1,000;   -1,591
1100,589;  803,985;   -0,727;   -0,318
1101,129;  925,985;    0,818;   -0,955
1101,669; 1081,621;    1,727;    2,136
1102,209;  891,803;   -0,091;    2,227
1102,748;  854,621;    0,000;    0,955
1103,288;  827,894;    1,273;   -1,227
1103,827;  866,621;    3,091;   -2,227
1104,367;  740,621;   -0,091;   -2,409
1104,906;  704,348;    1,364;   -1,136
1105,445;  774,167;    0,636;   -1,136
1105,985;  716,712;   -0,727;    1,500
1106,524;  777,621;   -1,727;   -0,682
1107,063;  746,439;   -2,727;    1,409
1107,602;  723,530;   -1,909;   -1,500
1108,141;  643,803;   -1,909;    1,500
1108,680;  756,076;   -3,455;   -0,591
1109,219;  680,439;   -0,909;   -0,500
1109,758;  671,167;    0,455;    0,682
1110,297;  655,348;    1,000;   -0,682
1110,836;  593,076;   -0,727;    0,955
1111,375;  772,258;   -2,545;    0,409
1111,913;  780,712;   -1,000;    0,773
1112,452;  707,258;   -0,273;    0,136
1112,991;  590,348;    1,091;    1,955
1113,529;  541,167;   -0,818;   -0,045
1114,068;  629,712;   -0,273;    2,955
1114,606;  519,258;   -0,364;   -0,955
1115,144;  696,348;   -1,273;    1,045
1115,683;  627,439;   -0,727;    0,318
1116,221;  679,621;   -0,455;   -0,864
1116,759;  576,258;    0,636;   -0,864
1117,297;  787,621;    0,000;    1,864
1117,836;  575,803;   -2,182;   -1,227
1118,374;  600,712;    0,182;   -0,682
1118,912;  531,439;    0,909;    2,682
1119,450;  525,712;    1,000;    0,864
1119,988;  582,530;    1,545;    2,136
1120,525; 1035,621;    5,091;    3,318
1121,063;  729,894;    1,182;    1,864
1121,601;  539,348;   -0,909;   -1,227
1122,139;  489,894;   -0,727;   -2,045
1122,676;  705,621;   -0,727;    2,773
1123,214;  632,803;   -1,182;    4,409
1123,751;  433,348;    1,727;    2,227
1124,289;  573,439;   -0,091;   -0,409
1124,826;  432,076;    1,727;    0,227
1125,364;  350,803;    1,727;   -0,955
1125,901;  555,712;    1,182;    1,227
1126,438;  669,076;    0,818;    0,955
1126,975;  380,712;   -0,727;   -0,773
1127,513;  456,167;    0,273;    2,136
1128,050;  350,894;    1,636;   -0,682
1128,587;  456,076;    2,000;   -0,227
1129,124;  503,530;    0,091;    1,318
1129,661;  363,348;    0,273;    0,227
1130,198;  529,167;    1,636;    0,773
1130,734;  478,894;    0,182;    1,409
1131,271;  325,530;   -0,909;    0,864
1131,808;  508,712;    2,909;    3,045
1132,345;  381,348;    1,545;    0,318
1132,881;  250,167;   -1,545;   -1,864
1133,418;  388,803;    0,727;   -1,136
1133,954;  326,258;    2,455;   -2,682
1134,491;  409,894;    1,364;   -0,773
1135,027;  297,076;    2,364;    0,864
1135,564;  397,530;    0,273;    2,955
1136,100;  376,348;    0,364;    2,136
1136,636;  261,894;   -1,273;   -1,045
1137,172;  373,803;    0,000;   -1,045
1137,708;  291,348;   -1,364;   -1,045
1138,245;  291,621;    1,273;   -1,227
1138,781;  232,530;    1,091;   -3,318
1139,317;  312,712;    1,273;   -1,409
1139,852;  290,894;    3,091;    0,136
1140,388;  419,803;   -1,182;   -0,409
1140,924;  290,258;   -1,091;   -2,227
1141,460;  232,258;   -1,636;    0,136
1141,996;  164,803;   -1,364;    2,682
1142,531;  209,803;    1,364;    3,318
1143,067;  432,621;    1,182;    1,045
1143,602;  503,712;   -0,091;   -0,318
1144,138;  335,348;   -2,636;    1,045
1144,673;  201,894;   -1,455;    1,409
1145,209;  269,167;   -1,909;   -0,318
1145,744;  187,348;   -0,727;    0,864
1146,279;  340,439;    1,818;   -0,136
1146,815;  247,258;    1,545;   -2,682
1147,350;  285,985;   -1,364;    0,045
1147,885;  183,985;   -0,818;   -1,318
1148,420;  190,439;   -2,273;    0,773
1148,955;  165,439;   -1,727;    1,864
1149,490;  200,076;   -0,909;   -1,591
1150,025;  182,439;    0,455;   -1,773
1150,560;  297,167;    1,091;   -0,955
1151,094;  265,530;    1,455;   -0,591
1151,629;  275,076;    1,636;    0,864
1152,164;  188,076;    1,364;    1,318
1152,698;  152,894;   -0,182;   -0,136
1153,233;  114,076;    0,091;   -0,682
1153,767;  159,076;   -3,000;   -2,318
1154,302;  208,076;   -1,455;    1,773
1154,836;  208,167;   -0,455;   -2,136
1155,371;  261,348;   -1,364;    3,682
1155,905;  216,348;   -0,636;    1,682
1156,439;  178,894;   -0,636;   -0,500
1156,973;  217,258;    0,364;    0,318
1157,507;  145,348;   -0,364;    0,682
1158,042;  173,348;   -0,727;    1,045
1158,576;  230,530;    0,182;    1,773
1159,110;  216,076;   -0,818;    2,409
1159,643;  186,712;    0,636;   -0,045
1160,177;  110,167;   -1,545;    1,500

