
Integration time [ms]:   0,040
Averaging Nr. [scans]: 11
Smoothing Nr. [pixels]: 0
Data measured with spectrometer [name]: 7318044SP
Wave   ;Sample   ;Dark     ;Reference
[nm]   ;[counts] ;[counts] ;[counts] 

186,757;   32,677;   31,551;    1,318
187,357;   64,796;   22,551;    0,955
187,958;   38,869;   15,460;   -1,591
188,558;   91,033;    8,915;   -1,227
189,159;   55,352;    6,733;   -4,500
189,759;   14,044;    7,278;   -3,591
190,360;   20,318;    2,824;   -2,136
190,960;   68,070;    2,915;   -4,136
191,560;   80,579;    3,189;   -6,591
192,161;  344,900;    4,372;   -3,500
192,761;  171,777;    4,010;   -3,227
193,361;  116,470;    1,556;   -3,773
193,962;  170,339;    2,010;   -2,682
194,562;   88,352;    1,189;   -3,955
195,162;  132,794;   -2,448;   -2,227
195,762;  313,304;   -3,176;   -0,045
196,362;  258,618;    1,370;   -2,500
196,963;  103,800;    2,006;   -0,864
197,563;  180,128;    1,551;   -0,955
198,163;  118,554;    0,096;   -0,682
198,763;  142,253;    1,733;   -0,500
199,363;  256,414;    3,096;   -0,500
199,963;  220,344;    0,369;    0,409
200,563;  183,329;    2,823;   -1,409
201,163;  157,326;    3,277;   -0,227
201,763;  270,399;    3,732;    0,318
202,363;  195,399;    1,459;    1,500
202,963;  304,699;    1,459;    1,045
203,563;  425,965;    0,277;    0,500
204,162;  260,161;    2,096;   -1,864
204,762;  250,493;    0,550;    0,591
205,362;  222,584;    3,004;    1,955
205,962;  324,868;    3,096;    1,955
206,562;  320,766;    1,823;    2,318
207,161;  282,590;   -0,087;    0,318
207,761;  451,797;    1,277;    2,409
208,361;  321,077;   -0,268;    1,409
208,960;  429,902;    0,459;    1,500
209,560;  506,685;    1,277;    1,591
210,160;  485,363;    0,550;    1,864
210,759;  427,269;    4,186;    1,227
211,359;  448,464;    1,459;    1,045
211,958;  725,646;    1,277;    2,045
212,558;  822,262;    1,732;    1,864
213,157;  651,671;    1,822;    1,500
213,757; 1110,940;    3,822;   -0,227
214,356;  797,097;    1,277;   -0,409
214,956; 1151,056;    3,095;    0,409
215,555;  756,684;    2,095;    2,136
216,154;  698,716;   -2,723;   -0,591
216,754;  708,800;    0,277;    0,773
217,353;  841,241;   -0,268;   -1,045
217,952;  695,817;   -0,178;    0,318
218,552;  946,548;    1,368;   -0,773
219,151;  839,894;    0,277;    0,955
219,750;  839,295;    0,004;   -0,227
220,349;  982,352;   -0,451;    1,045
220,948; 1047,310;   -1,360;    1,136
221,548; 1078,800;    0,913;    1,227
222,147; 1195,632;   -0,087;   -0,409
222,746; 1488,117;   -0,451;   -0,955
223,345; 1369,953;    0,731;    0,500
223,944; 1386,946;   -0,451;    0,773
224,543; 1571,992;    1,004;   -1,409
225,142; 1685,446;    0,094;    0,136
225,741; 1594,030;   -0,814;    1,045
226,340; 1628,261;   -0,451;   -0,955
226,939; 2099,170;   -0,996;   -0,136
227,538; 2087,415;   -0,360;   -0,773
228,137; 2241,656;   -0,814;    0,864
228,735; 2438,653;   -0,541;    1,227
229,334; 2166,737;   -0,905;   -0,227
229,933; 2546,261;    0,459;    0,591
230,532; 2658,310;    1,186;   -0,409
231,131; 2710,223;    1,732;    0,318
231,729; 2892,426;   -2,450;   -2,318
232,328; 3052,929;   -0,723;   -1,500
232,927; 3134,625;    1,004;   -0,500
233,525; 3269,894;    3,640;    0,045
234,124; 3502,006;    2,368;   -1,591
234,723; 3520,034;    0,913;   -1,045
235,321; 3692,876;    2,277;    0,136
235,920; 3945,156;    1,186;   -1,227
236,518; 4196,908;    3,459;    0,318
237,117; 4413,681;    0,004;   -0,227
237,715; 4590,982;    0,640;   -0,500
238,314; 4642,321;   -0,087;   -2,318
238,912; 4742,352;   -0,723;   -1,409
239,510; 4807,611;    0,459;   -1,227
240,109; 4981,084;    0,004;    3,773
240,707; 5020,251;   -0,996;    1,227
241,305; 5407,853;    0,550;    0,136
241,904; 5650,216;   -0,178;   -2,045
242,502; 5615,136;   -0,632;   -0,227
243,100; 5545,975;   -0,087;   -0,955
243,698; 5792,548;    0,732;    1,682
244,297; 5983,468;   -0,632;    0,682
244,895; 5806,506;   -0,269;   -2,318
245,493; 6153,509;    2,186;   -0,591
246,091; 6190,282;    1,368;   -1,318
246,689; 6164,279;    1,004;    0,591
247,287; 6342,789;    0,822;   -1,136
247,885; 6626,677;   -1,451;    1,227
248,483; 6744,663;    1,822;   -0,500
249,081; 6876,439;    0,185;    1,591
249,679; 7053,638;   -0,178;    1,682
250,277; 7320,380;   -1,723;    0,864
250,875; 7287,796;   -1,087;   -1,045
251,473; 7325,079;   -1,178;    0,500
252,071; 7538,481;    1,459;    1,045
252,669; 7693,219;   -1,814;    0,318
253,267; 7947,246;   -0,087;    0,773
253,864; 7925,789;   -0,360;    0,682
254,462; 7759,485;    1,640;    1,591
255,060; 7746,104;   -0,269;    1,318
255,658; 8089,855;    0,822;   -0,136
256,255; 8514,422;    0,186;   -2,045
256,853; 8375,495;   -0,269;    1,409
257,451; 8365,684;    0,822;    1,864
258,048; 8632,758;    1,822;    1,864
258,646; 8411,390;    1,731;   -1,045
259,243; 8615,222;   -0,087;    2,227
259,841; 8674,827;   -0,814;    0,318
260,438; 8514,831;   -0,087;    0,864
261,036; 9270,412;   -1,905;    1,409
261,633; 9161,862;   -0,087;    2,227
262,231; 8890,422;    2,731;   -0,045
262,828; 8978,660;   -0,905;    1,136
263,425; 9053,842;    0,913;   -0,591
264,023; 9315,649;    0,186;    0,045
264,620; 8840,383;   -0,360;   -0,318
265,217; 9194,677;   -2,087;    3,136
265,815; 9307,068;   -1,905;    2,136
266,412; 9091,139;    0,731;    0,136
267,009; 9156,862;   -1,451;    0,773
267,606; 9023,027;    0,822;   -0,955
268,203; 9018,548;   -0,269;   -0,591
268,801; 9320,156;    1,731;    0,591
269,398; 9614,810;   -0,360;    2,500
269,995; 9570,205;    0,277;    1,591
270,592; 9315,041;   -0,632;   -0,500
271,189; 9542,659;    0,186;    0,409
271,786; 9662,240;   -0,632;    1,227
272,383; 9458,419;   -1,087;    0,227
272,980; 9699,292;    0,277;    0,318
273,577;10212,545;    0,004;    1,227
274,174; 9775,499;    0,822;    2,591
274,771; 9746,128;   -0,814;   -0,773
275,367; 9887,087;    2,277;    1,409
275,964; 9837,191;    0,731;   -0,500
276,561; 9905,229;    1,549;   -1,045
277,158;10164,275;    0,095;   -1,773
277,755;10320,348;    2,185;    0,409
278,351; 9683,659;   -0,451;   -1,500
278,948;10007,222;   -0,815;    0,045
279,545;10003,939;   -1,360;    2,318
280,141;10649,307;   -1,723;   -2,045
280,738;10546,576;   -0,451;   -0,136
281,334;10789,810;   -1,633;    0,591
281,931;10175,439;   -0,087;   -1,318
282,528;10243,271;    0,822;   -0,500
283,124;10965,939;   -1,087;   -0,500
283,721;10899,606;   -0,451;    1,409
284,317;10666,141;    0,185;    2,500
284,913;11247,400;   -1,360;    0,591
285,510;11430,855;    0,640;   -0,318
286,106;11462,414;   -2,269;   -0,955
286,703;11045,907;   -0,360;    1,955
287,299;11238,646;   -1,451;   -0,591
287,895;11452,506;    0,822;   -1,045
288,491;12006,082;    0,186;    2,136
289,088;11716,810;   -2,360;    2,409
289,684;11813,401;   -1,723;    1,500
290,280;11823,932;    0,368;    0,682
290,876;11889,076;    1,822;    5,500
291,472;11783,124;    1,276;    2,227
292,068;11907,512;    1,367;    0,227
292,665;11588,373;    2,095;    0,773
293,261;11198,848;    0,276;    2,136
293,857;11608,925;    2,913;    2,136
294,453;11524,894;    3,550;    0,955
295,049;11383,857;   -0,268;    1,955
295,644;11420,013;    0,095;    0,136
296,240;11351,650;   -0,905;   -0,136
296,836;11387,301;   -0,995;    0,318
297,432;11667,724;    1,096;   -0,500
298,028;11705,423;    0,732;    0,773
298,624;12131,039;    1,459;    1,864
299,220;12378,703;    2,368;    0,591
299,815;12033,899;    1,005;   -0,409
300,411;11838,947;    0,914;    1,773
301,007;11864,777;    1,368;    0,227
301,602;11895,004;   -0,541;   -2,318
302,198;12043,378;    0,732;   -0,773
302,794;12412,388;    1,187;   -0,500
303,389;12517,944;   -1,177;    1,045
303,985;12639,378;    0,550;    1,409
304,580;12586,839;    1,459;    1,591
305,176;12535,280;   -3,086;    0,136
305,771;12466,979;   -1,268;   -1,227
306,367;12298,881;    4,095;    0,136
306,962;12620,913;    0,641;    1,500
307,558;12341,486;   -0,450;    0,136
308,153;12282,010;    1,095;   -1,136
308,748;12541,867;   -0,814;    1,682
309,344;12513,276;   -0,632;   -1,318
309,939;12616,549;   -1,905;   -1,318
310,534;12899,140;   -0,086;   -1,682
311,130;12823,843;    0,459;   -2,500
311,725;12546,689;    1,004;   -0,500
312,320;12853,615;    2,459;    0,045
312,915;12688,779;    1,459;   -1,045
313,510;12774,451;    1,550;   -0,500
314,105;13238,609;    1,096;    1,409
314,700;12623,091;   -3,086;   -1,045
315,295;12231,749;   -0,904;    0,045
315,890;11832,815;    1,277;    0,864
316,485;12228,059;   -0,359;   -0,318
317,080;12349,556;   -3,086;    1,591
317,675;12925,073;    2,005;   -0,682
318,270;12307,305;    5,550;    3,318
318,865;12312,301;    3,278;    3,045
319,460;12149,881;   -0,904;    0,591
320,055;12389,875;   -0,541;   -1,227
320,650;12011,553;   -1,995;   -0,591
321,244;12075,256;   -0,177;   -1,409
321,839;13062,374;   -1,541;   -0,227
322,434;12911,888;   -1,086;   -1,591
323,029;12549,899;    1,732;    1,591
323,623;12358,958;    1,550;    0,773
324,218;12138,602;    2,368;    1,409
324,812;12010,301;    1,096;    1,591
325,407;11807,790;   -0,814;    2,045
326,002;11696,584;    0,277;   -0,409
326,596;11987,808;    0,914;    1,318
327,191;12188,294;    0,823;   -1,045
327,785;11755,899;   -0,813;   -0,227
328,379;12008,507;    1,368;    0,136
328,974;11828,175;    0,914;   -3,955
329,568;12021,427;    0,186;   -2,409
330,163;11828,119;    2,096;    1,045
330,757;12159,675;    2,459;    1,591
331,351;11498,759;    0,459;    0,682
331,945;11802,930;    0,914;    1,409
332,540;11407,489;   -1,723;   -0,591
333,134;11547,923;   -1,086;    0,773
333,728;11840,367;    0,005;    0,318
334,322;12125,713;   -1,177;   -0,864
334,916;11382,657;    0,277;    0,955
335,510;11742,510;   -0,450;   -0,136
336,105;12013,385;   -1,086;    1,591
336,699;11735,409;   -1,086;    0,591
337,293;11635,437;   -1,723;    0,318
337,887;11763,920;   -2,723;    1,955
338,481;11900,608;    0,459;    0,591
339,074;12048,835;   -0,359;    2,682
339,668;11824,877;   -1,632;    1,227
340,262;12111,776;    1,732;    3,227
340,856;11605,388;    1,822;   -0,682
341,450;10948,206;    1,004;    1,864
342,044;11863,255;    1,459;    0,136
342,637;11636,720;    0,913;   -2,136
343,231;11513,383;   -2,360;    0,682
343,825;11461,769;   -1,086;   -0,591
344,419;11400,679;   -1,995;    0,500
345,012;11194,042;    2,459;    4,045
345,606;11208,717;    4,641;    1,591
346,199;11033,249;   -1,813;   -0,227
346,793;10585,109;    1,914;    2,045
347,386;10751,175;   -0,813;   -1,136
347,980;10750,281;   -0,268;   -0,045
348,573;10552,012;    2,278;    0,409
349,167;10245,008;    5,278;    4,773
349,760;10554,229;    2,914;    2,682
350,354;10514,006;   -0,813;    1,136
350,947;10283,110;    1,096;    1,682
351,540; 9946,498;   -0,358;   -1,409
352,134; 9886,442;    1,096;    1,136
352,727; 9974,536;   -0,086;    1,136
353,320; 9730,036;    0,005;    0,591
353,913; 9583,998;   -1,995;    1,864
354,507; 9785,470;    0,823;   -1,227
355,100; 9762,267;    0,460;    0,864
355,693; 9022,865;    2,005;    2,409
356,286; 9086,166;    0,823;    2,773
356,879; 9439,963;   -0,722;    1,227
357,472; 9002,005;   -0,904;    1,500
358,065; 9201,918;   -0,722;    2,500
358,658; 9118,596;   -0,540;    2,318
359,251; 8781,603;   -1,631;   -0,591
359,844; 8273,362;   -1,904;   -1,136
360,437; 8428,606;   -2,995;    0,045
361,030; 8702,753;    1,369;   -0,682
361,623; 8295,600;    2,824;    0,318
362,215; 8368,575;   -0,086;    2,045
362,808; 8206,869;   -2,358;   -1,682
363,401; 8348,177;   -2,449;    0,136
363,994; 8109,478;   -0,631;   -1,500
364,586; 8023,317;    0,824;   -1,500
365,179; 8228,922;   -0,449;   -1,136
365,772; 7719,491;   -1,995;    2,045
366,364; 8029,352;    1,915;   -3,227
366,957; 8237,192;    2,279;   -0,045
367,549; 8243,364;    2,188;   -0,864
368,142; 7898,822;    1,825;   -1,500
368,734; 8095,680;    0,734;   -2,136
369,327; 8043,977;    1,643;   -0,500
369,919; 7984,285;   -1,538;    0,409
370,512; 7748,968;   -1,083;   -0,500
371,104; 7530,364;   -0,901;    1,591
371,696; 7719,677;    1,191;   -0,955
372,289; 7808,517;    0,373;    1,136
372,881; 7951,002;   -2,080;    1,318
373,473; 7862,314;   -2,170;    1,136
374,066; 7663,982;   -0,169;    0,500
374,658; 7504,824;    0,378;    1,136
375,250; 7867,705;    0,653;   -1,409
375,842; 7734,395;    0,473;   -0,045
376,434; 7612,324;   -0,435;   -0,409
377,026; 8173,671;    0,204;   -2,500
377,618; 8039,543;   -0,158;   -0,682
378,210; 7912,969;   -0,338;   -1,955
378,802; 7763,112;    0,754;   -0,591
379,394; 7740,960;    1,846;    0,682
379,986; 8324,224;    1,393;   -0,955
380,578; 8441,277;   -0,153;    0,773
381,170; 7736,191;   -0,972;    0,045
381,762; 7716,458;    0,755;    1,409
382,354; 7933,637;   -0,065;   -1,318
382,945; 8014,767;   -2,976;    0,318
383,537; 8148,299;   -2,705;   -1,955
384,129; 8170,499;   -2,160;   -1,136
384,721; 8356,120;   -0,252;    0,955
385,312; 8305,560;   -0,161;   -0,955
385,904; 8378,697;   -2,706;    1,591
386,496; 7742,943;   -0,979;    1,045
387,087; 7902,367;    1,022;    2,500
387,679; 7927,538;   -1,160;    0,045
388,270; 8063,822;    2,840;    2,045
388,862; 8210,727;    1,295;   -0,318
389,453; 8112,965;   -0,887;    1,045
390,045; 8375,570;   -0,705;   -2,682
390,636; 8303,354;    0,204;   -0,591
391,227; 8154,836;   -0,523;   -0,045
391,819; 8281,440;    0,204;    0,773
392,410; 8346,402;    1,022;    0,045
393,001; 8249,407;   -0,979;   -1,591
393,593; 8557,855;    1,930;   -0,045
394,184; 8409,687;    1,385;   -0,409
394,775; 8363,358;    1,839;    2,136
395,366; 8555,293;    1,385;    0,773
395,957; 8559,258;    0,113;    0,136
396,548; 8858,440;   -0,342;    2,682
397,139; 9174,482;   -2,433;    0,591
397,730; 8913,072;   -1,888;    0,955
398,321; 8949,338;   -1,252;    0,955
398,912; 8989,851;   -0,615;    0,136
399,503; 9020,058;   -3,524;   -1,409
400,094; 8482,054;    0,294;    1,682
400,685; 8328,901;   -0,433;    0,045
401,276; 8435,236;    0,930;   -0,955
401,867; 8744,030;   -0,888;    0,773
402,458; 8854,107;   -2,251;   -2,318
403,048; 8828,418;    1,112;    0,591
403,639; 8414,219;    0,840;    0,864
404,230; 8652,184;    2,476;    0,318
404,821; 8581,512;   -0,615;    0,045
405,411; 8719,152;    1,203;   -2,591
406,002; 8318,365;   -1,252;   -1,136
406,592; 8149,180;    2,294;    0,045
407,183; 8470,599;    0,566;   -1,500
407,774; 8398,067;    3,475;   -0,136
408,364; 8718,914;    0,930;    0,409
408,954; 8302,375;    0,384;    1,227
409,545; 8395,365;    1,021;    1,045
410,135; 7933,008;    1,293;    0,500
410,726; 8097,577;    1,838;    0,318
411,316; 8493,238;    0,111;    0,773
411,906; 8126,164;   -0,253;   -0,409
412,497; 7590,158;   -1,070;   -0,045
413,087; 8205,955;   -1,980;   -0,227
413,677; 8604,426;   -0,707;    3,864
414,267; 8478,563;    0,656;    1,409
414,857; 8472,311;   -2,980;    4,227
415,448; 8774,731;    0,839;    0,500
416,038; 8459,780;    0,020;   -0,591
416,628; 8425,234;   -0,889;    0,409
417,218; 7879,160;    0,565;    3,318
417,808; 8165,272;    0,202;   -0,409
418,398; 8644,762;    0,020;    2,682
418,988; 8670,839;    2,020;    0,591
419,578; 8926,507;   -0,707;    1,409
420,168; 9266,899;   -1,343;   -0,955
420,757; 8848,944;   -1,343;   -1,500
421,347; 8496,915;    0,111;   -0,227
421,937; 8692,845;    2,292;    1,409
422,527; 8638,436;    0,838;   -0,773
423,116; 8461,062;   -0,253;   -0,045
423,706; 8772,258;   -1,889;    0,318
424,296; 8747,706;    1,384;    0,682
424,885; 9175,433;   -0,071;   -3,045
425,475; 9458,576;    1,474;   -2,864
426,065; 9371,146;   -0,980;   -0,318
426,654; 8996,442;   -0,435;   -0,318
427,244; 9132,803;    0,020;    1,409
427,833; 8585,779;    1,383;   -0,500
428,423; 9090,282;   -0,526;    1,136
429,012; 9838,739;   -0,344;   -1,136
429,601; 9327,547;   -1,344;    0,136
430,191; 9580,761;    1,292;    4,318
430,780; 9235,621;   -0,344;   -0,409
431,369; 9126,550;    0,746;   -0,045
431,959; 9777,599;   -1,254;    0,500
432,548; 9553,641;   -1,163;   -0,045
433,137; 9678,410;   -1,254;   -1,318
433,726;10226,197;    0,292;    0,500
434,315; 9567,742;   -0,526;    2,409
434,905; 9668,913;   -1,254;    1,409
435,494; 9517,966;    0,746;    0,955
436,083;10015,001;   -0,981;   -0,955
436,672; 9918,316;    0,110;    0,500
437,261; 9455,815;    0,292;   -1,955
437,850; 9607,931;    1,383;    0,682
438,439; 9610,210;    3,291;    1,955
439,027; 9481,420;    3,655;    1,773
439,616; 9804,703;    2,927;    1,227
440,205; 9644,787;    0,200;   -2,136
440,794; 9730,356;    2,109;   -0,045
441,383;10009,321;   -1,346;   -0,591
441,971; 9841,852;   -2,436;    0,591
442,560; 9726,058;    0,563;   -1,773
443,149; 9471,617;    0,379;   -1,318
443,737; 9619,536;   -0,074;   -2,318
444,326; 9885,069;    0,018;    0,318
444,915; 9957,628;   -1,982;    0,864
445,503;10389,590;   -2,891;   -0,318
446,092; 9597,072;    0,382;    2,136
446,680;10145,579;    0,382;    0,318
447,269;10302,125;   -0,346;   -0,318
447,857;10091,376;    0,018;   -1,773
448,445;10203,614;    0,563;    1,318
449,034;10427,079;   -1,528;   -1,136
449,622;10551,537;   -1,073;    3,500
450,210; 9778,686;    2,017;    2,227
450,799;10368,893;    0,290;   -0,591
451,387;10259,043;    1,381;   -0,591
451,975; 9911,732;    2,654;    0,864
452,563;10000,729;    3,472;    2,318
453,151;10029,102;   -0,528;   -1,227
453,739;10023,213;   -1,347;    0,136
454,328; 9842,500;    2,381;   -2,136
454,916; 9561,133;    2,562;   -0,136
455,504; 9729,840;    1,017;    1,227
456,092; 9885,826;    0,017;   -1,591
456,679; 9905,168;    1,472;    0,682
457,267; 9828,965;    4,017;    1,045
457,855; 9974,430;    1,017;    1,409
458,443; 9741,423;   -0,165;    1,682
459,031; 9880,552;    0,108;    2,409
459,619;10343,657;   -1,801;    2,864
460,206;10487,993;    0,835;    2,045
460,794;10567,528;   -2,983;   -0,227
461,382;10793,936;   -0,529;   -0,864
461,970;10383,964;    1,198;    1,864
462,557;10394,352;   -0,711;   -0,682
463,145;10594,101;   -3,165;   -1,682
463,732;10774,303;    2,016;   -1,045
464,320;10709,873;   -0,075;   -3,045
464,907;10370,992;    2,743;   -0,773
465,495;10213,309;    0,743;   -1,227
466,082;10402,621;   -1,984;   -0,045
466,670;10287,544;   -2,529;    1,227
467,257;10702,670;   -1,711;    2,045
467,844;10882,551;   -0,075;    0,045
468,432;10944,687;    0,834;    3,500
469,019;10415,753;    0,925;   -1,773
469,606;10864,211;    0,470;    3,682
470,193;10697,851;   -1,439;    0,227
470,780;10251,718;   -2,075;    0,864
471,368;10608,540;   -1,257;   -0,773
471,955;10406,508;    1,379;   -0,682
472,542;10044,176;    0,652;   -1,136
473,129;10280,225;   -0,166;    0,136
473,716; 9968,442;    1,470;    0,591
474,303;10210,267;    0,652;   -0,864
474,890;10528,189;   -1,439;   -0,500
475,477;10535,567;   -1,621;    0,409
476,064;10414,759;    1,106;   -1,591
476,650;10383,668;    0,288;    0,318
477,237;10218,213;   -0,258;    0,955
477,824;10373,448;   -1,076;    0,864
478,411;10382,161;   -1,894;   -0,318
478,997;10597,514;    0,560;   -0,773
479,584;10677,769;    1,196;   -0,409
480,171;11400,909;   -0,440;   -0,773
480,757;11015,579;    2,651;    0,773
481,344;11331,793;    0,469;    0,409
481,931;10880,589;    1,105;    1,045
482,517;11973,743;   -1,258;    0,318
483,104;12594,828;    1,106;    2,864
483,690;12878,293;   -1,804;    0,045
484,276;13208,856;   -0,895;    0,227
484,863;12919,356;    2,469;    1,136
485,449;13510,373;   -0,077;    0,318
486,035;13482,418;   -1,986;   -0,136
486,622;13902,890;   -0,895;    0,045
487,208;13850,817;    1,378;    1,500
487,794;13698,733;    0,741;    0,318
488,380;13815,306;    0,105;   -1,409
488,967;13891,533;   -1,168;   -0,409
489,553;13939,054;   -1,895;   -1,409
490,139;14151,484;    1,559;    0,773
490,725;13534,956;    0,741;   -0,227
491,311;13050,089;    3,287;    3,045
491,897;12398,008;   -0,986;    1,500
492,483;12203,249;    0,105;    1,227
493,069;12007,809;    3,923;    0,864
493,655;11970,725;    1,650;    0,682
494,241;11920,039;    1,377;   -0,955
494,826;12330,505;    0,287;   -1,045
495,412;11770,173;    2,559;   -0,682
495,998;11911,077;   -0,805;   -0,318
496,584;12056,609;    0,377;    1,045
497,169;12054,889;    1,014;   -0,682
497,755;12039,892;    0,650;    1,227
498,341;12612,431;    0,559;    0,318
498,926;12190,546;    1,832;    1,955
499,512;12337,307;    1,286;    2,955
500,097;12475,643;    0,195;   -0,318
500,683;12435,419;   -0,350;    2,136
501,268;12765,094;   -0,169;   -0,955
501,854;12474,195;   -0,169;    1,227
502,439;12399,475;   -0,624;   -1,773
503,024;12621,919;    0,195;    0,500
503,610;12711,758;   -0,078;   -0,682
504,195;12693,464;    0,558;    1,955
504,780;12824,835;    2,922;    1,227
505,366;12638,087;    3,013;    2,864
505,951;12358,076;    0,740;    1,045
506,536;12388,814;   -3,260;   -3,682
507,121;12380,167;    0,285;   -0,318
507,706;12894,359;    2,376;    1,045
508,291;13308,261;    2,649;    1,136
508,876;12767,847;   -0,988;    2,591
509,461;12212,502;   -0,169;   -0,773
510,046;12647,610;    0,194;    0,318
510,631;12897,642;   -0,351;   -0,773
511,216;12532,568;    2,467;   -0,500
511,801;12892,974;   -0,442;    2,591
512,386;13234,911;    0,740;    0,500
512,971;13160,281;   -2,988;    0,955
513,555;12712,184;   -0,897;   -1,500
514,140;13510,512;   -0,442;   -3,136
514,725;13531,501;   -0,715;   -1,136
515,309;13656,117;   -0,533;    0,318
515,894;13123,354;   -0,624;   -2,227
516,479;13572,844;   -0,624;   -0,955
517,063;13395,722;    0,376;    1,227
517,648;13502,645;    1,012;   -1,136
518,232;13157,847;   -0,261;   -1,409
518,817;13482,549;   -0,079;    1,682
519,401;13732,042;    2,194;    0,591
519,985;13207,196;    1,103;    1,136
520,570;13118,927;    0,830;   -1,955
521,154;13399,308;    2,102;    0,591
521,738;13591,314;   -2,352;    2,409
522,323;14117,832;   -0,170;    1,682
522,907;13863,818;    0,466;   -0,136
523,491;13605,374;    0,557;    0,955
524,075;13573,804;    2,284;    0,591
524,659;13669,776;    1,466;    0,591
525,243;13148,094;    1,739;    0,409
525,827;13384,867;    0,648;   -0,045
526,411;14247,776;   -1,989;   -0,136
526,995;14459,961;   -0,352;    1,409
527,579;14069,635;   -0,443;   -1,045
528,163;14378,177;    0,375;   -1,500
528,747;14289,069;    2,466;   -0,773
529,331;14614,265;   -0,080;   -1,409
529,915;14785,761;    1,738;    0,955
530,499;14748,002;   -0,807;    1,227
531,082;14456,265;   -0,534;    1,591
531,666;13876,117;    1,374;    0,773
532,250;14552,499;    1,284;    2,682
532,833;14909,068;    0,920;    2,773
533,417;14774,652;   -1,807;    0,864
534,001;14761,386;    1,647;   -0,318
534,584;15436,400;    0,374;    0,500
535,168;15300,484;    0,465;    1,409
535,751;15370,607;    0,647;    0,045
536,334;14797,547;   -0,898;   -0,409
536,918;15353,386;    0,011;    1,591
537,501;15471,617;   -0,899;    1,318
538,085;15478,550;   -0,444;    1,045
538,668;15659,980;    0,829;    2,409
539,251;15984,592;    1,829;    3,773
539,834;15999,669;    0,101;    0,773
540,418;15985,162;   -1,990;    4,318
541,001;16054,375;   -0,990;    1,773
541,584;16034,780;    2,101;    2,227
542,167;15712,298;    1,374;    2,955
542,750;15868,997;    1,919;   -0,773
543,333;15483,990;    0,555;    2,136
543,916;16290,217;    0,192;    2,500
544,499;16912,221;   -1,354;    0,227
545,082;16900,745;    1,374;    3,591
545,665;17027,294;    1,919;    1,500
546,248;17354,899;    1,010;   -0,318
546,830;17033,486;   -0,445;    1,955
547,413;17467,626;    1,010;   -0,773
547,996;17956,821;    0,555;    0,500
548,579;17728,486;    0,919;    0,955
549,161;17568,010;    1,828;    2,682
549,744;17325,583;   -0,809;    0,409
550,326;17841,681;   -0,809;   -1,136
550,909;17647,335;    2,737;    0,591
551,492;17990,569;   -0,263;    0,227
552,074;17813,030;   -0,173;   -1,318
552,657;18388,457;    2,373;    0,045
553,239;18082,838;   -0,173;   -0,773
553,821;17984,314;   -1,082;    1,045
554,404;17520,422;    1,282;    1,136
554,986;17911,646;    0,464;    1,045
555,568;18518,027;    1,191;   -0,955
556,151;17738,184;    1,191;   -0,227
556,733;17901,628;   -0,264;   -0,864
557,315;18395,649;    0,100;    0,500
557,897;18205,330;    0,554;   -0,500
558,479;18315,733;   -1,991;    1,318
559,061;18450,837;   -0,719;   -0,864
559,643;18816,120;   -0,264;    0,045
560,225;19165,096;    1,645;    2,864
560,807;19202,211;    0,918;    0,318
561,389;18674,110;    0,554;    2,318
561,971;19480,060;    0,463;    2,136
562,553;19273,054;   -1,628;    1,591
563,135;19403,802;   -0,537;    1,136
563,717;18995,403;    3,372;    1,136
564,298;19724,833;    3,645;   -0,045
564,880;19478,679;    0,645;   -1,409
565,462;19584,315;    0,645;    1,318
566,043;20809,686;   -0,446;    2,318
566,625;20349,683;    1,918;    1,227
567,207;20166,109;    1,099;    1,682
567,788;21258,672;   -1,264;    1,500
568,370;22103,637;    1,917;   -0,500
568,951;21954,028;    0,190;    0,227
569,533;22839,594;   -0,628;   -0,500
570,114;23319,567;   -0,446;    0,682
570,695;23852,794;   -0,174;   -1,318
571,277;24358,290;   -0,265;   -1,682
571,858;25087,651;    2,008;   -1,136
572,439;26000,937;    1,554;   -1,045
573,021;26195,335;    2,099;   -2,773
573,602;26667,654;   -1,265;    0,318
574,183;27571,849;   -2,083;    2,227
574,764;27706,444;   -1,629;    0,409
575,345;28290,391;    0,917;   -0,136
575,926;28874,031;   -0,356;    0,136
576,507;28853,559;    1,099;   -0,227
577,088;29986,710;    3,099;    1,682
577,669;29959,290;    0,735;    1,955
578,250;30705,395;    0,644;   -1,045
578,831;31444,845;   -1,356;   -2,227
579,412;31717,265;   -0,810;    0,955
579,993;32581,790;    1,008;    0,227
580,573;32856,370;   -0,629;   -0,955
581,154;31809,870;    0,735;   -0,591
581,735;32709,346;    0,644;    0,773
582,315;32254,073;   -0,629;    2,136
582,896;32461,080;   -0,174;    1,227
583,477;31856,436;    0,189;    1,227
584,057;32070,395;    0,553;    0,955
584,638;32493,608;    2,553;    2,318
585,218;32479,660;   -0,538;    2,682
585,799;32581,391;    0,281;   -0,227
586,379;32554,528;    0,372;    1,591
586,959;31304,821;    0,735;    0,318
587,540;30542,559;   -0,629;    2,227
588,120;30100,051;    1,007;   -0,045
588,700;29109,821;    2,553;    2,136
589,281;29462,580;    0,462;   -0,955
589,861;29464,087;    0,099;   -1,682
590,441;29267,769;    2,371;   -2,682
591,021;28200,695;   -0,265;   -2,591
591,601;28408,626;   -0,537;    0,500
592,181;28389,280;   -0,719;   -0,773
592,761;27678,209;    0,007;    1,409
593,341;27574,423;   -0,901;    0,045
593,921;27623,405;   -0,265;    1,591
594,501;27488,125;   -0,538;    1,318
595,081;27324,521;    0,917;   -0,318
595,661;27683,982;   -1,447;    0,955
596,240;28205,384;   -0,537;    0,136
596,820;27906,350;    0,372;    1,955
597,400;28051,185;    2,008;    0,773
597,980;28265,024;    2,008;    1,045
598,559;28252,538;    2,735;   -0,227
599,139;27969,741;   -0,174;   -1,227
599,718;27922,286;   -0,174;   -0,409
600,298;28179,570;    0,735;    0,682
600,877;28438,489;    2,917;    1,409
601,457;28656,637;    2,281;    1,136
602,036;28604,440;    0,190;    2,045
602,616;28819,657;    0,644;    1,682
603,195;29166,724;   -0,355;    3,500
603,774;28701,532;   -0,901;    2,045
604,354;28590,416;    0,826;   -0,500
604,933;28029,433;    0,463;    1,864
605,512;28128,850;    3,554;    0,591
606,091;28181,305;   -0,537;    3,773
606,671;28998,336;    0,281;    0,773
607,250;28156,525;    1,644;    3,136
607,829;28412,808;    2,372;    3,227
608,408;28242,812;    1,190;    2,591
608,987;27211,795;    1,281;    3,409
609,566;27548,986;   -1,265;   -2,500
610,145;27654,413;   -1,082;    0,682
610,723;28023,459;    4,372;    6,864
611,302;27296,400;   -0,446;    1,682
611,881;26837,155;    5,008;   11,227
612,460;27620,952;    1,645;    3,955
613,039;28081,459;   -0,082;    2,045
613,617;26813,581;    1,736;    4,773
614,196;26971,074;    1,099;    1,227
614,775;27317,148;    1,009;    2,409
615,353;27273,897;    0,736;    0,864
615,932;27027,785;    0,100;    2,409
616,510;27601,145;    0,554;    0,591
617,089;27135,582;    7,100;   17,591
617,667;26808,515;    2,372;    6,136
618,246;26724,960;   -1,537;    1,318
618,824;26887,487;   -3,355;   -0,955
619,402;26430,764;   -2,900;   -1,773
619,981;26960,991;   -0,173;   -1,045
620,559;26798,292;    0,009;    1,682
621,137;26273,918;   -0,718;    1,864
621,715;26357,781;   -1,173;   -0,682
622,293;26277,883;   -0,537;   -0,773
622,871;26688,558;   -0,718;    0,500
623,450;26261,659;    0,373;   -0,864
624,028;26144,775;    0,191;   -0,955
624,606;25804,677;   -1,718;    1,682
625,183;26227,142;   -1,536;   -1,136
625,761;25805,139;    1,009;    1,136
626,339;26099,481;    1,373;    2,591
626,917;26489,429;   -0,172;   -0,045
627,495;26555,107;   -0,354;    1,318
628,073;25986,268;   -0,263;    2,864
628,650;25645,957;    0,100;    2,136
629,228;26137,859;    0,373;    4,409
629,806;25495,782;    2,282;    1,136
630,383;25698,146;    1,464;   -0,318
630,961;25593,814;    2,555;   -0,955
631,539;25311,017;    2,464;    0,227
632,116;24705,814;   11,373;   15,409
632,694;25259,607;    2,555;    6,500
633,271;25517,618;    0,828;    2,682
633,848;25520,758;    1,828;    2,045
634,426;25479,461;   -1,081;    1,773
635,003;24608,214;    1,101;   -0,409
635,580;24971,563;    1,192;    3,682
636,158;25487,448;    3,737;    1,227
636,735;25485,741;    0,555;   -0,500
637,312;25658,199;   -0,809;   -0,682
637,889;25747,958;   -4,354;   -0,682
638,466;25183,906;   -3,990;   -0,409
639,043;25191,382;    2,101;   -1,136
639,620;25561,165;   -2,262;   -0,955
640,197;25840,018;    1,100;    1,682
640,774;25898,254;   -0,172;    1,136
641,351;26344,490;    0,737;    1,136
641,928;25784,726;   -0,627;    1,409
642,505;25456,052;    0,828;   -0,500
643,082;25538,470;   -1,718;    1,227
643,658;24530,433;   -0,718;    1,500
644,235;25315,214;    1,191;    2,500
644,812;25654,995;    1,918;    0,773
645,388;25403,504;   -0,991;    1,409
645,965;25480,285;   -0,809;    1,682
646,542;25551,702;   -1,445;   -0,227
647,118;25522,665;    1,009;   -0,955
647,695;25808,628;   -0,263;    1,136
648,271;25715,682;   -0,536;    0,500
648,848;26051,464;    0,736;    2,227
649,424;25871,518;    0,827;    1,318
650,000;25632,753;   -0,354;   -1,045
650,577;25430,444;   -0,627;   -0,955
651,153;25866,497;   -1,809;    0,955
651,729;26886,279;    1,191;    0,864
652,305;27485,060;    0,645;    2,773
652,881;32608,568;   -0,082;    1,136
653,458;39440,986;    1,100;    0,227
654,034;42742,585;    0,282;    1,591
654,610;44055,366;    0,554;    0,773
655,186;45272,148;    0,645;    3,045
655,762;44899,202;   -0,991;    0,409
656,338;44855,255;    0,100;    0,136
656,913;45821,400;   -0,082;    0,409
657,489;44999,454;    0,827;   -0,318
658,065;44949,690;   -0,173;   -1,591
658,641;45578,744;   -0,900;   -0,864
659,217;44798,434;   -0,991;    0,409
659,792;44205,852;    0,645;   -0,409
660,368;44403,633;   -2,173;   -0,682
660,944;43832,323;   -2,082;    1,227
661,519;38698,286;   -0,628;    0,409
662,095;32761,704;   -1,719;    0,591
662,670;28641,667;    1,281;   -0,136
663,246;27732,539;    1,009;   -0,409
663,821;27142,047;    0,281;    1,682
664,396;26656,647;    0,009;    1,864
664,972;26941,064;    0,009;   -0,500
665,547;27237,754;    1,372;    0,136
666,122;27314,445;   -1,082;    0,318
666,698;27584,408;   -0,173;    0,318
667,273;26912,553;   -0,173;    0,136
667,848;27754,607;    2,372;    1,500
668,423;27600,842;    2,190;    2,318
668,998;28134,623;    2,827;   -0,682
669,573;28674,677;   -3,264;   -1,500
670,148;28481,368;   -1,446;   -0,682
670,723;28257,422;   -1,810;    0,318
671,298;28706,657;    2,372;    1,045
671,873;28811,711;   -0,082;   -0,136
672,448;28769,765;    0,645;    0,136
673,023;29096,819;   -1,992;   -0,227
673,597;29456,418;    0,827;    2,318
674,172;29196,654;   -0,355;    0,318
674,747;28626,799;    0,372;   -1,045
675,321;28456,126;   -0,628;    3,318
675,896;28042,543;    0,645;    1,045
676,471;29027,779;    2,645;    1,591
677,045;28816,560;   -1,264;    0,682
677,620;28831,614;    0,190;    1,136
678,194;29190,395;   -2,628;    1,136
678,769;28784,540;   -1,083;   -0,318
679,343;29070,321;   -0,628;    1,773
679,917;28983,921;   -1,446;    1,955
680,492;29020,884;    0,826;    3,227
681,066;29153,028;    3,372;    0,409
681,640;29188,355;    1,463;   -0,318
682,214;30041,409;    0,735;    0,500
682,788;29538,554;   -1,356;   -0,773
683,363;29495,153;   -1,810;    1,682
683,937;29185,934;   -1,719;   -0,318
684,511;29919,897;    0,463;   -0,591
685,085;29656,042;   -1,356;    0,318
685,659;29356,551;   -2,538;    0,864
686,232;29654,786;   -0,356;   -0,318
686,806;29342,568;   -0,901;    0,409
687,380;29995,894;   -0,174;    0,591
687,954;30261,766;   -1,174;    1,136
688,528;29904,002;   -0,719;    1,955
689,101;30627,783;   -3,992;    1,045
689,675;30261,110;   -0,356;   -0,136
690,249;29651,618;   -0,719;    0,409
690,822;29949,491;    0,280;    0,318
691,396;30089,635;   -0,265;    1,227
691,969;29515,871;    1,280;    0,136
692,543;29951,107;   -0,447;   -1,955
693,116;29566,979;   -0,265;   -1,409
693,690;29414,942;    0,099;    0,500
694,263;30009,269;   -1,083;    2,955
694,836;30089,322;    1,371;    3,591
695,410;28715,740;   -0,265;    1,773
695,983;29201,067;    0,189;    0,591
696,556;29179,030;   -0,447;   -1,045
697,129;29529,902;   -0,356;    1,409
697,703;29158,865;   -1,629;    1,955
698,276;29101,555;    1,462;   -0,773
698,849;28978,518;    1,280;    1,409
699,422;29327,936;   -1,083;    0,591
699,995;29071,626;    0,007;    0,136
700,568;29577,407;   -0,629;    3,045
701,140;29590,279;   -2,811;    1,682
701,713;29290,788;   -0,174;    2,409
702,286;29010,205;   -0,538;    0,864
702,859;28957,259;   -0,902;   -0,591
703,432;28045,404;    0,825;    0,682
704,004;28570,731;    0,462;    0,318
704,577;28471,148;   -0,629;    0,136
705,150;29004,020;    0,189;    2,500
705,722;28793,438;   -0,356;   -3,227
706,295;28607,037;   -0,175;   -0,591
706,867;28474,546;   -0,175;    1,955
707,440;28665,872;   -1,720;   -0,409
708,012;28936,654;    0,462;    0,591
708,584;28873,253;    2,462;    0,227
709,157;29135,307;    1,825;   -0,591
709,729;28790,543;    2,280;    2,045
710,301;29614,687;    0,734;    0,045
710,874;29596,741;   -1,447;   -0,227
711,446;28439,522;    0,371;    0,864
712,018;28333,485;    0,098;    0,500
712,590;28094,267;   -1,993;    1,682
713,162;28664,412;    0,825;    1,318
713,734;28916,102;    1,825;   -2,045
714,306;28824,792;   -1,902;   -0,409
714,878;27493,573;    0,825;    0,864
715,450;28298,445;    0,643;    0,864
716,022;28479,954;    1,552;    1,318
716,593;28652,008;    0,189;    0,591
717,165;28606,425;   -3,175;   -1,227
717,737;28339,116;    0,280;    0,409
718,309;28010,533;    0,280;   -0,045
718,880;27956,678;   -0,539;   -1,409
719,452;28164,914;   -0,175;   -1,591
720,024;27738,877;    0,734;   -0,591
720,595;28310,385;   -2,902;    0,955
721,167;27908,075;    0,370;   -2,045
721,738;27431,493;   -0,812;   -1,045
722,309;27475,456;   -0,993;   -1,227
722,881;27204,419;   -1,357;    0,773
723,452;27808,746;   -2,630;    2,864
724,023;27997,254;   -0,721;    2,682
724,595;27764,944;    0,007;    0,682
725,166;27490,362;    0,007;   -0,409
725,737;27189,689;    1,734;    0,227
726,308;27282,743;   -0,266;    0,318
726,879;27716,706;   -1,630;    1,227
727,450;27520,396;    0,552;   -0,045
728,021;27491,541;    3,097;    0,682
728,592;27271,595;    0,734;    0,500
729,163;27625,830;    0,643;   -0,136
729,734;27641,702;    0,188;   -0,227
730,305;28019,756;    1,734;    0,136
730,876;28387,810;    0,188;    2,955
731,447;28104,319;    2,188;    2,682
732,017;28225,373;    1,097;    1,864
732,588;27694,245;    0,734;    1,227
733,159;27891,571;    0,643;   -1,045
733,729;27671,534;    0,006;    0,409
734,300;26930,316;    0,915;    0,864
734,870;27327,824;    3,461;    0,591
735,441;27916,878;    0,370;   -0,591
736,011;27703,568;    0,643;   -1,591
736,582;27610,986;   -0,812;    0,045
737,152;27116,858;   -1,721;   -2,045
737,722;27531,185;   -0,267;   -0,682
738,293;27223,784;   -1,358;    1,318
738,863;27081,201;    2,461;    2,318
739,433;26930,255;    5,279;    0,318
740,003;27562,582;   -0,994;   -0,682
740,573;26974,272;    2,097;   -1,591
741,143;26887,235;   -1,085;    0,318
741,713;27651,926;    1,188;   -0,500
742,283;27320,707;    0,915;    1,591
742,853;27145,852;    1,915;    1,591
743,423;26558,996;    1,733;    0,045
743,993;26767,869;   -0,358;    1,500
744,563;26125,741;    0,097;   -0,864
745,133;26045,885;   -0,812;   -0,864
745,702;26751,121;   -0,267;    1,773
746,272;25949,084;   -0,176;    0,591
746,842;25724,684;   -1,358;   -0,591
747,411;26152,101;   -0,267;   -0,318
747,981;26342,064;    0,097;    0,500
748,551;26381,573;    2,278;   -1,045
749,120;26210,263;    0,642;   -0,227
749,690;26583,862;   -0,631;    2,409
750,259;26915,007;    1,369;    2,955
750,828;26839,516;    1,551;   -1,955
751,398;27141,842;    1,278;   -0,045
751,967;26729,442;    2,187;    0,409
752,536;26850,950;   -0,813;   -0,227
753,105;27281,913;    0,096;    0,227
753,675;27108,876;    0,096;    1,773
754,244;27051,475;   -0,904;    3,591
754,813;27039,075;    0,551;    1,227
755,382;26623,947;    0,460;    0,955
755,951;27182,274;    1,551;    3,682
756,520;26770,509;   -0,085;    1,864
757,089;27369,290;    0,278;    0,500
757,658;27479,072;    1,733;    1,227
758,227;27470,126;    1,096;    0,318
758,795;27727,634;    1,187;    1,136
759,364;27921,688;   -0,086;   -0,591
759,933;26922,106;   -1,176;   -0,045
760,501;26440,523;    0,733;   -1,318
761,070;26955,122;   -2,813;   -1,409
761,639;27656,631;   -1,904;    1,318
762,207;27035,230;    1,551;   -0,955
762,776;26956,102;    0,369;    0,864
763,344;26886,065;   -0,995;    0,591
763,913;25981,483;   -0,722;    1,409
764,481;26747,264;    1,005;   -0,136
765,049;26508,500;   -1,358;    1,409
765,618;26402,099;   -0,086;    0,318
766,186;26458,608;    0,278;    0,136
766,754;26670,480;    0,005;    1,864
767,322;25681,988;   -1,995;    0,409
767,890;25719,315;   -0,722;   -1,773
768,459;26116,914;   -2,177;   -0,318
769,027;26284,423;    1,641;    3,409
769,595;25208,204;    3,278;    2,591
770,163;25664,712;    3,823;    2,955
770,730;25411,221;    0,732;   -0,136
771,298;25243,820;    0,187;   -1,409
771,866;25304,238;   -1,541;    4,955
772,434;25680,383;   -0,631;   -1,864
773,002;25863,709;    0,005;    0,682
773,569;25452,763;    0,914;    1,682
774,137;25296,817;   -0,268;   -0,045
774,705;26086,962;    0,278;   -0,136
775,272;25588,743;    0,641;    0,682
775,840;25316,615;   -0,177;    2,682
776,407;24869,942;    0,277;    1,955
776,975;24468,723;   -0,632;    0,318
777,542;25520,868;   -1,086;   -0,045
778,110;25280,376;   -1,268;   -0,045
778,677;24970,067;   -2,359;   -0,864
779,244;24724,302;    2,186;    1,045
779,812;24886,629;    1,823;    0,864
780,379;24721,410;    0,005;    1,136
780,946;24985,282;    1,005;   -0,773
781,513;25328,336;   -1,450;    0,318
782,080;24670,481;   -0,086;    2,864
782,647;25460,535;   -0,268;    3,045
783,214;25046,316;   -0,177;    3,864
783,781;24643,825;   -0,723;   -0,682
784,348;24499,242;   -0,632;    1,500
784,915;24941,842;   -3,177;    0,318
785,482;24689,441;    1,368;    2,591
786,049;25120,222;    0,186;   -0,591
786,615;25276,185;    0,277;   -0,955
787,182;24975,784;    0,186;   -0,682
787,749;24661,475;   -2,814;    1,409
788,315;23996,165;   -1,632;   -0,409
788,882;24323,128;    1,550;   -1,227
789,448;24991,364;    1,732;   -0,955
790,015;24997,236;    1,095;    3,227
790,581;24576,290;    1,459;    0,227
791,148;24481,616;    0,641;    1,045
791,714;24648,034;   -0,541;    3,136
792,280;24350,906;    0,186;    1,591
792,847;23897,778;    0,550;    2,500
793,413;24434,196;   -0,269;   -0,318
793,979;23996,068;    3,459;   -1,318
794,545;24093,758;    4,459;    2,682
795,111;23521,539;    2,186;    1,318
795,678;23744,139;    0,731;   -1,682
796,244;23384,102;    3,368;    0,136
796,810;23933,519;    1,731;    0,773
797,375;23617,573;    0,549;   -2,136
797,941;23644,082;   -0,541;    0,591
798,507;23813,590;   -0,451;   -0,955
799,073;23326,371;   -0,360;    0,591
799,639;23358,698;   -2,632;    3,136
800,205;23415,206;    0,095;    2,682
800,770;22967,169;    0,640;    1,773
801,336;23080,860;    1,368;   -0,955
801,901;22770,005;    4,549;    3,136
802,467;23305,877;   -0,542;    2,045
803,033;22628,840;   -0,087;    0,864
803,598;22891,166;    1,913;   -1,045
804,163;22891,311;    1,095;   -0,318
804,729;22822,729;   -0,178;    1,136
805,294;23247,874;    0,822;    2,227
805,859;23070,746;    0,731;   -0,409
806,425;22543,527;    1,186;    2,682
806,990;22181,217;    2,186;    4,318
807,555;22639,362;   -1,451;    2,591
808,120;22538,416;    0,822;   -0,409
808,685;22587,833;    0,185;   -2,500
809,250;22083,887;    0,004;   -0,500
809,815;22414,941;    1,913;    0,682
810,380;23000,177;   -0,269;    1,591
810,945;23531,049;   -1,087;    2,045
811,510;22630,012;    2,094;    1,591
812,075;22374,611;   -0,633;   -1,409
812,640;22368,756;    2,003;    1,409
813,204;22457,447;    0,822;   -0,227
813,769;22932,046;    2,094;   -0,045
814,334;22359,463;    0,458;    0,864
814,898;22379,972;    0,367;    0,591
815,463;22273,389;    1,276;   -0,773
816,027;22243,716;   -0,724;   -2,318
816,592;22336,134;    0,640;   -2,045
817,156;21901,097;    2,094;    1,136
817,721;21743,787;    4,276;    2,318
818,285;21668,932;    2,912;    1,500
818,849;22320,713;   -1,451;    1,682
819,414;22184,403;   -0,269;    2,955
819,978;21763,730;   -1,269;    1,773
820,542;22341,966;    2,003;    0,500
821,106;22054,383;   -0,815;    0,682
821,670;22206,528;   -0,815;    2,591
822,234;21932,400;   -0,270;    1,409
822,798;21298,181;    0,003;    0,500
823,362;21255,508;   -0,633;    4,227
823,926;20550,289;    0,094;    1,136
824,490;20812,252;   -0,997;   -0,682
825,054;21258,488;   -0,088;   -1,136
825,618;20895,178;   -1,542;   -1,500
826,181;20867,323;    0,458;   -1,318
826,745;20768,377;    1,367;   -1,045
827,309;21115,976;    1,185;    1,318
827,872;20492,758;    1,367;    0,955
828,436;21463,175;    1,185;   -0,773
828,999;21490,865;   -0,997;    1,227
829,563;20269,828;   -0,179;    1,136
830,126;20122,155;   -0,179;   -0,591
830,690;20156,573;   -1,997;    2,864
831,253;19681,990;   -0,543;    2,227
831,816;19791,953;   -1,906;    0,500
832,380;19719,734;    0,185;    0,864
832,943;19929,697;   -1,361;   -0,500
833,506;19410,751;    2,639;   -1,227
834,069;20227,351;    3,912;   -0,955
834,632;20249,950;    1,730;    1,318
835,195;20180,095;    1,003;    0,955
835,758;19351,331;   -0,997;    1,955
836,321;19251,475;    0,730;   -1,045
836,884;19300,438;   -0,725;   -0,955
837,447;19308,674;   -2,816;    1,773
838,010;19602,455;    0,366;    3,227
838,573;19898,418;   -1,179;    0,773
839,135;19863,745;   -1,361;   -0,955
839,698;19338,708;    1,275;    0,409
840,261;18825,580;    1,003;   -0,227
840,823;18651,179;   -0,543;    0,864
841,386;18971,597;   -0,452;   -2,409
841,948;18898,651;   -1,361;    1,773
842,511;18592,523;    0,912;    1,682
843,073;18760,031;    1,912;    0,227
843,636;18559,722;   -0,361;   -0,227
844,198;18506,776;    0,911;    0,591
844,760;18608,102;    1,093;    1,955
845,322;18249,702;    0,548;    1,136
845,885;18713,301;    0,730;    0,591
846,447;19140,264;   -1,998;    0,227
847,009;18730,318;    1,911;   -0,682
847,571;19087,917;    0,820;   -2,045
848,133;19132,789;   -1,089;   -1,864
848,695;18920,752;   -0,543;    1,409
849,257;18513,988;   -1,089;   -1,682
849,819;18706,678;   -0,998;   -0,409
850,381;18743,914;   -0,725;   -0,864
850,942;19132,877;    1,093;   -0,591
851,504;19071,113;    1,184;    0,227
852,066;19075,803;    1,275;   -1,591
852,628;18612,584;   -0,180;    1,955
853,189;18158,820;    1,638;    2,682
853,751;18266,238;   -0,907;    1,409
854,312;18087,383;   -0,453;   -1,682
854,874;18553,255;   -2,089;   -0,773
855,435;19067,763;   -0,907;   -1,682
855,997;19282,090;   -1,816;   -0,136
856,558;18578,416;    0,366;    1,773
857,119;18666,743;    0,820;    2,864
857,681;18335,433;    0,002;    0,318
858,242;18398,487;    1,911;   -2,136
858,803;18851,814;    0,456;   -0,773
859,364;19391,777;    0,184;   -4,773
859,925;18697,194;   -2,453;   -0,955
860,486;18583,248;   -0,453;   -0,955
861,047;18278,393;   -0,544;   -1,227
861,608;18140,811;   -1,089;   -0,773
862,169;18249,047;    0,638;   -0,045
862,730;18029,010;    0,456;    1,409
863,291;18291,882;   -0,635;   -0,500
863,852;18654,572;   -0,635;    1,955
864,412;18103,535;   -0,271;   -0,864
864,973;16664,862;   -0,089;    0,500
865,534;16585,552;   -1,726;    0,227
866,094;18043,424;    1,820;    0,227
866,655;17714,387;    1,274;    3,318
867,215;17972,895;    0,274;    0,136
867,776;17825,313;    0,547;   -0,136
868,336;17953,003;   -1,453;    0,136
868,897;17449,512;    2,638;    1,682
869,457;17157,202;    1,365;    0,318
870,017;17366,256;    0,547;   -1,227
870,578;17876,946;   -0,817;    0,773
871,138;17579,364;   -2,089;   -0,955
871,698;17169,599;   -0,817;   -1,318
872,258;17069,653;   -0,453;   -2,864
872,818;17413,253;    2,729;    0,045
873,378;17344,034;    0,638;    1,045
873,938;16924,088;    0,547;    0,500
874,498;17237,505;    0,274;   -1,955
875,058;17149,287;    2,183;    1,773
875,618;16980,977;    1,910;   -2,682
876,177;16888,758;    1,274;    0,136
876,737;16514,267;   -0,090;    1,955
877,297;16554,684;    0,183;    1,955
877,856;16601,465;   -0,362;    0,318
878,416;16495,792;    1,183;   -0,136
878,976;16722,937;   -1,817;    0,409
879,535;16856,809;    0,092;    3,136
880,095;16589,954;   -0,544;    0,045
880,654;16762,371;   -1,090;    1,318
881,213;16907,971;    2,456;    1,500
881,773;16533,206;    2,637;    2,682
882,332;16884,988;    3,365;    5,136
882,891;16689,769;    3,092;    2,136
883,451;17175,641;   -1,272;    1,682
884,010;16593,967;   -2,908;   -0,409
884,569;16679,203;   -0,999;   -0,045
885,128;16865,712;    2,819;   -1,864
885,687;16928,947;    4,455;    0,682
886,246;16607,638;    1,455;    2,136
886,805;16381,692;    2,455;    2,045
887,364;16670,655;   -0,999;   -0,500
887,922;17040,890;   -1,181;    0,045
888,481;16538,126;   -1,545;    0,591
889,040;16809,453;    1,183;    2,136
889,599;17534,870;    2,455;    1,409
890,157;17601,288;    1,455;    2,409
890,716;17240,342;   -0,090;    0,227
891,274;17038,305;    0,092;   -1,136
891,833;17479,813;    1,546;    0,864
892,391;17365,231;   -0,454;    0,500
892,950;17449,830;    1,819;   -0,773
893,508;17817,702;    0,455;   -0,409
894,067;17146,574;    0,637;    0,136
894,625;17032,083;   -0,636;   -1,500
895,183;17284,864;   -0,363;   -0,682
895,741;17151,372;    1,728;   -1,773
896,299;16992,608;   -0,545;   -2,409
896,858;17214,026;    0,819;   -1,591
897,416;17283,989;    2,728;   -1,318
897,974;17040,952;    1,819;    0,318
898,532;17205,369;    6,091;    2,682
899,089;17105,060;    2,091;   -0,682
899,647;17180,204;   -1,454;    1,318
900,205;16912,713;    1,182;    1,045
900,763;17116,040;   -0,454;    0,227
901,321;17086,548;    2,364;   -1,409
901,878;16495,511;   -1,000;   -0,773
902,436;16358,747;   -1,363;    1,318
902,994;16749,437;    4,728;    3,682
903,551;16175,946;    0,728;    0,409
904,109;16560,545;    0,182;   -1,409
904,666;16132,599;    2,455;    1,045
905,224;15966,925;    0,182;   -0,409
905,781;15773,252;    0,727;   -0,318
906,338;15842,942;   -1,363;    1,045
906,895;15759,905;    0,637;    2,045
907,453;15665,414;    1,727;    1,136
908,010;15664,286;   -0,909;    0,409
908,567;15384,249;    1,273;    0,591
909,124;14856,394;    0,364;   -1,500
909,681;14934,811;   -2,909;    0,682
910,238;15080,956;    0,636;   -1,318
910,795;15353,101;   -0,273;   -1,136
911,352;14980,828;   -2,909;   -2,682
911,909;14431,828;   -1,364;   -0,864
912,466;14974,919;   -3,182;    1,500
913,022;14507,646;   -1,636;    0,500
913,579;14888,101;   -0,909;    2,045
914,136;14582,192;    1,636;    0,955
914,692;14883,283;    0,091;   -1,227
915,249;14477,283;    1,455;    0,409
915,806;14685,646;    0,182;    1,955
916,362;14471,919;    1,909;    1,864
916,918;14025,465;    2,000;    1,045
917,475;14027,283;   -1,182;    0,955
918,031;14114,556;    3,364;   -0,045
918,587;13540,646;   -0,909;   -0,318
919,144;13749,101;   -2,273;    0,227
919,700;14087,919;    1,727;    0,773
920,256;13620,101;    0,727;    0,045
920,812;13251,465;   -0,727;   -1,045
921,368;13259,101;   -1,727;   -1,045
921,924;12873,374;    0,182;   -0,136
922,480;12468,010;   -0,545;    1,227
923,036;13096,556;    1,273;    1,955
923,592;13021,283;    0,455;    0,318
924,148;12949,828;    0,455;   -0,955
924,704;12271,101;   -1,364;   -0,409
925,259;12518,556;   -0,273;    0,591
925,815;12267,556;    1,455;    0,500
926,371;11796,101;    2,909;    1,409
926,926;11675,465;    2,091;    0,591
927,482;11306,283;   -1,364;    0,773
928,037;11220,465;    0,909;    2,045
928,593;11526,010;    1,636;    1,045
929,148;11320,101;   -1,818;   -1,500
929,704;10808,828;   -1,455;   -0,500
930,259;11041,646;    0,091;   -0,136
930,814;10128,556;   -0,818;    1,955
931,369; 9778,737;    1,091;   -0,773
931,925; 9652,465;   -0,091;    0,136
932,480; 9608,101;   -2,818;   -2,591
933,035; 9472,919;    0,545;   -0,318
933,590; 9208,919;    0,364;   -1,773
934,145; 8887,919;   -1,364;   -0,318
934,700; 9209,919;    0,455;   -0,591
935,255; 9018,646;   -0,091;    0,045
935,809; 8321,919;    3,182;    0,864
936,364; 7432,828;   -0,455;   -0,136
936,919; 7407,283;    0,455;   -1,773
937,474; 7267,283;    1,455;    0,136
938,028; 7036,465;   -1,636;    1,136
938,583; 6554,374;    1,818;    4,682
939,138; 6787,010;    2,091;    2,136
939,692; 6229,465;    1,636;   -1,136
940,247; 5965,919;   -0,727;   -1,045
940,801; 5511,828;   -0,636;    0,227
941,355; 5399,101;   -0,364;    2,591
941,910; 5022,283;   -0,273;   -2,136
942,464; 5143,919;   -0,818;   -0,318
943,018; 4959,646;    1,000;   -0,227
943,572; 4921,646;    2,545;   -0,682
944,126; 4337,556;    0,091;   -0,409
944,681; 4246,646;    3,091;    0,227
945,235; 4220,283;    1,000;   -0,591
945,789; 4142,374;    0,364;   -1,864
946,342; 4279,192;    0,455;   -0,591
946,896; 4072,737;   -2,273;    0,955
947,450; 3816,556;    1,545;   -0,227
948,004; 4010,828;    1,727;   -0,045
948,558; 4002,828;    0,273;   -0,864
949,111; 3947,465;   -0,273;   -0,318
949,665; 3981,465;    1,636;   -0,682
950,219; 3860,374;   -0,091;   -1,045
950,772; 3932,192;   -1,909;    1,864
951,326; 3821,465;    0,545;   -0,955
951,879; 3929,374;    0,727;   -2,318
952,433; 3961,737;    0,000;    2,227
952,986; 3812,556;    2,909;    0,682
953,539; 3744,919;   -0,273;    0,591
954,093; 3671,101;    0,545;   -1,318
954,646; 3817,556;    0,909;    1,318
955,199; 3619,101;    0,000;   -0,500
955,752; 3526,737;   -0,455;    1,773
956,305; 3468,828;   -0,091;    2,955
956,858; 3646,828;    0,818;   -0,318
957,411; 3798,646;   -0,545;    2,136
957,964; 3657,465;    1,364;    2,136
958,517; 3616,646;   -1,545;    3,136
959,070; 3454,192;   -0,455;    1,955
959,623; 3559,010;    1,091;    1,500
960,176; 3316,192;    1,727;    2,045
960,728; 3302,737;   -2,727;    0,773
961,281; 3341,919;    0,545;    0,500
961,834; 3394,646;   -0,909;    0,864
962,386; 3308,737;    1,727;    1,045
962,939; 3217,737;    0,364;   -0,318
963,491; 3360,010;    0,455;    1,136
964,043; 3246,465;    1,182;    2,409
964,596; 3373,919;   -1,000;    2,227
965,148; 3210,101;   -1,000;    1,773
965,700; 3123,010;    1,091;   -0,227
966,253; 3274,646;   -0,636;    0,318
966,805; 3110,646;   -2,273;    0,773
967,357; 3155,010;    1,091;   -1,500
967,909; 3135,374;    0,455;   -1,227
968,461; 3246,556;    0,545;    3,136
969,013; 3185,101;   -0,182;   -0,864
969,565; 3255,828;   -0,455;   -1,136
970,117; 3315,646;   -0,364;    1,045
970,669; 3128,919;    0,182;   -0,136
971,220; 2998,374;   -0,455;   -1,500
971,772; 2920,737;   -0,636;   -0,318
972,324; 3053,737;    0,091;   -0,500
972,876; 2979,828;    0,818;   -0,045
973,427; 3135,737;    1,909;   -1,045
973,979; 3091,465;   -0,727;   -2,500
974,530; 3129,465;    1,818;    1,318
975,082; 3141,737;   -0,545;    1,682
975,633; 3036,737;    1,091;    1,682
976,184; 3166,192;    0,909;    0,773
976,736; 2973,192;    0,091;    0,227
977,287; 2778,737;   -0,909;   -0,500
977,838; 2944,828;    0,909;   -0,318
978,389; 3019,737;   -1,000;   -0,500
978,940; 2904,919;    0,545;   -0,409
979,491; 2906,556;    0,091;   -0,500
980,042; 2874,283;    0,182;    3,045
980,593; 2929,737;   -2,545;    0,227
981,144; 2976,646;    2,545;   -0,500
981,695; 2932,192;    1,455;    1,500
982,246; 2906,828;   -0,273;    1,045
982,797; 3056,465;   -1,727;    0,682
983,347; 3151,465;    0,364;    0,591
983,898; 3336,556;    3,091;    0,409
984,449; 3158,737;    2,182;    0,773
984,999; 3063,101;    1,455;   -1,136
985,550; 2845,737;    0,182;   -0,318
986,100; 2867,192;   -0,455;   -0,318
986,651; 2885,283;   -0,818;    0,045
987,201; 2860,919;   -1,000;   -0,591
987,751; 2958,919;    0,818;    2,864
988,302; 2941,919;    2,636;    1,500
988,852; 2975,919;    0,455;   -1,136
989,402; 3023,374;    0,091;    0,682
989,952; 2948,192;   -2,182;    0,864
990,502; 3036,374;   -0,091;    0,682
991,052; 2984,828;   -0,727;    0,045
991,602; 2850,828;   -2,909;    1,318
992,152; 2864,919;    0,455;    0,682
992,702; 2839,465;    1,364;   -0,045
993,252; 2767,101;   -3,000;   -0,500
993,802; 2845,646;   -0,273;    1,318
994,352; 3077,737;   -1,545;    1,136
994,901; 3166,556;   -0,182;    3,227
995,451; 3095,737;   -0,182;    0,318
996,000; 3169,192;    1,636;    0,318
996,550; 2872,919;    2,273;    0,227
997,100; 2893,101;    1,273;   -0,045
997,649; 3179,465;    2,182;    0,955
998,198; 2805,101;    1,727;   -1,500
998,748; 3009,919;    1,091;   -2,318
999,297; 2916,646;   -0,818;   -0,409
999,846; 2945,374;    1,000;   -0,773
1000,395; 3002,556;   -0,818;    0,500
1000,945; 2958,828;    1,818;   -0,773
1001,494; 3064,828;    2,364;    0,682
1002,043; 3039,283;    4,636;    0,864
1002,592; 2881,556;   -1,091;    1,955
1003,141; 3030,010;   -0,455;   -0,682
1003,690; 2898,010;    1,727;    0,500
1004,238; 2978,010;    1,455;   -0,045
1004,787; 2614,919;    1,364;    1,227
1005,336; 2851,101;    0,364;    0,682
1005,885; 3009,465;    1,364;   -2,773
1006,433; 3139,192;    0,545;    0,955
1006,982; 3198,828;    0,455;    1,682
1007,531; 3085,283;   -1,818;   -0,227
1008,079; 3036,283;   -2,273;    0,500
1008,627; 3169,192;   -1,455;    0,409
1009,176; 2906,101;    0,000;   -1,955
1009,724; 2973,283;    1,091;    0,864
1010,273; 3025,737;    1,273;    0,500
1010,821; 3133,465;    0,091;    1,409
1011,369; 2864,556;   -1,364;    1,318
1011,917; 2850,919;   -1,364;   -0,591
1012,465; 3128,556;    1,273;   -1,591
1013,013; 3221,192;    2,091;   -1,682
1013,561; 3114,465;    0,455;   -0,773
1014,109; 3183,646;   -1,909;    1,682
1014,657; 3053,646;    0,364;    0,591
1015,205; 3166,737;    1,636;   -0,955
1015,753; 3207,828;   -0,545;   -1,409
1016,301; 3225,283;   -2,636;    3,045
1016,848; 3230,283;   -1,273;    0,409
1017,396; 3281,556;    2,545;    0,045
1017,944; 3399,283;    1,182;    1,864
1018,491; 3157,010;    0,273;    1,409
1019,039; 3319,374;    0,455;    0,591
1019,586; 3213,374;   -1,364;    1,682
1020,134; 3313,101;    0,455;    1,500
1020,681; 3339,556;    0,182;   -1,136
1021,228; 3337,646;    2,909;   -2,227
1021,776; 3179,556;    1,182;   -1,136
1022,323; 3394,465;    0,455;    0,773
1022,870; 3333,374;   -1,000;   -0,045
1023,417; 3221,101;    2,636;    1,864
1023,964; 3375,101;    2,636;    1,227
1024,511; 3215,192;    1,000;    0,773
1025,058; 3002,465;    3,182;   -0,045
1025,605; 3052,101;   -2,273;    3,136
1026,152; 3289,010;    1,727;   -0,591
1026,699; 2999,556;    1,818;    1,318
1027,245; 3162,101;   -0,091;    0,318
1027,792; 3361,646;   -1,000;    1,409
1028,339; 3283,010;    2,364;   -0,045
1028,885; 3129,374;    1,000;   -0,227
1029,432; 3054,828;   -0,091;    0,227
1029,978; 3111,465;   -1,000;   -1,591
1030,525; 3038,737;    1,000;    0,409
1031,071; 3267,828;   -1,364;    1,136
1031,618; 3377,010;    0,364;    1,682
1032,164; 3147,465;   -0,091;    3,045
1032,710; 3198,919;    1,636;   -1,500
1033,256; 3104,374;   -0,636;   -0,136
1033,803; 3087,465;   -0,545;    1,500
1034,349; 2804,010;   -1,364;    0,136
1034,895; 2952,010;    0,000;   -0,318
1035,441; 2947,465;   -0,818;    0,318
1035,987; 2937,646;   -2,364;   -0,682
1036,533; 2932,283;   -1,455;   -0,955
1037,078; 3158,374;    1,455;    1,682
1037,624; 2959,192;    2,455;   -0,955
1038,170; 3004,192;    0,455;   -0,318
1038,716; 2915,283;    1,636;   -0,409
1039,261; 2824,828;   -2,273;   -0,773
1039,807; 2759,010;   -0,091;    3,409
1040,352; 2822,465;   -1,909;   -0,318
1040,898; 2854,101;   -1,545;   -0,682
1041,443; 2766,374;   -1,455;   -2,591
1041,989; 2800,737;    1,091;    1,591
1042,534; 2664,374;   -0,364;    2,591
1043,079; 2763,010;    2,909;    0,955
1043,625; 2577,101;    1,818;    0,500
1044,170; 2634,737;   -1,364;    1,045
1044,715; 2889,556;    2,455;    0,955
1045,260; 2681,919;    2,182;   -0,955
1045,805; 2727,828;    1,182;   -0,591
1046,350; 2662,737;    1,364;   -0,409
1046,895; 2630,737;    2,909;    1,591
1047,440; 2595,465;    5,364;    0,409
1047,985; 2491,646;    2,818;   -0,955
1048,530; 2402,556;    1,545;    1,227
1049,074; 2481,737;    0,000;    0,318
1049,619; 2431,556;   -1,364;    1,955
1050,164; 2241,465;    0,455;    0,227
1050,708; 2289,010;   -0,455;    0,045
1051,253; 2668,646;    1,273;   -2,227
1051,797; 2370,828;    0,818;   -1,318
1052,342; 2384,556;   -1,182;    1,045
1052,886; 2378,010;    0,364;   -1,409
1053,430; 2244,374;   -1,364;    0,136
1053,975; 2277,101;   -0,818;   -0,318
1054,519; 2252,556;   -0,727;    3,227
1055,063; 2276,374;    0,909;    1,318
1055,607; 2161,283;   -0,182;    0,227
1056,151; 2180,465;    2,909;    1,682
1056,695; 2090,737;    2,273;   -1,136
1057,239; 2150,374;   -1,727;   -0,682
1057,783; 2166,737;    0,818;   -1,500
1058,327; 2125,556;    0,000;    1,409
1058,871; 2361,192;   -0,545;    1,318
1059,415; 2075,192;   -0,818;   -0,045
1059,958; 2345,646;    1,455;    2,591
1060,502; 2045,374;   -1,000;   -0,773
1061,046; 1944,828;    0,364;   -0,955
1061,589; 1921,465;   -3,000;   -1,136
1062,133; 1806,374;   -1,273;    1,864
1062,676; 1744,192;    1,182;    0,864
1063,220; 1750,919;    1,091;    0,500
1063,763; 1776,374;    0,909;    1,136
1064,306; 1855,828;   -0,909;    1,864
1064,849; 1762,010;   -0,909;    0,591
1065,393; 1758,828;    2,000;   -1,500
1065,936; 1870,374;    0,182;   -0,409
1066,479; 1743,374;   -1,455;    1,318
1067,022; 1763,374;   -0,273;   -0,227
1067,565; 1666,465;   -0,091;   -1,318
1068,108; 1682,283;    0,727;   -0,591
1068,651; 1660,465;   -0,636;    1,409
1069,194; 1591,556;   -0,455;   -1,682
1069,736; 1611,737;   -1,273;    0,955
1070,279; 1571,101;   -1,364;   -0,500
1070,822; 1622,465;   -2,000;   -0,318
1071,364; 1727,919;   -0,364;    1,318
1071,907; 1544,646;   -0,727;    3,227
1072,450; 1426,283;    0,000;   -0,045
1072,992; 1423,828;   -0,273;    3,136
1073,535; 1582,192;    2,091;    2,136
1074,077; 1359,919;   -0,727;    2,045
1074,619; 1339,919;   -1,364;    0,591
1075,161; 1376,010;   -1,091;    1,500
1075,704; 1563,646;    1,545;    1,227
1076,246; 1352,010;   -0,182;    0,682
1076,788; 1275,374;   -0,364;    1,773
1077,330; 1340,101;    1,273;    2,136
1077,872; 1322,010;    0,909;    0,955
1078,414; 1559,646;    2,727;    0,773
1078,956; 1280,919;    1,273;   -0,227
1079,498; 1549,101;    1,636;    0,318
1080,040; 1249,465;    1,909;   -1,318
1080,581; 1187,646;    1,636;   -0,318
1081,123; 1113,737;    0,091;   -0,773
1081,665; 1166,010;   -1,182;   -0,955
1082,206; 1479,465;    1,364;   -0,500
1082,748; 1329,737;    0,727;    2,045
1083,289; 1201,192;   -2,000;    1,318
1083,831; 1095,737;   -0,545;    0,227
1084,372; 1140,465;    0,000;    0,591
1084,913; 1156,101;    1,091;    0,864
1085,455; 1114,283;   -1,909;   -2,045
1085,996; 1086,192;   -2,273;    0,136
1086,537; 1109,828;   -0,091;    0,864
1087,078; 1146,101;   -0,909;   -2,136
1087,619; 1190,010;   -1,273;    0,227
1088,160; 1101,556;    0,000;    1,318
1088,701; 1085,646;   -1,091;    0,682
1089,242; 1013,919;    1,364;   -2,227
1089,783; 1126,646;   -0,273;    1,409
1090,324; 1095,101;    0,455;    0,682
1090,865;  964,646;    2,727;   -0,409
1091,405;  917,465;    0,727;    2,227
1091,946;  950,465;    0,182;   -0,955
1092,487;  883,828;    0,818;   -1,409
1093,027; 1051,646;   -1,364;   -1,500
1093,568;  895,283;   -0,364;    1,227
1094,108; 1009,465;    0,273;    1,773
1094,649;  944,283;   -1,182;    0,136
1095,189;  880,556;   -0,636;   -0,682
1095,729;  839,465;   -0,091;    0,955
1096,269;  833,556;    0,727;   -0,955
1096,810; 1150,646;   -1,364;    0,500
1097,350;  978,010;    1,364;   -0,773
1097,890;  884,556;    0,364;    1,227
1098,430; 1151,646;    2,364;    2,864
1098,970; 1015,283;    2,182;    1,682
1099,510;  872,465;    0,545;   -2,318
1100,050;  799,646;    1,000;   -1,591
1100,589;  769,646;   -0,727;   -0,318
1101,129;  905,556;    0,818;   -0,955
1101,669; 1051,010;    1,727;    2,136
1102,209;  862,465;   -0,091;    2,227
1102,748;  829,465;    0,000;    0,955
1103,288;  822,828;    1,273;   -1,227
1103,827;  845,101;    3,091;   -2,227
1104,367;  718,374;   -0,091;   -2,409
1104,906;  685,556;    1,364;   -1,136
1105,445;  761,010;    0,636;   -1,136
1105,985;  705,192;   -0,727;    1,500
1106,524;  753,283;   -1,727;   -0,682
1107,063;  726,010;   -2,727;    1,409
1107,602;  695,828;   -1,909;   -1,500
1108,141;  613,828;   -1,909;    1,500
1108,680;  728,556;   -3,455;   -0,591
1109,219;  656,646;   -0,909;   -0,500
1109,758;  666,283;    0,455;    0,682
1110,297;  637,374;    1,000;   -0,682
1110,836;  586,010;   -0,727;    0,955
1111,375;  746,374;   -2,545;    0,409
1111,913;  759,465;   -1,000;    0,773
1112,452;  699,737;   -0,273;    0,136
1112,991;  576,465;    1,091;    1,955
1113,529;  534,283;   -0,818;   -0,045
1114,068;  608,010;   -0,273;    2,955
1114,606;  503,919;   -0,364;   -0,955
1115,144;  680,283;   -1,273;    1,045
1115,683;  608,283;   -0,727;    0,318
1116,221;  662,919;   -0,455;   -0,864
1116,759;  561,192;    0,636;   -0,864
1117,297;  768,283;    0,000;    1,864
1117,836;  575,919;   -2,182;   -1,227
1118,374;  589,010;    0,182;   -0,682
1118,912;  518,828;    0,909;    2,682
1119,450;  511,101;    1,000;    0,864
1119,988;  559,646;    1,545;    2,136
1120,525; 1024,828;    5,091;    3,318
1121,063;  727,283;    1,182;    1,864
1121,601;  535,192;   -0,909;   -1,227
1122,139;  478,919;   -0,727;   -2,045
1122,676;  691,465;   -0,727;    2,773
1123,214;  620,010;   -1,182;    4,409
1123,751;  423,010;    1,727;    2,227
1124,289;  556,828;   -0,091;   -0,409
1124,826;  417,010;    1,727;    0,227
1125,364;  338,465;    1,727;   -0,955
1125,901;  527,101;    1,182;    1,227
1126,438;  646,283;    0,818;    0,955
1126,975;  369,556;   -0,727;   -0,773
1127,513;  442,374;    0,273;    2,136
1128,050;  340,374;    1,636;   -0,682
1128,587;  444,919;    2,000;   -0,227
1129,124;  498,828;    0,091;    1,318
1129,661;  349,465;    0,273;    0,227
1130,198;  525,283;    1,636;    0,773
1130,734;  479,283;    0,182;    1,409
1131,271;  331,828;   -0,909;    0,864
1131,808;  504,010;    2,909;    3,045
1132,345;  376,010;    1,545;    0,318
1132,881;  243,465;   -1,545;   -1,864
1133,418;  386,101;    0,727;   -1,136
1133,954;  320,919;    2,455;   -2,682
1134,491;  394,374;    1,364;   -0,773
1135,027;  302,283;    2,364;    0,864
1135,564;  389,283;    0,273;    2,955
1136,100;  375,192;    0,364;    2,136
1136,636;  252,737;   -1,273;   -1,045
1137,172;  347,101;    0,000;   -1,045
1137,708;  273,646;   -1,364;   -1,045
1138,245;  280,737;    1,273;   -1,227
1138,781;  224,010;    1,091;   -3,318
1139,317;  308,919;    1,273;   -1,409
1139,852;  292,828;    3,091;    0,136
1140,388;  409,101;   -1,182;   -0,409
1140,924;  284,737;   -1,091;   -2,227
1141,460;  225,101;   -1,636;    0,136
1141,996;  151,828;   -1,364;    2,682
1142,531;  209,465;    1,364;    3,318
1143,067;  431,737;    1,182;    1,045
1143,602;  491,283;   -0,091;   -0,318
1144,138;  327,101;   -2,636;    1,045
1144,673;  192,101;   -1,455;    1,409
1145,209;  269,374;   -1,909;   -0,318
1145,744;  182,010;   -0,727;    0,864
1146,279;  329,919;    1,818;   -0,136
1146,815;  232,192;    1,545;   -2,682
1147,350;  275,374;   -1,364;    0,045
1147,885;  187,919;   -0,818;   -1,318
1148,420;  184,283;   -2,273;    0,773
1148,955;  160,192;   -1,727;    1,864
1149,490;  200,465;   -0,909;   -1,591
1150,025;  176,192;    0,455;   -1,773
1150,560;  294,828;    1,091;   -0,955
1151,094;  258,192;    1,455;   -0,591
1151,629;  266,010;    1,636;    0,864
1152,164;  181,828;    1,364;    1,318
1152,698;  143,192;   -0,182;   -0,136
1153,233;  107,919;    0,091;   -0,682
1153,767;  156,283;   -3,000;   -2,318
1154,302;  200,010;   -1,455;    1,773
1154,836;  199,283;   -0,455;   -2,136
1155,371;  253,919;   -1,364;    3,682
1155,905;  208,465;   -0,636;    1,682
1156,439;  172,374;   -0,636;   -0,500
1156,973;  206,283;    0,364;    0,318
1157,507;  146,919;   -0,364;    0,682
1158,042;  175,010;   -0,727;    1,045
1158,576;  222,465;    0,182;    1,773
1159,110;  208,737;   -0,818;    2,409
1159,643;  175,465;    0,636;   -0,045
1160,177;  102,010;   -1,545;    1,500

