
Integration time [ms]:   0,040
Averaging Nr. [scans]: 11
Smoothing Nr. [pixels]: 0
Data measured with spectrometer [name]: 7318044SP
Wave   ;Sample   ;Dark     ;Reference
[nm]   ;[counts] ;[counts] ;[counts] 

186,757;   36,614;   31,551;    1,318
187,357;   71,432;   22,551;    0,955
187,958;   37,691;   15,460;   -1,591
188,558;   86,877;    8,915;   -1,227
189,159;   57,991;    6,733;   -4,500
189,759;   17,591;    7,278;   -3,591
190,360;   23,365;    2,824;   -2,136
190,960;   68,616;    2,915;   -4,136
191,560;   81,295;    3,189;   -6,591
192,161;  345,403;    4,372;   -3,500
192,761;  174,807;    4,010;   -3,227
193,361;  119,117;    1,556;   -3,773
193,962;  171,465;    2,010;   -2,682
194,562;   97,019;    1,189;   -3,955
195,162;  137,502;   -2,448;   -2,227
195,762;  312,347;   -3,176;   -0,045
196,362;  249,947;    1,370;   -2,500
196,963;  102,419;    2,006;   -0,864
197,563;  182,700;    1,551;   -0,955
198,163;  116,526;    0,096;   -0,682
198,763;  139,300;    1,733;   -0,500
199,363;  258,190;    3,096;   -0,500
199,963;  214,790;    0,369;    0,409
200,563;  182,608;    2,823;   -1,409
201,163;  158,439;    3,277;   -0,227
201,763;  263,598;    3,732;    0,318
202,363;  194,062;    1,459;    1,500
202,963;  320,471;    1,459;    1,045
203,563;  437,907;    0,277;    0,500
204,162;  262,016;    2,096;   -1,864
204,762;  249,393;    0,550;    0,591
205,362;  223,193;    3,004;    1,955
205,962;  329,980;    3,096;    1,955
206,562;  324,184;    1,823;    2,318
207,161;  298,229;   -0,087;    0,318
207,761;  462,034;    1,277;    2,409
208,361;  320,571;   -0,268;    1,409
208,960;  442,952;    0,459;    1,500
209,560;  520,770;    1,277;    1,591
210,160;  493,888;    0,550;    1,864
210,759;  454,966;    4,186;    1,227
211,359;  469,201;    1,459;    1,045
211,958;  738,356;    1,277;    2,045
212,558;  822,966;    1,732;    1,864
213,157;  661,297;    1,822;    1,500
213,757; 1125,410;    3,822;   -0,227
214,356;  802,370;    1,277;   -0,409
214,956; 1166,207;    3,095;    0,409
215,555;  763,433;    2,095;    2,136
216,154;  710,374;   -2,723;   -0,591
216,754;  727,183;    0,277;    0,773
217,353;  863,602;   -0,268;   -1,045
217,952;  703,860;   -0,178;    0,318
218,552;  957,955;    1,368;   -0,773
219,151;  853,314;    0,277;    0,955
219,750;  848,736;    0,004;   -0,227
220,349; 1002,582;   -0,451;    1,045
220,948; 1063,919;   -1,360;    1,136
221,548; 1097,837;    0,913;    1,227
222,147; 1218,846;   -0,087;   -0,409
222,746; 1509,723;   -0,451;   -0,955
223,345; 1393,564;    0,731;    0,500
223,944; 1400,446;   -0,451;    0,773
224,543; 1585,296;    1,004;   -1,409
225,142; 1717,350;    0,094;    0,136
225,741; 1605,719;   -0,814;    1,045
226,340; 1654,046;   -0,451;   -0,955
226,939; 2133,656;   -0,996;   -0,136
227,538; 2119,737;   -0,360;   -0,773
228,137; 2276,860;   -0,814;    0,864
228,735; 2472,219;   -0,541;    1,227
229,334; 2181,119;   -0,905;   -0,227
229,933; 2565,192;    0,459;    0,591
230,532; 2696,047;    1,186;   -0,409
231,131; 2727,406;    1,732;    0,318
231,729; 2900,715;   -2,450;   -2,318
232,328; 3061,579;   -0,723;   -1,500
232,927; 3157,347;    1,004;   -0,500
233,525; 3308,114;    3,640;    0,045
234,124; 3540,470;    2,368;   -1,591
234,723; 3563,869;    0,913;   -1,045
235,321; 3713,546;    2,277;    0,136
235,920; 3989,719;    1,186;   -1,227
236,518; 4266,578;    3,459;    0,318
237,117; 4477,446;    0,004;   -0,227
237,715; 4645,910;    0,640;   -0,500
238,314; 4691,060;   -0,087;   -2,318
238,912; 4791,547;   -0,723;   -1,409
239,510; 4842,529;    0,459;   -1,227
240,109; 5011,797;    0,004;    3,773
240,707; 5061,152;   -0,996;    1,227
241,305; 5457,397;    0,550;    0,136
241,904; 5678,215;   -0,178;   -2,045
242,502; 5649,411;   -0,632;   -0,227
243,100; 5596,447;   -0,087;   -0,955
243,698; 5833,820;    0,732;    1,682
244,297; 6014,578;   -0,632;    0,682
244,895; 5835,265;   -0,269;   -2,318
245,493; 6218,369;    2,186;   -0,591
246,091; 6246,137;    1,368;   -1,318
246,689; 6223,042;    1,004;    0,591
247,287; 6414,096;    0,822;   -1,136
247,885; 6706,005;   -1,451;    1,227
248,483; 6803,060;    1,822;   -0,500
249,081; 6920,877;    0,185;    1,591
249,679; 7100,891;   -0,178;    1,682
250,277; 7364,973;   -1,723;    0,864
250,875; 7345,906;   -1,087;   -1,045
251,473; 7380,210;   -1,178;    0,500
252,071; 7594,515;    1,459;    1,045
252,669; 7762,992;   -1,814;    0,318
253,267; 8036,782;   -0,087;    0,773
253,864; 7979,005;   -0,360;    0,682
254,462; 7834,537;    1,640;    1,591
255,060; 7768,242;   -0,269;    1,318
255,658; 8130,173;    0,822;   -0,136
256,255; 8587,546;    0,186;   -2,045
256,853; 8439,187;   -0,269;    1,409
257,451; 8446,542;    0,822;    1,864
258,048; 8698,519;    1,822;    1,864
258,646; 8453,896;    1,731;   -1,045
259,243; 8684,460;   -0,087;    2,227
259,841; 8724,510;   -0,814;    0,318
260,438; 8576,160;   -0,087;    0,864
261,036; 9340,433;   -1,905;    1,409
261,633; 9259,001;   -0,087;    2,227
262,231; 8950,919;    2,731;   -0,045
262,828; 8996,765;   -0,905;    1,136
263,425; 9078,874;    0,913;   -0,591
264,023; 9364,969;    0,186;    0,045
264,620; 8938,705;   -0,360;   -0,318
265,217; 9314,178;   -2,087;    3,136
265,815; 9404,868;   -1,905;    2,136
266,412; 9151,914;    0,731;    0,136
267,009; 9210,992;   -1,451;    0,773
267,606; 9107,987;    0,822;   -0,955
268,203; 9076,847;   -0,269;   -0,591
268,801; 9374,292;    1,731;    0,591
269,398; 9666,960;   -0,360;    2,500
269,995; 9677,947;    0,277;    1,591
270,592; 9440,515;   -0,632;   -0,500
271,189; 9653,264;    0,186;    0,409
271,786; 9759,092;   -0,632;    1,227
272,383; 9585,624;   -1,087;    0,227
272,980; 9784,605;    0,277;    0,318
273,577;10277,642;    0,004;    1,227
274,174; 9828,510;    0,822;    2,591
274,771; 9827,901;   -0,814;   -0,773
275,367; 9992,365;    2,277;    1,409
275,964; 9919,483;    0,731;   -0,500
276,561;10011,642;    1,549;   -1,045
277,158;10259,800;    0,095;   -1,773
277,755;10411,423;    2,185;    0,409
278,351; 9772,437;   -0,451;   -1,500
278,948;10088,477;   -0,815;    0,045
279,545;10089,455;   -1,360;    2,318
280,141;10762,524;   -1,723;   -2,045
280,738;10626,528;   -0,451;   -0,136
281,334;10878,505;   -1,633;    0,591
281,931;10256,895;   -0,087;   -1,318
282,528;10327,359;    0,822;   -0,500
283,124;11063,537;   -1,087;   -0,500
283,721;10953,968;   -0,451;    1,409
284,317;10732,327;    0,185;    2,500
284,913;11325,582;   -1,360;    0,591
285,510;11534,400;    0,640;   -0,318
286,106;11573,309;   -2,269;   -0,955
286,703;11188,796;   -0,360;    1,955
287,299;11351,237;   -1,451;   -0,591
287,895;11546,646;    0,822;   -1,045
288,491;12156,414;    0,186;    2,136
289,088;11859,241;   -2,360;    2,409
289,684;11916,810;   -1,723;    1,500
290,280;11944,874;    0,368;    0,682
290,876;12082,760;    1,822;    5,500
291,472;11905,196;    1,276;    2,227
292,068;12035,318;    1,367;    0,227
292,665;11721,783;    2,095;    0,773
293,261;11308,637;    0,276;    2,136
293,857;11721,865;    2,913;    2,136
294,453;11633,369;    3,550;    0,955
295,049;11530,457;   -0,268;    1,955
295,644;11550,097;    0,095;    0,136
296,240;11482,170;   -0,905;   -0,136
296,836;11490,252;   -0,995;    0,318
297,432;11764,385;    1,096;   -0,500
298,028;11828,176;    0,732;    0,773
298,624;12247,357;    1,459;    1,864
299,220;12492,103;    2,368;    0,591
299,815;12150,130;    1,005;   -0,409
300,411;11955,093;    0,914;    1,773
301,007;11983,616;    1,368;    0,227
301,602;12016,775;   -0,541;   -2,318
302,198;12186,026;    0,732;   -0,773
302,794;12529,148;    1,187;   -0,500
303,389;12638,707;   -1,177;    1,045
303,985;12729,689;    0,550;    1,409
304,580;12713,689;    1,459;    1,591
305,176;12645,152;   -3,086;    0,136
305,771;12595,498;   -1,268;   -1,227
306,367;12440,588;    4,095;    0,136
306,962;12773,230;    0,641;    1,500
307,558;12473,802;   -0,450;    0,136
308,153;12424,520;    1,095;   -1,136
308,748;12667,280;   -0,814;    1,682
309,344;12643,711;   -0,632;   -1,318
309,939;12723,248;   -1,905;   -1,318
310,534;12986,843;   -0,086;   -1,682
311,130;12938,530;    0,459;   -2,500
311,725;12658,748;    1,004;   -0,500
312,320;13001,480;    2,459;    0,045
312,915;12835,029;    1,459;   -1,045
313,510;12915,329;    1,550;   -0,500
314,105;13377,180;    1,096;    1,409
314,700;12786,307;   -3,086;   -1,045
315,295;12434,325;   -0,904;    0,045
315,890;11979,857;    1,277;    0,864
316,485;12375,484;   -0,359;   -0,318
317,080;12523,875;   -3,086;    1,591
317,675;13084,121;    2,005;   -0,682
318,270;12493,048;    5,550;    3,318
318,865;12489,317;    3,278;    3,045
319,460;12305,107;   -0,904;    0,591
320,055;12563,880;   -0,541;   -1,227
320,650;12191,644;   -1,995;   -0,591
321,244;12208,994;   -0,177;   -1,409
321,839;13176,230;   -1,541;   -0,227
322,434;13088,571;   -1,086;   -1,591
323,029;12724,830;    1,732;    1,591
323,623;12541,461;    1,550;    0,773
324,218;12271,708;    2,368;    1,409
324,812;12159,607;    1,096;    1,591
325,407;11998,016;   -0,814;    2,045
326,002;11875,084;    0,277;   -0,409
326,596;12197,839;    0,914;    1,318
327,191;12402,425;    0,823;   -1,045
327,785;11935,839;   -0,813;   -0,227
328,379;12201,457;    1,368;    0,136
328,974;11997,580;    0,914;   -3,955
329,568;12205,825;    0,186;   -2,409
330,163;12004,507;    2,096;    1,045
330,757;12360,738;    2,459;    1,591
331,351;11662,811;    0,459;    0,682
331,945;11964,416;    0,914;    1,409
332,540;11549,998;   -1,723;   -0,591
333,134;11706,716;   -1,086;    0,773
333,728;12014,875;    0,005;    0,318
334,322;12300,934;   -1,177;   -0,864
334,916;11566,734;    0,277;    0,955
335,510;11917,470;   -0,450;   -0,136
336,105;12158,971;   -1,086;    1,591
336,699;11867,829;   -1,086;    0,591
337,293;11794,420;   -1,723;    0,318
337,887;11961,148;   -2,723;    1,955
338,481;12095,570;    0,459;    0,591
339,074;12180,911;   -0,359;    2,682
339,668;11996,675;   -1,632;    1,227
340,262;12304,479;    1,732;    3,227
340,856;11801,383;    1,822;   -0,682
341,450;11124,029;    1,004;    1,864
342,044;12029,147;    1,459;    0,136
342,637;11776,161;    0,913;   -2,136
343,231;11676,969;   -2,360;    0,682
343,825;11616,189;   -1,086;   -0,591
344,419;11567,716;   -1,995;    0,500
345,012;11364,162;    2,459;    4,045
345,606;11364,830;    4,641;    1,591
346,199;11174,894;   -1,813;   -0,227
346,793;10690,294;    1,914;    2,045
347,386;10882,298;   -0,813;   -1,136
347,980;10922,726;   -0,268;   -0,045
348,573;10677,622;    2,278;    0,409
349,167;10358,690;    5,278;    4,773
349,760;10702,640;    2,914;    2,682
350,354;10699,369;   -0,813;    1,136
350,947;10466,768;    1,096;    1,682
351,540;10086,518;   -0,358;   -1,409
352,134;10018,309;    1,096;    1,136
352,727;10109,158;   -0,086;    1,136
353,320; 9884,818;    0,005;    0,591
353,913; 9725,967;   -1,995;    1,864
354,507; 9935,990;    0,823;   -1,227
355,100; 9922,872;    0,460;    0,864
355,693; 9162,068;    2,005;    2,409
356,286; 9214,031;    0,823;    2,773
356,879; 9564,922;   -0,722;    1,227
357,472; 9147,513;   -0,904;    1,500
358,065; 9371,591;   -0,722;    2,500
358,658; 9278,190;   -0,540;    2,318
359,251; 8902,381;   -1,631;   -0,591
359,844; 8381,032;   -1,904;   -1,136
360,437; 8570,940;   -2,995;    0,045
361,030; 8822,168;    1,369;   -0,682
361,623; 8440,077;    2,824;    0,318
362,215; 8488,427;   -0,086;    2,045
362,808; 8309,272;   -2,358;   -1,682
363,401; 8483,646;   -2,449;    0,136
363,994; 8249,391;   -0,631;   -1,500
364,586; 8149,474;    0,824;   -1,500
365,179; 8359,606;   -0,449;   -1,136
365,772; 7859,791;   -1,995;    2,045
366,364; 8198,046;    1,915;   -3,227
366,957; 8361,929;    2,279;   -0,045
367,549; 8371,270;    2,188;   -0,864
368,142; 8048,612;    1,825;   -1,500
368,734; 8229,599;    0,734;   -2,136
369,327; 8204,513;    1,643;   -0,500
369,919; 8123,332;   -1,538;    0,409
370,512; 7899,146;   -1,083;   -0,500
371,104; 7689,362;   -0,901;    1,591
371,696; 7843,477;    1,191;   -0,955
372,289; 7927,342;    0,373;    1,136
372,881; 8087,617;   -2,080;    1,318
373,473; 7969,015;   -2,170;    1,136
374,066; 7816,772;   -0,169;    0,500
374,658; 7658,286;    0,378;    1,136
375,250; 7995,577;    0,653;   -1,409
375,842; 7853,645;    0,473;   -0,045
376,434; 7762,463;   -0,435;   -0,409
377,026; 8323,077;    0,204;   -2,500
377,618; 8226,045;   -0,158;   -0,682
378,210; 8051,873;   -0,338;   -1,955
378,802; 7902,485;    0,754;   -0,591
379,394; 7871,378;    1,846;    0,682
379,986; 8446,539;    1,393;   -0,955
380,578; 8545,290;   -0,153;    0,773
381,170; 7880,215;   -0,972;    0,045
381,762; 7841,981;    0,755;    1,409
382,354; 8044,805;   -0,065;   -1,318
382,945; 8183,037;   -2,976;    0,318
383,537; 8319,511;   -2,705;   -1,955
384,129; 8288,426;   -2,160;   -1,136
384,721; 8522,561;   -0,252;    0,955
385,312; 8468,042;   -0,161;   -0,955
385,904; 8561,874;   -2,706;    1,591
386,496; 7918,357;   -0,979;    1,045
387,087; 8075,626;    1,022;    2,500
387,679; 8099,768;   -1,160;    0,045
388,270; 8228,664;    2,840;    2,045
388,862; 8373,677;    1,295;   -0,318
389,453; 8260,086;   -0,887;    1,045
390,045; 8519,418;   -0,705;   -2,682
390,636; 8451,628;    0,204;   -0,591
391,227; 8335,600;   -0,523;   -0,045
391,819; 8417,222;    0,204;    0,773
392,410; 8499,208;    1,022;    0,045
393,001; 8410,925;   -0,979;   -1,591
393,593; 8732,115;    1,930;   -0,045
394,184; 8585,570;    1,385;   -0,409
394,775; 8503,970;    1,839;    2,136
395,366; 8710,230;    1,385;    0,773
395,957; 8687,340;    0,113;    0,136
396,548; 9014,094;   -0,342;    2,682
397,139; 9342,913;   -2,433;    0,591
397,730; 9039,462;   -1,888;    0,955
398,321; 9096,752;   -1,252;    0,955
398,912; 9170,457;   -0,615;    0,136
399,503; 9223,025;   -3,524;   -1,409
400,094; 8612,947;    0,294;    1,682
400,685; 8489,948;   -0,433;    0,045
401,276; 8566,548;    0,930;   -0,955
401,867; 8896,725;   -0,888;    0,773
402,458; 8992,234;   -2,251;   -2,318
403,048; 8980,029;    1,112;    0,591
403,639; 8568,707;    0,840;    0,864
404,230; 8828,070;    2,476;    0,318
404,821; 8778,843;   -0,615;    0,045
405,411; 8884,865;    1,203;   -2,591
406,002; 8472,070;   -1,252;   -1,136
406,592; 8319,365;    2,294;    0,045
407,183; 8658,728;    0,566;   -1,500
407,774; 8589,365;    3,475;   -0,136
408,364; 8910,292;    0,930;    0,409
408,954; 8484,674;    0,384;    1,227
409,545; 8538,933;    1,021;    1,045
410,135; 8051,332;    1,293;    0,500
410,726; 8224,681;    1,838;    0,318
411,316; 8623,123;    0,111;    0,773
411,906; 8281,254;   -0,253;   -0,409
412,497; 7765,119;   -1,070;   -0,045
413,087; 8391,100;   -1,980;   -0,227
413,677; 8785,986;   -0,707;    3,864
414,267; 8615,663;    0,656;    1,409
414,857; 8626,236;   -2,980;    4,227
415,448; 8935,609;    0,839;    0,500
416,038; 8616,846;    0,020;   -0,591
416,628; 8571,154;   -0,889;    0,409
417,218; 8038,277;    0,565;    3,318
417,808; 8343,304;    0,202;   -0,409
418,398; 8800,431;    0,020;    2,682
418,988; 8843,513;    2,020;    0,591
419,578; 9114,618;   -0,707;    1,409
420,168; 9390,263;   -1,343;   -0,955
420,757; 9025,914;   -1,343;   -1,500
421,347; 8701,340;    0,111;   -0,227
421,937; 8874,449;    2,292;    1,409
422,527; 8837,508;    0,838;   -0,773
423,116; 8645,186;   -0,253;   -0,045
423,706; 8955,849;   -1,889;    0,318
424,296; 8934,931;    1,384;    0,682
424,885; 9373,931;   -0,071;   -3,045
425,475; 9657,362;    1,474;   -2,864
426,065; 9552,203;   -0,980;   -0,318
426,654; 9170,907;   -0,435;   -0,318
427,244; 9341,594;    0,020;    1,409
427,833; 8787,562;    1,383;   -0,500
428,423; 9307,462;   -0,526;    1,136
429,012;10064,493;   -0,344;   -1,136
429,601; 9526,043;   -1,344;    0,136
430,191; 9772,593;    1,292;    4,318
430,780; 9392,075;   -0,344;   -0,409
431,369; 9353,502;    0,746;   -0,045
431,959; 9984,738;   -1,254;    0,500
432,548; 9752,693;   -1,163;   -0,045
433,137; 9904,292;   -1,254;   -1,318
433,726;10445,979;    0,292;    0,500
434,315; 9738,079;   -0,526;    2,409
434,905; 9839,292;   -1,254;    1,409
435,494; 9720,142;    0,746;    0,955
436,083;10206,606;   -0,981;   -0,955
436,672;10080,842;    0,110;    0,500
437,261; 9624,364;    0,292;   -1,955
437,850; 9758,469;    1,383;    0,682
438,439; 9798,150;    3,291;    1,955
439,027; 9639,550;    3,655;    1,773
439,616; 9975,127;    2,927;    1,227
440,205; 9848,555;    0,200;   -2,136
440,794; 9939,241;    2,109;   -0,045
441,383;10214,776;   -1,346;   -0,591
441,971;10032,395;   -2,436;    0,591
442,560; 9907,717;    0,563;   -1,773
443,149; 9655,116;    0,379;   -1,318
443,737; 9798,820;   -0,074;   -2,318
444,326;10080,731;    0,018;    0,318
444,915;10151,649;   -1,982;    0,864
445,503;10570,145;   -2,891;   -0,318
446,092; 9809,272;    0,382;    2,136
446,680;10352,340;    0,382;    0,318
447,269;10514,076;   -0,346;   -0,318
447,857;10287,257;    0,018;   -1,773
448,445;10411,139;    0,563;    1,318
449,034;10643,143;   -1,528;   -1,136
449,622;10779,330;   -1,073;    3,500
450,210; 9974,797;    2,017;    2,227
450,799;10545,283;    0,290;   -0,591
451,387;10500,624;    1,381;   -0,591
451,975;10137,847;    2,654;    0,864
452,563;10216,825;    3,472;    2,318
453,151;10262,229;   -0,528;   -1,227
453,739;10221,019;   -1,347;    0,136
454,328;10028,292;    2,381;   -2,136
454,916; 9729,032;    2,562;   -0,136
455,504; 9914,633;    1,017;    1,227
456,092;10096,606;    0,017;   -1,591
456,679;10104,860;    1,472;    0,682
457,267;10059,587;    4,017;    1,045
457,855;10200,700;    1,017;    1,409
458,443; 9938,627;   -0,165;    1,682
459,031;10075,378;    0,108;    2,409
459,619;10570,014;   -1,801;    2,864
460,206;10704,087;    0,835;    2,045
460,794;10771,455;   -2,983;   -0,227
461,382;11047,804;   -0,529;   -0,864
461,970;10567,377;    1,198;    1,864
462,557;10594,581;   -0,711;   -0,682
463,145;10829,409;   -3,165;   -1,682
463,732;10964,099;    2,016;   -1,045
464,320;10892,512;   -0,075;   -3,045
464,907;10563,803;    2,743;   -0,773
465,495;10445,989;    0,743;   -1,227
466,082;10615,349;   -1,984;   -0,045
466,670;10527,458;   -2,529;    1,227
467,257;10945,048;   -1,711;    2,045
467,844;11088,121;   -0,075;    0,045
468,432;11117,080;    0,834;    3,500
469,019;10576,993;    0,925;   -1,773
469,606;11056,707;    0,470;    3,682
470,193;10939,565;   -1,439;    0,227
470,780;10473,948;   -2,075;    0,864
471,368;10809,061;   -1,257;   -0,773
471,955;10591,202;    1,379;   -0,682
472,542;10251,443;    0,652;   -1,136
473,129;10474,561;   -0,166;    0,136
473,716;10187,134;    1,470;    0,591
474,303;10427,143;    0,652;   -0,864
474,890;10762,842;   -1,439;   -0,500
475,477;10781,142;   -1,621;    0,409
476,064;10667,273;    1,106;   -1,591
476,650;10627,610;    0,288;    0,318
477,237;10452,246;   -0,258;    0,955
477,824;10597,760;   -1,076;    0,864
478,411;10596,105;   -1,894;   -0,318
478,997;10826,119;    0,560;   -0,773
479,584;10912,495;    1,196;   -0,409
480,171;11651,168;   -0,440;   -0,773
480,757;11295,231;    2,651;    0,773
481,344;11640,782;    0,469;    0,409
481,931;11112,389;    1,105;    1,045
482,517;12215,326;   -1,258;    0,318
483,104;12885,009;    1,106;    2,864
483,690;13145,932;   -1,804;    0,045
484,276;13500,154;   -0,895;    0,227
484,863;13228,822;    2,469;    1,136
485,449;13836,144;   -0,077;    0,318
486,035;13835,740;   -1,986;   -0,136
486,622;14246,190;   -0,895;    0,045
487,208;14209,222;    1,378;    1,500
487,794;13988,794;    0,741;    0,318
488,380;14097,648;    0,105;   -1,409
488,967;14169,825;   -1,168;   -0,409
489,553;14244,784;   -1,895;   -1,409
490,139;14452,307;    1,559;    0,773
490,725;13834,421;    0,741;   -0,227
491,311;13304,548;    3,287;    3,045
491,897;12650,198;   -0,986;    1,500
492,483;12456,630;    0,105;    1,227
493,069;12261,730;    3,923;    0,864
493,655;12226,757;    1,650;    0,682
494,241;12092,611;    1,377;   -0,955
494,826;12572,325;    0,287;   -1,045
495,412;12013,903;    2,559;   -0,682
495,998;12124,588;   -0,805;   -0,318
496,584;12295,379;    0,377;    1,045
497,169;12294,215;    1,014;   -0,682
497,755;12241,346;    0,650;    1,227
498,341;12837,120;    0,559;    0,318
498,926;12406,706;    1,832;    1,955
499,512;12567,459;    1,286;    2,955
500,097;12734,396;    0,195;   -0,318
500,683;12661,433;   -0,350;    2,136
501,268;13041,473;   -0,169;   -0,955
501,854;12727,314;   -0,169;    1,227
502,439;12631,532;   -0,624;   -1,773
503,024;12876,046;    0,195;    0,500
503,610;12950,519;   -0,078;   -0,682
504,195;12932,509;    0,558;    1,955
504,780;13052,582;    2,922;    1,227
505,366;12888,737;    3,013;    2,864
505,951;12603,431;    0,740;    1,045
506,536;12600,072;   -3,260;   -3,682
507,121;12619,413;    0,285;   -0,318
507,706;13114,609;    2,376;    1,045
508,291;13512,890;    2,649;    1,136
508,876;12937,989;   -0,988;    2,591
509,461;12392,894;   -0,169;   -0,773
510,046;12812,817;    0,194;    0,318
510,631;13068,104;   -0,351;   -0,773
511,216;12739,226;    2,467;   -0,500
511,801;13135,054;   -0,442;    2,591
512,386;13455,290;    0,740;    0,500
512,971;13386,417;   -2,988;    0,955
513,555;12896,572;   -0,897;   -1,500
514,140;13740,090;   -0,442;   -3,136
514,725;13733,112;   -0,715;   -1,136
515,309;13844,721;   -0,533;    0,318
515,894;13257,685;   -0,624;   -2,227
516,479;13704,730;   -0,624;   -0,955
517,063;13617,780;    0,376;    1,227
517,648;13707,980;    1,012;   -1,136
518,232;13344,415;   -0,261;   -1,409
518,817;13692,847;   -0,079;    1,682
519,401;13930,697;    2,194;    0,591
519,985;13390,843;    1,103;    1,136
520,570;13243,592;    0,830;   -1,955
521,154;13599,442;    2,102;    0,591
521,738;13785,387;   -2,352;    2,409
522,323;14302,324;   -0,170;    1,682
522,907;14029,342;    0,466;   -0,136
523,491;13776,810;    0,557;    0,955
524,075;13766,333;    2,284;    0,591
524,659;13866,197;    1,466;    0,591
525,243;13324,155;    1,739;    0,409
525,827;13566,123;    0,648;   -0,045
526,411;14427,469;   -1,989;   -0,136
526,995;14640,301;   -0,352;    1,409
527,579;14248,196;   -0,443;   -1,045
528,163;14533,118;    0,375;   -1,500
528,747;14420,277;    2,466;   -0,773
529,331;14757,195;   -0,080;   -1,409
529,915;14971,432;    1,738;    0,955
530,499;14941,400;   -0,807;    1,227
531,082;14667,368;   -0,534;    1,591
531,666;14116,995;    1,374;    0,773
532,250;14736,436;    1,284;    2,682
532,833;15131,668;    0,920;    2,773
533,417;14958,345;   -1,807;    0,864
534,001;14977,463;    1,647;   -0,318
534,584;15663,953;    0,374;    0,500
535,168;15473,308;    0,465;    1,409
535,751;15549,395;    0,647;    0,045
536,334;14970,163;   -0,898;   -0,409
536,918;15559,999;    0,011;    1,591
537,501;15702,517;   -0,899;    1,318
538,085;15712,276;   -0,444;    1,045
538,668;15911,253;    0,829;    2,409
539,251;16230,958;    1,829;    3,773
539,834;16214,121;    0,101;    0,773
540,418;16162,280;   -1,990;    4,318
541,001;16270,848;   -0,990;    1,773
541,584;16247,484;    2,101;    2,227
542,167;15935,603;    1,374;    2,955
542,750;16099,130;    1,919;   -0,773
543,333;15675,611;    0,555;    2,136
543,916;16475,452;    0,192;    2,500
544,499;17119,466;   -1,354;    0,227
545,082;17135,266;    1,374;    3,591
545,665;17225,443;    1,919;    1,500
546,248;17576,611;    1,010;   -0,318
546,830;17231,284;   -0,445;    1,955
547,413;17639,538;    1,010;   -0,773
547,996;18198,201;    0,555;    0,500
548,579;17994,974;    0,919;    0,955
549,161;17773,046;    1,828;    2,682
549,744;17555,728;   -0,809;    0,409
550,326;18038,282;   -0,809;   -1,136
550,909;17892,132;    2,737;    0,591
551,492;18211,982;   -0,263;    0,227
552,074;18010,382;   -0,173;   -1,318
552,657;18606,264;    2,373;    0,045
553,239;18339,923;   -0,173;   -0,773
553,821;18257,923;   -1,082;    1,045
554,404;17733,046;    1,282;    1,136
554,986;18120,463;    0,464;    1,045
555,568;18719,304;    1,191;   -0,955
556,151;17970,463;    1,191;   -0,227
556,733;18134,532;   -0,264;   -0,864
557,315;18631,131;    0,100;    0,500
557,897;18488,899;    0,554;   -0,500
558,479;18588,668;   -1,991;    1,318
559,061;18718,076;   -0,719;   -0,864
559,643;19069,344;   -0,264;    0,045
560,225;19445,013;    1,645;    2,864
560,807;19405,344;    0,918;    0,318
561,389;18863,340;    0,554;    2,318
561,971;19699,966;    0,463;    2,136
562,553;19489,567;   -1,628;    1,591
563,135;19634,767;   -0,537;    1,136
563,717;19264,094;    3,372;    1,136
564,298;19983,899;    3,645;   -0,045
564,880;19676,971;    0,645;   -1,409
565,462;19866,880;    0,645;    1,318
566,043;21027,671;   -0,446;    2,318
566,625;20628,121;    1,918;    1,227
567,207;20491,203;    1,099;    1,682
567,788;21608,134;   -1,264;    1,500
568,370;22478,398;    1,917;   -0,500
568,951;22355,134;    0,190;    0,227
569,533;23185,279;   -0,628;   -0,500
570,114;23632,016;   -0,446;    0,682
570,695;24200,466;   -0,174;   -1,318
571,277;24745,247;   -0,265;   -1,682
571,858;25490,597;    2,008;   -1,136
572,439;26429,416;    1,554;   -1,045
573,021;26602,778;    2,099;   -2,773
573,602;27079,447;   -1,265;    0,318
574,183;28033,292;   -2,083;    2,227
574,764;28202,883;   -1,629;    0,409
575,345;28794,933;    0,917;   -0,136
575,926;29355,365;   -0,356;    0,136
576,507;29327,170;    1,099;   -0,227
577,088;30443,774;    3,099;    1,682
577,669;30530,737;    0,735;    1,955
578,250;31336,110;    0,644;   -1,045
578,831;31967,323;   -1,356;   -2,227
579,412;32219,806;   -0,810;    0,955
579,993;33067,060;    1,008;    0,227
580,573;33388,187;   -0,629;   -0,955
581,154;32317,956;    0,735;   -0,591
581,735;33233,792;    0,644;    0,773
582,315;32821,337;   -0,629;    2,136
582,896;33025,338;   -0,174;    1,227
583,477;32356,628;    0,189;    1,227
584,057;32648,937;    0,553;    0,955
584,638;32955,696;    2,553;    2,318
585,218;32946,565;   -0,538;    2,682
585,799;33114,924;    0,281;   -0,227
586,379;33056,411;    0,372;    1,591
586,959;31737,901;    0,735;    0,318
587,540;30978,578;   -0,629;    2,227
588,120;30573,646;    1,007;   -0,045
588,700;29587,119;    2,553;    2,136
589,281;29896,942;    0,462;   -0,955
589,861;29883,455;    0,099;   -1,682
590,441;29627,406;    2,371;   -2,682
591,021;28564,510;   -0,265;   -2,591
591,601;28836,138;   -0,537;    0,500
592,181;28807,333;   -0,719;   -0,773
592,761;28032,605;    0,007;    1,409
593,341;28026,683;   -0,901;    0,045
593,921;28040,288;   -0,265;    1,591
594,501;27916,569;   -0,538;    1,318
595,081;27730,129;    0,917;   -0,318
595,661;28122,329;   -1,447;    0,955
596,240;28642,988;   -0,537;    0,136
596,820;28353,752;    0,372;    1,955
597,400;28530,074;    2,008;    0,773
597,980;28721,620;    2,008;    1,045
598,559;28678,606;    2,735;   -0,227
599,139;28394,906;   -0,174;   -1,227
599,718;28321,906;   -0,174;   -0,409
600,298;28600,274;    0,735;    0,682
600,877;28855,815;    2,917;    1,409
601,457;29045,852;    2,281;    1,136
602,036;28945,315;    0,190;    2,045
602,616;29190,070;    0,644;    1,682
603,195;29534,575;   -0,355;    3,500
603,774;29100,116;   -0,901;    2,045
604,354;28982,093;    0,826;   -0,500
604,933;28484,670;    0,463;    1,864
605,512;28603,075;    3,554;    0,591
606,091;28607,057;   -0,537;    3,773
606,671;29382,461;    0,281;    0,773
607,250;28522,107;    1,644;    3,136
607,829;28767,730;    2,372;    3,227
608,408;28606,107;    1,190;    2,591
608,987;27591,330;    1,281;    3,409
609,566;27948,969;   -1,265;   -2,500
610,145;28034,498;   -1,082;    0,682
610,723;28391,185;    4,372;    6,864
611,302;27700,471;   -0,446;    1,682
611,881;27209,326;    5,008;   11,227
612,460;28003,671;    1,645;    3,955
613,039;28421,430;   -0,082;    2,045
613,617;27166,052;    1,736;    4,773
614,196;27405,885;    1,099;    1,227
614,775;27734,662;    1,009;    2,409
615,353;27657,853;    0,736;    0,864
615,932;27374,835;    0,100;    2,409
616,510;27936,385;    0,554;    0,591
617,089;27423,272;    7,100;   17,591
617,667;27184,203;    2,372;    6,136
618,246;27098,363;   -1,537;    1,318
618,824;27229,804;   -3,355;   -0,955
619,402;26778,172;   -2,900;   -1,773
619,981;27302,022;   -0,173;   -1,045
620,559;27124,040;    0,009;    1,682
621,137;26567,127;   -0,718;    1,864
621,715;26585,813;   -1,173;   -0,682
622,293;26523,727;   -0,537;   -0,773
622,871;27020,858;   -0,718;    0,500
623,450;26580,936;    0,373;   -0,864
624,028;26513,249;    0,191;   -0,955
624,606;26165,050;   -1,718;    1,682
625,183;26569,954;   -1,536;   -1,136
625,761;26126,314;    1,009;    1,136
626,339;26427,313;    1,373;    2,591
626,917;26822,219;   -0,172;   -0,045
627,495;26884,809;   -0,354;    1,318
628,073;26319,046;   -0,263;    2,864
628,650;26012,487;    0,100;    2,136
629,228;26463,132;    0,373;    4,409
629,806;25849,950;    2,282;    1,136
630,383;26067,660;    1,464;   -0,318
630,961;25883,073;    2,555;   -0,955
631,539;25628,800;    2,464;    0,227
632,116;25009,346;   11,373;   15,409
632,694;25526,850;    2,555;    6,500
633,271;25848,556;    0,828;    2,682
633,848;25782,346;    1,828;    2,045
634,426;25799,842;   -1,081;    1,773
635,003;24864,920;    1,101;   -0,409
635,580;25215,175;    1,192;    3,682
636,158;25794,361;    3,737;    1,227
636,735;25787,678;    0,555;   -0,500
637,312;25917,155;   -0,809;   -0,682
637,889;26025,515;   -4,354;   -0,682
638,466;25467,420;   -3,990;   -0,409
639,043;25469,866;    2,101;   -1,136
639,620;25801,375;   -2,262;   -0,955
640,197;26101,510;    1,100;    1,682
640,774;26207,203;   -0,172;    1,136
641,351;26583,714;    0,737;    1,136
641,928;26060,862;   -0,627;    1,409
642,505;25721,373;    0,828;   -0,500
643,082;25816,884;   -1,718;    1,227
643,658;24814,395;   -0,718;    1,500
644,235;25611,088;    1,191;    2,500
644,812;25936,417;    1,918;    0,773
645,388;25664,383;   -0,991;    1,409
645,965;25801,348;   -0,809;    1,682
646,542;25838,769;   -1,445;   -0,227
647,118;25792,552;    1,009;   -0,955
647,695;26110,609;   -0,263;    1,136
648,271;25971,302;   -0,536;    0,500
648,848;26358,086;    0,736;    2,227
649,424;26182,506;    0,827;    1,318
650,000;25895,381;   -0,354;   -1,045
650,577;25723,346;   -0,627;   -0,955
651,153;26244,403;   -1,809;    0,955
651,729;27266,641;    1,191;    0,864
652,305;27894,061;    0,645;    2,773
652,881;33281,209;   -0,082;    1,136
653,458;40301,265;    1,100;    0,227
654,034;43581,867;    0,282;    1,591
654,610;44809,015;    0,554;    0,773
655,186;46100,617;    0,645;    3,045
655,762;45704,219;   -0,991;    0,409
656,338;45741,730;    0,100;    0,136
656,913;46651,695;   -0,082;    0,409
657,489;45800,479;    0,827;   -0,318
658,065;45737,899;   -0,173;   -1,591
658,641;46383,319;   -0,900;   -0,864
659,217;45621,921;   -0,991;    0,409
659,792;45049,796;    0,645;   -0,409
660,368;45222,307;   -2,173;   -0,682
660,944;44535,455;   -2,082;    1,227
661,519;39078,693;   -0,628;    0,409
662,095;33088,568;   -1,719;    0,591
662,670;28963,988;    1,281;   -0,136
663,246;28053,590;    1,009;   -0,409
663,821;27492,464;    0,281;    1,682
664,396;26994,885;    0,009;    1,864
664,972;27293,396;    0,009;   -0,500
665,547;27565,998;    1,372;    0,136
666,122;27627,418;   -1,082;    0,318
666,698;27906,656;   -0,173;    0,318
667,273;27235,531;   -0,173;    0,136
667,848;28076,497;    2,372;    1,500
668,423;27875,553;    2,190;    2,318
668,998;28409,882;    2,827;   -0,682
669,573;28996,939;   -3,264;   -1,500
670,148;28831,450;   -1,446;   -0,682
670,723;28624,416;   -1,810;    0,318
671,298;29039,381;    2,372;    1,045
671,873;29176,165;   -0,082;   -0,136
672,448;29072,040;    0,645;    0,136
673,023;29406,551;   -1,992;   -0,227
673,597;29743,516;    0,827;    2,318
674,172;29528,482;   -0,355;    0,318
674,747;29009,175;    0,372;   -1,045
675,321;28813,868;   -0,628;    3,318
675,896;28362,106;    0,645;    1,045
676,471;29398,708;    2,645;    1,591
677,045;29106,401;   -1,264;    0,682
677,620;29230,730;    0,190;    1,136
678,194;29518,605;   -2,628;    1,136
678,769;29069,662;   -1,083;   -0,318
679,343;29414,536;   -0,628;    1,773
679,917;29272,411;   -1,446;    1,955
680,492;29307,740;    0,826;    3,227
681,066;29500,797;    3,372;    0,409
681,640;29508,671;    1,463;   -0,318
682,214;30340,001;    0,735;    0,500
682,788;29897,694;   -1,356;   -0,773
683,363;29785,023;   -1,810;    1,682
683,937;29504,352;   -1,719;   -0,318
684,511;30240,136;    0,463;   -0,591
685,085;29930,102;   -1,356;    0,318
685,659;29756,249;   -2,538;    0,864
686,232;30015,851;   -0,356;   -0,318
686,806;29656,453;   -0,901;    0,409
687,380;30353,328;   -0,174;    0,591
687,954;30539,293;   -1,174;    1,136
688,528;30166,804;   -0,719;    1,955
689,101;30956,497;   -3,992;    1,045
689,675;30596,372;   -0,356;   -0,136
690,249;29940,065;   -0,719;    0,409
690,822;30277,849;    0,280;    0,318
691,396;30405,542;   -0,265;    1,227
691,969;29809,325;    1,280;    0,136
692,543;30297,382;   -0,447;   -1,955
693,116;29917,802;   -0,265;   -1,409
693,690;29752,586;    0,099;    0,500
694,263;30356,915;   -1,083;    2,955
694,836;30417,517;    1,371;    3,591
695,410;29055,392;   -0,265;    1,773
695,983;29499,994;    0,189;    0,591
696,556;29461,868;   -0,447;   -1,045
697,129;29808,198;   -0,356;    1,409
697,703;29476,709;   -1,629;    1,955
698,276;29461,856;    1,462;   -0,773
698,849;29292,549;    1,280;    1,409
699,422;29683,151;   -1,083;    0,591
699,995;29334,389;    0,007;    0,136
700,568;29874,810;   -0,629;    3,045
701,140;29890,684;   -2,811;    1,682
701,713;29568,650;   -0,174;    2,409
702,286;29319,343;   -0,538;    0,864
702,859;29219,945;   -0,902;   -0,591
703,432;28431,547;    0,825;    0,682
704,004;28867,331;    0,462;    0,318
704,577;28713,842;   -0,629;    0,136
705,150;29338,080;    0,189;    2,500
705,722;29080,500;   -0,356;   -3,227
706,295;28912,829;   -0,175;   -0,591
706,867;28745,613;   -0,175;    1,955
707,440;28968,761;   -1,720;   -0,409
708,012;29258,726;    0,462;    0,591
708,584;29215,237;    2,462;    0,227
709,157;29454,385;    1,825;   -0,591
709,729;29084,896;    2,280;    2,045
710,301;29922,134;    0,734;    0,045
710,874;29962,645;   -1,447;   -0,227
711,446;28816,065;    0,371;    0,864
712,018;28682,486;    0,098;    0,500
712,590;28423,451;   -1,993;    1,682
713,162;28961,781;    0,825;    1,318
713,734;29232,655;    1,825;   -2,045
714,306;29082,621;   -1,902;   -0,409
714,878;27794,859;    0,825;    0,864
715,450;28634,643;    0,643;    0,864
716,022;28809,154;    1,552;    1,318
716,593;29009,211;    0,189;    0,591
717,165;28986,631;   -3,175;   -1,227
717,737;28702,596;    0,280;    0,409
718,309;28331,744;    0,280;   -0,045
718,880;28279,800;   -0,539;   -1,409
719,452;28446,311;   -0,175;   -1,591
720,024;28005,186;    0,734;   -0,591
720,595;28618,879;   -2,902;    0,955
721,167;28163,845;    0,370;   -2,045
721,738;27726,628;   -0,812;   -1,045
722,309;27751,776;   -0,993;   -1,227
722,881;27496,014;   -1,357;    0,773
723,452;28104,253;   -2,630;    2,864
724,023;28289,218;   -0,721;    2,682
724,595;28038,093;    0,007;    0,682
725,166;27804,149;    0,007;   -0,409
725,737;27450,751;    1,734;    0,227
726,308;27536,899;   -0,266;    0,318
726,879;27979,864;   -1,630;    1,227
727,450;27822,648;    0,552;   -0,045
728,021;27785,159;    3,097;    0,682
728,592;27590,670;    0,734;    0,500
729,163;27955,272;    0,643;   -0,136
729,734;27962,693;    0,188;   -0,227
730,305;28322,658;    1,734;    0,136
730,876;28639,351;    0,188;    2,955
731,447;28421,499;    2,188;    2,682
732,017;28506,282;    1,097;    1,864
732,588;27980,430;    0,734;    1,227
733,159;28210,214;    0,643;   -1,045
733,729;27971,997;    0,006;    0,409
734,300;27278,236;    0,915;    0,864
734,870;27689,656;    3,461;    0,591
735,441;28235,349;    0,370;   -0,591
736,011;27945,223;    0,643;   -1,591
736,582;27974,916;   -0,812;    0,045
737,152;27414,609;   -1,721;   -2,045
737,722;27819,302;   -0,267;   -0,682
738,293;27505,904;   -1,358;    1,318
738,863;27445,779;    2,461;    2,318
739,433;27308,835;    5,279;    0,318
740,003;27917,801;   -0,994;   -0,682
740,573;27316,494;    2,097;   -1,591
741,143;27199,187;   -1,085;    0,318
741,713;28008,516;    1,188;   -0,500
742,283;27722,118;    0,915;    1,591
742,853;27496,720;    1,915;    1,591
743,423;26905,140;    1,733;    0,045
743,993;27042,833;   -0,358;    1,500
744,563;26417,708;    0,097;   -0,864
745,133;26397,219;   -0,812;   -0,864
745,702;27025,457;   -0,267;    1,773
746,272;26252,877;   -0,176;    0,591
746,842;26059,843;   -1,358;   -0,591
747,411;26460,536;   -0,267;   -0,318
747,981;26566,502;    0,097;    0,500
748,551;26652,467;    2,278;   -1,045
749,120;26560,887;    0,642;   -0,227
749,690;26919,126;   -0,631;    2,409
750,259;27253,637;    1,369;    2,955
750,828;27170,875;    1,551;   -1,955
751,398;27437,386;    1,278;   -0,045
751,967;26961,170;    2,187;    0,409
752,536;27177,317;   -0,813;   -0,227
753,105;27576,192;    0,096;    0,227
753,675;27383,521;    0,096;    1,773
754,244;27306,032;   -0,904;    3,591
754,813;27364,453;    0,551;    1,227
755,382;26934,418;    0,460;    0,955
755,951;27487,111;    1,551;    3,682
756,520;27010,259;   -0,085;    1,864
757,089;27584,497;    0,278;    0,500
757,658;27769,190;    1,733;    1,227
758,227;27717,883;    1,096;    0,318
758,795;28095,303;    1,187;    1,136
759,364;28309,723;   -0,086;   -0,591
759,933;27310,416;   -1,176;   -0,045
760,501;26772,563;    0,733;   -1,318
761,070;27291,620;   -2,813;   -1,409
761,639;27967,676;   -1,904;    1,318
762,207;27368,460;    1,551;   -0,955
762,776;27293,244;    0,369;    0,864
763,344;27265,028;   -0,995;    0,591
763,913;26298,448;   -0,722;    1,409
764,481;27048,050;    1,005;   -0,136
765,049;26870,743;   -1,358;    1,409
765,618;26740,436;   -0,086;    0,318
766,186;26806,038;    0,278;    0,136
766,754;27015,912;    0,005;    1,864
767,322;25954,696;   -1,995;    0,409
767,890;26028,116;   -0,722;   -1,773
768,459;26400,446;   -2,177;   -0,318
769,027;26629,593;    1,641;    3,409
769,595;25549,104;    3,278;    2,591
770,163;25993,433;    3,823;    2,955
770,730;25758,763;    0,732;   -0,136
771,298;25574,546;    0,187;   -1,409
771,866;25629,785;   -1,541;    4,955
772,434;25957,932;   -0,631;   -1,864
773,002;26098,171;    0,005;    0,682
773,569;25793,591;    0,914;    1,682
774,137;25603,556;   -0,268;   -0,045
774,705;26390,704;    0,278;   -0,136
775,272;25887,669;    0,641;    0,682
775,840;25661,544;   -0,177;    2,682
776,407;25153,328;    0,277;    1,955
776,975;24742,566;   -0,632;    0,318
777,542;25729,714;   -1,086;   -0,045
778,110;25637,225;   -1,268;   -0,045
778,677;25313,100;   -2,359;   -0,864
779,244;25004,792;    2,186;    1,045
779,812;25139,122;    1,823;    0,864
780,379;24998,178;    0,005;    1,136
780,946;25234,144;    1,005;   -0,773
781,513;25579,655;   -1,450;    0,318
782,080;24913,348;   -0,086;    2,864
782,647;25710,041;   -0,268;    3,045
783,214;25354,006;   -0,177;    3,864
783,781;24921,245;   -0,723;   -0,682
784,348;24733,483;   -0,632;    1,500
784,915;25184,267;   -3,177;    0,318
785,482;25020,142;    1,368;    2,591
786,049;25391,925;    0,186;   -0,591
786,615;25570,255;    0,277;   -0,955
787,182;25282,129;    0,186;   -0,682
787,749;24958,731;   -2,814;    1,409
788,315;24314,879;   -1,632;   -0,409
788,882;24630,390;    1,550;   -1,227
789,448;25302,537;    1,732;   -0,955
790,015;25248,230;    1,095;    3,227
790,581;24844,559;    1,459;    0,227
791,148;24768,525;    0,641;    1,045
791,714;24940,218;   -0,541;    3,136
792,280;24598,365;    0,186;    1,591
792,847;24172,240;    0,550;    2,500
793,413;24784,115;   -0,269;   -0,318
793,979;24313,171;    3,459;   -1,318
794,545;24414,773;    4,459;    2,682
795,111;23816,648;    2,186;    1,318
795,678;23969,795;    0,731;   -1,682
796,244;23642,306;    3,368;    0,136
796,810;24186,181;    1,731;    0,773
797,375;23905,056;    0,549;   -2,136
797,941;23931,385;   -0,541;    0,591
798,507;24024,896;   -0,451;   -0,955
799,073;23608,862;   -0,360;    0,591
799,639;23636,464;   -2,632;    3,136
800,205;23634,702;    0,095;    2,682
800,770;23214,850;    0,640;    1,773
801,336;23334,997;    1,368;   -0,955
801,901;23069,326;    4,549;    3,136
802,467;23591,292;   -0,542;    2,045
803,033;22909,985;   -0,087;    0,864
803,598;23144,587;    1,913;   -1,045
804,163;23183,189;    1,095;   -0,318
804,729;23117,245;   -0,178;    1,136
805,294;23510,756;    0,822;    2,227
805,859;23312,086;    0,731;   -0,409
806,425;22787,051;    1,186;    2,682
806,990;22427,926;    2,186;    4,318
807,555;22952,801;   -1,451;    2,591
808,120;22866,312;    0,822;   -0,409
808,685;22852,005;    0,185;   -2,500
809,250;22389,698;    0,004;   -0,500
809,815;22656,754;    1,913;    0,682
810,380;23209,538;   -0,269;    1,591
810,945;23752,867;   -1,087;    2,045
811,510;22872,196;    2,094;    1,591
812,075;22613,889;   -0,633;   -1,409
812,640;22664,219;    2,003;    1,409
813,204;22721,639;    0,822;   -0,227
813,769;23218,877;    2,094;   -0,045
814,334;22640,934;    0,458;    0,864
814,898;22701,717;    0,367;    0,591
815,463;22534,774;    1,276;   -0,773
816,027;22485,194;   -0,724;   -2,318
816,592;22596,069;    0,640;   -2,045
817,156;22129,944;    2,094;    1,136
817,721;22038,727;    4,276;    2,318
818,285;21941,966;    2,912;    1,500
818,849;22546,840;   -1,451;    1,682
819,414;22473,351;   -0,269;    2,955
819,978;22051,044;   -1,269;    1,773
820,542;22638,374;    2,003;    0,500
821,106;22327,703;   -0,815;    0,682
821,670;22401,396;   -0,815;    2,591
822,234;22221,270;   -0,270;    1,409
822,798;21546,054;    0,003;    0,500
823,362;21515,293;   -0,633;    4,227
823,926;20820,985;    0,094;    1,136
824,490;21060,769;   -0,997;   -0,682
825,054;21495,280;   -0,088;   -1,136
825,618;21104,973;   -1,542;   -1,500
826,181;21051,393;    0,458;   -1,318
826,745;21004,995;    1,367;   -1,045
827,309;21311,325;    1,185;    1,318
827,872;20717,745;    1,367;    0,955
828,436;21718,347;    1,185;   -0,773
828,999;21710,222;   -0,997;    1,227
829,563;20513,642;   -0,179;    1,136
830,126;20354,880;   -0,179;   -0,591
830,690;20378,027;   -1,997;    2,864
831,253;19895,084;   -0,543;    2,227
831,816;20016,413;   -1,906;    0,500
832,380;19921,470;    0,185;    0,864
832,943;20195,890;   -1,361;   -0,500
833,506;19613,037;    2,639;   -1,227
834,069;20432,003;    3,912;   -0,955
834,632;20532,241;    1,730;    1,318
835,195;20440,025;    1,003;    0,955
835,758;19600,627;   -0,997;    1,955
836,321;19449,775;    0,730;   -1,045
836,884;19569,649;   -0,725;   -0,955
837,447;19557,979;   -2,816;    1,773
838,010;19855,308;    0,366;    3,227
838,573;20117,910;   -1,179;    0,773
839,135;20070,057;   -1,361;   -0,955
839,698;19499,205;    1,275;    0,409
840,261;19023,716;    1,003;   -0,227
840,823;18855,318;   -0,543;    0,864
841,386;19138,829;   -0,452;   -2,409
841,948;19042,885;   -1,361;    1,773
842,511;18762,942;    0,912;    1,682
843,073;18919,453;    1,912;    0,227
843,636;18735,237;   -0,361;   -0,227
844,198;18701,202;    0,911;    0,591
844,760;18878,986;    1,093;    1,955
845,322;18506,770;    0,548;    1,136
845,885;18908,190;    0,730;    0,591
846,447;19329,065;   -1,998;    0,227
847,009;18915,849;    1,911;   -0,682
847,571;19226,723;    0,820;   -2,045
848,133;19351,144;   -1,089;   -1,864
848,695;19134,018;   -0,543;    1,409
849,257;18717,075;   -1,089;   -1,682
849,819;18924,313;   -0,998;   -0,409
850,381;18931,461;   -0,725;   -0,864
850,942;19303,517;    1,093;   -0,591
851,504;19293,210;    1,184;    0,227
852,066;19319,176;    1,275;   -1,591
852,628;18860,959;   -0,180;    1,955
853,189;18367,652;    1,638;    2,682
853,751;18460,163;   -0,907;    1,409
854,312;18295,129;   -0,453;   -1,682
854,874;18821,004;   -2,089;   -0,773
855,435;19329,424;   -0,907;   -1,682
855,997;19510,208;   -1,816;   -0,136
856,558;18772,082;    0,366;    1,773
857,119;18842,593;    0,820;    2,864
857,681;18530,014;    0,002;    0,318
858,242;18590,797;    1,911;   -2,136
858,803;19058,854;    0,456;   -0,773
859,364;19589,274;    0,184;   -4,773
859,925;18893,694;   -2,453;   -0,955
860,486;18810,114;   -0,453;   -0,955
861,047;18515,171;   -0,544;   -1,227
861,608;18293,773;   -1,089;   -0,773
862,169;18421,920;    0,638;   -0,045
862,730;18238,613;    0,456;    1,409
863,291;18477,852;   -0,635;   -0,500
863,852;18837,363;   -0,635;    1,955
864,412;18297,146;   -0,271;   -0,864
864,973;16882,658;   -0,089;    0,500
865,534;16786,260;   -1,726;    0,227
866,094;18265,316;    1,820;    0,227
866,655;17898,464;    1,274;    3,318
867,215;18188,884;    0,274;    0,136
867,776;18019,395;    0,547;   -0,136
868,336;18124,542;   -1,453;    0,136
868,897;17625,417;    2,638;    1,682
869,457;17345,110;    1,365;    0,318
870,017;17562,621;    0,547;   -1,227
870,578;18117,314;   -0,817;    0,773
871,138;17810,007;   -2,089;   -0,955
871,698;17393,700;   -0,817;   -1,318
872,258;17240,756;   -0,453;   -2,864
872,818;17654,358;    2,729;    0,045
873,378;17594,142;    0,638;    1,045
873,938;17090,562;    0,547;    0,500
874,498;17409,709;    0,274;   -1,955
875,058;17321,493;    2,183;    1,773
875,618;17150,277;    1,910;   -2,682
876,177;17118,970;    1,274;    0,136
876,737;16701,117;   -0,090;    1,955
877,297;16737,265;    0,183;    1,955
877,856;16778,958;   -0,362;    0,318
878,416;16694,014;    1,183;   -0,136
878,976;16921,889;   -1,817;    0,409
879,535;17081,945;    0,092;    3,136
880,095;16838,457;   -0,544;    0,045
880,654;16978,968;   -1,090;    1,318
881,213;17053,024;    2,456;    1,500
881,773;16716,535;    2,637;    2,682
882,332;17073,137;    3,365;    5,136
882,891;16912,921;    3,092;    2,136
883,451;17376,068;   -1,272;    1,682
884,010;16774,307;   -2,908;   -0,409
884,569;16855,272;   -0,999;   -0,045
885,128;17039,784;    2,819;   -1,864
885,687;17125,022;    4,455;    0,682
886,246;16846,533;    1,455;    2,136
886,805;16629,135;    2,455;    2,045
887,364;16866,373;   -0,999;   -0,500
887,922;17197,612;   -1,181;    0,045
888,481;16711,850;   -1,545;    0,591
889,040;17035,361;    1,183;    2,136
889,599;17698,327;    2,455;    1,409
890,157;17781,201;    1,455;    2,409
890,716;17423,622;   -0,090;    0,227
891,274;17219,678;    0,092;   -1,136
891,833;17682,553;    1,546;    0,864
892,391;17548,155;   -0,454;    0,500
892,950;17597,120;    1,819;   -0,773
893,508;17991,813;    0,455;   -0,409
894,067;17323,052;    0,637;    0,136
894,625;17222,290;   -0,636;   -1,500
895,183;17454,074;   -0,363;   -0,682
895,741;17331,312;    1,728;   -1,773
896,299;17163,550;   -0,545;   -2,409
896,858;17373,243;    0,819;   -1,591
897,416;17529,664;    2,728;   -1,318
897,974;17226,629;    1,819;    0,318
898,532;17415,413;    6,091;    2,682
899,089;17309,106;    2,091;   -0,682
899,647;17360,526;   -1,454;    1,318
900,205;17095,764;    1,182;    1,045
900,763;17226,275;   -0,454;    0,227
901,321;17228,150;    2,364;   -1,409
901,878;16633,934;   -1,000;   -0,773
902,436;16525,263;   -1,363;    1,318
902,994;16990,502;    4,728;    3,682
903,551;16404,922;    0,728;    0,409
904,109;16782,887;    0,182;   -1,409
904,666;16339,853;    2,455;    1,045
905,224;16167,364;    0,182;   -0,409
905,781;15898,148;    0,727;   -0,318
906,338;15983,750;   -1,363;    1,045
906,895;15931,988;    0,637;    2,045
907,453;15874,408;    1,727;    1,136
908,010;15882,283;   -0,909;    0,409
908,567;15526,249;    1,273;    0,591
909,124;15025,032;    0,364;   -1,500
909,681;15134,089;   -2,909;    0,682
910,238;15279,236;    0,636;   -1,318
910,795;15551,929;   -0,273;   -1,136
911,352;15179,111;   -2,909;   -2,682
911,909;14587,020;   -1,364;   -0,864
912,466;15114,384;   -3,182;    1,500
913,022;14632,384;   -1,636;    0,500
913,579;14992,384;   -0,909;    2,045
914,136;14708,657;    1,636;    0,955
914,692;15042,747;    0,091;   -1,227
915,249;14656,111;    1,455;    0,409
915,806;14851,293;    0,182;    1,955
916,362;14650,020;    1,909;    1,864
916,918;14199,929;    2,000;    1,045
917,475;14142,111;   -1,182;    0,955
918,031;14209,202;    3,364;   -0,045
918,587;13663,929;   -0,909;   -0,318
919,144;13864,020;   -2,273;    0,227
919,700;14204,566;    1,727;    0,773
920,256;13768,384;    0,727;    0,045
920,812;13378,202;   -0,727;   -1,045
921,368;13389,566;   -1,727;   -1,045
921,924;13022,475;    0,182;   -0,136
922,480;12626,929;   -0,545;    1,227
923,036;13211,202;    1,273;    1,955
923,592;13135,566;    0,455;    0,318
924,148;13088,566;    0,455;   -0,955
924,704;12396,202;   -1,364;   -0,409
925,259;12639,475;   -0,273;    0,591
925,815;12401,929;    1,455;    0,500
926,371;11913,111;    2,909;    1,409
926,926;11801,111;    2,091;    0,591
927,482;11479,384;   -1,364;    0,773
928,037;11346,566;    0,909;    2,045
928,593;11649,384;    1,636;    1,045
929,148;11458,293;   -1,818;   -1,500
929,704;10929,475;   -1,455;   -0,500
930,259;11168,384;    0,091;   -0,136
930,814;10230,475;   -0,818;    1,955
931,369; 9886,293;    1,091;   -0,773
931,925; 9739,747;   -0,091;    0,136
932,480; 9655,475;   -2,818;   -2,591
933,035; 9551,384;    0,545;   -0,318
933,590; 9359,657;    0,364;   -1,773
934,145; 8968,202;   -1,364;   -0,318
934,700; 9284,838;    0,455;   -0,591
935,255; 9094,747;   -0,091;    0,045
935,809; 8411,838;    3,182;    0,864
936,364; 7494,384;   -0,455;   -0,136
936,919; 7458,929;    0,455;   -1,773
937,474; 7336,293;    1,455;    0,136
938,028; 7092,384;   -1,636;    1,136
938,583; 6605,475;    1,818;    4,682
939,138; 6851,929;    2,091;    2,136
939,692; 6284,202;    1,636;   -1,136
940,247; 6020,020;   -0,727;   -1,045
940,801; 5564,838;   -0,636;    0,227
941,355; 5447,929;   -0,364;    2,591
941,910; 5100,202;   -0,273;   -2,136
942,464; 5214,020;   -0,818;   -0,318
943,018; 5028,838;    1,000;   -0,227
943,572; 4983,747;    2,545;   -0,682
944,126; 4386,747;    0,091;   -0,409
944,681; 4290,202;    3,091;    0,227
945,235; 4266,020;    1,000;   -0,591
945,789; 4202,566;    0,364;   -1,864
946,342; 4315,838;    0,455;   -0,591
946,896; 4111,475;   -2,273;    0,955
947,450; 3857,929;    1,545;   -0,227
948,004; 4074,838;    1,727;   -0,045
948,558; 4060,475;    0,273;   -0,864
949,111; 4008,293;   -0,273;   -0,318
949,665; 4019,475;    1,636;   -0,682
950,219; 3883,747;   -0,091;   -1,045
950,772; 3965,566;   -1,909;    1,864
951,326; 3863,566;    0,545;   -0,955
951,879; 3953,293;    0,727;   -2,318
952,433; 3999,657;    0,000;    2,227
952,986; 3827,566;    2,909;    0,682
953,539; 3781,747;   -0,273;    0,591
954,093; 3719,111;    0,545;   -1,318
954,646; 3857,111;    0,909;    1,318
955,199; 3669,202;    0,000;   -0,500
955,752; 3564,384;   -0,455;    1,773
956,305; 3527,475;   -0,091;    2,955
956,858; 3680,566;    0,818;   -0,318
957,411; 3838,111;   -0,545;    2,136
957,964; 3676,475;    1,364;    2,136
958,517; 3672,202;   -1,545;    3,136
959,070; 3506,747;   -0,455;    1,955
959,623; 3590,111;    1,091;    1,500
960,176; 3367,020;    1,727;    2,045
960,728; 3340,384;   -2,727;    0,773
961,281; 3379,111;    0,545;    0,500
961,834; 3430,657;   -0,909;    0,864
962,386; 3322,111;    1,727;    1,045
962,939; 3263,111;    0,364;   -0,318
963,491; 3404,657;    0,455;    1,136
964,043; 3271,111;    1,182;    2,409
964,596; 3402,747;   -1,000;    2,227
965,148; 3237,384;   -1,000;    1,773
965,700; 3156,020;    1,091;   -0,227
966,253; 3312,020;   -0,636;    0,318
966,805; 3125,838;   -2,273;    0,773
967,357; 3210,111;    1,091;   -1,500
967,909; 3173,838;    0,455;   -1,227
968,461; 3275,929;    0,545;    3,136
969,013; 3199,475;   -0,182;   -0,864
969,565; 3270,293;   -0,455;   -1,136
970,117; 3346,020;   -0,364;    1,045
970,669; 3167,657;    0,182;   -0,136
971,220; 3048,566;   -0,455;   -1,500
971,772; 2962,111;   -0,636;   -0,318
972,324; 3075,020;    0,091;   -0,500
972,876; 3007,202;    0,818;   -0,045
973,427; 3160,838;    1,909;   -1,045
973,979; 3109,929;   -0,727;   -2,500
974,530; 3170,657;    1,818;    1,318
975,082; 3173,111;   -0,545;    1,682
975,633; 3059,202;    1,091;    1,682
976,184; 3215,202;    0,909;    0,773
976,736; 3007,111;    0,091;    0,227
977,287; 2812,566;   -0,909;   -0,500
977,838; 2979,202;    0,909;   -0,318
978,389; 3060,747;   -1,000;   -0,500
978,940; 2904,111;    0,545;   -0,409
979,491; 2938,929;    0,091;   -0,500
980,042; 2910,293;    0,182;    3,045
980,593; 2960,293;   -2,545;    0,227
981,144; 3014,293;    2,545;   -0,500
981,695; 2957,475;    1,455;    1,500
982,246; 2934,384;   -0,273;    1,045
982,797; 3108,384;   -1,727;    0,682
983,347; 3206,293;    0,364;    0,591
983,898; 3379,293;    3,091;    0,409
984,449; 3191,747;    2,182;    0,773
984,999; 3093,384;    1,455;   -1,136
985,550; 2872,293;    0,182;   -0,318
986,100; 2892,475;   -0,455;   -0,318
986,651; 2919,747;   -0,818;    0,045
987,201; 2899,111;   -1,000;   -0,591
987,751; 2981,202;    0,818;    2,864
988,302; 2975,566;    2,636;    1,500
988,852; 3000,293;    0,455;   -1,136
989,402; 3031,020;    0,091;    0,682
989,952; 2956,838;   -2,182;    0,864
990,502; 3055,020;   -0,091;    0,682
991,052; 3009,111;   -0,727;    0,045
991,602; 2886,202;   -2,909;    1,318
992,152; 2882,020;    0,455;    0,682
992,702; 2870,202;    1,364;   -0,045
993,252; 2801,475;   -3,000;   -0,500
993,802; 2892,929;   -0,273;    1,318
994,352; 3126,384;   -1,545;    1,136
994,901; 3197,020;   -0,182;    3,227
995,451; 3127,929;   -0,182;    0,318
996,000; 3193,566;    1,636;    0,318
996,550; 2918,020;    2,273;    0,227
997,100; 2915,838;    1,273;   -0,045
997,649; 3217,293;    2,182;    0,955
998,198; 2833,566;    1,727;   -1,500
998,748; 3035,293;    1,091;   -2,318
999,297; 2940,747;   -0,818;   -0,409
999,846; 3011,384;    1,000;   -0,773
1000,395; 3046,657;   -0,818;    0,500
1000,945; 3003,202;    1,818;   -0,773
1001,494; 3096,202;    2,364;    0,682
1002,043; 3089,566;    4,636;    0,864
1002,592; 2888,566;   -1,091;    1,955
1003,141; 3051,384;   -0,455;   -0,682
1003,690; 2934,020;    1,727;    0,500
1004,238; 2995,929;    1,455;   -0,045
1004,787; 2627,566;    1,364;    1,227
1005,336; 2876,475;    0,364;    0,682
1005,885; 3030,384;    1,364;   -2,773
1006,433; 3171,020;    0,545;    0,955
1006,982; 3225,657;    0,455;    1,682
1007,531; 3124,111;   -1,818;   -0,227
1008,079; 3076,929;   -2,273;    0,500
1008,627; 3214,657;   -1,455;    0,409
1009,176; 2952,838;    0,000;   -1,955
1009,724; 2978,020;    1,091;    0,864
1010,273; 3038,747;    1,273;    0,500
1010,821; 3145,657;    0,091;    1,409
1011,369; 2878,838;   -1,364;    1,318
1011,917; 2859,566;   -1,364;   -0,591
1012,465; 3141,202;    1,273;   -1,591
1013,013; 3262,838;    2,091;   -1,682
1013,561; 3149,657;    0,455;   -0,773
1014,109; 3226,111;   -1,909;    1,682
1014,657; 3077,929;    0,364;    0,591
1015,205; 3175,384;    1,636;   -0,955
1015,753; 3216,566;   -0,545;   -1,409
1016,301; 3240,202;   -2,636;    3,045
1016,848; 3257,475;   -1,273;    0,409
1017,396; 3299,111;    2,545;    0,045
1017,944; 3439,838;    1,182;    1,864
1018,491; 3183,929;    0,273;    1,409
1019,039; 3325,475;    0,455;    0,591
1019,586; 3239,020;   -1,364;    1,682
1020,134; 3344,838;    0,455;    1,500
1020,681; 3386,384;    0,182;   -1,136
1021,228; 3379,747;    2,909;   -2,227
1021,776; 3206,929;    1,182;   -1,136
1022,323; 3429,384;    0,455;    0,773
1022,870; 3354,566;   -1,000;   -0,045
1023,417; 3241,111;    2,636;    1,864
1023,964; 3398,929;    2,636;    1,227
1024,511; 3247,384;    1,000;    0,773
1025,058; 3029,384;    3,182;   -0,045
1025,605; 3095,020;   -2,273;    3,136
1026,152; 3325,475;    1,727;   -0,591
1026,699; 3050,293;    1,818;    1,318
1027,245; 3209,929;   -0,091;    0,318
1027,792; 3390,747;   -1,000;    1,409
1028,339; 3278,657;    2,364;   -0,045
1028,885; 3127,475;    1,000;   -0,227
1029,432; 3075,111;   -0,091;    0,227
1029,978; 3141,747;   -1,000;   -1,591
1030,525; 3038,293;    1,000;    0,409
1031,071; 3272,202;   -1,364;    1,136
1031,618; 3397,475;    0,364;    1,682
1032,164; 3172,747;   -0,091;    3,045
1032,710; 3223,475;    1,636;   -1,500
1033,256; 3132,747;   -0,636;   -0,136
1033,803; 3112,111;   -0,545;    1,500
1034,349; 2810,384;   -1,364;    0,136
1034,895; 2949,838;    0,000;   -0,318
1035,441; 2950,929;   -0,818;    0,318
1035,987; 2949,384;   -2,364;   -0,682
1036,533; 2968,929;   -1,455;   -0,955
1037,078; 3178,838;    1,455;    1,682
1037,624; 2983,747;    2,455;   -0,955
1038,170; 3017,111;    0,455;   -0,318
1038,716; 2924,747;    1,636;   -0,409
1039,261; 2813,293;   -2,273;   -0,773
1039,807; 2757,384;   -0,091;    3,409
1040,352; 2837,838;   -1,909;   -0,318
1040,898; 2873,475;   -1,545;   -0,682
1041,443; 2780,657;   -1,455;   -2,591
1041,989; 2804,657;    1,091;    1,591
1042,534; 2685,566;   -0,364;    2,591
1043,079; 2786,384;    2,909;    0,955
1043,625; 2591,657;    1,818;    0,500
1044,170; 2654,838;   -1,364;    1,045
1044,715; 2902,566;    2,455;    0,955
1045,260; 2701,384;    2,182;   -0,955
1045,805; 2739,202;    1,182;   -0,591
1046,350; 2686,293;    1,364;   -0,409
1046,895; 2647,747;    2,909;    1,591
1047,440; 2600,475;    5,364;    0,409
1047,985; 2500,020;    2,818;   -0,955
1048,530; 2411,657;    1,545;    1,227
1049,074; 2470,657;    0,000;    0,318
1049,619; 2442,929;   -1,364;    1,955
1050,164; 2265,657;    0,455;    0,227
1050,708; 2301,020;   -0,455;    0,045
1051,253; 2680,838;    1,273;   -2,227
1051,797; 2374,475;    0,818;   -1,318
1052,342; 2375,657;   -1,182;    1,045
1052,886; 2398,384;    0,364;   -1,409
1053,430; 2266,475;   -1,364;    0,136
1053,975; 2281,293;   -0,818;   -0,318
1054,519; 2251,566;   -0,727;    3,227
1055,063; 2275,384;    0,909;    1,318
1055,607; 2159,747;   -0,182;    0,227
1056,151; 2185,202;    2,909;    1,682
1056,695; 2096,657;    2,273;   -1,136
1057,239; 2172,020;   -1,727;   -0,682
1057,783; 2181,747;    0,818;   -1,500
1058,327; 2123,293;    0,000;    1,409
1058,871; 2369,293;   -0,545;    1,318
1059,415; 2075,020;   -0,818;   -0,045
1059,958; 2349,566;    1,455;    2,591
1060,502; 2052,657;   -1,000;   -0,773
1061,046; 1940,657;    0,364;   -0,955
1061,589; 1928,657;   -3,000;   -1,136
1062,133; 1816,747;   -1,273;    1,864
1062,676; 1747,111;    1,182;    0,864
1063,220; 1758,202;    1,091;    0,500
1063,763; 1779,202;    0,909;    1,136
1064,306; 1875,838;   -0,909;    1,864
1064,849; 1759,747;   -0,909;    0,591
1065,393; 1772,475;    2,000;   -1,500
1065,936; 1868,838;    0,182;   -0,409
1066,479; 1760,293;   -1,455;    1,318
1067,022; 1781,929;   -0,273;   -0,227
1067,565; 1670,838;   -0,091;   -1,318
1068,108; 1702,475;    0,727;   -0,591
1068,651; 1676,020;   -0,636;    1,409
1069,194; 1597,202;   -0,455;   -1,682
1069,736; 1603,293;   -1,273;    0,955
1070,279; 1575,202;   -1,364;   -0,500
1070,822; 1642,838;   -2,000;   -0,318
1071,364; 1749,657;   -0,364;    1,318
1071,907; 1552,111;   -0,727;    3,227
1072,450; 1435,384;    0,000;   -0,045
1072,992; 1426,202;   -0,273;    3,136
1073,535; 1588,747;    2,091;    2,136
1074,077; 1366,111;   -0,727;    2,045
1074,619; 1337,020;   -1,364;    0,591
1075,161; 1386,475;   -1,091;    1,500
1075,704; 1567,566;    1,545;    1,227
1076,246; 1349,657;   -0,182;    0,682
1076,788; 1282,657;   -0,364;    1,773
1077,330; 1349,384;    1,273;    2,136
1077,872; 1327,020;    0,909;    0,955
1078,414; 1567,020;    2,727;    0,773
1078,956; 1297,747;    1,273;   -0,227
1079,498; 1562,384;    1,636;    0,318
1080,040; 1265,747;    1,909;   -1,318
1080,581; 1202,475;    1,636;   -0,318
1081,123; 1121,111;    0,091;   -0,773
1081,665; 1169,202;   -1,182;   -0,955
1082,206; 1483,929;    1,364;   -0,500
1082,748; 1324,657;    0,727;    2,045
1083,289; 1205,747;   -2,000;    1,318
1083,831; 1107,475;   -0,545;    0,227
1084,372; 1151,929;    0,000;    0,591
1084,913; 1154,475;    1,091;    0,864
1085,455; 1121,747;   -1,909;   -2,045
1085,996; 1099,657;   -2,273;    0,136
1086,537; 1118,657;   -0,091;    0,864
1087,078; 1156,111;   -0,909;   -2,136
1087,619; 1203,384;   -1,273;    0,227
1088,160; 1110,475;    0,000;    1,318
1088,701; 1087,566;   -1,091;    0,682
1089,242; 1033,111;    1,364;   -2,227
1089,783; 1139,293;   -0,273;    1,409
1090,324; 1093,475;    0,455;    0,682
1090,865;  957,657;    2,727;   -0,409
1091,405;  929,384;    0,727;    2,227
1091,946;  961,657;    0,182;   -0,955
1092,487;  880,747;    0,818;   -1,409
1093,027; 1068,111;   -1,364;   -1,500
1093,568;  921,929;   -0,364;    1,227
1094,108; 1021,293;    0,273;    1,773
1094,649;  939,838;   -1,182;    0,136
1095,189;  877,293;   -0,636;   -0,682
1095,729;  833,657;   -0,091;    0,955
1096,269;  829,838;    0,727;   -0,955
1096,810; 1163,838;   -1,364;    0,500
1097,350;  989,657;    1,364;   -0,773
1097,890;  882,566;    0,364;    1,227
1098,430; 1158,202;    2,364;    2,864
1098,970; 1032,111;    2,182;    1,682
1099,510;  877,747;    0,545;   -2,318
1100,050;  804,475;    1,000;   -1,591
1100,589;  773,838;   -0,727;   -0,318
1101,129;  913,475;    0,818;   -0,955
1101,669; 1057,475;    1,727;    2,136
1102,209;  867,747;   -0,091;    2,227
1102,748;  824,202;    0,000;    0,955
1103,288;  822,747;    1,273;   -1,227
1103,827;  837,475;    3,091;   -2,227
1104,367;  718,202;   -0,091;   -2,409
1104,906;  700,384;    1,364;   -1,136
1105,445;  774,384;    0,636;   -1,136
1105,985;  721,111;   -0,727;    1,500
1106,524;  766,384;   -1,727;   -0,682
1107,063;  728,475;   -2,727;    1,409
1107,602;  702,747;   -1,909;   -1,500
1108,141;  627,838;   -1,909;    1,500
1108,680;  734,929;   -3,455;   -0,591
1109,219;  660,202;   -0,909;   -0,500
1109,758;  657,293;    0,455;    0,682
1110,297;  640,657;    1,000;   -0,682
1110,836;  585,929;   -0,727;    0,955
1111,375;  760,111;   -2,545;    0,409
1111,913;  779,566;   -1,000;    0,773
1112,452;  708,384;   -0,273;    0,136
1112,991;  576,293;    1,091;    1,955
1113,529;  534,384;   -0,818;   -0,045
1114,068;  613,747;   -0,273;    2,955
1114,606;  502,929;   -0,364;   -0,955
1115,144;  677,747;   -1,273;    1,045
1115,683;  617,111;   -0,727;    0,318
1116,221;  657,202;   -0,455;   -0,864
1116,759;  563,929;    0,636;   -0,864
1117,297;  773,566;    0,000;    1,864
1117,836;  573,020;   -2,182;   -1,227
1118,374;  581,566;    0,182;   -0,682
1118,912;  520,747;    0,909;    2,682
1119,450;  514,384;    1,000;    0,864
1119,988;  570,566;    1,545;    2,136
1120,525; 1033,475;    5,091;    3,318
1121,063;  720,657;    1,182;    1,864
1121,601;  522,475;   -0,909;   -1,227
1122,139;  484,747;   -0,727;   -2,045
1122,676;  694,020;   -0,727;    2,773
1123,214;  608,747;   -1,182;    4,409
1123,751;  423,293;    1,727;    2,227
1124,289;  559,293;   -0,091;   -0,409
1124,826;  421,657;    1,727;    0,227
1125,364;  340,020;    1,727;   -0,955
1125,901;  543,657;    1,182;    1,227
1126,438;  659,929;    0,818;    0,955
1126,975;  379,475;   -0,727;   -0,773
1127,513;  444,929;    0,273;    2,136
1128,050;  348,838;    1,636;   -0,682
1128,587;  457,657;    2,000;   -0,227
1129,124;  503,747;    0,091;    1,318
1129,661;  357,929;    0,273;    0,227
1130,198;  528,384;    1,636;    0,773
1130,734;  481,111;    0,182;    1,409
1131,271;  323,384;   -0,909;    0,864
1131,808;  504,202;    2,909;    3,045
1132,345;  376,747;    1,545;    0,318
1132,881;  239,566;   -1,545;   -1,864
1133,418;  385,566;    0,727;   -1,136
1133,954;  325,293;    2,455;   -2,682
1134,491;  402,838;    1,364;   -0,773
1135,027;  292,747;    2,364;    0,864
1135,564;  393,111;    0,273;    2,955
1136,100;  372,838;    0,364;    2,136
1136,636;  258,838;   -1,273;   -1,045
1137,172;  361,838;    0,000;   -1,045
1137,708;  277,747;   -1,364;   -1,045
1138,245;  286,111;    1,273;   -1,227
1138,781;  224,747;    1,091;   -3,318
1139,317;  308,020;    1,273;   -1,409
1139,852;  290,838;    3,091;    0,136
1140,388;  415,747;   -1,182;   -0,409
1140,924;  289,111;   -1,091;   -2,227
1141,460;  228,747;   -1,636;    0,136
1141,996;  166,929;   -1,364;    2,682
1142,531;  212,566;    1,364;    3,318
1143,067;  435,747;    1,182;    1,045
1143,602;  498,475;   -0,091;   -0,318
1144,138;  330,838;   -2,636;    1,045
1144,673;  186,747;   -1,455;    1,409
1145,209;  260,475;   -1,909;   -0,318
1145,744;  182,020;   -0,727;    0,864
1146,279;  322,929;    1,818;   -0,136
1146,815;  235,838;    1,545;   -2,682
1147,350;  279,384;   -1,364;    0,045
1147,885;  182,929;   -0,818;   -1,318
1148,420;  182,293;   -2,273;    0,773
1148,955;  165,747;   -1,727;    1,864
1149,490;  208,838;   -0,909;   -1,591
1150,025;  178,475;    0,455;   -1,773
1150,560;  296,384;    1,091;   -0,955
1151,094;  263,020;    1,455;   -0,591
1151,629;  271,657;    1,636;    0,864
1152,164;  176,475;    1,364;    1,318
1152,698;  139,202;   -0,182;   -0,136
1153,233;   98,475;    0,091;   -0,682
1153,767;  163,475;   -3,000;   -2,318
1154,302;  211,566;   -1,455;    1,773
1154,836;  207,475;   -0,455;   -2,136
1155,371;  268,838;   -1,364;    3,682
1155,905;  214,111;   -0,636;    1,682
1156,439;  174,111;   -0,636;   -0,500
1156,973;  206,838;    0,364;    0,318
1157,507;  139,657;   -0,364;    0,682
1158,042;  177,475;   -0,727;    1,045
1158,576;  227,293;    0,182;    1,773
1159,110;  215,020;   -0,818;    2,409
1159,643;  179,384;    0,636;   -0,045
1160,177;  108,747;   -1,545;    1,500

