
Integration time [ms]:   0,040
Averaging Nr. [scans]: 11
Smoothing Nr. [pixels]: 0
Data measured with spectrometer [name]: 7318044SP
Wave   ;Sample   ;Dark     ;Reference
[nm]   ;[counts] ;[counts] ;[counts] 

186,757;   16,952;   31,551;    1,318
187,357;   50,806;   22,551;    0,955
187,958;   26,697;   15,460;   -1,591
188,558;   70,218;    8,915;   -1,227
189,159;   37,361;    6,733;   -4,500
189,759;   11,327;    7,278;   -3,591
190,360;   14,339;    2,824;   -2,136
190,960;   49,741;    2,915;   -4,136
191,560;   65,549;    3,189;   -6,591
192,161;  303,564;    4,372;   -3,500
192,761;  147,222;    4,010;   -3,227
193,361;   93,829;    1,556;   -3,773
193,962;  137,122;    2,010;   -2,682
194,562;   54,972;    1,189;   -3,955
195,162;   84,015;   -2,448;   -2,227
195,762;  223,872;   -3,176;   -0,045
196,362;  173,638;    1,370;   -2,500
196,963;   55,451;    2,006;   -0,864
197,563;  118,949;    1,551;   -0,955
198,163;   58,365;    0,096;   -0,682
198,763;   66,978;    1,733;   -0,500
199,363;  162,684;    3,096;   -0,500
199,963;  116,695;    0,369;    0,409
200,563;   95,768;    2,823;   -1,409
201,163;   78,669;    3,277;   -0,227
201,763;  152,653;    3,732;    0,318
202,363;   95,196;    1,459;    1,500
202,963;  188,037;    1,459;    1,045
203,563;  279,851;    0,277;    0,500
204,162;  142,137;    2,096;   -1,864
204,762;  135,820;    0,550;    0,591
205,362;  103,825;    3,004;    1,955
205,962;  186,120;    3,096;    1,955
206,562;  180,828;    1,823;    2,318
207,161;  141,733;   -0,087;    0,318
207,761;  302,132;    1,277;    2,409
208,361;  185,689;   -0,268;    1,409
208,960;  266,965;    0,459;    1,500
209,560;  313,830;    1,277;    1,591
210,160;  306,785;    0,550;    1,864
210,759;  264,239;    4,186;    1,227
211,359;  269,150;    1,459;    1,045
211,958;  503,795;    1,277;    2,045
212,558;  569,230;    1,732;    1,864
213,157;  422,362;    1,822;    1,500
213,757;  804,170;    3,822;   -0,227
214,356;  531,423;    1,277;   -0,409
214,956;  818,753;    3,095;    0,409
215,555;  476,095;    2,095;    2,136
216,154;  421,035;   -2,723;   -0,591
216,754;  429,211;    0,277;    0,773
217,353;  538,930;   -0,268;   -1,045
217,952;  393,585;   -0,178;    0,318
218,552;  630,679;    1,368;   -0,773
219,151;  501,476;    0,277;    0,955
219,750;  487,964;    0,004;   -0,227
220,349;  513,028;   -0,451;    1,045
220,948;  656,345;   -1,360;    1,136
221,548;  579,296;    0,913;    1,227
222,147;  676,312;   -0,087;   -0,409
222,746;  965,245;   -0,451;   -0,955
223,345;  817,715;    0,731;    0,500
223,944;  801,896;   -0,451;    0,773
224,543;  897,400;    1,004;   -1,409
225,142; 1006,475;    0,094;    0,136
225,741;  897,978;   -0,814;    1,045
226,340;  883,570;   -0,451;   -0,955
226,939; 1230,669;   -0,996;   -0,136
227,538; 1021,363;   -0,360;   -0,773
228,137; 1229,885;   -0,814;    0,864
228,735; 1200,336;   -0,541;    1,227
229,334;  984,330;   -0,905;   -0,227
229,933; 1344,308;    0,459;    0,591
230,532; 1414,724;    1,186;   -0,409
231,131; 1490,093;    1,732;    0,318
231,729; 1398,019;   -2,450;   -2,318
232,328; 1329,160;   -0,723;   -1,500
232,927; 1322,134;    1,004;   -0,500
233,525; 1329,118;    3,640;    0,045
234,124; 1460,511;    2,368;   -1,591
234,723; 1376,809;    0,913;   -1,045
235,321; 1418,011;    2,277;    0,136
235,920; 1516,932;    1,186;   -1,227
236,518; 1765,951;    3,459;    0,318
237,117; 1654,632;    0,004;   -0,227
237,715; 1723,211;    0,640;   -0,500
238,314; 1785,461;   -0,087;   -2,318
238,912; 1986,311;   -0,723;   -1,409
239,510; 1841,570;    0,459;   -1,227
240,109; 2049,412;    0,004;    3,773
240,707; 2020,306;   -0,996;    1,227
241,305; 2099,178;    0,550;    0,136
241,904; 2306,269;   -0,178;   -2,045
242,502; 2371,824;   -0,632;   -0,227
243,100; 2290,659;   -0,087;   -0,955
243,698; 2472,783;    0,732;    1,682
244,297; 2614,333;   -0,632;    0,682
244,895; 2607,005;   -0,269;   -2,318
245,493; 2915,460;    2,186;   -0,591
246,091; 2934,143;    1,368;   -1,318
246,689; 2923,594;    1,004;    0,591
247,287; 3076,560;    0,822;   -1,136
247,885; 3357,624;   -1,451;    1,227
248,483; 3443,161;    1,822;   -0,500
249,081; 3588,562;    0,185;    1,591
249,679; 3773,308;   -0,178;    1,682
250,277; 4004,147;   -1,723;    0,864
250,875; 4045,207;   -1,087;   -1,045
251,473; 4103,939;   -1,178;    0,500
252,071; 4335,525;    1,459;    1,045
252,669; 4498,987;   -1,814;    0,318
253,267; 4675,277;   -0,087;    0,773
253,864; 4637,650;   -0,360;    0,682
254,462; 4707,159;    1,640;    1,591
255,060; 4622,143;   -0,269;    1,318
255,658; 4881,714;    0,822;   -0,136
256,255; 5291,556;    0,186;   -2,045
256,853; 5201,715;   -0,269;    1,409
257,451; 5207,453;    0,822;    1,864
258,048; 5575,346;    1,822;    1,864
258,646; 5310,702;    1,731;   -1,045
259,243; 5480,805;   -0,087;    2,227
259,841; 5521,595;   -0,814;    0,318
260,438; 5435,414;   -0,087;    0,864
261,036; 6066,186;   -1,905;    1,409
261,633; 6004,902;   -0,087;    2,227
262,231; 5806,917;    2,731;   -0,045
262,828; 5923,709;   -0,905;    1,136
263,425; 5997,795;    0,913;   -0,591
264,023; 6259,780;    0,186;    0,045
264,620; 5861,877;   -0,360;   -0,318
265,217; 6214,717;   -2,087;    3,136
265,815; 6289,283;   -1,905;    2,136
266,412; 6197,542;    0,731;    0,136
267,009; 6235,177;   -1,451;    0,773
267,606; 6234,884;    0,822;   -0,955
268,203; 6167,139;   -0,269;   -0,591
268,801; 6442,378;    1,731;    0,591
269,398; 6683,119;   -0,360;    2,500
269,995; 6665,891;    0,277;    1,591
270,592; 6486,179;   -0,632;   -0,500
271,189; 6657,060;    0,186;    0,409
271,786; 6783,465;   -0,632;    1,227
272,383; 6698,374;   -1,087;    0,227
272,980; 6815,516;    0,277;    0,318
273,577; 7194,505;    0,004;    1,227
274,174; 6763,549;    0,822;    2,591
274,771; 6745,623;   -0,814;   -0,773
275,367; 6960,956;    2,277;    1,409
275,964; 6912,875;    0,731;   -0,500
276,561; 6959,996;    1,549;   -1,045
277,158; 7118,126;    0,095;   -1,773
277,755; 7295,744;    2,185;    0,409
278,351; 6737,426;   -0,451;   -1,500
278,948; 7010,346;   -0,815;    0,045
279,545; 7002,066;   -1,360;    2,318
280,141; 7572,168;   -1,723;   -2,045
280,738; 7429,526;   -0,451;   -0,136
281,334; 7583,392;   -1,633;    0,591
281,931; 7073,739;   -0,087;   -1,318
282,528; 7192,754;    0,822;   -0,500
283,124; 7820,705;   -1,087;   -0,500
283,721; 7710,908;   -0,451;    1,409
284,317; 7532,987;    0,185;    2,500
284,913; 8104,883;   -1,360;    0,591
285,510; 8324,792;    0,640;   -0,318
286,106; 8338,355;   -2,269;   -0,955
286,703; 7946,850;   -0,360;    1,955
287,299; 8167,140;   -1,451;   -0,591
287,895; 8362,636;    0,822;   -1,045
288,491; 8889,755;    0,186;    2,136
289,088; 8741,117;   -2,360;    2,409
289,684; 8841,714;   -1,723;    1,500
290,280; 8889,340;    0,368;    0,682
290,876; 9017,024;    1,822;    5,500
291,472; 8963,612;    1,276;    2,227
292,068; 9117,907;    1,367;    0,227
292,665; 8887,049;    2,095;    0,773
293,261; 8590,702;    0,276;    2,136
293,857; 9012,424;    2,913;    2,136
294,453; 9007,759;    3,550;    0,955
295,049; 8942,101;   -0,268;    1,955
295,644; 9024,886;    0,095;    0,136
296,240; 8978,709;   -0,905;   -0,136
296,836; 9075,457;   -0,995;    0,318
297,432; 9393,522;    1,096;   -0,500
298,028; 9492,857;    0,732;    0,773
298,624; 9893,921;    1,459;    1,864
299,220;10128,497;    2,368;    0,591
299,815; 9887,508;    1,005;   -0,409
300,411; 9787,828;    0,914;    1,773
301,007; 9793,393;    1,368;    0,227
301,602; 9888,250;   -0,541;   -2,318
302,198;10062,907;    0,732;   -0,773
302,794;10385,820;    1,187;   -0,500
303,389;10482,102;   -1,177;    1,045
303,985;10587,081;    0,550;    1,409
304,580;10615,090;    1,459;    1,591
305,176;10607,615;   -3,086;    0,136
305,771;10543,948;   -1,268;   -1,227
306,367;10467,393;    4,095;    0,136
306,962;10734,432;    0,641;    1,500
307,558;10453,915;   -0,450;    0,136
308,153;10375,800;    1,095;   -1,136
308,748;10574,476;   -0,814;    1,682
309,344;10556,606;   -0,632;   -1,318
309,939;10666,245;   -1,905;   -1,318
310,534;10865,835;   -0,086;   -1,682
311,130;10760,270;    0,459;   -2,500
311,725;10492,386;    1,004;   -0,500
312,320;10827,680;    2,459;    0,045
312,915;10648,838;    1,459;   -1,045
313,510;10720,057;    1,550;   -0,500
314,105;11138,951;    1,096;    1,409
314,700;10537,159;   -3,086;   -1,045
315,295;10175,181;   -0,904;    0,045
315,890; 9758,880;    1,277;    0,864
316,485;10068,847;   -0,359;   -0,318
317,080;10142,620;   -3,086;    1,591
317,675;10653,774;    2,005;   -0,682
318,270;10128,923;    5,550;    3,318
318,865;10072,192;    3,278;    3,045
319,460; 9892,310;   -0,904;    0,591
320,055;10061,950;   -0,541;   -1,227
320,650; 9745,539;   -1,995;   -0,591
321,244; 9808,875;   -0,177;   -1,409
321,839;10656,077;   -1,541;   -0,227
322,434;10513,316;   -1,086;   -1,591
323,029;10159,152;    1,732;    1,591
323,623; 9998,749;    1,550;    0,773
324,218; 9810,129;    2,368;    1,409
324,812; 9696,551;    1,096;    1,591
325,407; 9542,764;   -0,814;    2,045
326,002; 9489,103;    0,277;   -0,409
326,596; 9795,967;    0,914;    1,318
327,191; 9958,269;    0,823;   -1,045
327,785; 9615,876;   -0,813;   -0,227
328,379; 9877,482;    1,368;    0,136
328,974; 9681,150;    0,914;   -3,955
329,568; 9926,585;    0,186;   -2,409
330,163; 9758,917;    2,096;    1,045
330,757;10143,643;    2,459;    1,591
331,351; 9530,549;    0,459;    0,682
331,945; 9877,635;    0,914;    1,409
332,540; 9560,825;   -1,723;   -0,591
333,134; 9745,346;   -1,086;    0,773
333,728; 9986,702;    0,005;    0,318
334,322;10350,416;   -1,177;   -0,864
334,916; 9674,259;    0,277;    0,955
335,510;10049,937;   -0,450;   -0,136
336,105;10331,542;   -1,086;    1,591
336,699;10103,743;   -1,086;    0,591
337,293;10087,948;   -1,723;    0,318
337,887;10230,893;   -2,723;    1,955
338,481;10383,126;    0,459;    0,591
339,074;10583,437;   -0,359;    2,682
339,668;10441,390;   -1,632;    1,227
340,262;10762,380;    1,732;    3,227
340,856;10297,623;    1,822;   -0,682
341,450; 9712,893;    1,004;    1,864
342,044;10576,039;    1,459;    0,136
342,637;10375,412;    0,913;   -2,136
343,231;10315,334;   -2,360;    0,682
343,825;10307,104;   -1,086;   -0,591
344,419;10273,200;   -1,995;    0,500
345,012;10123,839;    2,459;    4,045
345,606;10156,334;    4,641;    1,591
346,199;10038,687;   -1,813;   -0,227
346,793; 9570,458;    1,914;    2,045
347,386; 9783,152;   -0,813;   -1,136
347,980; 9815,723;   -0,268;   -0,045
348,573; 9658,368;    2,278;    0,409
349,167; 9385,643;    5,278;    4,773
349,760; 9703,590;    2,914;    2,682
350,354; 9685,107;   -0,813;    1,136
350,947; 9451,660;    1,096;    1,682
351,540; 9143,867;   -0,358;   -1,409
352,134; 9073,712;    1,096;    1,136
352,727; 9181,889;   -0,086;    1,136
353,320; 8968,850;    0,005;    0,591
353,913; 8815,719;   -1,995;    1,864
354,507; 9045,462;    0,823;   -1,227
355,100; 9037,443;    0,460;    0,864
355,693; 8304,961;    2,005;    2,409
356,286; 8364,709;    0,823;    2,773
356,879; 8709,869;   -0,722;    1,227
357,472; 8298,001;   -0,904;    1,500
358,065; 8495,464;   -0,722;    2,500
358,658; 8426,502;   -0,540;    2,318
359,251; 8091,054;   -1,631;   -0,591
359,844; 7594,454;   -1,904;   -1,136
360,437; 7795,509;   -2,995;    0,045
361,030; 8038,022;    1,369;   -0,682
361,623; 7606,149;    2,824;    0,318
362,215; 7690,849;   -0,086;    2,045
362,808; 7505,141;   -2,358;   -1,682
363,401; 7678,183;   -2,449;    0,136
363,994; 7433,214;   -0,631;   -1,500
364,586; 7345,152;    0,824;   -1,500
365,179; 7544,762;   -0,449;   -1,136
365,772; 7043,494;   -1,995;    2,045
366,364; 7338,462;    1,915;   -3,227
366,957; 7514,951;    2,279;   -0,045
367,549; 7522,035;    2,188;   -0,864
368,142; 7181,955;    1,825;   -1,500
368,734; 7360,645;    0,734;   -2,136
369,327; 7332,038;    1,643;   -0,500
369,919; 7256,265;   -1,538;    0,409
370,512; 7051,234;   -1,083;   -0,500
371,104; 6816,836;   -0,901;    1,591
371,696; 7003,632;    1,191;   -0,955
372,289; 7069,308;    0,373;    1,136
372,881; 7215,915;   -2,080;    1,318
373,473; 7145,435;   -2,170;    1,136
374,066; 6952,333;   -0,169;    0,500
374,658; 6785,694;    0,378;    1,136
375,250; 7117,636;    0,653;   -1,409
375,842; 6952,030;    0,473;   -0,045
376,434; 6858,377;   -0,435;   -0,409
377,026; 7400,799;    0,204;   -2,500
377,618; 7297,286;   -0,158;   -0,682
378,210; 7122,594;   -0,338;   -1,955
378,802; 6962,054;    0,754;   -0,591
379,394; 6981,302;    1,846;    0,682
379,986; 7510,503;    1,393;   -0,955
380,578; 7593,018;   -0,153;    0,773
381,170; 6959,815;   -0,972;    0,045
381,762; 6927,955;    0,755;    1,409
382,354; 7129,992;   -0,065;   -1,318
382,945; 7241,525;   -2,976;    0,318
383,537; 7362,363;   -2,705;   -1,955
384,129; 7362,518;   -2,160;   -1,136
384,721; 7547,851;   -0,252;    0,955
385,312; 7446,643;   -0,161;   -0,955
385,904; 7523,061;   -2,706;    1,591
386,496; 6924,589;   -0,979;    1,045
387,087; 7085,666;    1,022;    2,500
387,679; 7115,391;   -1,160;    0,045
388,270; 7244,954;    2,840;    2,045
388,862; 7348,764;    1,295;   -0,318
389,453; 7251,550;   -0,887;    1,045
390,045; 7507,973;   -0,705;   -2,682
390,636; 7449,310;    0,204;   -0,591
391,227; 7320,237;   -0,523;   -0,045
391,819; 7402,019;    0,204;    0,773
392,410; 7474,064;    1,022;    0,045
393,001; 7421,414;   -0,979;   -1,591
393,593; 7698,948;    1,930;   -0,045
394,184; 7543,329;    1,385;   -0,409
394,775; 7452,728;    1,839;    2,136
395,366; 7659,945;    1,385;    0,773
395,957; 7664,193;    0,113;    0,136
396,548; 7944,640;   -0,342;    2,682
397,139; 8272,057;   -2,433;    0,591
397,730; 7963,998;   -1,888;    0,955
398,321; 8017,984;   -1,252;    0,955
398,912; 8047,859;   -0,615;    0,136
399,503; 8113,247;   -3,524;   -1,409
400,094; 7584,057;    0,294;    1,682
400,685; 7438,184;   -0,433;    0,045
401,276; 7531,977;    0,930;   -0,955
401,867; 7815,492;   -0,888;    0,773
402,458; 7910,848;   -2,251;   -2,318
403,048; 7859,969;    1,112;    0,591
403,639; 7491,688;    0,840;    0,864
404,230; 7770,461;    2,476;    0,318
404,821; 7666,066;   -0,615;    0,045
405,411; 7776,973;    1,203;   -2,591
406,002; 7394,552;   -1,252;   -1,136
406,592; 7271,814;    2,294;    0,045
407,183; 7548,769;    0,566;   -1,500
407,774; 7434,242;    3,475;   -0,136
408,364; 7748,000;    0,930;    0,409
408,954; 7370,822;    0,384;    1,227
409,545; 7400,903;    1,021;    1,045
410,135; 6940,993;    1,293;    0,500
410,726; 7079,911;    1,838;    0,318
411,316; 7453,856;    0,111;    0,773
411,906; 7083,139;   -0,253;   -0,409
412,497; 6612,689;   -1,070;   -0,045
413,087; 7134,030;   -1,980;   -0,227
413,677; 7477,761;   -0,707;    3,864
414,267; 7316,353;    0,656;    1,409
414,857; 7273,827;   -2,980;    4,227
415,448; 7540,896;    0,839;    0,500
416,038; 7205,943;    0,020;   -0,591
416,628; 7145,660;   -0,889;    0,409
417,218; 6672,765;    0,565;    3,318
417,808; 6902,875;    0,202;   -0,409
418,398; 7285,728;    0,020;    2,682
418,988; 7238,894;    2,020;    0,591
419,578; 7448,203;   -0,707;    1,409
420,168; 7712,782;   -1,343;   -0,955
420,757; 7337,109;   -1,343;   -1,500
421,347; 6980,146;    0,111;   -0,227
421,937; 7101,714;    2,292;    1,409
422,527; 7027,937;    0,838;   -0,773
423,116; 6843,756;   -0,253;   -0,045
423,706; 7064,857;   -1,889;    0,318
424,296; 6987,214;    1,384;    0,682
424,885; 7348,941;   -0,071;   -3,045
425,475; 7585,262;    1,474;   -2,864
426,065; 7444,287;   -0,980;   -0,318
426,654; 7079,572;   -0,435;   -0,318
427,244; 7194,488;    0,020;    1,409
427,833; 6646,466;    1,383;   -0,500
428,423; 7026,687;   -0,526;    1,136
429,012; 7651,501;   -0,344;   -1,136
429,601; 7170,941;   -1,344;    0,136
430,191; 7330,434;    1,292;    4,318
430,780; 6919,753;   -0,344;   -0,409
431,369; 6865,853;    0,746;   -0,045
431,959; 7377,810;   -1,254;    0,500
432,548; 7134,123;   -1,163;   -0,045
433,137; 7160,889;   -1,254;   -1,318
433,726; 7590,315;    0,292;    0,500
434,315; 7003,767;   -0,526;    2,409
434,905; 7039,562;   -1,254;    1,409
435,494; 6936,348;    0,746;    0,955
436,083; 7234,299;   -0,981;   -0,955
436,672; 7080,065;    0,110;    0,500
437,261; 6689,104;    0,292;   -1,955
437,850; 6776,677;    1,383;    0,682
438,439; 6694,673;    3,291;    1,955
439,027; 6512,972;    3,655;    1,773
439,616; 6716,431;    2,927;    1,227
440,205; 6489,248;    0,200;   -2,136
440,794; 6467,628;    2,109;   -0,045
441,383; 6583,041;   -1,346;   -0,591
441,971; 6380,482;   -2,436;    0,591
442,560; 6164,045;    0,563;   -1,773
443,149; 5887,888;    0,379;   -1,318
443,737; 5959,865;   -0,074;   -2,318
444,326; 6099,237;    0,018;    0,318
444,915; 6053,434;   -1,982;    0,864
445,503; 6255,126;   -2,891;   -0,318
446,092; 5687,606;    0,382;    2,136
446,680; 6018,836;    0,382;    0,318
447,269; 6049,742;   -0,346;   -0,318
447,857; 5793,352;    0,018;   -1,773
448,445; 5769,951;    0,563;    1,318
449,034; 5875,418;   -1,528;   -1,136
449,622; 5866,603;   -1,073;    3,500
450,210; 5391,922;    2,017;    2,227
450,799; 5714,217;    0,290;   -0,591
451,387; 5512,002;    1,381;   -0,591
451,975; 5213,876;    2,654;    0,864
452,563; 5287,877;    3,472;    2,318
453,151; 5158,061;   -0,528;   -1,227
453,739; 5015,888;   -1,347;    0,136
454,328; 4921,815;    2,381;   -2,136
454,916; 4678,898;    2,562;   -0,136
455,504; 4705,972;    1,017;    1,227
456,092; 4758,507;    0,017;   -1,591
456,679; 4610,304;    1,472;    0,682
457,267; 4818,186;    4,017;    1,045
457,855; 4668,011;    1,017;    1,409
458,443; 4328,725;   -0,165;    1,682
459,031; 4534,313;    0,108;    2,409
459,619; 4685,513;   -1,801;    2,864
460,206; 4599,936;    0,835;    2,045
460,794; 4657,649;   -2,983;   -0,227
461,382; 4761,595;   -0,529;   -0,864
461,970; 4428,077;    1,198;    1,864
462,557; 4409,011;   -0,711;   -0,682
463,145; 4533,854;   -3,165;   -1,682
463,732; 4615,320;    2,016;   -1,045
464,320; 4403,064;   -0,075;   -3,045
464,907; 4267,550;    2,743;   -0,773
465,495; 4112,854;    0,743;   -1,227
466,082; 4082,450;   -1,984;   -0,045
466,670; 3915,826;   -2,529;    1,227
467,257; 4173,858;   -1,711;    2,045
467,844; 4300,646;   -0,075;    0,045
468,432; 4253,144;    0,834;    3,500
469,019; 3927,021;    0,925;   -1,773
469,606; 4125,575;    0,470;    3,682
470,193; 4004,840;   -1,439;    0,227
470,780; 3780,171;   -2,075;    0,864
471,368; 3848,623;   -1,257;   -0,773
471,955; 3700,595;    1,379;   -0,682
472,542; 3413,982;    0,652;   -1,136
473,129; 3412,219;   -0,166;    0,136
473,716; 3213,620;    1,470;    0,591
474,303; 3205,262;    0,652;   -0,864
474,890; 3285,262;   -1,439;   -0,500
475,477; 3328,636;   -1,621;    0,409
476,064; 3139,729;    1,106;   -1,591
476,650; 3015,555;    0,288;    0,318
477,237; 2847,919;   -0,258;    0,955
477,824; 2828,515;   -1,076;    0,864
478,411; 2661,411;   -1,894;   -0,318
478,997; 2682,212;    0,560;   -0,773
479,584; 2576,004;    1,196;   -0,409
480,171; 2917,693;   -0,440;   -0,773
480,757; 2834,356;    2,651;    0,773
481,344; 2693,668;    0,469;    0,409
481,931; 2313,077;    1,105;    1,045
482,517; 2671,241;   -1,258;    0,318
483,104; 2754,336;    1,106;    2,864
483,690; 2622,346;   -1,804;    0,045
484,276; 2551,629;   -0,895;    0,227
484,863; 2695,042;    2,469;    1,136
485,449; 2558,687;   -0,077;    0,318
486,035; 2400,731;   -1,986;   -0,136
486,622; 2607,482;   -0,895;    0,045
487,208; 2444,223;    1,378;    1,500
487,794; 2318,224;    0,741;    0,318
488,380; 2337,068;    0,105;   -1,409
488,967; 2297,647;   -1,168;   -0,409
489,553; 2325,718;   -1,895;   -1,409
490,139; 2434,693;    1,559;    0,773
490,725; 2248,073;    0,741;   -0,227
491,311; 2193,753;    3,287;    3,045
491,897; 1977,944;   -0,986;    1,500
492,483; 2055,819;    0,105;    1,227
493,069; 2778,471;    3,923;    0,864
493,655; 2350,290;    1,650;    0,682
494,241; 2244,607;    1,377;   -0,955
494,826; 2440,533;    0,287;   -1,045
495,412; 2379,565;    2,559;   -0,682
495,998; 2452,091;   -0,805;   -0,318
496,584; 2538,718;    0,377;    1,045
497,169; 2562,630;    1,014;   -0,682
497,755; 2619,260;    0,650;    1,227
498,341; 3221,900;    0,559;    0,318
498,926; 3259,193;    1,832;    1,955
499,512; 3282,840;    1,286;    2,955
500,097; 3342,459;    0,195;   -0,318
500,683; 3567,420;   -0,350;    2,136
501,268; 3947,913;   -0,169;   -0,955
501,854; 4090,102;   -0,169;    1,227
502,439; 4247,646;   -0,624;   -1,773
503,024; 4554,732;    0,195;    0,500
503,610; 4897,027;   -0,078;   -0,682
504,195; 5082,275;    0,558;    1,955
504,780; 5486,198;    2,922;    1,227
505,366; 5736,997;    3,013;    2,864
505,951; 5797,967;    0,740;    1,045
506,536; 6117,525;   -3,260;   -3,682
507,121; 6383,245;    0,285;   -0,318
507,706; 7046,527;    2,376;    1,045
508,291; 7626,880;    2,649;    1,136
508,876; 7489,814;   -0,988;    2,591
509,461; 7363,929;   -0,169;   -0,773
510,046; 7999,675;    0,194;    0,318
510,631; 8497,529;   -0,351;   -0,773
511,216; 8470,452;    2,467;   -0,500
511,801; 9075,139;   -0,442;    2,591
512,386; 9568,705;    0,740;    0,500
512,971; 9747,431;   -2,988;    0,955
513,555; 9612,703;   -0,897;   -1,500
514,140;10559,575;   -0,442;   -3,136
514,725;10772,555;   -0,715;   -1,136
515,309;11087,263;   -0,533;    0,318
515,894;10793,501;   -0,624;   -2,227
516,479;11379,715;   -0,624;   -0,955
517,063;11374,504;    0,376;    1,227
517,648;11698,517;    1,012;   -1,136
518,232;11495,796;   -0,261;   -1,409
518,817;11956,680;   -0,079;    1,682
519,401;12313,721;    2,194;    0,591
519,985;11932,059;    1,103;    1,136
520,570;11936,421;    0,830;   -1,955
521,154;12300,888;    2,102;    0,591
521,738;12559,433;   -2,352;    2,409
522,323;13197,778;   -0,170;    1,682
522,907;13021,119;    0,466;   -0,136
523,491;12816,765;    0,557;    0,955
524,075;12854,195;    2,284;    0,591
524,659;13008,353;    1,466;    0,591
525,243;12536,670;    1,739;    0,409
525,827;12814,712;    0,648;   -0,045
526,411;13699,081;   -1,989;   -0,136
526,995;13964,808;   -0,352;    1,409
527,579;13605,381;   -0,443;   -1,045
528,163;13938,919;    0,375;   -1,500
528,747;13887,812;    2,466;   -0,773
529,331;14224,191;   -0,080;   -1,409
529,915;14461,956;    1,738;    0,955
530,499;14418,289;   -0,807;    1,227
531,082;14131,557;   -0,534;    1,591
531,666;13610,579;    1,374;    0,773
532,250;14311,787;    1,284;    2,682
532,833;14638,531;    0,920;    2,773
533,417;14524,933;   -1,807;    0,864
534,001;14526,570;    1,647;   -0,318
534,584;15238,123;    0,374;    0,500
535,168;15083,026;    0,465;    1,409
535,751;15157,886;    0,647;    0,045
536,334;14595,915;   -0,898;   -0,409
536,918;15191,118;    0,011;    1,591
537,501;15305,890;   -0,899;    1,318
538,085;15302,458;   -0,444;    1,045
538,668;15501,524;    0,829;    2,409
539,251;15853,863;    1,829;    3,773
539,834;15838,032;    0,101;    0,773
540,418;15804,244;   -1,990;    4,318
541,001;15930,460;   -0,990;    1,773
541,584;15899,851;    2,101;    2,227
542,167;15628,106;    1,374;    2,955
542,750;15767,439;    1,919;   -0,773
543,333;15352,241;    0,555;    2,136
543,916;16155,292;    0,192;    2,500
544,499;16735,293;   -1,354;    0,227
545,082;16743,362;    1,374;    3,591
545,665;16922,368;    1,919;    1,500
546,248;17277,695;    1,010;   -0,318
546,830;16902,375;   -0,445;    1,955
547,413;17336,599;    1,010;   -0,773
547,996;17851,791;    0,555;    0,500
548,579;17640,178;    0,919;    0,955
549,161;17420,247;    1,828;    2,682
549,744;17209,725;   -0,809;    0,409
550,326;17710,731;   -0,809;   -1,136
550,909;17535,381;    2,737;    0,591
551,492;17928,257;   -0,263;    0,227
552,074;17712,801;   -0,173;   -1,318
552,657;18257,501;    2,373;    0,045
553,239;17989,698;   -0,173;   -0,773
553,821;17908,907;   -1,082;    1,045
554,404;17433,921;    1,282;    1,136
554,986;17829,232;    0,464;    1,045
555,568;18424,611;    1,191;   -0,955
556,151;17629,859;    1,191;   -0,227
556,733;17855,761;   -0,264;   -0,864
557,315;18323,227;    0,100;    0,500
557,897;18121,001;    0,554;   -0,500
558,479;18231,675;   -1,991;    1,318
559,061;18389,499;   -0,719;   -0,864
559,643;18724,150;   -0,264;    0,045
560,225;19094,680;    1,645;    2,864
560,807;19099,877;    0,918;    0,318
561,389;18538,865;    0,554;    2,318
561,971;19384,168;    0,463;    2,136
562,553;19178,715;   -1,628;    1,591
563,135;19277,010;   -0,537;    1,136
563,717;18894,430;    3,372;    1,136
564,298;19622,584;    3,645;   -0,045
564,880;19342,236;    0,645;   -1,409
565,462;19509,781;    0,645;    1,318
566,043;20665,707;   -0,446;    2,318
566,625;20271,431;    1,918;    1,227
567,207;20126,125;    1,099;    1,682
567,788;21230,504;   -1,264;    1,500
568,370;22080,462;    1,917;   -0,500
568,951;21907,495;    0,190;    0,227
569,533;22778,598;   -0,628;   -0,500
570,114;23230,858;   -0,446;    0,682
570,695;23747,710;   -0,174;   -1,318
571,277;24279,567;   -0,265;   -1,682
571,858;24993,657;    2,008;   -1,136
572,439;25899,129;    1,554;   -1,045
573,021;26070,876;    2,099;   -2,773
573,602;26547,743;   -1,265;    0,318
574,183;27494,390;   -2,083;    2,227
574,764;27619,440;   -1,629;    0,409
575,345;28196,111;    0,917;   -0,136
575,926;28745,759;   -0,356;    0,136
576,507;28727,376;    1,099;   -0,227
577,088;29905,527;    3,099;    1,682
577,669;29887,284;    0,735;    1,955
578,250;30742,572;    0,644;   -1,045
578,831;31375,195;   -1,356;   -2,227
579,412;31550,259;   -0,810;    0,955
579,993;32449,328;    1,008;    0,227
580,573;32775,908;   -0,629;   -0,955
581,154;31715,500;    0,735;   -0,591
581,735;32611,613;    0,644;    0,773
582,315;32132,340;   -0,629;    2,136
582,896;32370,258;   -0,174;    1,227
583,477;31794,426;    0,189;    1,227
584,057;31987,842;    0,553;    0,955
584,638;32309,873;    2,553;    2,318
585,218;32331,835;   -0,538;    2,682
585,799;32497,659;    0,281;   -0,227
586,379;32417,254;    0,372;    1,591
586,959;31120,907;    0,735;    0,318
587,540;30431,727;   -0,629;    2,227
588,120;30004,848;    1,007;   -0,045
588,700;28979,079;    2,553;    2,136
589,281;29346,390;    0,462;   -0,955
589,861;29312,805;    0,099;   -1,682
590,441;29110,033;    2,371;   -2,682
591,021;28096,870;   -0,265;   -2,591
591,601;28307,718;   -0,537;    0,500
592,181;28329,282;   -0,719;   -0,773
592,761;27581,737;    0,007;    1,409
593,341;27506,509;   -0,901;    0,045
593,921;27531,405;   -0,265;    1,591
594,501;27414,484;   -0,538;    1,318
595,081;27270,430;    0,917;   -0,318
595,661;27631,161;   -1,447;    0,955
596,240;28148,113;   -0,537;    0,136
596,820;27829,538;    0,372;    1,955
597,400;28013,819;    2,008;    0,773
597,980;28182,664;    2,008;    1,045
598,559;28206,991;    2,735;   -0,227
599,139;27900,556;   -0,174;   -1,227
599,718;27799,737;   -0,174;   -0,409
600,298;28096,113;    0,735;    0,682
600,877;28356,492;    2,917;    1,409
601,457;28605,099;    2,281;    1,136
602,036;28466,442;    0,190;    2,045
602,616;28686,661;    0,644;    1,682
603,195;29012,732;   -0,355;    3,500
603,774;28598,629;   -0,901;    2,045
604,354;28468,876;    0,826;   -0,500
604,933;27956,253;    0,463;    1,864
605,512;28062,400;    3,554;    0,591
606,091;28061,496;   -0,537;    3,773
606,671;28926,434;    0,281;    0,773
607,250;28058,350;    1,644;    3,136
607,829;28287,094;    2,372;    3,227
608,408;28153,004;    1,190;    2,591
608,987;27108,177;    1,281;    3,409
609,566;27489,891;   -1,265;   -2,500
610,145;27535,341;   -1,082;    0,682
610,723;27971,021;    4,372;    6,864
611,302;27244,967;   -0,446;    1,682
611,881;26735,083;    5,008;   11,227
612,460;27589,607;    1,645;    3,955
613,039;28018,665;   -0,082;    2,045
613,617;26709,593;    1,736;    4,773
614,196;26912,093;    1,099;    1,227
614,775;27267,446;    1,009;    2,409
615,353;27199,652;    0,736;    0,864
615,932;26945,539;    0,100;    2,409
616,510;27544,897;    0,554;    0,591
617,089;27104,790;    7,100;   17,591
617,667;26759,997;    2,372;    6,136
618,246;26635,444;   -1,537;    1,318
618,824;26814,062;   -3,355;   -0,955
619,402;26321,793;   -2,900;   -1,773
619,981;26833,387;   -0,173;   -1,045
620,559;26738,782;    0,009;    1,682
621,137;26157,224;   -0,718;    1,864
621,715;26289,723;   -1,173;   -0,682
622,293;26139,644;   -0,537;   -0,773
622,871;26574,227;   -0,718;    0,500
623,450;26176,063;    0,373;   -0,864
624,028;26082,355;    0,191;   -0,955
624,606;25750,442;   -1,718;    1,682
625,183;26103,639;   -1,536;   -1,136
625,761;25684,545;    1,009;    1,136
626,339;26069,154;    1,373;    2,591
626,917;26440,114;   -0,172;   -0,045
627,495;26432,700;   -0,354;    1,318
628,073;25871,593;   -0,263;    2,864
628,650;25590,820;    0,100;    2,136
629,228;25987,445;    0,373;    4,409
629,806;25426,372;    2,282;    1,136
630,383;25630,922;    1,464;   -0,318
630,961;25458,858;    2,555;   -0,955
631,539;25165,885;    2,464;    0,227
632,116;24575,676;   11,373;   15,409
632,694;25178,383;    2,555;    6,500
633,271;25474,131;    0,828;    2,682
633,848;25418,357;    1,828;    2,045
634,426;25435,249;   -1,081;    1,773
635,003;24538,557;    1,101;   -0,409
635,580;24880,726;    1,192;    3,682
636,158;25440,693;    3,737;    1,227
636,735;25399,162;    0,555;   -0,500
637,312;25529,433;   -0,809;   -0,682
637,889;25607,565;   -4,354;   -0,682
638,466;25095,434;   -3,990;   -0,409
639,043;25119,463;    2,101;   -1,136
639,620;25418,338;   -2,262;   -0,955
640,197;25754,983;    1,100;    1,682
640,774;25874,399;   -0,172;    1,136
641,351;26299,816;    0,737;    1,136
641,928;25703,233;   -0,627;    1,409
642,505;25326,923;    0,828;   -0,500
643,082;25421,612;   -1,718;    1,227
643,658;24468,393;   -0,718;    1,500
644,235;25230,991;    1,191;    2,500
644,812;25534,499;    1,918;    0,773
645,388;25304,552;   -0,991;    1,409
645,965;25404,697;   -0,809;    1,682
646,542;25445,841;   -1,445;   -0,227
647,118;25411,439;    1,009;   -0,955
647,695;25725,038;   -0,263;    1,136
648,271;25641,091;   -0,536;    0,500
648,848;25931,690;    0,736;    2,227
649,424;25799,743;    0,827;    1,318
650,000;25548,069;   -0,354;   -1,045
650,577;25394,486;   -0,627;   -0,955
651,153;25843,539;   -1,809;    0,955
651,729;26834,411;    1,191;    0,864
652,305;27417,918;    0,645;    2,773
652,881;32580,335;   -0,082;    1,136
653,458;39405,479;    1,100;    0,227
654,034;42702,351;    0,282;    1,591
654,610;43924,677;    0,554;    0,773
655,186;45186,639;    0,645;    3,045
655,762;44811,329;   -0,991;    0,409
656,338;44755,564;    0,100;    0,136
656,913;45697,617;   -0,082;    0,409
657,489;44928,306;    0,827;   -0,318
658,065;44881,178;   -0,173;   -1,591
658,641;45492,867;   -0,900;   -0,864
659,217;44780,193;   -0,991;    0,409
659,792;44208,519;    0,645;   -0,409
660,368;44355,300;   -2,173;   -0,682
660,944;43737,080;   -2,082;    1,227
661,519;38515,679;   -0,628;    0,409
662,095;32618,823;   -1,719;    0,591
662,670;28534,694;    1,281;   -0,136
663,246;27679,566;    1,009;   -0,409
663,821;27097,619;    0,281;    1,682
664,396;26611,491;    0,009;    1,864
664,972;26879,726;    0,009;   -0,500
665,547;27148,324;    1,372;    0,136
666,122;27262,923;   -1,082;    0,318
666,698;27557,976;   -0,173;    0,318
667,273;26849,029;   -0,173;    0,136
667,848;27644,992;    2,372;    1,500
668,423;27450,318;    2,190;    2,318
668,998;28012,734;    2,827;   -0,682
669,573;28567,151;   -3,264;   -1,500
670,148;28398,750;   -1,446;   -0,682
670,723;28157,076;   -1,810;    0,318
671,298;28592,129;    2,372;    1,045
671,873;28693,819;   -0,082;   -0,136
672,448;28634,872;    0,645;    0,136
673,023;28969,198;   -1,992;   -0,227
673,597;29324,251;    0,827;    2,318
674,172;29123,123;   -0,355;    0,318
674,747;28545,903;    0,372;   -1,045
675,321;28366,774;   -0,628;    3,318
675,896;27954,009;    0,645;    1,045
676,471;28940,517;    2,645;    1,591
677,045;28761,752;   -1,264;    0,682
677,620;28785,169;    0,190;    1,136
678,194;29088,131;   -2,628;    1,136
678,769;28697,548;   -1,083;   -0,318
679,343;28988,692;   -0,628;    1,773
679,917;28869,109;   -1,446;    1,955
680,492;28947,981;    0,826;    3,227
681,066;29082,670;    3,372;    0,409
681,640;29112,087;    1,463;   -0,318
682,214;29914,777;    0,735;    0,500
682,788;29467,194;   -1,356;   -0,773
683,363;29408,701;   -1,810;    1,682
683,937;29101,573;   -1,719;   -0,318
684,511;29847,899;    0,463;   -0,591
685,085;29539,861;   -1,356;    0,318
685,659;29266,460;   -2,538;    0,864
686,232;29547,240;   -0,356;   -0,318
686,806;29259,930;   -0,901;    0,409
687,380;29965,528;   -0,174;    0,591
687,954;30134,491;   -1,174;    1,136
688,528;29804,998;   -0,719;    1,955
689,101;30573,779;   -3,992;    1,045
689,675;30187,014;   -0,356;   -0,136
690,249;29543,431;   -0,719;    0,409
690,822;29848,030;    0,280;    0,318
691,396;29906,992;   -0,265;    1,227
691,969;29379,591;    1,280;    0,136
692,543;29834,098;   -0,447;   -1,955
693,116;29472,879;   -0,265;   -1,409
693,690;29378,296;    0,099;    0,500
694,263;29922,076;   -1,083;    2,955
694,836;30045,311;    1,371;    3,591
695,410;28584,637;   -0,265;    1,773
695,983;29086,145;    0,189;    0,591
696,556;29066,471;   -0,447;   -1,045
697,129;29458,342;   -0,356;    1,409
697,703;29116,577;   -1,629;    1,955
698,276;29050,267;    1,462;   -0,773
698,849;28866,775;    1,280;    1,409
699,422;29239,919;   -1,083;    0,591
699,995;29007,517;    0,007;    0,136
700,568;29519,934;   -0,629;    3,045
701,140;29484,169;   -2,811;    1,682
701,713;29180,495;   -0,174;    2,409
702,286;28978,458;   -0,538;    0,864
702,859;28825,874;   -0,902;   -0,591
703,432;27973,473;    0,825;    0,682
704,004;28513,072;    0,462;    0,318
704,577;28367,307;   -0,629;    0,136
705,150;28934,178;    0,189;    2,500
705,722;28656,959;   -0,356;   -3,227
706,295;28440,466;   -0,175;   -0,591
706,867;28338,338;   -0,175;    1,955
707,440;28566,118;   -1,720;   -0,409
708,012;28905,172;    0,462;    0,591
708,584;28757,588;    2,462;    0,227
709,157;29011,096;    1,825;   -0,591
709,729;28656,695;    2,280;    2,045
710,301;29517,294;    0,734;    0,045
710,874;29508,801;   -1,447;   -0,227
711,446;28399,764;    0,371;    0,864
712,018;28288,908;    0,098;    0,500
712,590;28066,416;   -1,993;    1,682
713,162;28571,832;    0,825;    1,318
713,734;28768,431;    1,825;   -2,045
714,306;28664,757;   -1,902;   -0,409
714,878;27368,628;    0,825;    0,864
715,450;28230,863;    0,643;    0,864
716,022;28485,917;    1,552;    1,318
716,593;28592,424;    0,189;    0,591
717,165;28521,387;   -3,175;   -1,227
717,737;28260,258;    0,280;    0,409
718,309;27894,221;    0,280;   -0,045
718,880;27873,001;   -0,539;   -1,409
719,452;28019,872;   -0,175;   -1,591
720,024;27627,471;    0,734;   -0,591
720,595;28188,252;   -2,902;    0,955
721,167;27819,032;    0,370;   -2,045
721,738;27351,449;   -0,812;   -1,045
722,309;27347,775;   -0,993;   -1,227
722,881;27060,646;   -1,357;    0,773
723,452;27655,427;   -2,630;    2,864
724,023;27854,662;   -0,721;    2,682
724,595;27637,442;    0,007;    0,682
725,166;27360,405;    0,007;   -0,409
725,737;27060,731;    1,734;    0,227
726,308;27148,784;   -0,266;    0,318
726,879;27621,837;   -1,630;    1,227
727,450;27435,072;    0,552;   -0,045
728,021;27349,580;    3,097;    0,682
728,592;27183,088;    0,734;    0,500
729,163;27535,323;    0,643;   -0,136
729,734;27611,649;    0,188;   -0,227
730,305;27957,247;    1,734;    0,136
730,876;28281,573;    0,188;    2,955
731,447;28000,172;    2,188;    2,682
732,017;28100,861;    1,097;    1,864
732,588;27505,551;    0,734;    1,227
733,159;27772,241;    0,643;   -1,045
733,729;27554,476;    0,006;    0,409
734,300;26822,529;    0,915;    0,864
734,870;27220,491;    3,461;    0,591
735,441;27838,999;    0,370;   -0,591
736,011;27623,143;    0,643;   -1,591
736,582;27538,014;   -0,812;    0,045
737,152;27001,704;   -1,721;   -2,045
737,722;27388,848;   -0,267;   -0,682
738,293;27126,538;   -1,358;    1,318
738,863;27008,136;    2,461;    2,318
739,433;26855,644;    5,279;    0,318
740,003;27428,152;   -0,994;   -0,682
740,573;26858,842;    2,097;   -1,591
741,143;26745,258;   -1,085;    0,318
741,713;27595,857;    1,188;   -0,500
742,283;27343,092;    0,915;    1,591
742,853;27087,600;    1,915;    1,591
743,423;26531,744;    1,733;    0,045
743,993;26656,615;   -0,358;    1,500
744,563;26068,032;    0,097;   -0,864
745,133;26021,904;   -0,812;   -0,864
745,702;26710,957;   -0,267;    1,773
746,272;25927,283;   -0,176;    0,591
746,842;25697,245;   -1,358;   -0,591
747,411;26083,298;   -0,267;   -0,318
747,981;26261,443;    0,097;    0,500
748,551;26287,859;    2,278;   -1,045
749,120;26180,640;    0,642;   -0,227
749,690;26521,511;   -0,631;    2,409
750,259;26866,201;    1,369;    2,955
750,828;26803,436;    1,551;   -1,955
751,398;27045,125;    1,278;   -0,045
751,967;26610,906;    2,187;    0,409
752,536;26792,596;   -0,813;   -0,227
753,105;27179,103;    0,096;    0,227
753,675;26994,157;    0,096;    1,773
754,244;26920,210;   -0,904;    3,591
754,813;26991,263;    0,551;    1,227
755,382;26517,316;    0,460;    0,955
755,951;27109,551;    1,551;    3,682
756,520;26638,332;   -0,085;    1,864
757,089;27232,112;    0,278;    0,500
757,658;27386,620;    1,733;    1,227
758,227;27354,673;    1,096;    0,318
758,795;27652,999;    1,187;    1,136
759,364;27887,871;   -0,086;   -0,591
759,933;26893,015;   -1,176;   -0,045
760,501;26437,886;    0,733;   -1,318
761,070;26891,212;   -2,813;   -1,409
761,639;27544,538;   -1,904;    1,318
762,207;26954,500;    1,551;   -0,955
762,776;26879,917;    0,369;    0,864
763,344;26812,425;   -0,995;    0,591
763,913;25888,205;   -0,722;    1,409
764,481;26672,986;    1,005;   -0,136
765,049;26436,039;   -1,358;    1,409
765,618;26295,638;   -0,086;    0,318
766,186;26368,509;    0,278;    0,136
766,754;26570,744;    0,005;    1,864
767,322;25599,434;   -1,995;    0,409
767,890;25575,305;   -0,722;   -1,773
768,459;26040,904;   -2,177;   -0,318
769,027;26228,684;    1,641;    3,409
769,595;25178,738;    3,278;    2,591
770,163;25629,882;    3,823;    2,955
770,730;25355,480;    0,732;   -0,136
771,298;25170,988;    0,187;   -1,409
771,866;25246,223;   -1,541;    4,955
772,434;25588,186;   -0,631;   -1,864
773,002;25766,875;    0,005;    0,682
773,569;25401,928;    0,914;    1,682
774,137;25226,072;   -0,268;   -0,045
774,705;26019,853;    0,278;   -0,136
775,272;25526,724;    0,641;    0,682
775,840;25259,050;   -0,177;    2,682
776,407;24853,831;    0,277;    1,955
776,975;24455,611;   -0,632;    0,318
777,542;25417,210;   -1,086;   -0,045
778,110;25281,900;   -1,268;   -0,045
778,677;24955,407;   -2,359;   -0,864
779,244;24718,824;    2,186;    1,045
779,812;24804,241;    1,823;    0,864
780,379;24638,658;    0,005;    1,136
780,946;24905,620;    1,005;   -0,773
781,513;25225,219;   -1,450;    0,318
782,080;24601,545;   -0,086;    2,864
782,647;25391,053;   -0,268;    3,045
783,214;24960,106;   -0,177;    3,864
783,781;24558,886;   -0,723;   -0,682
784,348;24406,121;   -0,632;    1,500
784,915;24842,720;   -3,177;    0,318
785,482;24622,319;    1,368;    2,591
786,049;25117,645;    0,186;   -0,591
786,615;25227,062;    0,277;   -0,955
787,182;24888,387;    0,186;   -0,682
787,749;24579,986;   -2,814;    1,409
788,315;23960,585;   -1,632;   -0,409
788,882;24245,365;    1,550;   -1,227
789,448;24931,873;    1,732;   -0,955
790,015;24959,199;    1,095;    3,227
790,581;24544,252;    1,459;    0,227
791,148;24442,487;    0,641;    1,045
791,714;24650,631;   -0,541;    3,136
792,280;24304,139;    0,186;    1,591
792,847;23877,465;    0,550;    2,500
793,413;24391,609;   -0,269;   -0,318
793,979;23990,753;    3,459;   -1,318
794,545;24090,716;    4,459;    2,682
795,111;23429,860;    2,186;    1,318
795,678;23621,095;    0,731;   -1,682
796,244;23277,875;    3,368;    0,136
796,810;23807,110;    1,731;    0,773
797,375;23562,345;    0,549;   -2,136
797,941;23594,671;   -0,541;    0,591
798,507;23717,634;   -0,451;   -0,955
799,073;23236,141;   -0,360;    0,591
799,639;23323,013;   -2,632;    3,136
800,205;23291,793;    0,095;    2,682
800,770;22878,574;    0,640;    1,773
801,336;23000,718;    1,368;   -0,955
801,901;22719,680;    4,549;    3,136
802,467;23253,643;   -0,542;    2,045
803,033;22561,605;   -0,087;    0,864
803,598;22813,294;    1,913;   -1,045
804,163;22779,075;    1,095;   -0,318
804,729;22784,674;   -0,178;    1,136
805,294;23203,272;    0,822;    2,227
805,859;23011,871;    0,731;   -0,409
806,425;22492,561;    1,186;    2,682
806,990;22142,341;    2,186;    4,318
807,555;22595,576;   -1,451;    2,591
808,120;22536,175;    0,822;   -0,409
808,685;22544,773;    0,185;   -2,500
809,250;22035,645;    0,004;   -0,500
809,815;22308,062;    1,913;    0,682
810,380;22899,115;   -0,269;    1,591
810,945;23423,623;   -1,087;    2,045
811,510;22568,858;    2,094;    1,591
812,075;22325,093;   -0,633;   -1,409
812,640;22363,237;    2,003;    1,409
813,204;22397,927;    0,822;   -0,227
813,769;22865,616;    2,094;   -0,045
814,334;22299,215;    0,458;    0,864
814,898;22356,723;    0,367;    0,591
815,463;22187,685;    1,276;   -0,773
816,027;22181,556;   -0,724;   -2,318
816,592;22210,609;    0,640;   -2,045
817,156;21839,845;    2,094;    1,136
817,721;21676,898;    4,276;    2,318
818,285;21597,133;    2,912;    1,500
818,849;22268,368;   -1,451;    1,682
819,414;22160,239;   -0,269;    2,955
819,978;21696,838;   -1,269;    1,773
820,542;22316,437;    2,003;    0,500
821,106;21991,581;   -0,815;    0,682
821,670;22117,543;   -0,815;    2,591
822,234;21813,414;   -0,270;    1,409
822,798;21240,740;    0,003;    0,500
823,362;21220,612;   -0,633;    4,227
823,926;20532,574;    0,094;    1,136
824,490;20791,082;   -0,997;   -0,682
825,054;21205,590;   -0,088;   -1,136
825,618;20803,188;   -1,542;   -1,500
826,181;20763,878;    0,458;   -1,318
826,745;20733,749;    1,367;   -1,045
827,309;21024,893;    1,185;    1,318
827,872;20404,947;    1,367;    0,955
828,436;21393,454;    1,185;   -0,773
828,999;21435,144;   -0,997;    1,227
829,563;20268,470;   -0,179;    1,136
830,126;20063,341;   -0,179;   -0,591
830,690;20073,940;   -1,997;    2,864
831,253;19622,539;   -0,543;    2,227
831,816;19778,683;   -1,906;    0,500
832,380;19673,372;    0,185;    0,864
832,943;19893,698;   -1,361;   -0,500
833,506;19381,570;    2,639;   -1,227
834,069;20174,441;    3,912;   -0,955
834,632;20220,767;    1,730;    1,318
835,195;20150,457;    1,003;    0,955
835,758;19330,510;   -0,997;    1,955
836,321;19216,836;    0,730;   -1,045
836,884;19261,980;   -0,725;   -0,955
837,447;19290,124;   -2,816;    1,773
838,010;19596,177;    0,366;    3,227
838,573;19865,412;   -1,179;    0,773
839,135;19803,193;   -1,361;   -0,955
839,698;19306,792;    1,275;    0,409
840,261;18812,936;    1,003;   -0,227
840,823;18640,625;   -0,543;    0,864
841,386;18917,315;   -0,452;   -2,409
841,948;18816,095;   -1,361;    1,773
842,511;18527,694;    0,912;    1,682
843,073;18679,474;    1,912;    0,227
843,636;18508,255;   -0,361;   -0,227
844,198;18464,035;    0,911;    0,591
844,760;18606,452;    1,093;    1,955
845,322;18194,778;    0,548;    1,136
845,885;18619,650;    0,730;    0,591
846,447;19080,067;   -1,998;    0,227
847,009;18712,665;    1,911;   -0,682
847,571;19038,809;    0,820;   -2,045
848,133;19091,044;   -1,089;   -1,864
848,695;18902,461;   -0,543;    1,409
849,257;18474,969;   -1,089;   -1,682
849,819;18645,022;   -0,998;   -0,409
850,381;18668,621;   -0,725;   -0,864
850,942;19043,674;    1,093;   -0,591
851,504;19019,273;    1,184;    0,227
852,066;19023,871;    1,275;   -1,591
852,628;18571,470;   -0,180;    1,955
853,189;18106,160;    1,638;    2,682
853,751;18224,667;   -0,907;    1,409
854,312;17998,721;   -0,453;   -1,682
854,874;18491,319;   -2,089;   -0,773
855,435;19042,827;   -0,907;   -1,682
855,997;19198,699;   -1,816;   -0,136
856,558;18541,206;    0,366;    1,773
857,119;18596,350;    0,820;    2,864
857,681;18260,767;    0,002;    0,318
858,242;18333,457;    1,911;   -2,136
858,803;18752,237;    0,456;   -0,773
859,364;19300,836;    0,184;   -4,773
859,925;18654,526;   -2,453;   -0,955
860,486;18550,761;   -0,453;   -0,955
861,047;18269,996;   -0,544;   -1,227
861,608;18087,231;   -1,089;   -0,773
862,169;18203,920;    0,638;   -0,045
862,730;18028,610;    0,456;    1,409
863,291;18230,663;   -0,635;   -0,500
863,852;18635,262;   -0,635;    1,955
864,412;18047,315;   -0,271;   -0,864
864,973;16642,732;   -0,089;    0,500
865,534;16549,058;   -1,726;    0,227
866,094;18009,657;    1,820;    0,227
866,655;17678,619;    1,274;    3,318
867,215;17913,308;    0,274;    0,136
867,776;17782,271;    0,547;   -0,136
868,336;17886,597;   -1,453;    0,136
868,897;17400,741;    2,638;    1,682
869,457;17129,885;    1,365;    0,318
870,017;17339,574;    0,547;   -1,227
870,578;17842,900;   -0,817;    0,773
871,138;17564,226;   -2,089;   -0,955
871,698;17093,371;   -0,817;   -1,318
872,258;16969,606;   -0,453;   -2,864
872,818;17383,295;    2,729;    0,045
873,378;17302,167;    0,638;    1,045
873,938;16819,583;    0,547;    0,500
874,498;17166,909;    0,274;   -1,955
875,058;17070,144;    2,183;    1,773
875,618;16907,834;    1,910;   -2,682
876,177;16831,524;    1,274;    0,136
876,737;16457,577;   -0,090;    1,955
877,297;16500,357;    0,183;    1,955
877,856;16467,410;   -0,362;    0,318
878,416;16449,827;    1,183;   -0,136
878,976;16700,335;   -1,817;    0,409
879,535;16842,116;    0,092;    3,136
880,095;16561,169;   -0,544;    0,045
880,654;16711,040;   -1,090;    1,318
881,213;16806,457;    2,456;    1,500
881,773;16433,328;    2,637;    2,682
882,332;16828,654;    3,365;    5,136
882,891;16656,708;    3,092;    2,136
883,451;17128,488;   -1,272;    1,682
884,010;16558,269;   -2,908;   -0,409
884,569;16617,958;   -0,999;   -0,045
885,128;16764,466;    2,819;   -1,864
885,687;16908,156;    4,455;    0,682
886,246;16606,300;    1,455;    2,136
886,805;16313,717;    2,455;    2,045
887,364;16625,315;   -0,999;   -0,500
887,922;16985,368;   -1,181;    0,045
888,481;16497,331;   -1,545;    0,591
889,040;16784,839;    1,183;    2,136
889,599;17475,346;    2,455;    1,409
890,157;17535,672;    1,455;    2,409
890,716;17179,089;   -0,090;    0,227
891,274;16992,142;    0,092;   -1,136
891,833;17482,105;    1,546;    0,864
892,391;17344,703;   -0,454;    0,500
892,950;17399,938;    1,819;   -0,773
893,508;17756,810;    0,455;   -0,409
894,067;17036,136;    0,637;    0,136
894,625;16950,371;   -0,636;   -1,500
895,183;17186,879;   -0,363;   -0,682
895,741;17124,659;    1,728;   -1,773
896,299;16949,530;   -0,545;   -2,409
896,858;17123,038;    0,819;   -1,591
897,416;17247,546;    2,728;   -1,318
897,974;16953,508;    1,819;    0,318
898,532;17163,289;    6,091;    2,682
899,089;17044,160;    2,091;   -0,682
899,647;17092,395;   -1,454;    1,318
900,205;16822,812;    1,182;    1,045
900,763;17011,229;   -0,454;    0,227
901,321;17002,191;    2,364;   -1,409
901,878;16473,244;   -1,000;   -0,773
902,436;16350,207;   -1,363;    1,318
902,994;16720,351;    4,728;    3,682
903,551;16144,495;    0,728;    0,409
904,109;16530,821;    0,182;   -1,409
904,666;16082,692;    2,455;    1,045
905,224;15948,746;    0,182;   -0,409
905,781;15675,617;    0,727;   -0,318
906,338;15730,307;   -1,363;    1,045
906,895;15695,905;    0,637;    2,045
907,453;15638,322;    1,727;    1,136
908,010;15668,193;   -0,909;    0,409
908,567;15327,156;    1,273;    0,591
909,124;14853,391;    0,364;   -1,500
909,681;14907,990;   -2,909;    0,682
910,238;15026,588;    0,636;   -1,318
910,795;15382,551;   -0,273;   -1,136
911,352;14972,005;   -2,909;   -2,682
911,909;14391,187;   -1,364;   -0,864
912,466;14920,551;   -3,182;    1,500
913,022;14476,732;   -1,636;    0,500
913,579;14805,732;   -0,909;    2,045
914,136;14485,187;    1,636;    0,955
914,692;14821,914;    0,091;   -1,227
915,249;14441,732;    1,455;    0,409
915,806;14659,005;    0,182;    1,955
916,362;14430,551;    1,909;    1,864
916,918;14007,823;    2,000;    1,045
917,475;13964,914;   -1,182;    0,955
918,031;14013,823;    3,364;   -0,045
918,587;13489,096;   -0,909;   -0,318
919,144;13703,551;   -2,273;    0,227
919,700;14002,732;    1,727;    0,773
920,256;13584,732;    0,727;    0,045
920,812;13211,096;   -0,727;   -1,045
921,368;13238,641;   -1,727;   -1,045
921,924;12852,914;    0,182;   -0,136
922,480;12442,914;   -0,545;    1,227
923,036;13040,914;    1,273;    1,955
923,592;12974,641;    0,455;    0,318
924,148;12893,369;    0,455;   -0,955
924,704;12235,460;   -1,364;   -0,409
925,259;12482,005;   -0,273;    0,591
925,815;12277,914;    1,455;    0,500
926,371;11754,278;    2,909;    1,409
926,926;11679,369;    2,091;    0,591
927,482;11315,914;   -1,364;    0,773
928,037;11197,914;    0,909;    2,045
928,593;11498,278;    1,636;    1,045
929,148;11293,369;   -1,818;   -1,500
929,704;10801,641;   -1,455;   -0,500
930,259;11041,823;    0,091;   -0,136
930,814;10123,369;   -0,818;    1,955
931,369; 9797,732;    1,091;   -0,773
931,925; 9629,732;   -0,091;    0,136
932,480; 9580,096;   -2,818;   -2,591
933,035; 9459,005;    0,545;   -0,318
933,590; 9250,551;    0,364;   -1,773
934,145; 8849,187;   -1,364;   -0,318
934,700; 9205,823;    0,455;   -0,591
935,255; 8994,278;   -0,091;    0,045
935,809; 8283,005;    3,182;    0,864
936,364; 7409,732;   -0,455;   -0,136
936,919; 7369,369;    0,455;   -1,773
937,474; 7264,823;    1,455;    0,136
938,028; 6994,641;   -1,636;    1,136
938,583; 6519,460;    1,818;    4,682
939,138; 6772,460;    2,091;    2,136
939,692; 6195,823;    1,636;   -1,136
940,247; 5945,551;   -0,727;   -1,045
940,801; 5511,278;   -0,636;    0,227
941,355; 5360,005;   -0,364;    2,591
941,910; 5012,914;   -0,273;   -2,136
942,464; 5144,005;   -0,818;   -0,318
943,018; 4926,278;    1,000;   -0,227
943,572; 4876,187;    2,545;   -0,682
944,126; 4302,187;    0,091;   -0,409
944,681; 4218,369;    3,091;    0,227
945,235; 4209,732;    1,000;   -0,591
945,789; 4141,369;    0,364;   -1,864
946,342; 4254,096;    0,455;   -0,591
946,896; 4048,641;   -2,273;    0,955
947,450; 3784,460;    1,545;   -0,227
948,004; 4018,732;    1,727;   -0,045
948,558; 4004,641;    0,273;   -0,864
949,111; 3918,914;   -0,273;   -0,318
949,665; 3946,278;    1,636;   -0,682
950,219; 3810,369;   -0,091;   -1,045
950,772; 3914,460;   -1,909;    1,864
951,326; 3812,641;    0,545;   -0,955
951,879; 3924,005;    0,727;   -2,318
952,433; 3944,914;    0,000;    2,227
952,986; 3774,187;    2,909;    0,682
953,539; 3727,460;   -0,273;    0,591
954,093; 3667,732;    0,545;   -1,318
954,646; 3813,005;    0,909;    1,318
955,199; 3611,732;    0,000;   -0,500
955,752; 3501,096;   -0,455;    1,773
956,305; 3470,823;   -0,091;    2,955
956,858; 3635,096;    0,818;   -0,318
957,411; 3797,005;   -0,545;    2,136
957,964; 3632,460;    1,364;    2,136
958,517; 3616,369;   -1,545;    3,136
959,070; 3431,187;   -0,455;    1,955
959,623; 3542,187;    1,091;    1,500
960,176; 3305,187;    1,727;    2,045
960,728; 3283,278;   -2,727;    0,773
961,281; 3345,187;    0,545;    0,500
961,834; 3371,460;   -0,909;    0,864
962,386; 3281,551;    1,727;    1,045
962,939; 3209,369;    0,364;   -0,318
963,491; 3346,187;    0,455;    1,136
964,043; 3222,187;    1,182;    2,409
964,596; 3366,823;   -1,000;    2,227
965,148; 3195,460;   -1,000;    1,773
965,700; 3095,641;    1,091;   -0,227
966,253; 3249,096;   -0,636;    0,318
966,805; 3108,641;   -2,273;    0,773
967,357; 3144,278;    1,091;   -1,500
967,909; 3100,914;    0,455;   -1,227
968,461; 3213,005;    0,545;    3,136
969,013; 3137,278;   -0,182;   -0,864
969,565; 3220,823;   -0,455;   -1,136
970,117; 3306,096;   -0,364;    1,045
970,669; 3135,369;    0,182;   -0,136
971,220; 2992,732;   -0,455;   -1,500
971,772; 2917,187;   -0,636;   -0,318
972,324; 3037,369;    0,091;   -0,500
972,876; 2975,823;    0,818;   -0,045
973,427; 3133,732;    1,909;   -1,045
973,979; 3096,369;   -0,727;   -2,500
974,530; 3133,551;    1,818;    1,318
975,082; 3132,460;   -0,545;    1,682
975,633; 3037,187;    1,091;    1,682
976,184; 3160,551;    0,909;    0,773
976,736; 2957,641;    0,091;    0,227
977,287; 2776,369;   -0,909;   -0,500
977,838; 2950,187;    0,909;   -0,318
978,389; 3013,005;   -1,000;   -0,500
978,940; 2877,914;    0,545;   -0,409
979,491; 2911,823;    0,091;   -0,500
980,042; 2877,369;    0,182;    3,045
980,593; 2929,369;   -2,545;    0,227
981,144; 2952,641;    2,545;   -0,500
981,695; 2921,641;    1,455;    1,500
982,246; 2878,551;   -0,273;    1,045
982,797; 3050,096;   -1,727;    0,682
983,347; 3166,551;    0,364;    0,591
983,898; 3325,823;    3,091;    0,409
984,449; 3145,732;    2,182;    0,773
984,999; 3060,187;    1,455;   -1,136
985,550; 2826,641;    0,182;   -0,318
986,100; 2851,732;   -0,455;   -0,318
986,651; 2883,641;   -0,818;    0,045
987,201; 2855,005;   -1,000;   -0,591
987,751; 2937,641;    0,818;    2,864
988,302; 2949,187;    2,636;    1,500
988,852; 2956,823;    0,455;   -1,136
989,402; 3009,460;    0,091;    0,682
989,952; 2944,005;   -2,182;    0,864
990,502; 3031,551;   -0,091;    0,682
991,052; 2984,914;   -0,727;    0,045
991,602; 2849,641;   -2,909;    1,318
992,152; 2851,551;    0,455;    0,682
992,702; 2842,460;    1,364;   -0,045
993,252; 2774,914;   -3,000;   -0,500
993,802; 2864,460;   -0,273;    1,318
994,352; 3071,369;   -1,545;    1,136
994,901; 3153,005;   -0,182;    3,227
995,451; 3070,823;   -0,182;    0,318
996,000; 3170,914;    1,636;    0,318
996,550; 2886,005;    2,273;    0,227
997,100; 2883,187;    1,273;   -0,045
997,649; 3175,096;    2,182;    0,955
998,198; 2807,914;    1,727;   -1,500
998,748; 3011,096;    1,091;   -2,318
999,297; 2892,005;   -0,818;   -0,409
999,846; 2946,551;    1,000;   -0,773
1000,395; 3000,823;   -0,818;    0,500
1000,945; 2981,823;    1,818;   -0,773
1001,494; 3075,551;    2,364;    0,682
1002,043; 3049,914;    4,636;    0,864
1002,592; 2871,460;   -1,091;    1,955
1003,141; 3033,732;   -0,455;   -0,682
1003,690; 2890,914;    1,727;    0,500
1004,238; 2963,096;    1,455;   -0,045
1004,787; 2610,460;    1,364;    1,227
1005,336; 2858,551;    0,364;    0,682
1005,885; 2987,460;    1,364;   -2,773
1006,433; 3122,823;    0,545;    0,955
1006,982; 3196,369;    0,455;    1,682
1007,531; 3088,005;   -1,818;   -0,227
1008,079; 3028,096;   -2,273;    0,500
1008,627; 3170,914;   -1,455;    0,409
1009,176; 2894,732;    0,000;   -1,955
1009,724; 2936,732;    1,091;    0,864
1010,273; 3008,551;    1,273;    0,500
1010,821; 3104,096;    0,091;    1,409
1011,369; 2852,641;   -1,364;    1,318
1011,917; 2843,460;   -1,364;   -0,591
1012,465; 3104,187;    1,273;   -1,591
1013,013; 3210,641;    2,091;   -1,682
1013,561; 3104,460;    0,455;   -0,773
1014,109; 3168,005;   -1,909;    1,682
1014,657; 3045,369;    0,364;    0,591
1015,205; 3147,278;    1,636;   -0,955
1015,753; 3169,460;   -0,545;   -1,409
1016,301; 3208,914;   -2,636;    3,045
1016,848; 3220,369;   -1,273;    0,409
1017,396; 3266,914;    2,545;    0,045
1017,944; 3398,732;    1,182;    1,864
1018,491; 3150,823;    0,273;    1,409
1019,039; 3297,278;    0,455;    0,591
1019,586; 3203,096;   -1,364;    1,682
1020,134; 3307,551;    0,455;    1,500
1020,681; 3341,641;    0,182;   -1,136
1021,228; 3337,551;    2,909;   -2,227
1021,776; 3165,005;    1,182;   -1,136
1022,323; 3383,096;    0,455;    0,773
1022,870; 3323,641;   -1,000;   -0,045
1023,417; 3208,187;    2,636;    1,864
1023,964; 3364,278;    2,636;    1,227
1024,511; 3194,460;    1,000;    0,773
1025,058; 2999,278;    3,182;   -0,045
1025,605; 3042,732;   -2,273;    3,136
1026,152; 3274,551;    1,727;   -0,591
1026,699; 3016,823;    1,818;    1,318
1027,245; 3164,187;   -0,091;    0,318
1027,792; 3356,460;   -1,000;    1,409
1028,339; 3249,914;    2,364;   -0,045
1028,885; 3102,551;    1,000;   -0,227
1029,432; 3036,914;   -0,091;    0,227
1029,978; 3112,460;   -1,000;   -1,591
1030,525; 3020,369;    1,000;    0,409
1031,071; 3237,551;   -1,364;    1,136
1031,618; 3368,823;    0,364;    1,682
1032,164; 3128,096;   -0,091;    3,045
1032,710; 3176,460;    1,636;   -1,500
1033,256; 3082,278;   -0,636;   -0,136
1033,803; 3074,460;   -0,545;    1,500
1034,349; 2779,551;   -1,364;    0,136
1034,895; 2943,641;    0,000;   -0,318
1035,441; 2939,551;   -0,818;    0,318
1035,987; 2930,460;   -2,364;   -0,682
1036,533; 2922,823;   -1,455;   -0,955
1037,078; 3145,823;    1,455;    1,682
1037,624; 2933,096;    2,455;   -0,955
1038,170; 2964,096;    0,455;   -0,318
1038,716; 2901,460;    1,636;   -0,409
1039,261; 2782,823;   -2,273;   -0,773
1039,807; 2738,005;   -0,091;    3,409
1040,352; 2807,732;   -1,909;   -0,318
1040,898; 2840,823;   -1,545;   -0,682
1041,443; 2756,641;   -1,455;   -2,591
1041,989; 2806,914;    1,091;    1,591
1042,534; 2662,641;   -0,364;    2,591
1043,079; 2763,187;    2,909;    0,955
1043,625; 2583,551;    1,818;    0,500
1044,170; 2621,096;   -1,364;    1,045
1044,715; 2875,823;    2,455;    0,955
1045,260; 2682,369;    2,182;   -0,955
1045,805; 2723,551;    1,182;   -0,591
1046,350; 2644,187;    1,364;   -0,409
1046,895; 2645,460;    2,909;    1,591
1047,440; 2591,096;    5,364;    0,409
1047,985; 2475,823;    2,818;   -0,955
1048,530; 2398,641;    1,545;    1,227
1049,074; 2466,005;    0,000;    0,318
1049,619; 2437,187;   -1,364;    1,955
1050,164; 2261,278;    0,455;    0,227
1050,708; 2282,641;   -0,455;    0,045
1051,253; 2662,823;    1,273;   -2,227
1051,797; 2366,914;    0,818;   -1,318
1052,342; 2346,641;   -1,182;    1,045
1052,886; 2374,187;    0,364;   -1,409
1053,430; 2242,732;   -1,364;    0,136
1053,975; 2253,369;   -0,818;   -0,318
1054,519; 2225,460;   -0,727;    3,227
1055,063; 2254,823;    0,909;    1,318
1055,607; 2155,278;   -0,182;    0,227
1056,151; 2164,551;    2,909;    1,682
1056,695; 2072,914;    2,273;   -1,136
1057,239; 2137,732;   -1,727;   -0,682
1057,783; 2164,823;    0,818;   -1,500
1058,327; 2105,732;    0,000;    1,409
1058,871; 2346,641;   -0,545;    1,318
1059,415; 2053,551;   -0,818;   -0,045
1059,958; 2327,278;    1,455;    2,591
1060,502; 2046,005;   -1,000;   -0,773
1061,046; 1939,460;    0,364;   -0,955
1061,589; 1908,823;   -3,000;   -1,136
1062,133; 1796,914;   -1,273;    1,864
1062,676; 1742,460;    1,182;    0,864
1063,220; 1747,732;    1,091;    0,500
1063,763; 1774,460;    0,909;    1,136
1064,306; 1877,914;   -0,909;    1,864
1064,849; 1734,641;   -0,909;    0,591
1065,393; 1731,551;    2,000;   -1,500
1065,936; 1848,369;    0,182;   -0,409
1066,479; 1737,096;   -1,455;    1,318
1067,022; 1765,551;   -0,273;   -0,227
1067,565; 1657,460;   -0,091;   -1,318
1068,108; 1683,641;    0,727;   -0,591
1068,651; 1648,551;   -0,636;    1,409
1069,194; 1579,369;   -0,455;   -1,682
1069,736; 1586,005;   -1,273;    0,955
1070,279; 1568,641;   -1,364;   -0,500
1070,822; 1635,187;   -2,000;   -0,318
1071,364; 1726,551;   -0,364;    1,318
1071,907; 1532,278;   -0,727;    3,227
1072,450; 1414,187;    0,000;   -0,045
1072,992; 1432,278;   -0,273;    3,136
1073,535; 1582,005;    2,091;    2,136
1074,077; 1368,187;   -0,727;    2,045
1074,619; 1336,823;   -1,364;    0,591
1075,161; 1370,823;   -1,091;    1,500
1075,704; 1552,096;    1,545;    1,227
1076,246; 1340,914;   -0,182;    0,682
1076,788; 1262,641;   -0,364;    1,773
1077,330; 1338,641;    1,273;    2,136
1077,872; 1317,460;    0,909;    0,955
1078,414; 1539,460;    2,727;    0,773
1078,956; 1270,369;    1,273;   -0,227
1079,498; 1540,096;    1,636;    0,318
1080,040; 1251,641;    1,909;   -1,318
1080,581; 1190,096;    1,636;   -0,318
1081,123; 1103,641;    0,091;   -0,773
1081,665; 1150,823;   -1,182;   -0,955
1082,206; 1460,278;    1,364;   -0,500
1082,748; 1317,460;    0,727;    2,045
1083,289; 1187,823;   -2,000;    1,318
1083,831; 1094,551;   -0,545;    0,227
1084,372; 1142,096;    0,000;    0,591
1084,913; 1146,096;    1,091;    0,864
1085,455; 1108,823;   -1,909;   -2,045
1085,996; 1088,278;   -2,273;    0,136
1086,537; 1115,096;   -0,091;    0,864
1087,078; 1132,641;   -0,909;   -2,136
1087,619; 1182,914;   -1,273;    0,227
1088,160; 1084,096;    0,000;    1,318
1088,701; 1071,369;   -1,091;    0,682
1089,242; 1008,369;    1,364;   -2,227
1089,783; 1119,823;   -0,273;    1,409
1090,324; 1093,369;    0,455;    0,682
1090,865;  967,005;    2,727;   -0,409
1091,405;  915,187;    0,727;    2,227
1091,946;  945,914;    0,182;   -0,955
1092,487;  861,641;    0,818;   -1,409
1093,027; 1056,278;   -1,364;   -1,500
1093,568;  906,823;   -0,364;    1,227
1094,108; 1012,823;    0,273;    1,773
1094,649;  948,187;   -1,182;    0,136
1095,189;  886,369;   -0,636;   -0,682
1095,729;  826,641;   -0,091;    0,955
1096,269;  823,641;    0,727;   -0,955
1096,810; 1166,551;   -1,364;    0,500
1097,350;  994,005;    1,364;   -0,773
1097,890;  884,732;    0,364;    1,227
1098,430; 1145,914;    2,364;    2,864
1098,970; 1011,914;    2,182;    1,682
1099,510;  864,551;    0,545;   -2,318
1100,050;  786,823;    1,000;   -1,591
1100,589;  754,823;   -0,727;   -0,318
1101,129;  889,641;    0,818;   -0,955
1101,669; 1050,005;    1,727;    2,136
1102,209;  866,823;   -0,091;    2,227
1102,748;  824,732;    0,000;    0,955
1103,288;  811,732;    1,273;   -1,227
1103,827;  847,187;    3,091;   -2,227
1104,367;  716,823;   -0,091;   -2,409
1104,906;  678,005;    1,364;   -1,136
1105,445;  756,641;    0,636;   -1,136
1105,985;  696,732;   -0,727;    1,500
1106,524;  751,278;   -1,727;   -0,682
1107,063;  724,187;   -2,727;    1,409
1107,602;  692,914;   -1,909;   -1,500
1108,141;  612,460;   -1,909;    1,500
1108,680;  726,005;   -3,455;   -0,591
1109,219;  662,096;   -0,909;   -0,500
1109,758;  659,187;    0,455;    0,682
1110,297;  632,641;    1,000;   -0,682
1110,836;  571,369;   -0,727;    0,955
1111,375;  747,823;   -2,545;    0,409
1111,913;  768,096;   -1,000;    0,773
1112,452;  686,551;   -0,273;    0,136
1112,991;  563,096;    1,091;    1,955
1113,529;  528,369;   -0,818;   -0,045
1114,068;  596,551;   -0,273;    2,955
1114,606;  499,278;   -0,364;   -0,955
1115,144;  670,732;   -1,273;    1,045
1115,683;  607,278;   -0,727;    0,318
1116,221;  654,914;   -0,455;   -0,864
1116,759;  562,823;    0,636;   -0,864
1117,297;  771,187;    0,000;    1,864
1117,836;  568,732;   -2,182;   -1,227
1118,374;  575,914;    0,182;   -0,682
1118,912;  519,641;    0,909;    2,682
1119,450;  506,096;    1,000;    0,864
1119,988;  567,823;    1,545;    2,136
1120,525; 1022,460;    5,091;    3,318
1121,063;  723,005;    1,182;    1,864
1121,601;  529,096;   -0,909;   -1,227
1122,139;  487,732;   -0,727;   -2,045
1122,676;  686,823;   -0,727;    2,773
1123,214;  601,460;   -1,182;    4,409
1123,751;  415,005;    1,727;    2,227
1124,289;  551,641;   -0,091;   -0,409
1124,826;  413,278;    1,727;    0,227
1125,364;  335,823;    1,727;   -0,955
1125,901;  538,732;    1,182;    1,227
1126,438;  653,460;    0,818;    0,955
1126,975;  370,460;   -0,727;   -0,773
1127,513;  440,914;    0,273;    2,136
1128,050;  340,187;    1,636;   -0,682
1128,587;  449,096;    2,000;   -0,227
1129,124;  495,278;    0,091;    1,318
1129,661;  350,278;    0,273;    0,227
1130,198;  532,460;    1,636;    0,773
1130,734;  469,641;    0,182;    1,409
1131,271;  332,823;   -0,909;    0,864
1131,808;  508,278;    2,909;    3,045
1132,345;  372,096;    1,545;    0,318
1132,881;  232,551;   -1,545;   -1,864
1133,418;  387,096;    0,727;   -1,136
1133,954;  318,096;    2,455;   -2,682
1134,491;  400,460;    1,364;   -0,773
1135,027;  293,914;    2,364;    0,864
1135,564;  384,005;    0,273;    2,955
1136,100;  370,460;    0,364;    2,136
1136,636;  253,005;   -1,273;   -1,045
1137,172;  359,460;    0,000;   -1,045
1137,708;  273,005;   -1,364;   -1,045
1138,245;  296,278;    1,273;   -1,227
1138,781;  241,369;    1,091;   -3,318
1139,317;  307,823;    1,273;   -1,409
1139,852;  295,278;    3,091;    0,136
1140,388;  421,005;   -1,182;   -0,409
1140,924;  297,914;   -1,091;   -2,227
1141,460;  223,732;   -1,636;    0,136
1141,996;  160,823;   -1,364;    2,682
1142,531;  220,732;    1,364;    3,318
1143,067;  437,187;    1,182;    1,045
1143,602;  499,369;   -0,091;   -0,318
1144,138;  339,187;   -2,636;    1,045
1144,673;  188,732;   -1,455;    1,409
1145,209;  263,369;   -1,909;   -0,318
1145,744;  187,460;   -0,727;    0,864
1146,279;  326,914;    1,818;   -0,136
1146,815;  233,641;    1,545;   -2,682
1147,350;  284,278;   -1,364;    0,045
1147,885;  191,460;   -0,818;   -1,318
1148,420;  192,460;   -2,273;    0,773
1148,955;  166,641;   -1,727;    1,864
1149,490;  200,460;   -0,909;   -1,591
1150,025;  181,460;    0,455;   -1,773
1150,560;  295,641;    1,091;   -0,955
1151,094;  261,732;    1,455;   -0,591
1151,629;  262,641;    1,636;    0,864
1152,164;  187,823;    1,364;    1,318
1152,698;  145,732;   -0,182;   -0,136
1153,233;  103,914;    0,091;   -0,682
1153,767;  157,641;   -3,000;   -2,318
1154,302;  204,914;   -1,455;    1,773
1154,836;  206,914;   -0,455;   -2,136
1155,371;  254,641;   -1,364;    3,682
1155,905;  205,732;   -0,636;    1,682
1156,439;  171,005;   -0,636;   -0,500
1156,973;  211,732;    0,364;    0,318
1157,507;  145,096;   -0,364;    0,682
1158,042;  174,369;   -0,727;    1,045
1158,576;  232,641;    0,182;    1,773
1159,110;  218,369;   -0,818;    2,409
1159,643;  184,551;    0,636;   -0,045
1160,177;  120,187;   -1,545;    1,500

