
Integration time [ms]:   0,040
Averaging Nr. [scans]: 11
Smoothing Nr. [pixels]: 0
Data measured with spectrometer [name]: 7318044SP
Wave   ;Sample   ;Dark     ;Reference
[nm]   ;[counts] ;[counts] ;[counts] 

186,757;   25,054;   31,551;    1,318
187,357;   64,809;   22,551;    0,955
187,958;   39,974;   15,460;   -1,591
188,558;   83,411;    8,915;   -1,227
189,159;   52,729;    6,733;   -4,500
189,759;   17,967;    7,278;   -3,591
190,360;   22,421;    2,824;   -2,136
190,960;   64,172;    2,915;   -4,136
191,560;   83,678;    3,189;   -6,591
192,161;  346,904;    4,372;   -3,500
192,761;  169,322;    4,010;   -3,227
193,361;  122,742;    1,556;   -3,773
193,962;  175,249;    2,010;   -2,682
194,562;   88,269;    1,189;   -3,955
195,162;  130,623;   -2,448;   -2,227
195,762;  308,225;   -3,176;   -0,045
196,362;  244,358;    1,370;   -2,500
196,963;   88,267;    2,006;   -0,864
197,563;  176,960;    1,551;   -0,955
198,163;  122,750;    0,096;   -0,682
198,763;  137,631;    1,733;   -0,500
199,363;  252,247;    3,096;   -0,500
199,963;  212,450;    0,369;    0,409
200,563;  185,254;    2,823;   -1,409
201,163;  167,614;    3,277;   -0,227
201,763;  265,597;    3,732;    0,318
202,363;  192,233;    1,459;    1,500
202,963;  310,352;    1,459;    1,045
203,563;  427,163;    0,277;    0,500
204,162;  257,814;    2,096;   -1,864
204,762;  245,874;    0,550;    0,591
205,362;  216,055;    3,004;    1,955
205,962;  326,520;    3,096;    1,955
206,562;  327,055;    1,823;    2,318
207,161;  284,972;   -0,087;    0,318
207,761;  448,996;    1,277;    2,409
208,361;  319,457;   -0,268;    1,409
208,960;  424,191;    0,459;    1,500
209,560;  501,520;    1,277;    1,591
210,160;  479,562;    0,550;    1,864
210,759;  443,468;    4,186;    1,227
211,359;  453,937;    1,459;    1,045
211,958;  739,664;    1,277;    2,045
212,558;  828,734;    1,732;    1,864
213,157;  656,870;    1,822;    1,500
213,757; 1125,776;    3,822;   -0,227
214,356;  808,115;    1,277;   -0,409
214,956; 1158,982;    3,095;    0,409
215,555;  760,612;    2,095;    2,136
216,154;  694,552;   -2,723;   -0,591
216,754;  697,000;    0,277;    0,773
217,353;  846,349;   -0,268;   -1,045
217,952;  693,745;   -0,178;    0,318
218,552;  952,203;    1,368;   -0,773
219,151;  840,549;    0,277;    0,955
219,750;  856,678;    0,004;   -0,227
220,349; 1003,370;   -0,451;    1,045
220,948; 1042,510;   -1,360;    1,136
221,548; 1082,454;    0,913;    1,227
222,147; 1204,923;   -0,087;   -0,409
222,746; 1503,409;   -0,451;   -0,955
223,345; 1370,063;    0,731;    0,500
223,944; 1385,510;   -0,451;    0,773
224,543; 1575,828;    1,004;   -1,409
225,142; 1697,283;    0,094;    0,136
225,741; 1603,049;   -0,814;    1,045
226,340; 1627,825;   -0,451;   -0,955
226,939; 2099,279;   -0,996;   -0,136
227,538; 2090,888;   -0,360;   -0,773
228,137; 2251,856;   -0,814;    0,864
228,735; 2429,762;   -0,541;    1,227
229,334; 2162,573;   -0,905;   -0,227
229,933; 2545,007;    0,459;    0,591
230,532; 2672,692;    1,186;   -0,409
231,131; 2717,513;    1,732;    0,318
231,729; 2891,716;   -2,450;   -2,318
232,328; 3035,583;   -0,723;   -1,500
232,927; 3124,916;    1,004;   -0,500
233,525; 3269,458;    3,640;    0,045
234,124; 3486,297;    2,368;   -1,591
234,723; 3509,870;    0,913;   -1,045
235,321; 3688,168;    2,277;    0,136
235,920; 3945,356;    1,186;   -1,227
236,518; 4204,017;    3,459;    0,318
237,117; 4411,608;    0,004;   -0,227
237,715; 4602,181;    0,640;   -0,500
238,314; 4642,702;   -0,087;   -2,318
238,912; 4746,007;   -0,723;   -1,409
239,510; 4789,174;    0,459;   -1,227
240,109; 5001,283;    0,004;    3,773
240,707; 5032,178;   -0,996;    1,227
241,305; 5403,325;    0,550;    0,136
241,904; 5625,870;   -0,178;   -2,045
242,502; 5591,881;   -0,632;   -0,227
243,100; 5525,447;   -0,087;   -0,955
243,698; 5780,930;    0,732;    1,682
244,297; 5986,213;   -0,632;    0,682
244,895; 5815,251;   -0,269;   -2,318
245,493; 6177,710;    2,186;   -0,591
246,091; 6188,210;    1,368;   -1,318
246,689; 6190,752;    1,004;    0,591
247,287; 6352,989;    0,822;   -1,136
247,885; 6648,241;   -1,451;    1,227
248,483; 6726,772;    1,822;   -0,500
249,081; 6882,731;    0,185;    1,591
249,679; 7038,203;   -0,178;    1,682
250,277; 7291,308;   -1,723;    0,864
250,875; 7305,269;   -1,087;   -1,045
251,473; 7353,189;   -1,178;    0,500
252,071; 7556,409;    1,459;    1,045
252,669; 7713,510;   -1,814;    0,318
253,267; 7953,720;   -0,087;    0,773
253,864; 7943,444;   -0,360;    0,682
254,462; 7764,594;    1,640;    1,591
255,060; 7737,849;   -0,269;    1,318
255,658; 8086,601;    0,822;   -0,136
256,255; 8522,713;    0,186;   -2,045
256,853; 8365,787;   -0,269;    1,409
257,451; 8354,703;    0,822;    1,864
258,048; 8644,049;    1,822;    1,864
258,646; 8397,591;    1,731;   -1,045
259,243; 8618,787;   -0,087;    2,227
259,841; 8706,119;   -0,814;    0,318
260,438; 8543,304;   -0,087;    0,864
261,036; 9292,066;   -1,905;    1,409
261,633; 9172,063;   -0,087;    2,227
262,231; 8876,440;    2,731;   -0,045
262,828; 8983,042;   -0,905;    1,136
263,425; 9057,496;    0,913;   -0,591
264,023; 9340,849;    0,186;    0,045
264,620; 8871,220;   -0,360;   -0,318
265,217; 9223,332;   -2,087;    3,136
265,815; 9288,633;   -1,905;    2,136
266,412; 9073,430;    0,731;    0,136
267,009; 9158,790;   -1,451;    0,773
267,606; 9015,591;    0,822;   -0,955
268,203; 8997,930;   -0,269;   -0,591
268,801; 9323,629;    1,731;    0,591
269,398; 9623,556;   -0,360;    2,500
269,995; 9601,860;    0,277;    1,591
270,592; 9347,695;   -0,632;   -0,500
271,189; 9569,133;    0,186;    0,409
271,786; 9664,622;   -0,632;    1,227
272,383; 9484,073;   -1,087;    0,227
272,980; 9698,856;    0,277;    0,318
273,577;10173,017;    0,004;    1,227
274,174; 9702,790;    0,822;    2,591
274,771; 9746,965;   -0,814;   -0,773
275,367; 9906,923;    2,277;    1,409
275,964; 9833,846;    0,731;   -0,500
276,561; 9932,975;    1,549;   -1,045
277,158;10165,112;    0,095;   -1,773
277,755;10302,004;    2,185;    0,409
278,351; 9699,405;   -0,451;   -1,500
278,948;10014,332;   -0,815;    0,045
279,545;10004,867;   -1,360;    2,318
280,141;10670,598;   -1,723;   -2,045
280,738;10555,958;   -0,451;   -0,136
281,334;10777,920;   -1,633;    0,591
281,931;10131,186;   -0,087;   -1,318
282,528;10239,745;    0,822;   -0,500
283,124;10952,867;   -1,087;   -0,500
283,721;10873,262;   -0,451;    1,409
284,317;10666,888;    0,185;    2,500
284,913;11238,965;   -1,360;    0,591
285,510;11421,147;    0,640;   -0,318
286,106;11417,343;   -2,269;   -0,955
286,703;11053,563;   -0,360;    1,955
287,299;11273,755;   -1,451;   -0,591
287,895;11448,343;    0,822;   -1,045
288,491;12014,283;    0,186;    2,136
289,088;11756,829;   -2,360;    2,409
289,684;11848,783;   -1,723;    1,500
290,280;11838,951;    0,368;    0,682
290,876;11924,731;    1,822;    5,500
291,472;11808,780;    1,276;    2,227
292,068;11897,441;    1,367;    0,227
292,665;11632,119;    2,095;    0,773
293,261;11230,049;    0,276;    2,136
293,857;11646,398;    2,913;    2,136
294,453;11565,094;    3,550;    0,955
295,049;11423,510;   -0,268;    1,955
295,644;11410,122;    0,095;    0,136
296,240;11310,394;   -0,905;   -0,136
296,836;11389,317;   -0,995;    0,318
297,432;11670,013;    1,096;   -0,500
298,028;11708,530;    0,732;    0,773
298,624;12112,601;    1,459;    1,864
299,220;12369,538;    2,368;    0,591
299,815;12057,733;    1,005;   -0,409
300,411;11843,237;    0,914;    1,773
301,007;11840,974;    1,368;    0,227
301,602;11915,929;   -0,541;   -2,318
302,198;12067,394;    0,732;   -0,773
302,794;12397,223;    1,187;   -0,500
303,389;12501,142;   -1,177;    1,045
303,985;12609,940;    0,550;    1,409
304,580;12565,674;    1,459;    1,591
305,176;12512,660;   -3,086;    0,136
305,771;12425,359;   -1,268;   -1,227
306,367;12331,625;    4,095;    0,136
306,962;12643,020;    0,641;    1,500
307,558;12380,866;   -0,450;    0,136
308,153;12261,573;    1,095;   -1,136
308,748;12534,793;   -0,814;    1,682
309,344;12489,384;   -0,632;   -1,318
309,939;12598,566;   -1,905;   -1,318
310,534;12859,975;   -0,086;   -1,682
311,130;12794,587;    0,459;   -2,500
311,725;12504,069;    1,004;   -0,500
312,320;12821,268;    2,459;    0,045
312,915;12658,069;    1,459;   -1,045
313,510;12784,922;    1,550;   -0,500
314,105;13273,352;    1,096;    1,409
314,700;12636,835;   -3,086;   -1,045
315,295;12271,674;   -0,904;    0,045
315,890;11840,559;    1,277;    0,864
316,485;12228,622;   -0,359;   -0,318
317,080;12361,482;   -3,086;    1,591
317,675;12914,363;    2,005;   -0,682
318,270;12327,866;    5,550;    3,318
318,865;12348,863;    3,278;    3,045
319,460;12174,443;   -0,904;    0,591
320,055;12368,072;   -0,541;   -1,227
320,650;12030,205;   -1,995;   -0,591
321,244;12076,726;   -0,177;   -1,409
321,839;13027,573;   -1,541;   -0,227
322,434;12913,905;   -1,086;   -1,591
323,029;12518,551;    1,732;    1,591
323,623;12337,066;    1,550;    0,773
324,218;12115,800;    2,368;    1,409
324,812;11979,226;    1,096;    1,591
325,407;11803,261;   -0,814;    2,045
326,002;11729,328;    0,277;   -0,409
326,596;12039,006;    0,914;    1,318
327,191;12214,856;    0,823;   -1,045
327,785;11798,097;   -0,813;   -0,227
328,379;12027,705;    1,368;    0,136
328,974;11811,010;    0,914;   -3,955
329,568;12008,534;    0,186;   -2,409
330,163;11869,044;    2,096;    1,045
330,757;12185,237;    2,459;    1,591
331,351;11493,139;    0,459;    0,682
331,945;11808,674;    0,914;    1,409
332,540;11369,143;   -1,723;   -0,591
333,134;11551,213;   -1,086;    0,773
333,728;11837,202;    0,005;    0,318
334,322;12144,003;   -1,177;   -0,864
334,916;11404,856;    0,277;    0,955
335,510;11747,254;   -0,450;   -0,136
336,105;11993,856;   -1,086;    1,591
336,699;11703,880;   -1,086;    0,591
337,293;11587,454;   -1,723;    0,318
337,887;11764,300;   -2,723;    1,955
338,481;11897,534;    0,459;    0,591
339,074;12046,034;   -0,359;    2,682
339,668;11828,804;   -1,632;    1,227
340,262;12101,702;    1,732;    3,227
340,856;11599,496;    1,822;   -0,682
341,450;10952,769;    1,004;    1,864
342,044;11889,999;    1,459;    0,136
342,637;11658,374;    0,913;   -2,136
343,231;11526,493;   -2,360;    0,682
343,825;11488,059;   -1,086;   -0,591
344,419;11416,968;   -1,995;    0,500
345,012;11204,695;    2,459;    4,045
345,606;11241,642;    4,641;    1,591
346,199;11063,810;   -1,813;   -0,227
346,793;10590,670;    1,914;    2,045
347,386;10764,373;   -0,813;   -1,136
347,980;10755,205;   -0,268;   -0,045
348,573;10525,481;    2,278;    0,409
349,167;10214,477;    5,278;    4,773
349,760;10528,516;    2,914;    2,682
350,354;10523,746;   -0,813;    1,136
350,947;10303,670;    1,096;    1,682
351,540; 9948,149;   -0,358;   -1,409
352,134; 9866,547;    1,096;    1,136
352,727; 9960,278;   -0,086;    1,136
353,320; 9752,324;    0,005;    0,591
353,913; 9599,285;   -1,995;    1,864
354,507; 9807,030;    0,823;   -1,227
355,100; 9766,736;    0,460;    0,864
355,693; 9043,698;    2,005;    2,409
356,286; 9075,544;    0,823;    2,773
356,879; 9426,796;   -0,722;    1,227
357,472; 9031,838;   -0,904;    1,500
358,065; 9227,386;   -0,722;    2,500
358,658; 9160,883;   -0,540;    2,318
359,251; 8796,981;   -1,631;   -0,591
359,844; 8260,103;   -1,904;   -1,136
360,437; 8433,621;   -2,995;    0,045
361,030; 8714,040;    1,369;   -0,682
361,623; 8296,795;    2,824;    0,318
362,215; 8356,044;   -0,086;    2,045
362,808; 8180,792;   -2,358;   -1,682
363,401; 8418,827;   -2,449;    0,136
363,994; 8151,400;   -0,631;   -1,500
364,586; 8019,239;    0,824;   -1,500
365,179; 8237,026;   -0,449;   -1,136
365,772; 7739,323;   -1,995;    2,045
366,364; 8059,729;    1,915;   -3,227
366,957; 8239,658;    2,279;   -0,045
367,549; 8266,739;    2,188;   -0,864
368,142; 7911,197;    1,825;   -1,500
368,734; 8103,507;    0,734;   -2,136
369,327; 8051,986;    1,643;   -0,500
369,919; 7988,930;   -1,538;    0,409
370,512; 7759,793;   -1,083;   -0,500
371,104; 7540,824;   -0,901;    1,591
371,696; 7726,680;    1,191;   -0,955
372,289; 7797,882;    0,373;    1,136
372,881; 7946,182;   -2,080;    1,318
373,473; 7880,674;   -2,170;    1,136
374,066; 7686,610;   -0,169;    0,500
374,658; 7528,175;    0,378;    1,136
375,250; 7884,778;    0,653;   -1,409
375,842; 7725,825;    0,473;   -0,045
376,434; 7602,932;   -0,435;   -0,409
377,026; 8168,181;    0,204;   -2,500
377,618; 8081,864;   -0,158;   -0,682
378,210; 7915,559;   -0,338;   -1,955
378,802; 7755,243;    0,754;   -0,591
379,394; 7738,724;    1,846;    0,682
379,986; 8315,895;    1,393;   -0,955
380,578; 8414,947;   -0,153;    0,773
381,170; 7783,318;   -0,972;    0,045
381,762; 7724,225;    0,755;    1,409
382,354; 7901,408;   -0,065;   -1,318
382,945; 8007,542;   -2,976;    0,318
383,537; 8153,806;   -2,705;   -1,955
384,129; 8158,374;   -2,160;   -1,136
384,721; 8341,360;   -0,252;    0,955
385,312; 8295,892;   -0,161;   -0,955
385,904; 8394,301;   -2,706;    1,591
386,496; 7781,455;   -0,979;    1,045
387,087; 7906,786;    1,022;    2,500
387,679; 7947,957;   -1,160;    0,045
388,270; 8088,150;    2,840;    2,045
388,862; 8198,419;    1,295;   -0,318
389,453; 8105,748;   -0,887;    1,045
390,045; 8381,534;   -0,705;   -2,682
390,636; 8279,863;    0,204;   -0,591
391,227; 8157,255;   -0,523;   -0,045
391,819; 8233,496;    0,204;    0,773
392,410; 8325,730;    1,022;    0,045
393,001; 8247,738;   -0,979;   -1,591
393,593; 8572,549;    1,930;   -0,045
394,184; 8403,563;    1,385;   -0,409
394,775; 8347,507;    1,839;    2,136
395,366; 8561,441;    1,385;    0,773
395,957; 8538,223;    0,113;    0,136
396,548; 8851,678;   -0,342;    2,682
397,139; 9145,447;   -2,433;    0,591
397,730; 8878,402;   -1,888;    0,955
398,321; 8933,123;   -1,252;    0,955
398,912; 8979,091;   -0,615;    0,136
399,503; 9057,752;   -3,524;   -1,409
400,094; 8487,021;    0,294;    1,682
400,685; 8322,231;   -0,433;    0,045
401,276; 8398,476;    0,930;   -0,955
401,867; 8742,724;   -0,888;    0,773
402,458; 8825,437;   -2,251;   -2,318
403,048; 8823,930;    1,112;    0,591
403,639; 8408,458;    0,840;    0,864
404,230; 8645,060;    2,476;    0,318
404,821; 8609,934;   -0,615;    0,045
405,411; 8748,301;    1,203;   -2,591
406,002; 8306,514;   -1,252;   -1,136
406,592; 8168,420;    2,294;    0,045
407,183; 8467,113;    0,566;   -1,500
407,774; 8391,581;    3,475;   -0,136
408,364; 8739,700;    0,930;    0,409
408,954; 8329,252;    0,384;    1,227
409,545; 8387,878;    1,021;    1,045
410,135; 7890,431;    1,293;    0,500
410,726; 8094,729;    1,838;    0,318
411,316; 8453,844;    0,111;    0,773
411,906; 8138,498;   -0,253;   -0,409
412,497; 7612,854;   -1,070;   -0,045
413,087; 8227,106;   -1,980;   -0,227
413,677; 8627,033;   -0,707;    3,864
414,267; 8493,169;    0,656;    1,409
414,857; 8468,190;   -2,980;    4,227
415,448; 8738,246;    0,839;    0,500
416,038; 8432,204;    0,020;   -0,591
416,628; 8399,386;   -0,889;    0,409
417,218; 7878,858;    0,565;    3,318
417,808; 8132,334;    0,202;   -0,409
418,398; 8641,005;    0,020;    2,682
418,988; 8654,991;    2,020;    0,591
419,578; 8911,204;   -0,707;    1,409
420,168; 9240,323;   -1,343;   -0,955
420,757; 8860,368;   -1,343;   -1,500
421,347; 8548,704;    0,111;   -0,227
421,937; 8720,634;    2,292;    1,409
422,527; 8683,044;    0,838;   -0,773
423,116; 8466,306;   -0,253;   -0,045
423,706; 8774,956;   -1,889;    0,318
424,296; 8771,313;    1,384;    0,682
424,885; 9186,676;   -0,071;   -3,045
425,475; 9485,547;    1,474;   -2,864
426,065; 9410,299;   -0,980;   -0,318
426,654; 8997,414;   -0,435;   -0,318
427,244; 9152,138;    0,020;    1,409
427,833; 8622,932;    1,383;   -0,500
428,423; 9093,254;   -0,526;    1,136
429,012; 9865,439;   -0,344;   -1,136
429,601; 9362,883;   -1,344;    0,136
430,191; 9563,824;    1,292;    4,318
430,780; 9212,502;   -0,344;   -0,409
431,369; 9170,250;    0,746;   -0,045
431,959; 9762,027;   -1,254;    0,500
432,548; 9559,432;   -1,163;   -0,045
433,137; 9696,929;   -1,254;   -1,318
433,726;10236,352;    0,292;    0,500
434,315; 9573,079;   -0,526;    2,409
434,905; 9670,524;   -1,254;    1,409
435,494; 9566,576;    0,746;    0,955
436,083;10015,883;   -0,981;   -0,955
436,672; 9888,198;    0,110;    0,500
437,261; 9450,789;    0,292;   -1,955
437,850; 9572,723;    1,383;    0,682
438,439; 9589,730;    3,291;    1,955
439,027; 9477,394;    3,655;    1,773
439,616; 9819,496;    2,927;    1,227
440,205; 9670,943;    0,200;   -2,136
440,794; 9748,423;    2,109;   -0,045
441,383;10031,661;   -1,346;   -0,591
441,971; 9848,465;   -2,436;    0,591
442,560; 9709,489;    0,563;   -1,773
443,149; 9463,145;    0,379;   -1,318
443,737; 9632,333;   -0,074;   -2,318
444,326; 9897,136;    0,018;    0,318
444,915; 9959,605;   -1,982;    0,864
445,503;10359,384;   -2,891;   -0,318
446,092; 9602,685;    0,382;    2,136
446,680;10153,556;    0,382;    0,318
447,269;10338,556;   -0,346;   -0,318
447,857;10088,081;    0,018;   -1,773
448,445;10217,773;    0,563;    1,318
449,034;10406,965;   -1,528;   -1,136
449,622;10532,696;   -1,073;    3,500
450,210; 9774,119;    2,017;    2,227
450,799;10329,780;    0,290;   -0,591
451,387;10247,658;    1,381;   -0,591
451,975; 9935,165;    2,654;    0,864
452,563;10050,616;    3,472;    2,318
453,151;10065,717;   -0,528;   -1,227
453,739; 9966,193;   -1,347;    0,136
454,328; 9817,207;    2,381;   -2,136
454,916; 9560,386;    2,562;   -0,136
455,504; 9727,910;    1,017;    1,227
456,092; 9885,169;    0,017;   -1,591
456,679; 9888,148;    1,472;    0,682
457,267; 9840,309;    4,017;    1,045
457,855; 9988,047;    1,017;    1,409
458,443; 9745,585;   -0,165;    1,682
459,031; 9860,896;    0,108;    2,409
459,619;10355,092;   -1,801;    2,864
460,206;10488,064;    0,835;    2,045
460,794;10550,417;   -2,983;   -0,227
461,382;10811,372;   -0,529;   -0,864
461,970;10388,036;    1,198;    1,864
462,557;10428,697;   -0,711;   -0,682
463,145;10615,082;   -3,165;   -1,682
463,732;10761,103;    2,016;   -1,045
464,320;10717,764;   -0,075;   -3,045
464,907;10378,974;    2,743;   -0,773
465,495;10234,838;    0,743;   -1,227
466,082;10394,330;   -1,984;   -0,045
466,670;10311,981;   -2,529;    1,227
467,257;10714,925;   -1,711;    2,045
467,844;10840,079;   -0,075;    0,045
468,432;10902,397;    0,834;    3,500
469,019;10389,373;    0,925;   -1,773
469,606;10886,558;    0,470;    3,682
470,193;10681,471;   -1,439;    0,227
470,780;10248,156;   -2,075;    0,864
471,368;10608,796;   -1,257;   -0,773
471,955;10392,492;    1,379;   -0,682
472,542;10035,796;    0,652;   -1,136
473,129;10255,027;   -0,166;    0,136
473,716; 9959,153;    1,470;    0,591
474,303;10167,614;    0,652;   -0,864
474,890;10507,083;   -1,439;   -0,500
475,477;10566,733;   -1,621;    0,409
476,064;10439,653;    1,106;   -1,591
476,650;10410,653;    0,288;    0,318
477,237;10225,380;   -0,258;    0,955
477,824;10396,524;   -1,076;    0,864
478,411;10404,964;   -1,894;   -0,318
478,997;10607,227;    0,560;   -0,773
479,584;10641,209;    1,196;   -0,409
480,171;11397,440;   -0,440;   -0,773
480,757;11084,748;    2,651;    0,773
481,344;11367,870;    0,469;    0,409
481,931;10841,213;    1,105;    1,045
482,517;11931,640;   -1,258;    0,318
483,104;12584,723;    1,106;    2,864
483,690;12856,279;   -1,804;    0,045
484,276;13205,479;   -0,895;    0,227
484,863;12944,797;    2,469;    1,136
485,449;13524,269;   -0,077;    0,318
486,035;13497,497;   -1,986;   -0,136
486,622;13918,423;   -0,895;    0,045
487,208;13854,441;    1,378;    1,500
487,794;13700,266;    0,741;    0,318
488,380;13820,839;    0,105;   -1,409
488,967;13850,794;   -1,168;   -0,409
489,553;13931,679;   -1,895;   -1,409
490,139;14124,563;    1,559;    0,773
490,725;13523,399;    0,741;   -0,227
491,311;13026,168;    3,287;    3,045
491,897;12367,906;   -0,986;    1,500
492,483;12158,511;    0,105;    1,227
493,069;12003,798;    3,923;    0,864
493,655;12012,896;    1,650;    0,682
494,241;11888,938;    1,377;   -0,955
494,826;12299,312;    0,287;   -1,045
495,412;11780,252;    2,559;   -0,682
495,998;11935,431;   -0,805;   -0,318
496,584;12041,962;    0,377;    1,045
497,169;12033,424;    1,014;   -0,682
497,755;12002,246;    0,650;    1,227
498,341;12612,966;    0,559;    0,318
498,926;12194,263;    1,832;    1,955
499,512;12322,662;    1,286;    2,955
500,097;12497,089;    0,195;   -0,318
500,683;12402,683;   -0,350;    2,136
501,268;12755,994;   -0,169;   -0,955
501,854;12488,914;   -0,169;    1,227
502,439;12425,194;   -0,624;   -1,773
503,024;12646,729;    0,195;    0,500
503,610;12694,386;   -0,078;   -0,682
504,195;12713,092;    0,558;    1,955
504,780;12800,645;    2,922;    1,227
505,366;12622,623;    3,013;    2,864
505,951;12360,341;    0,740;    1,045
506,536;12365,715;   -3,260;   -3,682
507,121;12350,704;    0,285;   -0,318
507,706;12875,533;    2,376;    1,045
508,291;13297,253;    2,649;    1,136
508,876;12754,478;   -0,988;    2,591
509,461;12232,768;   -0,169;   -0,773
510,046;12669,331;    0,194;    0,318
510,631;12917,635;   -0,351;   -0,773
511,216;12561,016;    2,467;   -0,500
511,801;12935,330;   -0,442;    2,591
512,386;13251,358;    0,740;    0,500
512,971;13173,911;   -2,988;    0,955
513,555;12738,722;   -0,897;   -1,500
514,140;13548,778;   -0,442;   -3,136
514,725;13548,586;   -0,715;   -1,136
515,309;13653,383;   -0,533;    0,318
515,894;13080,348;   -0,624;   -2,227
516,479;13530,202;   -0,624;   -0,955
517,063;13354,079;    0,376;    1,227
517,648;13522,457;    1,012;   -1,136
518,232;13190,387;   -0,261;   -1,409
518,817;13547,363;   -0,079;    1,682
519,401;13746,674;    2,194;    0,591
519,985;13237,646;    1,103;    1,136
520,570;13120,740;    0,830;   -1,955
521,154;13417,849;    2,102;    0,591
521,738;13617,038;   -2,352;    2,409
522,323;14193,828;   -0,170;    1,682
522,907;13863,905;    0,466;   -0,136
523,491;13575,734;    0,557;    0,955
524,075;13555,255;    2,284;    0,591
524,659;13675,136;    1,466;    0,591
525,243;13162,090;    1,739;    0,409
525,827;13433,318;    0,648;   -0,045
526,411;14295,499;   -1,989;   -0,136
526,995;14483,594;   -0,352;    1,409
527,579;14059,087;   -0,443;   -1,045
528,163;14351,902;    0,375;   -1,500
528,747;14268,884;    2,466;   -0,773
529,331;14571,626;   -0,080;   -1,409
529,915;14794,213;    1,738;    0,955
530,499;14769,000;   -0,807;    1,227
531,082;14472,262;   -0,534;    1,591
531,666;13907,752;    1,374;    0,773
532,250;14578,951;    1,284;    2,682
532,833;14914,612;    0,920;    2,773
533,417;14768,196;   -1,807;    0,864
534,001;14767,385;    1,647;   -0,318
534,584;15488,399;    0,374;    0,500
535,168;15270,028;    0,465;    1,409
535,751;15364,150;    0,647;    0,045
536,334;14821,091;   -0,898;   -0,409
536,918;15386,385;    0,011;    1,591
537,501;15479,343;   -0,899;    1,318
538,085;15504,276;   -0,444;    1,045
538,668;15686,525;    0,829;    2,409
539,251;15976,500;    1,829;    3,773
539,834;15964,759;    0,101;    0,773
540,418;15952,798;   -1,990;    4,318
541,001;16047,284;   -0,990;    1,773
541,584;16075,871;    2,101;    2,227
542,167;15746,207;    1,374;    2,955
542,750;15878,088;    1,919;   -0,773
543,333;15458,899;    0,555;    2,136
543,916;16278,581;    0,192;    2,500
544,499;16911,585;   -1,354;    0,227
545,082;16890,927;    1,374;    3,591
545,665;17031,476;    1,919;    1,500
546,248;17392,627;    1,010;   -0,318
546,830;17035,941;   -0,445;    1,955
547,413;17430,263;    1,010;   -0,773
547,996;17980,914;    0,555;    0,500
548,579;17732,578;    0,919;    0,955
549,161;17523,375;    1,828;    2,682
549,744;17316,222;   -0,809;    0,409
550,326;17825,592;   -0,809;   -1,136
550,909;17654,519;    2,737;    0,591
551,492;18010,117;   -0,263;    0,227
552,074;17799,397;   -0,173;   -1,318
552,657;18402,005;    2,373;    0,045
553,239;18068,932;   -0,173;   -0,773
553,821;18024,316;   -1,082;    1,045
554,404;17538,243;    1,282;    1,136
554,986;17961,103;    0,464;    1,045
555,568;18552,484;    1,191;   -0,955
556,151;17753,732;    1,191;   -0,227
556,733;17923,449;   -0,264;   -0,864
557,315;18434,925;    0,100;    0,500
557,897;18203,970;    0,554;   -0,500
558,479;18307,918;   -1,991;    1,318
559,061;18444,659;   -0,719;   -0,864
559,643;18826,761;   -0,264;    0,045
560,225;19184,281;    1,645;    2,864
560,807;19212,761;    0,918;    0,318
561,389;18675,296;    0,554;    2,318
561,971;19451,065;    0,463;    2,136
562,553;19251,694;   -1,628;    1,591
563,135;19407,624;   -0,537;    1,136
563,717;19018,317;    3,372;    1,136
564,298;19716,111;    3,645;   -0,045
564,880;19464,412;    0,645;   -1,409
565,462;19622,957;    0,645;    1,318
566,043;20847,146;   -0,446;    2,318
566,625;20325,960;    1,918;    1,227
567,207;20195,751;    1,099;    1,682
567,788;21316,495;   -1,264;    1,500
568,370;22198,097;    1,917;   -0,500
568,951;21989,761;    0,190;    0,227
569,533;22817,782;   -0,628;   -0,500
570,114;23333,027;   -0,446;    0,682
570,695;23866,527;   -0,174;   -1,318
571,277;24372,115;   -0,265;   -1,682
571,858;25128,747;    2,008;   -1,136
572,439;26030,034;    1,554;   -1,045
573,021;26183,524;    2,099;   -2,773
573,602;26666,569;   -1,265;    0,318
574,183;27598,129;   -2,083;    2,227
574,764;27730,450;   -1,629;    0,409
575,345;28275,125;    0,917;   -0,136
575,926;28829,947;   -0,356;    0,136
576,507;28769,202;    1,099;   -0,227
577,088;29957,989;    3,099;    1,682
577,669;30003,751;    0,735;    1,955
578,250;30797,583;    0,644;   -1,045
578,831;31428,762;   -1,356;   -2,227
579,412;31697,545;   -0,810;    0,955
579,993;32497,160;    1,008;    0,227
580,573;32855,559;   -0,629;   -0,955
581,154;31856,604;    0,735;   -0,591
581,735;32732,171;    0,644;    0,773
582,315;32198,989;   -0,629;    2,136
582,896;32497,450;   -0,174;    1,227
583,477;31886,353;    0,189;    1,227
584,057;32119,674;    0,553;    0,955
584,638;32420,342;    2,553;    2,318
585,218;32421,667;   -0,538;    2,682
585,799;32591,943;    0,281;   -0,227
586,379;32506,443;    0,372;    1,591
586,959;31227,646;    0,735;    0,318
587,540;30521,021;   -0,629;    2,227
588,120;30101,878;    1,007;   -0,045
588,700;29115,101;    2,553;    2,136
589,281;29492,587;    0,462;   -0,955
589,861;29463,276;    0,099;   -1,682
590,441;29203,776;    2,371;   -2,682
591,021;28179,520;   -0,265;   -2,591
591,601;28416,905;   -0,537;    0,500
592,181;28424,468;   -0,719;   -0,773
592,761;27713,762;    0,007;    1,409
593,341;27595,066;   -0,901;    0,045
593,921;27617,503;   -0,265;    1,591
594,501;27529,496;   -0,538;    1,318
595,081;27379,618;    0,917;   -0,318
595,661;27746,716;   -1,447;    0,955
596,240;28306,027;   -0,537;    0,136
596,820;27913,083;    0,372;    1,955
597,400;28026,010;    2,008;    0,773
597,980;28236,940;    2,008;    1,045
598,559;28250,636;    2,735;   -0,227
599,139;28007,293;   -0,174;   -1,227
599,718;27958,839;   -0,174;   -0,409
600,298;28164,031;    0,735;    0,682
600,877;28397,950;    2,917;    1,409
601,457;28707,461;    2,281;    1,136
602,036;28568,083;    0,190;    2,045
602,616;28783,664;    0,644;    1,682
603,195;29132,821;   -0,355;    3,500
603,774;28646,992;   -0,901;    2,045
604,354;28520,968;    0,826;   -0,500
604,933;28046,076;    0,463;    1,864
605,512;28140,492;    3,554;    0,591
606,091;28200,401;   -0,537;    3,773
606,671;29002,160;    0,281;    0,773
607,250;28152,167;    1,644;    3,136
607,829;28369,814;    2,372;    3,227
608,408;28185,908;    1,190;    2,591
608,987;27194,163;    1,281;    3,409
609,566;27529,356;   -1,265;   -2,500
610,145;27639,146;   -1,082;    0,682
610,723;28025,373;    4,372;    6,864
611,302;27303,222;   -0,446;    1,682
611,881;26801,978;    5,008;   11,227
612,460;27657,048;    1,645;    3,955
613,039;28058,918;   -0,082;    2,045
613,617;26812,041;    1,736;    4,773
614,196;27007,625;    1,099;    1,227
614,775;27303,698;    1,009;    2,409
615,353;27296,628;    0,736;    0,864
615,932;26991,152;    0,100;    2,409
616,510;27584,149;    0,554;    0,591
617,089;27103,495;    7,100;   17,591
617,667;26849,701;    2,372;    6,136
618,246;26713,327;   -1,537;    1,318
618,824;26907,310;   -3,355;   -0,955
619,402;26421,404;   -2,900;   -1,773
619,981;26938,813;   -0,173;   -1,045
620,559;26715,477;    0,009;    1,682
621,137;26287,194;   -0,718;    1,864
621,715;26403,331;   -1,173;   -0,682
622,293;26300,705;   -0,537;   -0,773
622,871;26719,470;   -0,718;    0,500
623,450;26326,572;    0,373;   -0,864
624,028;26167,596;    0,191;   -0,955
624,606;25826,407;   -1,718;    1,682
625,183;26204,600;   -1,536;   -1,136
625,761;25789,869;    1,009;    1,136
626,339;26127,302;    1,373;    2,591
626,917;26514,250;   -0,172;   -0,045
627,495;26535,473;   -0,354;    1,318
628,073;25978,452;   -0,263;    2,864
628,650;25701,414;    0,100;    2,136
629,228;26113,225;    0,373;    4,409
629,806;25473,512;    2,282;    1,136
630,383;25765,330;    1,464;   -0,318
630,961;25569,725;    2,555;   -0,955
631,539;25296,746;    2,464;    0,227
632,116;24688,362;   11,373;   15,409
632,694;25274,246;    2,555;    6,500
633,271;25572,984;    0,828;    2,682
633,848;25470,669;    1,828;    2,045
634,426;25513,463;   -1,081;    1,773
635,003;24570,487;    1,101;   -0,409
635,580;24929,564;    1,192;    3,682
636,158;25517,358;    3,737;    1,227
636,735;25483,833;    0,555;   -0,500
637,312;25625,746;   -0,809;   -0,682
637,889;25690,959;   -4,354;   -0,682
638,466;25160,179;   -3,990;   -0,409
639,043;25186,382;    2,101;   -1,136
639,620;25521,983;   -2,262;   -0,955
640,197;25839,748;    1,100;    1,682
640,774;25934,801;   -0,172;    1,136
641,351;26345,583;    0,737;    1,136
641,928;25780,455;   -0,627;    1,409
642,505;25449,145;    0,828;   -0,500
643,082;25555,199;   -1,718;    1,227
643,658;24564,253;   -0,718;    1,500
644,235;25334,671;    1,191;    2,500
644,812;25631,179;    1,918;    0,773
645,388;25391,233;   -0,991;    1,409
645,965;25484,196;   -0,809;    1,682
646,542;25559,069;   -1,445;   -0,227
647,118;25534,395;    1,009;   -0,955
647,695;25813,267;   -0,263;    1,136
648,271;25716,867;   -0,536;    0,500
648,848;26065,921;    0,736;    2,227
649,424;25903,157;    0,827;    1,318
650,000;25720,483;   -0,354;   -1,045
650,577;25453,355;   -0,627;   -0,955
651,153;25904,409;   -1,809;    0,955
651,729;26913,645;    1,191;    0,864
652,305;27452,790;    0,645;    2,773
652,881;32615,571;   -0,082;    1,136
653,458;39486,716;    1,100;    0,227
654,034;42826,952;    0,282;    1,591
654,610;44023,733;    0,554;    0,773
655,186;45268,787;    0,645;    3,045
655,762;44849,478;   -0,991;    0,409
656,338;44850,713;    0,100;    0,136
656,913;45815,949;   -0,082;    0,409
657,489;45063,549;    0,827;   -0,318
658,065;44983,784;   -0,173;   -1,591
658,641;45600,748;   -0,900;   -0,864
659,217;44803,529;   -0,991;    0,409
659,792;44309,492;    0,645;   -0,409
660,368;44417,455;   -2,173;   -0,682
660,944;43860,145;   -2,082;    1,227
661,519;38677,654;   -0,628;    0,409
662,095;32830,253;   -1,719;    0,591
662,670;28670,853;    1,281;   -0,136
663,246;27748,543;    1,009;   -0,409
663,821;27153,233;    0,281;    1,682
664,396;26636,742;    0,009;    1,864
664,972;26942,978;    0,009;   -0,500
665,547;27265,304;    1,372;    0,136
666,122;27288,267;   -1,082;    0,318
666,698;27573,049;   -0,173;    0,318
667,273;26902,557;   -0,173;    0,136
667,848;27721,702;    2,372;    1,500
668,423;27545,029;    2,190;    2,318
668,998;28145,355;    2,827;   -0,682
669,573;28676,137;   -3,264;   -1,500
670,148;28465,009;   -1,446;   -0,682
670,723;28250,063;   -1,810;    0,318
671,298;28667,844;    2,372;    1,045
671,873;28797,807;   -0,082;   -0,136
672,448;28731,588;    0,645;    0,136
673,023;29051,552;   -1,992;   -0,227
673,597;29438,151;    0,827;    2,318
674,172;29193,932;   -0,355;    0,318
674,747;28677,259;    0,372;   -1,045
675,321;28443,040;   -0,628;    3,318
675,896;28068,367;    0,645;    1,045
676,471;29093,784;    2,645;    1,591
677,045;28800,929;   -1,264;    0,682
677,620;28864,802;    0,190;    1,136
678,194;29142,401;   -2,628;    1,136
678,769;28745,000;   -1,083;   -0,318
679,343;29047,054;   -0,628;    1,773
679,917;28968,745;   -1,446;    1,955
680,492;29020,344;    0,826;    3,227
681,066;29135,307;    3,372;    0,409
681,640;29200,816;    1,463;   -0,318
682,214;30031,870;    0,735;    0,500
682,788;29534,651;   -1,356;   -0,773
683,363;29510,432;   -1,810;    1,682
683,937;29172,941;   -1,719;   -0,318
684,511;29918,177;    0,463;   -0,591
685,085;29644,412;   -1,356;    0,318
685,659;29385,466;   -2,538;    0,864
686,232;29678,429;   -0,356;   -0,318
686,806;29354,211;   -0,901;    0,409
687,380;30021,628;   -0,174;    0,591
687,954;30164,591;   -1,174;    1,136
688,528;29943,554;   -0,719;    1,955
689,101;30676,972;   -3,992;    1,045
689,675;30273,571;   -0,356;   -0,136
690,249;29675,171;   -0,719;    0,409
690,822;29982,861;    0,280;    0,318
691,396;30088,824;   -0,265;    1,227
691,969;29509,787;    1,280;    0,136
692,543;29925,932;   -0,447;   -1,955
693,116;29573,077;   -0,265;   -1,409
693,690;29478,949;    0,099;    0,500
694,263;29989,731;   -1,083;    2,955
694,836;30074,148;    1,371;    3,591
695,410;28761,293;   -0,265;    1,773
695,983;29184,711;    0,189;    0,591
696,556;29092,492;   -0,447;   -1,045
697,129;29495,546;   -0,356;    1,409
697,703;29176,782;   -1,629;    1,955
698,276;29118,472;    1,462;   -0,773
698,849;28927,799;    1,280;    1,409
699,422;29363,944;   -1,083;    0,591
699,995;29042,998;    0,007;    0,136
700,568;29512,415;   -0,629;    3,045
701,140;29523,378;   -2,811;    1,682
701,713;29309,705;   -0,174;    2,409
702,286;29108,304;   -0,538;    0,864
702,859;28945,086;   -0,902;   -0,591
703,432;28058,412;    0,825;    0,682
704,004;28549,285;    0,462;    0,318
704,577;28455,793;   -0,629;    0,136
705,150;29049,029;    0,189;    2,500
705,722;28832,356;   -0,356;   -3,227
706,295;28628,410;   -0,175;   -0,591
706,867;28479,282;   -0,175;    1,955
707,440;28669,063;   -1,720;   -0,409
708,012;28925,117;    0,462;    0,591
708,584;28865,262;    2,462;    0,227
709,157;29102,316;    1,825;   -0,591
709,729;28785,915;    2,280;    2,045
710,301;29598,515;    0,734;    0,045
710,874;29589,205;   -1,447;   -0,227
711,446;28488,804;    0,371;    0,864
712,018;28383,222;    0,098;    0,500
712,590;28138,731;   -1,993;    1,682
713,162;28639,057;    0,825;    1,318
713,734;28837,657;    1,825;   -2,045
714,306;28786,347;   -1,902;   -0,409
714,878;27435,128;    0,825;    0,864
715,450;28287,910;    0,643;    0,864
716,022;28555,418;    1,552;    1,318
716,593;28690,017;    0,189;    0,591
717,165;28674,253;   -3,175;   -1,227
717,737;28379,853;    0,280;    0,409
718,309;28038,089;    0,280;   -0,045
718,880;28001,142;   -0,539;   -1,409
719,452;28217,924;   -0,175;   -1,591
720,024;27830,160;    0,734;   -0,591
720,595;28397,395;   -2,902;    0,955
721,167;27882,358;    0,370;   -2,045
721,738;27358,412;   -0,812;   -1,045
722,309;27389,648;   -0,993;   -1,227
722,881;27210,429;   -1,357;    0,773
723,452;27847,665;   -2,630;    2,864
724,023;27974,446;   -0,721;    2,682
724,595;27748,591;    0,007;    0,682
725,166;27509,554;    0,007;   -0,409
725,737;27218,154;    1,734;    0,227
726,308;27307,481;   -0,266;    0,318
726,879;27697,625;   -1,630;    1,227
727,450;27491,679;    0,552;   -0,045
728,021;27488,733;    3,097;    0,682
728,592;27295,606;    0,734;    0,500
729,163;27662,841;    0,643;   -0,136
729,734;27650,714;    0,188;   -0,227
730,305;27955,677;    1,734;    0,136
730,876;28360,003;    0,188;    2,955
731,447;28129,603;    2,188;    2,682
732,017;28216,202;    1,097;    1,864
732,588;27680,983;    0,734;    1,227
733,159;27899,219;    0,643;   -1,045
733,729;27659,910;    0,006;    0,409
734,300;26935,691;    0,915;    0,864
734,870;27318,108;    3,461;    0,591
735,441;27873,162;    0,370;   -0,591
736,011;27663,580;    0,643;   -1,591
736,582;27633,816;   -0,812;    0,045
737,152;27065,597;   -1,721;   -2,045
737,722;27508,560;   -0,267;   -0,682
738,293;27172,614;   -1,358;    1,318
738,863;27123,214;    2,461;    2,318
739,433;26932,813;    5,279;    0,318
740,003;27560,503;   -0,994;   -0,682
740,573;26957,466;    2,097;   -1,591
741,143;26909,429;   -1,085;    0,318
741,713;27698,665;    1,188;   -0,500
742,283;27407,901;    0,915;    1,591
742,853;27149,773;    1,915;    1,591
743,423;26595,645;    1,733;    0,045
743,993;26743,245;   -0,358;    1,500
744,563;26157,662;    0,097;   -0,864
745,133;26119,989;   -0,812;   -0,864
745,702;26783,225;   -0,267;    1,773
746,272;26030,461;   -0,176;    0,591
746,842;25764,242;   -1,358;   -0,591
747,411;26163,841;   -0,267;   -0,318
747,981;26369,532;    0,097;    0,500
748,551;26364,495;    2,278;   -1,045
749,120;26262,640;    0,642;   -0,227
749,690;26656,239;   -0,631;    2,409
750,259;26992,839;    1,369;    2,955
750,828;26940,893;    1,551;   -1,955
751,398;27182,674;    1,278;   -0,045
751,967;26721,910;    2,187;    0,409
752,536;26853,236;   -0,813;   -0,227
753,105;27306,563;    0,096;    0,227
753,675;27091,253;    0,096;    1,773
754,244;27052,671;   -0,904;    3,591
754,813;27033,634;    0,551;    1,227
755,382;26613,688;    0,460;    0,955
755,951;27269,378;    1,551;    3,682
756,520;26748,978;   -0,085;    1,864
757,089;27328,032;    0,278;    0,500
757,658;27475,086;    1,733;    1,227
758,227;27402,231;    1,096;    0,318
758,795;27737,375;    1,187;    1,136
759,364;27979,520;   -0,086;   -0,591
759,933;26982,574;   -1,176;   -0,045
760,501;26453,174;    0,733;   -1,318
761,070;26920,864;   -2,813;   -1,409
761,639;27642,373;   -1,904;    1,318
762,207;27011,245;    1,551;   -0,955
762,776;26976,572;    0,369;    0,864
763,344;26905,535;   -0,995;    0,591
763,913;26004,679;   -0,722;    1,409
764,481;26809,188;    1,005;   -0,136
765,049;26540,333;   -1,358;    1,409
765,618;26376,387;   -0,086;    0,318
766,186;26434,623;    0,278;    0,136
766,754;26657,949;    0,005;    1,864
767,322;25672,367;   -1,995;    0,409
767,890;25674,694;   -0,722;   -1,773
768,459;26103,657;   -2,177;   -0,318
769,027;26306,256;    1,641;    3,409
769,595;25250,765;    3,278;    2,591
770,163;25699,182;    3,823;    2,955
770,730;25433,964;    0,732;   -0,136
771,298;25247,563;    0,187;   -1,409
771,866;25302,890;   -1,541;    4,955
772,434;25708,762;   -0,631;   -1,864
773,002;25850,543;    0,005;    0,682
773,569;25502,779;    0,914;    1,682
774,137;25326,015;   -0,268;   -0,045
774,705;26088,796;    0,278;   -0,136
775,272;25597,759;    0,641;    0,682
775,840;25300,813;   -0,177;    2,682
776,407;24870,958;    0,277;    1,955
776,975;24533,194;   -0,632;    0,318
777,542;25508,702;   -1,086;   -0,045
778,110;25330,393;   -1,268;   -0,045
778,677;25023,447;   -2,359;   -0,864
779,244;24786,682;    2,186;    1,045
779,812;24885,373;    1,823;    0,864
780,379;24747,881;    0,005;    1,136
780,946;24993,299;    1,005;   -0,773
781,513;25280,444;   -1,450;    0,318
782,080;24675,316;   -0,086;    2,864
782,647;25441,370;   -0,268;    3,045
783,214;25039,606;   -0,177;    3,864
783,781;24686,841;   -0,723;   -0,682
784,348;24525,623;   -0,632;    1,500
784,915;24954,949;   -3,177;    0,318
785,482;24725,367;    1,368;    2,591
786,049;25156,785;    0,186;   -0,591
786,615;25265,929;    0,277;   -0,955
787,182;24992,802;    0,186;   -0,682
787,749;24669,219;   -2,814;    1,409
788,315;23992,637;   -1,632;   -0,409
788,882;24333,418;    1,550;   -1,227
789,448;25006,108;    1,732;   -0,955
790,015;25041,162;    1,095;    3,227
790,581;24597,580;    1,459;    0,227
791,148;24517,998;    0,641;    1,045
791,714;24673,688;   -0,541;    3,136
792,280;24402,106;    0,186;    1,591
792,847;23948,432;    0,550;    2,500
793,413;24468,577;   -0,269;   -0,318
793,979;24044,449;    3,459;   -1,318
794,545;24163,049;    4,459;    2,682
795,111;23543,285;    2,186;    1,318
795,678;23697,157;    0,731;   -1,682
796,244;23382,665;    3,368;    0,136
796,810;23888,719;    1,731;    0,773
797,375;23603,046;    0,549;   -2,136
797,941;23630,464;   -0,541;    0,591
798,507;23770,881;   -0,451;   -0,955
799,073;23306,390;   -0,360;    0,591
799,639;23355,626;   -2,632;    3,136
800,205;23428,952;    0,095;    2,682
800,770;22977,097;    0,640;    1,773
801,336;23101,969;    1,368;   -0,955
801,901;22805,023;    4,549;    3,136
802,467;23350,986;   -0,542;    2,045
803,033;22626,768;   -0,087;    0,864
803,598;22862,367;    1,913;   -1,045
804,163;22845,694;    1,095;   -0,318
804,729;22823,293;   -0,178;    1,136
805,294;23253,711;    0,822;    2,227
805,859;23064,492;    0,731;   -0,409
806,425;22537,091;    1,186;    2,682
806,990;22192,509;    2,186;    4,318
807,555;22710,654;   -1,451;    2,591
808,120;22543,344;    0,822;   -0,409
808,685;22610,126;    0,185;   -2,500
809,250;22099,816;    0,004;   -0,500
809,815;22438,779;    1,913;    0,682
810,380;22987,378;   -0,269;    1,591
810,945;23520,705;   -1,087;    2,045
811,510;22621,850;    2,094;    1,591
812,075;22372,904;   -0,633;   -1,409
812,640;22426,867;    2,003;    1,409
813,204;22476,194;    0,822;   -0,227
813,769;22975,975;    2,094;   -0,045
814,334;22390,483;    0,458;    0,864
814,898;22441,174;    0,367;    0,591
815,463;22283,682;    1,276;   -0,773
816,027;22249,736;   -0,724;   -2,318
816,592;22330,154;    0,640;   -2,045
817,156;21878,753;    2,094;    1,136
817,721;21748,080;    4,276;    2,318
818,285;21670,316;    2,912;    1,500
818,849;22317,097;   -1,451;    1,682
819,414;22192,606;   -0,269;    2,955
819,978;21770,114;   -1,269;    1,773
820,542;22331,805;    2,003;    0,500
821,106;22067,858;   -0,815;    0,682
821,670;22223,185;   -0,815;    2,591
822,234;21907,512;   -0,270;    1,409
822,798;21294,566;    0,003;    0,500
823,362;21238,893;   -0,633;    4,227
823,926;20593,401;    0,094;    1,136
824,490;20866,728;   -0,997;   -0,682
825,054;21257,236;   -0,088;   -1,136
825,618;20885,563;   -1,542;   -1,500
826,181;20837,253;    0,458;   -1,318
826,745;20754,762;    1,367;   -1,045
827,309;21087,089;    1,185;    1,318
827,872;20458,506;    1,367;    0,955
828,436;21449,378;    1,185;   -0,773
828,999;21437,523;   -0,997;    1,227
829,563;20248,214;   -0,179;    1,136
830,126;20101,177;   -0,179;   -0,591
830,690;20105,594;   -1,997;    2,864
831,253;19644,739;   -0,543;    2,227
831,816;19836,793;   -1,906;    0,500
832,380;19720,938;    0,185;    0,864
832,943;19955,719;   -1,361;   -0,500
833,506;19397,410;    2,639;   -1,227
834,069;20193,827;    3,912;   -0,955
834,632;20274,427;    1,730;    1,318
835,195;20153,208;    1,003;    0,955
835,758;19383,989;   -0,997;    1,955
836,321;19260,589;    0,730;   -1,045
836,884;19314,915;   -0,725;   -0,955
837,447;19314,242;   -2,816;    1,773
838,010;19637,205;    0,366;    3,227
838,573;19898,077;   -1,179;    0,773
839,135;19852,859;   -1,361;   -0,955
839,698;19353,003;    1,275;    0,409
840,261;18862,512;    1,003;   -0,227
840,823;18673,111;   -0,543;    0,864
841,386;18978,711;   -0,452;   -2,409
841,948;18911,401;   -1,361;    1,773
842,511;18588,546;    0,912;    1,682
843,073;18756,145;    1,912;    0,227
843,636;18552,745;   -0,361;   -0,227
844,198;18520,526;    0,911;    0,591
844,760;18621,580;    1,093;    1,955
845,322;18226,361;    0,548;    1,136
845,885;18673,688;    0,730;    0,591
846,447;19086,197;   -1,998;    0,227
847,009;18682,432;    1,911;   -0,682
847,571;18990,941;    0,820;   -2,045
848,133;19088,540;   -1,089;   -1,864
848,695;18965,685;   -0,543;    1,409
849,257;18529,012;   -1,089;   -1,682
849,819;18671,248;   -0,998;   -0,409
850,381;18730,302;   -0,725;   -0,864
850,942;19113,538;    1,093;   -0,591
851,504;19060,591;    1,184;    0,227
852,066;19079,645;    1,275;   -1,591
852,628;18620,154;   -0,180;    1,955
853,189;18153,844;    1,638;    2,682
853,751;18236,080;   -0,907;    1,409
854,312;18063,770;   -0,453;   -1,682
854,874;18573,915;   -2,089;   -0,773
855,435;19087,788;   -0,907;   -1,682
855,997;19257,841;   -1,816;   -0,136
856,558;18560,350;    0,366;    1,773
857,119;18655,859;    0,820;    2,864
857,681;18317,276;    0,002;    0,318
858,242;18364,057;    1,911;   -2,136
858,803;18811,384;    0,456;   -0,773
859,364;19386,438;    0,184;   -4,773
859,925;18720,401;   -2,453;   -0,955
860,486;18615,273;   -0,453;   -0,955
861,047;18302,691;   -0,544;   -1,227
861,608;18149,199;   -1,089;   -0,773
862,169;18229,890;    0,638;   -0,045
862,730;18022,944;    0,456;    1,409
863,291;18270,725;   -0,635;   -0,500
863,852;18683,234;   -0,635;    1,955
864,412;18108,924;   -0,271;   -0,864
864,973;16691,614;   -0,089;    0,500
865,534;16579,305;   -1,726;    0,227
866,094;18056,086;    1,820;    0,227
866,655;17736,503;    1,274;    3,318
867,215;17976,830;    0,274;    0,136
867,776;17819,702;    0,547;   -0,136
868,336;17958,756;   -1,453;    0,136
868,897;17441,992;    2,638;    1,682
869,457;17130,591;    1,365;    0,318
870,017;17374,464;    0,547;   -1,227
870,578;17923,609;   -0,817;    0,773
871,138;17624,208;   -2,089;   -0,955
871,698;17142,898;   -0,817;   -1,318
872,258;17033,861;   -0,453;   -2,864
872,818;17403,097;    2,729;    0,045
873,378;17389,697;    0,638;    1,045
873,938;16909,751;    0,547;    0,500
874,498;17216,441;    0,274;   -1,955
875,058;17124,222;    2,183;    1,773
875,618;16952,822;    1,910;   -2,682
876,177;16883,148;    1,274;    0,136
876,737;16519,657;   -0,090;    1,955
877,297;16505,438;    0,183;    1,955
877,856;16560,765;   -0,362;    0,318
878,416;16514,819;    1,183;   -0,136
878,976;16703,327;   -1,817;    0,409
879,535;16888,654;    0,092;    3,136
880,095;16612,072;   -0,544;    0,045
880,654;16752,035;   -1,090;    1,318
881,213;16886,998;    2,456;    1,500
881,773;16526,506;    2,637;    2,682
882,332;16877,742;    3,365;    5,136
882,891;16696,796;    3,092;    2,136
883,451;17146,850;   -1,272;    1,682
884,010;16595,631;   -2,908;   -0,409
884,569;16723,776;   -0,999;   -0,045
885,128;16854,194;    2,819;   -1,864
885,687;16927,520;    4,455;    0,682
886,246;16620,665;    1,455;    2,136
886,805;16395,992;    2,455;    2,045
887,364;16634,228;   -0,999;   -0,500
887,922;17040,191;   -1,181;    0,045
888,481;16538,336;   -1,545;    0,591
889,040;16836,390;    1,183;    2,136
889,599;17486,807;    2,455;    1,409
890,157;17583,680;    1,455;    2,409
890,716;17217,643;   -0,090;    0,227
891,274;17034,333;    0,092;   -1,136
891,833;17484,932;    1,546;    0,864
892,391;17371,986;   -0,454;    0,500
892,950;17444,768;    1,819;   -0,773
893,508;17791,731;    0,455;   -0,409
894,067;17128,694;    0,637;    0,136
894,625;17055,202;   -0,636;   -1,500
895,183;17253,438;   -0,363;   -0,682
895,741;17162,128;    1,728;   -1,773
896,299;17005,910;   -0,545;   -2,409
896,858;17201,509;    0,819;   -1,591
897,416;17334,381;    2,728;   -1,318
897,974;17077,708;    1,819;    0,318
898,532;17213,853;    6,091;    2,682
899,089;17138,089;    2,091;   -0,682
899,647;17157,143;   -1,454;    1,318
900,205;16914,833;    1,182;    1,045
900,763;17062,432;   -0,454;    0,227
901,321;17072,305;    2,364;   -1,409
901,878;16497,449;   -1,000;   -0,773
902,436;16399,140;   -1,363;    1,318
902,994;16779,467;    4,728;    3,682
903,551;16197,793;    0,728;    0,409
904,109;16564,211;    0,182;   -1,409
904,666;16157,083;    2,455;    1,045
905,224;16017,955;    0,182;   -0,409
905,781;15778,282;    0,727;   -0,318
906,338;15801,699;   -1,363;    1,045
906,895;15756,026;    0,637;    2,045
907,453;15726,717;    1,727;    1,136
908,010;15768,134;   -0,909;    0,409
908,567;15406,734;    1,273;    0,591
909,124;14864,060;    0,364;   -1,500
909,681;14941,114;   -2,909;    0,682
910,238;15093,259;    0,636;   -1,318
910,795;15398,404;   -0,273;   -1,136
911,352;15016,949;   -2,909;   -2,682
911,909;14455,859;   -1,364;   -0,864
912,466;14941,040;   -3,182;    1,500
913,022;14533,495;   -1,636;    0,500
913,579;14863,495;   -0,909;    2,045
914,136;14545,859;    1,636;    0,955
914,692;14901,586;    0,091;   -1,227
915,249;14477,131;    1,455;    0,409
915,806;14723,131;    0,182;    1,955
916,362;14525,949;    1,909;    1,864
916,918;14067,404;    2,000;    1,045
917,475;13995,313;   -1,182;    0,955
918,031;14083,222;    3,364;   -0,045
918,587;13531,313;   -0,909;   -0,318
919,144;13760,768;   -2,273;    0,227
919,700;14064,586;    1,727;    0,773
920,256;13665,040;    0,727;    0,045
920,812;13307,768;   -0,727;   -1,045
921,368;13289,313;   -1,727;   -1,045
921,924;12891,586;    0,182;   -0,136
922,480;12482,859;   -0,545;    1,227
923,036;13117,949;    1,273;    1,955
923,592;13018,131;    0,455;    0,318
924,148;12925,586;    0,455;   -0,955
924,704;12267,404;   -1,364;   -0,409
925,259;12523,131;   -0,273;    0,591
925,815;12290,040;    1,455;    0,500
926,371;11843,313;    2,909;    1,409
926,926;11693,040;    2,091;    0,591
927,482;11342,313;   -1,364;    0,773
928,037;11192,859;    0,909;    2,045
928,593;11503,586;    1,636;    1,045
929,148;11311,131;   -1,818;   -1,500
929,704;10842,768;   -1,455;   -0,500
930,259;11033,677;    0,091;   -0,136
930,814;10123,859;   -0,818;    1,955
931,369; 9779,859;    1,091;   -0,773
931,925; 9668,222;   -0,091;    0,136
932,480; 9579,222;   -2,818;   -2,591
933,035; 9501,222;    0,545;   -0,318
933,590; 9243,404;    0,364;   -1,773
934,145; 8869,222;   -1,364;   -0,318
934,700; 9204,949;    0,455;   -0,591
935,255; 9014,586;   -0,091;    0,045
935,809; 8308,040;    3,182;    0,864
936,364; 7455,313;   -0,455;   -0,136
936,919; 7431,677;    0,455;   -1,773
937,474; 7298,040;    1,455;    0,136
938,028; 7038,313;   -1,636;    1,136
938,583; 6508,768;    1,818;    4,682
939,138; 6792,768;    2,091;    2,136
939,692; 6221,222;    1,636;   -1,136
940,247; 5952,313;   -0,727;   -1,045
940,801; 5513,404;   -0,636;    0,227
941,355; 5388,040;   -0,364;    2,591
941,910; 5064,495;   -0,273;   -2,136
942,464; 5168,131;   -0,818;   -0,318
943,018; 4956,677;    1,000;   -0,227
943,572; 4900,495;    2,545;   -0,682
944,126; 4346,313;    0,091;   -0,409
944,681; 4242,677;    3,091;    0,227
945,235; 4210,949;    1,000;   -0,591
945,789; 4147,586;    0,364;   -1,864
946,342; 4260,586;    0,455;   -0,591
946,896; 4058,859;   -2,273;    0,955
947,450; 3810,677;    1,545;   -0,227
948,004; 4032,131;    1,727;   -0,045
948,558; 4012,859;    0,273;   -0,864
949,111; 3930,768;   -0,273;   -0,318
949,665; 3980,586;    1,636;   -0,682
950,219; 3850,495;   -0,091;   -1,045
950,772; 3922,404;   -1,909;    1,864
951,326; 3825,404;    0,545;   -0,955
951,879; 3915,313;    0,727;   -2,318
952,433; 3953,404;    0,000;    2,227
952,986; 3786,040;    2,909;    0,682
953,539; 3753,586;   -0,273;    0,591
954,093; 3676,313;    0,545;   -1,318
954,646; 3812,222;    0,909;    1,318
955,199; 3611,313;    0,000;   -0,500
955,752; 3525,404;   -0,455;    1,773
956,305; 3481,677;   -0,091;    2,955
956,858; 3661,586;    0,818;   -0,318
957,411; 3822,131;   -0,545;    2,136
957,964; 3650,768;    1,364;    2,136
958,517; 3641,131;   -1,545;    3,136
959,070; 3467,222;   -0,455;    1,955
959,623; 3551,222;    1,091;    1,500
960,176; 3334,768;    1,727;    2,045
960,728; 3312,313;   -2,727;    0,773
961,281; 3355,313;    0,545;    0,500
961,834; 3399,131;   -0,909;    0,864
962,386; 3309,313;    1,727;    1,045
962,939; 3231,040;    0,364;   -0,318
963,491; 3384,859;    0,455;    1,136
964,043; 3231,404;    1,182;    2,409
964,596; 3378,677;   -1,000;    2,227
965,148; 3199,040;   -1,000;    1,773
965,700; 3118,677;    1,091;   -0,227
966,253; 3273,859;   -0,636;    0,318
966,805; 3136,949;   -2,273;    0,773
967,357; 3164,040;    1,091;   -1,500
967,909; 3122,040;    0,455;   -1,227
968,461; 3231,949;    0,545;    3,136
969,013; 3162,222;   -0,182;   -0,864
969,565; 3245,313;   -0,455;   -1,136
970,117; 3307,768;   -0,364;    1,045
970,669; 3115,495;    0,182;   -0,136
971,220; 3000,495;   -0,455;   -1,500
971,772; 2934,313;   -0,636;   -0,318
972,324; 3053,131;    0,091;   -0,500
972,876; 2994,859;    0,818;   -0,045
973,427; 3126,495;    1,909;   -1,045
973,979; 3098,222;   -0,727;   -2,500
974,530; 3138,040;    1,818;    1,318
975,082; 3146,404;   -0,545;    1,682
975,633; 3030,859;    1,091;    1,682
976,184; 3174,222;    0,909;    0,773
976,736; 2966,404;    0,091;    0,227
977,287; 2784,040;   -0,909;   -0,500
977,838; 2961,404;    0,909;   -0,318
978,389; 3015,222;   -1,000;   -0,500
978,940; 2892,859;    0,545;   -0,409
979,491; 2920,586;    0,091;   -0,500
980,042; 2886,768;    0,182;    3,045
980,593; 2939,768;   -2,545;    0,227
981,144; 2964,859;    2,545;   -0,500
981,695; 2943,768;    1,455;    1,500
982,246; 2894,040;   -0,273;    1,045
982,797; 3067,040;   -1,727;    0,682
983,347; 3178,768;    0,364;    0,591
983,898; 3354,040;    3,091;    0,409
984,449; 3164,586;    2,182;    0,773
984,999; 3055,586;    1,455;   -1,136
985,550; 2822,677;    0,182;   -0,318
986,100; 2865,859;   -0,455;   -0,318
986,651; 2879,859;   -0,818;    0,045
987,201; 2868,313;   -1,000;   -0,591
987,751; 2955,949;    0,818;    2,864
988,302; 2947,949;    2,636;    1,500
988,852; 2965,222;    0,455;   -1,136
989,402; 3019,768;    0,091;    0,682
989,952; 2931,222;   -2,182;    0,864
990,502; 3031,677;   -0,091;    0,682
991,052; 3005,131;   -0,727;    0,045
991,602; 2872,040;   -2,909;    1,318
992,152; 2852,404;    0,455;    0,682
992,702; 2845,404;    1,364;   -0,045
993,252; 2755,949;   -3,000;   -0,500
993,802; 2855,040;   -0,273;    1,318
994,352; 3086,949;   -1,545;    1,136
994,901; 3173,313;   -0,182;    3,227
995,451; 3085,313;   -0,182;    0,318
996,000; 3154,586;    1,636;    0,318
996,550; 2892,040;    2,273;    0,227
997,100; 2882,586;    1,273;   -0,045
997,649; 3153,131;    2,182;    0,955
998,198; 2796,131;    1,727;   -1,500
998,748; 3009,131;    1,091;   -2,318
999,297; 2911,222;   -0,818;   -0,409
999,846; 2980,404;    1,000;   -0,773
1000,395; 3017,677;   -0,818;    0,500
1000,945; 2976,859;    1,818;   -0,773
1001,494; 3059,222;    2,364;    0,682
1002,043; 3051,313;    4,636;    0,864
1002,592; 2895,313;   -1,091;    1,955
1003,141; 3038,586;   -0,455;   -0,682
1003,690; 2900,586;    1,727;    0,500
1004,238; 2988,768;    1,455;   -0,045
1004,787; 2619,586;    1,364;    1,227
1005,336; 2858,859;    0,364;    0,682
1005,885; 2991,949;    1,364;   -2,773
1006,433; 3130,040;    0,545;    0,955
1006,982; 3205,313;    0,455;    1,682
1007,531; 3091,949;   -1,818;   -0,227
1008,079; 3039,131;   -2,273;    0,500
1008,627; 3183,859;   -1,455;    0,409
1009,176; 2931,586;    0,000;   -1,955
1009,724; 2959,313;    1,091;    0,864
1010,273; 3035,131;    1,273;    0,500
1010,821; 3130,677;    0,091;    1,409
1011,369; 2872,586;   -1,364;    1,318
1011,917; 2837,949;   -1,364;   -0,591
1012,465; 3119,768;    1,273;   -1,591
1013,013; 3236,859;    2,091;   -1,682
1013,561; 3116,404;    0,455;   -0,773
1014,109; 3165,222;   -1,909;    1,682
1014,657; 3052,859;    0,364;    0,591
1015,205; 3164,768;    1,636;   -0,955
1015,753; 3177,040;   -0,545;   -1,409
1016,301; 3233,586;   -2,636;    3,045
1016,848; 3227,677;   -1,273;    0,409
1017,396; 3282,859;    2,545;    0,045
1017,944; 3404,586;    1,182;    1,864
1018,491; 3157,677;    0,273;    1,409
1019,039; 3306,586;    0,455;    0,591
1019,586; 3208,040;   -1,364;    1,682
1020,134; 3305,222;    0,455;    1,500
1020,681; 3346,768;    0,182;   -1,136
1021,228; 3327,586;    2,909;   -2,227
1021,776; 3183,313;    1,182;   -1,136
1022,323; 3410,313;    0,455;    0,773
1022,870; 3333,131;   -1,000;   -0,045
1023,417; 3203,131;    2,636;    1,864
1023,964; 3346,677;    2,636;    1,227
1024,511; 3208,859;    1,000;    0,773
1025,058; 3006,495;    3,182;   -0,045
1025,605; 3038,495;   -2,273;    3,136
1026,152; 3276,131;    1,727;   -0,591
1026,699; 3013,313;    1,818;    1,318
1027,245; 3168,495;   -0,091;    0,318
1027,792; 3364,768;   -1,000;    1,409
1028,339; 3259,404;    2,364;   -0,045
1028,885; 3090,859;    1,000;   -0,227
1029,432; 3028,859;   -0,091;    0,227
1029,978; 3103,404;   -1,000;   -1,591
1030,525; 3013,404;    1,000;    0,409
1031,071; 3250,949;   -1,364;    1,136
1031,618; 3382,859;    0,364;    1,682
1032,164; 3153,768;   -0,091;    3,045
1032,710; 3197,586;    1,636;   -1,500
1033,256; 3105,768;   -0,636;   -0,136
1033,803; 3091,131;   -0,545;    1,500
1034,349; 2796,131;   -1,364;    0,136
1034,895; 2937,677;    0,000;   -0,318
1035,441; 2949,131;   -0,818;    0,318
1035,987; 2952,222;   -2,364;   -0,682
1036,533; 2931,677;   -1,455;   -0,955
1037,078; 3161,586;    1,455;    1,682
1037,624; 2945,949;    2,455;   -0,955
1038,170; 2990,768;    0,455;   -0,318
1038,716; 2902,677;    1,636;   -0,409
1039,261; 2819,859;   -2,273;   -0,773
1039,807; 2743,677;   -0,091;    3,409
1040,352; 2825,949;   -1,909;   -0,318
1040,898; 2873,859;   -1,545;   -0,682
1041,443; 2775,586;   -1,455;   -2,591
1041,989; 2812,222;    1,091;    1,591
1042,534; 2671,313;   -0,364;    2,591
1043,079; 2781,040;    2,909;    0,955
1043,625; 2581,404;    1,818;    0,500
1044,170; 2620,495;   -1,364;    1,045
1044,715; 2867,586;    2,455;    0,955
1045,260; 2701,677;    2,182;   -0,955
1045,805; 2732,768;    1,182;   -0,591
1046,350; 2675,949;    1,364;   -0,409
1046,895; 2651,404;    2,909;    1,591
1047,440; 2591,495;    5,364;    0,409
1047,985; 2482,222;    2,818;   -0,955
1048,530; 2407,313;    1,545;    1,227
1049,074; 2475,313;    0,000;    0,318
1049,619; 2437,131;   -1,364;    1,955
1050,164; 2241,040;    0,455;    0,227
1050,708; 2306,495;   -0,455;    0,045
1051,253; 2673,040;    1,273;   -2,227
1051,797; 2365,404;    0,818;   -1,318
1052,342; 2378,859;   -1,182;    1,045
1052,886; 2387,404;    0,364;   -1,409
1053,430; 2254,040;   -1,364;    0,136
1053,975; 2272,222;   -0,818;   -0,318
1054,519; 2245,677;   -0,727;    3,227
1055,063; 2271,949;    0,909;    1,318
1055,607; 2156,949;   -0,182;    0,227
1056,151; 2172,040;    2,909;    1,682
1056,695; 2087,495;    2,273;   -1,136
1057,239; 2171,313;   -1,727;   -0,682
1057,783; 2179,859;    0,818;   -1,500
1058,327; 2122,040;    0,000;    1,409
1058,871; 2356,768;   -0,545;    1,318
1059,415; 2066,677;   -0,818;   -0,045
1059,958; 2338,131;    1,455;    2,591
1060,502; 2049,859;   -1,000;   -0,773
1061,046; 1942,768;    0,364;   -0,955
1061,589; 1920,404;   -3,000;   -1,136
1062,133; 1814,586;   -1,273;    1,864
1062,676; 1752,040;    1,182;    0,864
1063,220; 1762,586;    1,091;    0,500
1063,763; 1780,131;    0,909;    1,136
1064,306; 1864,768;   -0,909;    1,864
1064,849; 1749,222;   -0,909;    0,591
1065,393; 1762,131;    2,000;   -1,500
1065,936; 1856,949;    0,182;   -0,409
1066,479; 1741,495;   -1,455;    1,318
1067,022; 1763,586;   -0,273;   -0,227
1067,565; 1665,859;   -0,091;   -1,318
1068,108; 1699,313;    0,727;   -0,591
1068,651; 1666,131;   -0,636;    1,409
1069,194; 1606,586;   -0,455;   -1,682
1069,736; 1602,313;   -1,273;    0,955
1070,279; 1569,949;   -1,364;   -0,500
1070,822; 1636,768;   -2,000;   -0,318
1071,364; 1731,131;   -0,364;    1,318
1071,907; 1538,040;   -0,727;    3,227
1072,450; 1434,586;    0,000;   -0,045
1072,992; 1438,768;   -0,273;    3,136
1073,535; 1585,859;    2,091;    2,136
1074,077; 1370,495;   -0,727;    2,045
1074,619; 1343,586;   -1,364;    0,591
1075,161; 1382,677;   -1,091;    1,500
1075,704; 1569,586;    1,545;    1,227
1076,246; 1354,313;   -0,182;    0,682
1076,788; 1277,131;   -0,364;    1,773
1077,330; 1348,677;    1,273;    2,136
1077,872; 1323,131;    0,909;    0,955
1078,414; 1560,859;    2,727;    0,773
1078,956; 1280,404;    1,273;   -0,227
1079,498; 1543,131;    1,636;    0,318
1080,040; 1251,222;    1,909;   -1,318
1080,581; 1196,495;    1,636;   -0,318
1081,123; 1111,495;    0,091;   -0,773
1081,665; 1162,495;   -1,182;   -0,955
1082,206; 1475,131;    1,364;   -0,500
1082,748; 1322,859;    0,727;    2,045
1083,289; 1201,404;   -2,000;    1,318
1083,831; 1103,040;   -0,545;    0,227
1084,372; 1139,131;    0,000;    0,591
1084,913; 1146,949;    1,091;    0,864
1085,455; 1120,859;   -1,909;   -2,045
1085,996; 1093,949;   -2,273;    0,136
1086,537; 1116,404;   -0,091;    0,864
1087,078; 1135,313;   -0,909;   -2,136
1087,619; 1197,131;   -1,273;    0,227
1088,160; 1112,313;    0,000;    1,318
1088,701; 1087,586;   -1,091;    0,682
1089,242; 1023,859;    1,364;   -2,227
1089,783; 1120,949;   -0,273;    1,409
1090,324; 1086,313;    0,455;    0,682
1090,865;  964,495;    2,727;   -0,409
1091,405;  932,040;    0,727;    2,227
1091,946;  963,768;    0,182;   -0,955
1092,487;  889,586;    0,818;   -1,409
1093,027; 1064,131;   -1,364;   -1,500
1093,568;  914,949;   -0,364;    1,227
1094,108; 1020,859;    0,273;    1,773
1094,649;  962,131;   -1,182;    0,136
1095,189;  890,040;   -0,636;   -0,682
1095,729;  849,495;   -0,091;    0,955
1096,269;  841,949;    0,727;   -0,955
1096,810; 1169,949;   -1,364;    0,500
1097,350;  989,677;    1,364;   -0,773
1097,890;  880,313;    0,364;    1,227
1098,430; 1154,040;    2,364;    2,864
1098,970; 1026,404;    2,182;    1,682
1099,510;  869,495;    0,545;   -2,318
1100,050;  802,040;    1,000;   -1,591
1100,589;  768,313;   -0,727;   -0,318
1101,129;  895,040;    0,818;   -0,955
1101,669; 1060,586;    1,727;    2,136
1102,209;  865,313;   -0,091;    2,227
1102,748;  831,131;    0,000;    0,955
1103,288;  814,495;    1,273;   -1,227
1103,827;  840,222;    3,091;   -2,227
1104,367;  717,586;   -0,091;   -2,409
1104,906;  684,677;    1,364;   -1,136
1105,445;  759,313;    0,636;   -1,136
1105,985;  703,949;   -0,727;    1,500
1106,524;  760,859;   -1,727;   -0,682
1107,063;  725,768;   -2,727;    1,409
1107,602;  703,586;   -1,909;   -1,500
1108,141;  621,859;   -1,909;    1,500
1108,680;  744,040;   -3,455;   -0,591
1109,219;  674,859;   -0,909;   -0,500
1109,758;  665,949;    0,455;    0,682
1110,297;  623,313;    1,000;   -0,682
1110,836;  580,404;   -0,727;    0,955
1111,375;  745,222;   -2,545;    0,409
1111,913;  763,313;   -1,000;    0,773
1112,452;  689,949;   -0,273;    0,136
1112,991;  570,586;    1,091;    1,955
1113,529;  539,586;   -0,818;   -0,045
1114,068;  601,404;   -0,273;    2,955
1114,606;  501,131;   -0,364;   -0,955
1115,144;  675,859;   -1,273;    1,045
1115,683;  610,313;   -0,727;    0,318
1116,221;  667,040;   -0,455;   -0,864
1116,759;  562,495;    0,636;   -0,864
1117,297;  767,222;    0,000;    1,864
1117,836;  563,586;   -2,182;   -1,227
1118,374;  585,222;    0,182;   -0,682
1118,912;  526,949;    0,909;    2,682
1119,450;  514,949;    1,000;    0,864
1119,988;  571,586;    1,545;    2,136
1120,525; 1037,495;    5,091;    3,318
1121,063;  715,404;    1,182;    1,864
1121,601;  526,677;   -0,909;   -1,227
1122,139;  481,313;   -0,727;   -2,045
1122,676;  679,586;   -0,727;    2,773
1123,214;  609,586;   -1,182;    4,409
1123,751;  414,768;    1,727;    2,227
1124,289;  558,949;   -0,091;   -0,409
1124,826;  418,313;    1,727;    0,227
1125,364;  344,586;    1,727;   -0,955
1125,901;  543,586;    1,182;    1,227
1126,438;  652,222;    0,818;    0,955
1126,975;  370,131;   -0,727;   -0,773
1127,513;  444,768;    0,273;    2,136
1128,050;  340,586;    1,636;   -0,682
1128,587;  456,768;    2,000;   -0,227
1129,124;  500,677;    0,091;    1,318
1129,661;  345,859;    0,273;    0,227
1130,198;  527,495;    1,636;    0,773
1130,734;  482,586;    0,182;    1,409
1131,271;  326,404;   -0,909;    0,864
1131,808;  505,586;    2,909;    3,045
1132,345;  375,768;    1,545;    0,318
1132,881;  235,404;   -1,545;   -1,864
1133,418;  391,040;    0,727;   -1,136
1133,954;  322,040;    2,455;   -2,682
1134,491;  404,131;    1,364;   -0,773
1135,027;  291,495;    2,364;    0,864
1135,564;  386,677;    0,273;    2,955
1136,100;  374,859;    0,364;    2,136
1136,636;  255,677;   -1,273;   -1,045
1137,172;  358,495;    0,000;   -1,045
1137,708;  285,859;   -1,364;   -1,045
1138,245;  281,677;    1,273;   -1,227
1138,781;  230,404;    1,091;   -3,318
1139,317;  298,859;    1,273;   -1,409
1139,852;  287,859;    3,091;    0,136
1140,388;  414,495;   -1,182;   -0,409
1140,924;  300,313;   -1,091;   -2,227
1141,460;  231,859;   -1,636;    0,136
1141,996;  160,677;   -1,364;    2,682
1142,531;  212,222;    1,364;    3,318
1143,067;  439,404;    1,182;    1,045
1143,602;  494,222;   -0,091;   -0,318
1144,138;  340,586;   -2,636;    1,045
1144,673;  199,677;   -1,455;    1,409
1145,209;  263,677;   -1,909;   -0,318
1145,744;  177,859;   -0,727;    0,864
1146,279;  325,131;    1,818;   -0,136
1146,815;  230,677;    1,545;   -2,682
1147,350;  273,040;   -1,364;    0,045
1147,885;  186,404;   -0,818;   -1,318
1148,420;  189,495;   -2,273;    0,773
1148,955;  173,677;   -1,727;    1,864
1149,490;  199,131;   -0,909;   -1,591
1150,025;  186,495;    0,455;   -1,773
1150,560;  297,040;    1,091;   -0,955
1151,094;  262,131;    1,455;   -0,591
1151,629;  263,768;    1,636;    0,864
1152,164;  197,040;    1,364;    1,318
1152,698;  139,768;   -0,182;   -0,136
1153,233;  101,131;    0,091;   -0,682
1153,767;  155,404;   -3,000;   -2,318
1154,302;  210,222;   -1,455;    1,773
1154,836;  207,586;   -0,455;   -2,136
1155,371;  255,949;   -1,364;    3,682
1155,905;  203,859;   -0,636;    1,682
1156,439;  177,313;   -0,636;   -0,500
1156,973;  211,586;    0,364;    0,318
1157,507;  140,859;   -0,364;    0,682
1158,042;  168,313;   -0,727;    1,045
1158,576;  234,949;    0,182;    1,773
1159,110;  214,404;   -0,818;    2,409
1159,643;  181,222;    0,636;   -0,045
1160,177;  116,768;   -1,545;    1,500

