
Integration time [ms]:   0,040
Averaging Nr. [scans]: 11
Smoothing Nr. [pixels]: 0
Data measured with spectrometer [name]: 7318044SP
Wave   ;Sample   ;Dark     ;Reference
[nm]   ;[counts] ;[counts] ;[counts] 

186,757;   19,292;   31,551;    1,318
187,357;   54,599;   22,551;    0,955
187,958;   23,399;   15,460;   -1,591
188,558;   70,558;    8,915;   -1,227
189,159;   43,518;    6,733;   -4,500
189,759;    4,574;    7,278;   -3,591
190,360;   14,311;    2,824;   -2,136
190,960;   52,255;    2,915;   -4,136
191,560;   63,692;    3,189;   -6,591
192,161;  310,693;    4,372;   -3,500
192,761;  150,882;    4,010;   -3,227
193,361;   93,033;    1,556;   -3,773
193,962;  140,061;    2,010;   -2,682
194,562;   58,476;    1,189;   -3,955
195,162;   84,164;   -2,448;   -2,227
195,762;  243,661;   -3,176;   -0,045
196,362;  185,701;    1,370;   -2,500
196,963;   56,606;    2,006;   -0,864
197,563;  123,198;    1,551;   -0,955
198,163;   67,162;    0,096;   -0,682
198,763;   89,774;    1,733;   -0,500
199,363;  184,844;    3,096;   -0,500
199,963;  142,130;    0,369;    0,409
200,563;  115,386;    2,823;   -1,409
201,163;   96,561;    3,277;   -0,227
201,763;  176,090;    3,732;    0,318
202,363;  115,542;    1,459;    1,500
202,963;  200,748;    1,459;    1,045
203,563;  313,562;    0,277;    0,500
204,162;  169,575;    2,096;   -1,864
204,762;  167,079;    0,550;    0,591
205,362;  126,174;    3,004;    1,955
205,962;  208,466;    3,096;    1,955
206,562;  209,812;    1,823;    2,318
207,161;  176,629;   -0,087;    0,318
207,761;  335,662;    1,277;    2,409
208,361;  213,036;   -0,268;    1,409
208,960;  301,313;    0,459;    1,500
209,560;  350,453;    1,277;    1,591
210,160;  343,043;    0,550;    1,864
210,759;  308,587;    4,186;    1,227
211,359;  309,502;    1,459;    1,045
211,958;  555,780;    1,277;    2,045
212,558;  640,852;    1,732;    1,864
213,157;  481,985;    1,822;    1,500
213,757;  877,340;    3,822;   -0,227
214,356;  585,228;    1,277;   -0,409
214,956;  895,374;    3,095;    0,409
215,555;  540,538;    2,095;    2,136
216,154;  482,569;   -2,723;   -0,591
216,754;  483,926;    0,277;    0,773
217,353;  599,463;   -0,268;   -1,045
217,952;  448,393;   -0,178;    0,318
218,552;  693,578;    1,368;   -0,773
219,151;  568,649;    0,277;    0,955
219,750;  568,320;    0,004;   -0,227
220,349;  624,473;   -0,451;    1,045
220,948;  741,427;   -1,360;    1,136
221,548;  681,922;    0,913;    1,227
222,147;  788,301;   -0,087;   -0,409
222,746; 1076,872;   -0,451;   -0,955
223,345;  917,979;    0,731;    0,500
223,944;  903,431;   -0,451;    0,773
224,543; 1029,480;    1,004;   -1,409
225,142; 1142,559;    0,094;    0,136
225,741; 1032,150;   -0,814;    1,045
226,340; 1022,380;   -0,451;   -0,955
226,939; 1394,295;   -0,996;   -0,136
227,538; 1230,717;   -0,360;   -0,773
228,137; 1413,692;   -0,814;    0,864
228,735; 1404,416;   -0,541;    1,227
229,334; 1185,864;   -0,905;   -0,227
229,933; 1548,842;    0,459;    0,591
230,532; 1647,803;    1,186;   -0,409
231,131; 1709,899;    1,732;    0,318
231,729; 1680,189;   -2,450;   -2,318
232,328; 1633,875;   -0,723;   -1,500
232,927; 1640,302;    1,004;   -0,500
233,525; 1658,198;    3,640;    0,045
234,124; 1827,226;    2,368;   -1,591
234,723; 1781,070;    0,913;   -1,045
235,321; 1833,364;    2,277;    0,136
235,920; 1971,647;    1,186;   -1,227
236,518; 2223,850;    3,459;    0,318
237,117; 2201,531;    0,004;   -0,227
237,715; 2290,290;    0,640;   -0,500
238,314; 2342,358;   -0,087;   -2,318
238,912; 2511,753;   -0,723;   -1,409
239,510; 2437,013;    0,459;   -1,227
240,109; 2631,580;    0,004;    3,773
240,707; 2631,111;   -0,996;    1,227
241,305; 2792,983;    0,550;    0,136
241,904; 3005,801;   -0,178;   -2,045
242,502; 3066,448;   -0,632;   -0,227
243,100; 2991,283;   -0,087;   -0,955
243,698; 3217,043;    0,732;    1,682
244,297; 3390,503;   -0,632;    0,682
244,895; 3328,812;   -0,269;   -2,318
245,493; 3643,359;    2,186;   -0,591
246,091; 3678,496;    1,368;   -1,318
246,689; 3672,856;    1,004;    0,591
247,287; 3836,822;    0,822;   -1,136
247,885; 4135,614;   -1,451;    1,227
248,483; 4225,969;    1,822;   -0,500
249,081; 4377,282;    0,185;    1,591
249,679; 4558,845;   -0,178;    1,682
250,277; 4806,137;   -1,723;    0,864
250,875; 4823,559;   -1,087;   -1,045
251,473; 4882,656;   -1,178;    0,500
252,071; 5115,514;    1,459;    1,045
252,669; 5271,795;   -1,814;    0,318
253,267; 5472,452;   -0,087;    0,773
253,864; 5434,913;   -0,360;    0,682
254,462; 5443,514;    1,640;    1,591
255,060; 5377,861;   -0,269;    1,318
255,658; 5671,068;    0,822;   -0,136
256,255; 6093,818;    0,186;   -2,045
256,853; 5981,342;   -0,269;    1,409
257,451; 5985,989;    0,822;    1,864
258,048; 6305,609;    1,822;    1,864
258,646; 6054,692;    1,731;   -1,045
259,243; 6258,342;   -0,087;    2,227
259,841; 6309,221;   -0,814;    0,318
260,438; 6205,859;   -0,087;    0,864
261,036; 6819,447;   -1,905;    1,409
261,633; 6767,892;   -0,087;    2,227
262,231; 6569,907;    2,731;   -0,045
262,828; 6681,242;   -0,905;    1,136
263,425; 6765,693;    0,913;   -0,591
264,023; 7028,043;    0,186;    0,045
264,620; 6596,595;   -0,360;   -0,318
265,217; 6949,526;   -2,087;    3,136
265,815; 7056,730;   -1,905;    2,136
266,412; 6901,896;    0,731;    0,136
267,009; 6931,258;   -1,451;    0,773
267,606; 6880,965;    0,822;   -0,955
268,203; 6856,582;   -0,269;   -0,591
268,801; 7113,459;    1,731;    0,591
269,398; 7375,201;   -0,360;    2,500
269,995; 7350,424;    0,277;    1,591
270,592; 7166,804;   -0,632;   -0,500
271,189; 7340,323;    0,186;    0,409
271,786; 7462,182;   -0,632;    1,227
272,383; 7355,635;   -1,087;    0,227
272,980; 7488,142;    0,277;    0,318
273,577; 7891,583;    0,004;    1,227
274,174; 7457,627;    0,822;    2,591
274,771; 7483,613;   -0,814;   -0,773
275,367; 7657,852;    2,277;    1,409
275,964; 7607,864;    0,731;   -0,500
276,561; 7674,350;    1,549;   -1,045
277,158; 7868,573;    0,095;   -1,773
277,755; 8010,282;    2,185;    0,409
278,351; 7445,234;   -0,451;   -1,500
278,948; 7772,611;   -0,815;    0,045
279,545; 7768,694;   -1,360;    2,318
280,141; 8384,794;   -1,723;   -2,045
280,738; 8243,243;   -0,451;   -0,136
281,334; 8426,656;   -1,633;    0,591
281,931; 7841,460;   -0,087;   -1,318
282,528; 7978,111;    0,822;   -0,500
283,124; 8695,059;   -1,087;   -0,500
283,721; 8582,628;   -0,451;    1,409
284,317; 8411,798;    0,185;    2,500
284,913; 8955,967;   -1,360;    0,591
285,510; 9172,876;    0,640;   -0,318
286,106; 9240,620;   -2,269;   -0,955
286,703; 8851,933;   -0,360;    1,955
287,299; 9080,676;   -1,451;   -0,591
287,895; 9277,717;    0,822;   -1,045
288,491; 9811,201;    0,186;    2,136
289,088; 9609,745;   -2,360;    2,409
289,684; 9716,250;   -1,723;    1,500
290,280; 9771,057;    0,368;    0,682
290,876; 9885,015;    1,822;    5,500
291,472; 9783,877;    1,276;    2,227
292,068; 9949,900;    1,367;    0,227
292,665; 9684,040;    2,095;    0,773
293,261; 9376,875;    0,276;    2,136
293,857; 9809,505;    2,913;    2,136
294,453; 9741,839;    3,550;    0,955
295,049; 9683,358;   -0,268;    1,955
295,644; 9758,873;    0,095;    0,136
296,240; 9701,149;   -0,905;   -0,136
296,836; 9799,714;   -0,995;    0,318
297,432;10091,050;    1,096;   -0,500
298,028;10161,385;    0,732;    0,773
298,624;10562,087;    1,459;    1,864
299,220;10829,299;    2,368;    0,591
299,815;10522,583;    1,005;   -0,409
300,411;10361,903;    0,914;    1,773
301,007;10409,921;    1,368;    0,227
301,602;10466,234;   -0,541;   -2,318
302,198;10674,070;    0,732;   -0,773
302,794;10979,167;    1,187;   -0,500
303,389;11079,904;   -1,177;    1,045
303,985;11183,246;    0,550;    1,409
304,580;11171,800;    1,459;    1,591
305,176;11119,872;   -3,086;    0,136
305,771;11068,660;   -1,268;   -1,227
306,367;10956,379;    4,095;    0,136
306,962;11249,234;    0,641;    1,500
307,558;11002,171;   -0,450;    0,136
308,153;10940,966;    1,095;   -1,136
308,748;11140,370;   -0,814;    1,682
309,344;11103,410;   -0,632;   -1,318
309,939;11206,412;   -1,905;   -1,318
310,534;11418,911;   -0,086;   -1,682
311,130;11334,254;    0,459;   -2,500
311,725;11062,644;    1,004;   -0,500
312,320;11372,300;    2,459;    0,045
312,915;11226,914;    1,459;   -1,045
313,510;11312,497;    1,550;   -0,500
314,105;11759,934;    1,096;    1,409
314,700;11104,960;   -3,086;   -1,045
315,295;10761,618;   -0,904;    0,045
315,890;10352,409;    1,277;    0,864
316,485;10676,377;   -0,359;   -0,318
317,080;10760,332;   -3,086;    1,591
317,675;11340,485;    2,005;   -0,682
318,270;10791,814;    5,550;    3,318
318,865;10753,810;    3,278;    3,045
319,460;10582,748;   -0,904;    0,591
320,055;10751,204;   -0,541;   -1,227
320,650;10443,520;   -1,995;   -0,591
321,244;10466,584;   -0,177;   -1,409
321,839;11357,697;   -1,541;   -0,227
322,434;11269,755;   -1,086;   -1,591
323,029;10916,134;    1,732;    1,591
323,623;10738,188;    1,550;    0,773
324,218;10533,929;    2,368;    1,409
324,812;10412,897;    1,096;    1,591
325,407;10223,657;   -0,814;    2,045
326,002;10175,542;    0,277;   -0,409
326,596;10478,769;    0,914;    1,318
327,191;10651,707;    0,823;   -1,045
327,785;10264,223;   -0,813;   -0,227
328,379;10534,557;    1,368;    0,136
328,974;10339,861;    0,914;   -3,955
329,568;10566,023;    0,186;   -2,409
330,163;10431,990;    2,096;    1,045
330,757;10786,174;    2,459;    1,591
331,351;10162,442;    0,459;    0,682
331,945;10468,800;    0,914;    1,409
332,540;10095,445;   -1,723;   -0,591
333,134;10292,513;   -1,086;    0,773
333,728;10523,414;    0,005;    0,318
334,322;10887,218;   -1,177;   -0,864
334,916;10215,790;    0,277;    0,955
335,510;10559,467;   -0,450;   -0,136
336,105;10836,434;   -1,086;    1,591
336,699;10587,728;   -1,086;    0,591
337,293;10579,570;   -1,723;    0,318
337,887;10709,513;   -2,723;    1,955
338,481;10825,292;    0,459;    0,591
339,074;11000,514;   -0,359;    2,682
339,668;10866,103;   -1,632;    1,227
340,262;11123,366;    1,732;    3,227
340,856;10675,973;    1,822;   -0,682
341,450;10052,153;    1,004;    1,864
342,044;10952,207;    1,459;    0,136
342,637;10772,308;    0,913;   -2,136
343,231;10661,870;   -2,360;    0,682
343,825;10625,452;   -1,086;   -0,591
344,419;10610,456;   -1,995;    0,500
345,012;10438,094;    2,459;    4,045
345,606;10452,770;    4,641;    1,591
346,199;10300,850;   -1,813;   -0,227
346,793; 9831,984;    1,914;    2,045
347,386;10025,954;   -0,813;   -1,136
347,980;10053,522;   -0,268;   -0,045
348,573; 9840,802;    2,278;    0,409
349,167; 9575,439;    5,278;    4,773
349,760; 9925,295;    2,914;    2,682
350,354; 9897,809;   -0,813;    1,136
350,947; 9658,091;    1,096;    1,682
351,540; 9348,388;   -0,358;   -1,409
352,134; 9279,326;    1,096;    1,136
352,727; 9379,051;   -0,086;    1,136
353,320; 9160,101;    0,005;    0,591
353,913; 8994,880;   -1,995;    1,864
354,507; 9223,987;    0,823;   -1,227
355,100; 9191,785;    0,460;    0,864
355,693; 8495,664;    2,005;    2,409
356,286; 8526,596;    0,823;    2,773
356,879; 8840,301;   -0,722;    1,227
357,472; 8423,433;   -0,904;    1,500
358,065; 8654,532;   -0,722;    2,500
358,658; 8563,844;   -0,540;    2,318
359,251; 8222,759;   -1,631;   -0,591
359,844; 7711,158;   -1,904;   -1,136
360,437; 7896,579;   -2,995;    0,045
361,030; 8163,637;    1,369;   -0,682
361,623; 7763,489;    2,824;    0,318
362,215; 7801,553;   -0,086;    2,045
362,808; 7626,845;   -2,358;   -1,682
363,401; 7823,613;   -2,449;    0,136
363,994; 7571,007;   -0,631;   -1,500
364,586; 7492,762;    0,824;   -1,500
365,179; 7695,189;   -0,449;   -1,136
365,772; 7166,107;   -1,995;    2,045
366,364; 7478,798;    1,915;   -3,227
366,957; 7683,466;    2,279;   -0,045
367,549; 7682,640;    2,188;   -0,864
368,142; 7342,012;    1,825;   -1,500
368,734; 7517,335;    0,734;   -2,136
369,327; 7450,545;    1,643;   -0,500
369,919; 7384,406;   -1,538;    0,409
370,512; 7175,189;   -1,083;   -0,500
371,104; 6976,240;   -0,901;    1,591
371,696; 7130,483;    1,191;   -0,955
372,289; 7199,882;    0,373;    1,136
372,881; 7350,935;   -2,080;    1,318
373,473; 7234,813;   -2,170;    1,136
374,066; 7081,879;   -0,169;    0,500
374,658; 6950,497;    0,378;    1,136
375,250; 7266,605;    0,653;   -1,409
375,842; 7118,890;    0,473;   -0,045
376,434; 7012,860;   -0,435;   -0,409
377,026; 7550,081;    0,204;   -2,500
377,618; 7434,278;   -0,158;   -0,682
378,210; 7273,115;   -0,338;   -1,955
378,802; 7111,199;    0,754;   -0,591
379,394; 7123,711;    1,846;    0,682
379,986; 7650,904;    1,393;   -0,955
380,578; 7737,599;   -0,153;    0,773
381,170; 7103,039;   -0,972;    0,045
381,762; 7073,552;    0,755;    1,409
382,354; 7241,603;   -0,065;   -1,318
382,945; 7346,330;   -2,976;    0,318
383,537; 7477,638;   -2,705;   -1,955
384,129; 7515,713;   -2,160;   -1,136
384,721; 7713,687;   -0,252;    0,955
385,312; 7614,209;   -0,161;   -0,955
385,904; 7718,443;   -2,706;    1,591
386,496; 7084,150;   -0,979;    1,045
387,087; 7233,042;    1,022;    2,500
387,679; 7292,765;   -1,160;    0,045
388,270; 7423,508;    2,840;    2,045
388,862; 7506,410;    1,295;   -0,318
389,453; 7396,832;   -0,887;    1,045
390,045; 7693,618;   -0,705;   -2,682
390,636; 7609,499;    0,204;   -0,591
391,227; 7452,883;   -0,523;   -0,045
391,819; 7550,484;    0,204;    0,773
392,410; 7638,167;    1,022;    0,045
393,001; 7573,522;   -0,979;   -1,591
393,593; 7872,057;    1,930;   -0,045
394,184; 7717,528;    1,385;   -0,409
394,775; 7646,472;    1,839;    2,136
395,366; 7817,868;    1,385;    0,773
395,957; 7825,114;    0,113;    0,136
396,548; 8120,199;   -0,342;    2,682
397,139; 8415,705;   -2,433;    0,591
397,730; 8164,194;   -1,888;    0,955
398,321; 8207,091;   -1,252;    0,955
398,912; 8224,694;   -0,615;    0,136
399,503; 8275,901;   -3,524;   -1,409
400,094; 7753,439;    0,294;    1,682
400,685; 7627,473;   -0,433;    0,045
401,276; 7676,538;    0,930;   -0,955
401,867; 7997,600;   -0,888;    0,773
402,458; 8065,863;   -2,251;   -2,318
403,048; 8058,804;    1,112;    0,591
403,639; 7667,248;    0,840;    0,864
404,230; 7936,388;    2,476;    0,318
404,821; 7858,628;   -0,615;    0,045
405,411; 7937,355;    1,203;   -2,591
406,002; 7555,661;   -1,252;   -1,136
406,592; 7442,924;    2,294;    0,045
407,183; 7701,882;    0,566;   -1,500
407,774; 7628,808;    3,475;   -0,136
408,364; 7956,202;    0,930;    0,409
408,954; 7556,115;    0,384;    1,227
409,545; 7587,560;    1,021;    1,045
410,135; 7109,924;    1,293;    0,500
410,726; 7251,028;    1,838;    0,318
411,316; 7623,607;    0,111;    0,773
411,906; 7273,619;   -0,253;   -0,409
412,497; 6761,257;   -1,070;   -0,045
413,087; 7314,417;   -1,980;   -0,227
413,677; 7681,151;   -0,707;    3,864
414,267; 7533,470;    0,656;    1,409
414,857; 7512,217;   -2,980;    4,227
415,448; 7748,101;    0,839;    0,500
416,038; 7444,603;    0,020;   -0,591
416,628; 7372,141;   -0,889;    0,409
417,218; 6879,610;    0,565;    3,318
417,808; 7085,266;    0,202;   -0,409
418,398; 7499,664;    0,020;    2,682
418,988; 7498,195;    2,020;    0,591
419,578; 7716,230;   -0,707;    1,409
420,168; 8000,353;   -1,343;   -0,955
420,757; 7582,405;   -1,343;   -1,500
421,347; 7256,994;    0,111;   -0,227
421,937; 7349,834;    2,292;    1,409
422,527; 7319,240;    0,838;   -0,773
423,116; 7145,056;   -0,253;   -0,045
423,706; 7381,794;   -1,889;    0,318
424,296; 7333,606;    1,384;    0,682
424,885; 7726,242;   -0,071;   -3,045
425,475; 7964,019;    1,474;   -2,864
426,065; 7829,316;   -0,980;   -0,318
426,654; 7437,604;   -0,435;   -0,318
427,244; 7574,791;    0,020;    1,409
427,833; 7047,131;    1,383;   -0,500
428,423; 7413,264;   -0,526;    1,136
429,012; 8058,080;   -0,344;   -1,136
429,601; 7568,339;   -1,344;    0,136
430,191; 7736,649;    1,292;    4,318
430,780; 7371,785;   -0,344;   -0,409
431,369; 7297,978;    0,746;   -0,045
431,959; 7823,299;   -1,254;    0,500
432,548; 7582,613;   -1,163;   -0,045
433,137; 7639,289;   -1,254;   -1,318
433,726; 8077,805;    0,292;    0,500
434,315; 7490,893;   -0,526;    2,409
434,905; 7541,601;   -1,254;    1,409
435,494; 7461,385;    0,746;    0,955
436,083; 7809,789;   -0,981;   -0,955
436,672; 7628,465;    0,110;    0,500
437,261; 7228,142;    0,292;   -1,955
437,850; 7304,987;    1,383;    0,682
438,439; 7245,895;    3,291;    1,955
439,027; 7100,103;    3,655;    1,773
439,616; 7339,200;    2,927;    1,227
440,205; 7101,106;    0,200;   -2,136
440,794; 7117,307;    2,109;   -0,045
441,383; 7284,539;   -1,346;   -0,591
441,971; 7082,254;   -2,436;    0,591
442,560; 6878,636;    0,563;   -1,773
443,149; 6597,772;    0,379;   -1,318
443,737; 6698,371;   -0,074;   -2,318
444,326; 6866,191;    0,018;    0,318
444,915; 6842,388;   -1,982;    0,864
445,503; 7125,352;   -2,891;   -0,318
446,092; 6470,106;    0,382;    2,136
446,680; 6863,246;    0,382;    0,318
447,269; 6927,607;   -0,346;   -0,318
447,857; 6649,764;    0,018;   -1,773
448,445; 6674,545;    0,563;    1,318
449,034; 6827,830;   -1,528;   -1,136
449,622; 6829,742;   -1,073;    3,500
450,210; 6258,247;    2,017;    2,227
450,799; 6641,451;    0,290;   -0,591
451,387; 6478,054;    1,381;   -0,591
451,975; 6188,655;    2,654;    0,864
452,563; 6286,110;    3,472;    2,318
453,151; 6186,750;   -0,528;   -1,227
453,739; 6052,035;   -1,347;    0,136
454,328; 5970,234;    2,381;   -2,136
454,916; 5698,954;    2,562;   -0,136
455,504; 5773,027;    1,017;    1,227
456,092; 5844,016;    0,017;   -1,591
456,679; 5718,449;    1,472;    0,682
457,267; 5869,060;    4,017;    1,045
457,855; 5783,249;    1,017;    1,409
458,443; 5472,601;   -0,165;    1,682
459,031; 5673,097;    0,108;    2,409
459,619; 5916,296;   -1,801;    2,864
460,206; 5870,266;    0,835;    2,045
460,794; 5925,888;   -2,983;   -0,227
461,382; 6096,745;   -0,529;   -0,864
461,970; 5719,046;    1,198;    1,864
462,557; 5692,617;   -0,711;   -0,682
463,145; 5849,913;   -3,165;   -1,682
463,732; 5940,108;    2,016;   -1,045
464,320; 5742,127;   -0,075;   -3,045
464,907; 5548,703;    2,743;   -0,773
465,495; 5396,101;    0,743;   -1,227
466,082; 5423,967;   -1,984;   -0,045
466,670; 5267,344;   -2,529;    1,227
467,257; 5563,831;   -1,711;    2,045
467,844; 5710,256;   -0,075;    0,045
468,432; 5658,482;    0,834;    3,500
469,019; 5287,906;    0,925;   -1,773
469,606; 5568,277;    0,470;    3,682
470,193; 5412,363;   -1,439;    0,227
470,780; 5107,873;   -2,075;    0,864
471,368; 5270,782;   -1,257;   -0,773
471,955; 5076,934;    1,379;   -0,682
472,542; 4783,505;    0,652;   -1,136
473,129; 4859,286;   -0,166;    0,136
473,716; 4607,959;    1,470;    0,591
474,303; 4639,147;    0,652;   -0,864
474,890; 4757,423;   -1,439;   -0,500
475,477; 4784,162;   -1,621;    0,409
476,064; 4624,438;    1,106;   -1,591
476,650; 4438,353;    0,288;    0,318
477,237; 4275,353;   -0,258;    0,955
477,824; 4329,950;   -1,076;    0,864
478,411; 4164,119;   -1,894;   -0,318
478,997; 4233,558;    0,560;   -0,773
479,584; 4164,261;    1,196;   -0,409
480,171; 4563,312;   -0,440;   -0,773
480,757; 4359,887;    2,651;    0,773
481,344; 4326,015;    0,469;    0,409
481,931; 3888,885;    1,105;    1,045
482,517; 4392,955;   -1,258;    0,318
483,104; 4557,138;    1,106;    2,864
483,690; 4521,785;   -1,804;    0,045
484,276; 4500,433;   -0,895;    0,227
484,863; 4401,118;    2,469;    1,136
485,449; 4520,401;   -0,077;    0,318
486,035; 4360,173;   -1,986;   -0,136
486,622; 4603,468;   -0,895;    0,045
487,208; 4478,664;    1,378;    1,500
487,794; 4338,758;    0,741;    0,318
488,380; 4411,239;    0,105;   -1,409
488,967; 4416,003;   -1,168;   -0,409
489,553; 4424,254;   -1,895;   -1,409
490,139; 4581,502;    1,559;    0,773
490,725; 4301,791;    0,741;   -0,227
491,311; 4135,744;    3,287;    3,045
491,897; 3832,844;   -0,986;    1,500
492,483; 3937,629;    0,105;    1,227
493,069; 4389,281;    3,923;    0,864
493,655; 4126,647;    1,650;    0,682
494,241; 4102,781;    1,377;   -0,955
494,826; 4374,069;    0,287;   -1,045
495,412; 4131,192;    2,559;   -0,682
495,998; 4335,722;   -0,805;   -0,318
496,584; 4430,893;    0,377;    1,045
497,169; 4486,261;    1,014;   -0,682
497,755; 4609,620;    0,650;    1,227
498,341; 5229,985;    0,559;    0,318
498,926; 5123,915;    1,832;    1,955
499,512; 5323,841;    1,286;    2,955
500,097; 5430,457;    0,195;   -0,318
500,683; 5643,145;   -0,350;    2,136
501,268; 6132,638;   -0,169;   -0,955
501,854; 6182,009;   -0,169;    1,227
502,439; 6328,374;   -0,624;   -1,773
503,024; 6688,186;    0,195;    0,500
503,610; 6952,571;   -0,078;   -0,682
504,195; 7170,730;    0,558;    1,955
504,780; 7533,196;    2,922;    1,227
505,366; 7670,086;    3,013;    2,864
505,951; 7691,061;    0,740;    1,045
506,536; 7998,254;   -3,260;   -3,682
507,121; 8174,610;    0,285;   -0,318
507,706; 8857,529;    2,376;    1,045
508,291; 9388,246;    2,649;    1,136
508,876; 9152,184;   -0,988;    2,591
509,461; 8905,934;   -0,169;   -0,773
510,046; 9507,861;    0,194;    0,318
510,631; 9946,533;   -0,351;   -0,773
511,216; 9839,002;    2,467;   -0,500
511,801;10377,778;   -0,442;    2,591
512,386;10844,619;    0,740;    0,500
512,971;10946,801;   -2,988;    0,955
513,555;10731,708;   -0,897;   -1,500
514,140;11649,216;   -0,442;   -3,136
514,725;11770,926;   -0,715;   -1,136
515,309;12028,270;   -0,533;    0,318
515,894;11632,508;   -0,624;   -2,227
516,479;12160,632;   -0,624;   -0,955
517,063;12133,148;    0,376;    1,227
517,648;12379,161;    1,012;   -1,136
518,232;12108,625;   -0,261;   -1,409
518,817;12551,964;   -0,079;    1,682
519,401;12865,368;    2,194;    0,591
519,985;12431,887;    1,103;    1,136
520,570;12403,341;    0,830;   -1,955
521,154;12737,083;    2,102;    0,591
521,738;12943,811;   -2,352;    2,409
522,323;13562,427;   -0,170;    1,682
522,907;13341,497;    0,466;   -0,136
523,491;13110,688;    0,557;    0,955
524,075;13114,482;    2,284;    0,591
524,659;13267,366;    1,466;    0,591
525,243;12806,775;    1,739;    0,409
525,827;13087,999;    0,648;   -0,045
526,411;13923,366;   -1,989;   -0,136
526,995;14166,550;   -0,352;    1,409
527,579;13815,853;   -0,443;   -1,045
528,163;14130,936;    0,375;   -1,500
528,747;14060,738;    2,466;   -0,773
529,331;14351,390;   -0,080;   -1,409
529,915;14588,702;    1,738;    0,955
530,499;14575,852;   -0,807;    1,227
531,082;14280,573;   -0,534;    1,591
531,666;13738,871;    1,374;    0,773
532,250;14391,441;    1,284;    2,682
532,833;14748,914;    0,920;    2,773
533,417;14597,498;   -1,807;    0,864
534,001;14600,500;    1,647;   -0,318
534,584;15324,328;    0,374;    0,500
535,168;15195,048;    0,465;    1,409
535,751;15251,724;    0,647;    0,045
536,334;14722,571;   -0,898;   -0,409
536,918;15262,048;    0,011;    1,591
537,501;15413,639;   -0,899;    1,318
538,085;15362,298;   -0,444;    1,045
538,668;15557,728;    0,829;    2,409
539,251;15911,703;    1,829;    3,773
539,834;15886,781;    0,101;    0,773
540,418;15863,631;   -1,990;    4,318
541,001;15966,210;   -0,990;    1,773
541,584;15967,151;    2,101;    2,227
542,167;15679,403;    1,374;    2,955
542,750;15794,827;    1,919;   -0,773
543,333;15391,086;    0,555;    2,136
543,916;16187,954;    0,192;    2,500
544,499;16801,956;   -1,354;    0,227
545,082;16805,116;    1,374;    3,591
545,665;16917,848;    1,919;    1,500
546,248;17320,540;    1,010;   -0,318
546,830;16946,038;   -0,445;    1,955
547,413;17358,991;    1,010;   -0,773
547,996;17921,366;    0,555;    0,500
548,579;17677,663;    0,919;    0,955
549,161;17478,641;    1,828;    2,682
549,744;17246,847;   -0,809;    0,409
550,326;17730,672;   -0,809;   -1,136
550,909;17560,868;    2,737;    0,591
551,492;17963,561;   -0,263;    0,227
552,074;17720,017;   -0,173;   -1,318
552,657;18291,261;    2,373;    0,045
553,239;18041,732;   -0,173;   -0,773
553,821;17948,212;   -1,082;    1,045
554,404;17440,954;    1,282;    1,136
554,986;17857,539;    0,464;    1,045
555,568;18434,828;    1,191;   -0,955
556,151;17672,985;    1,191;   -0,227
556,733;17869,977;   -0,264;   -0,864
557,315;18316,718;    0,100;    0,500
557,897;18164,128;    0,554;   -0,500
558,479;18264,984;   -1,991;    1,318
559,061;18426,991;   -0,719;   -0,864
559,643;18734,732;   -0,264;    0,045
560,225;19108,715;    1,645;    2,864
560,807;19125,914;    0,918;    0,318
561,389;18567,084;    0,554;    2,318
561,971;19378,118;    0,463;    2,136
562,553;19155,572;   -1,628;    1,591
563,135;19339,502;   -0,537;    1,136
563,717;18942,831;    3,372;    1,136
564,298;19636,804;    3,645;   -0,045
564,880;19424,550;    0,645;   -1,409
565,462;19571,732;    0,645;    1,318
566,043;20748,564;   -0,446;    2,318
566,625;20270,470;    1,918;    1,227
567,207;20155,984;    1,099;    1,682
567,788;21253,818;   -1,264;    1,500
568,370;22101,050;    1,917;   -0,500
568,951;21956,628;    0,190;    0,227
569,533;22787,005;   -0,628;   -0,500
570,114;23269,989;   -0,446;    0,682
570,695;23773,935;   -0,174;   -1,318
571,277;24317,156;   -0,265;   -1,682
571,858;25081,336;    2,008;   -1,136
572,439;25969,626;    1,554;   -1,045
573,021;26118,649;    2,099;   -2,773
573,602;26590,697;   -1,265;    0,318
574,183;27514,163;   -2,083;    2,227
574,764;27635,304;   -1,629;    0,409
575,345;28223,067;    0,917;   -0,136
575,926;28819,440;   -0,356;    0,136
576,507;28754,603;    1,099;   -0,227
577,088;29907,845;    3,099;    1,682
577,669;29926,512;    0,735;    1,955
578,250;30771,072;    0,644;   -1,045
578,831;31437,152;   -1,356;   -2,227
579,412;31650,941;   -0,810;    0,955
579,993;32479,920;    1,008;    0,227
580,573;32769,773;   -0,629;   -0,955
581,154;31810,365;    0,735;   -0,591
581,735;32649,659;    0,644;    0,773
582,315;32167,750;   -0,629;    2,136
582,896;32373,667;   -0,174;    1,227
583,477;31797,655;    0,189;    1,227
584,057;32044,252;    0,553;    0,955
584,638;32364,465;    2,553;    2,318
585,218;32343,882;   -0,538;    2,682
585,799;32483,705;    0,281;   -0,227
586,379;32442,390;    0,372;    1,591
586,959;31147,499;    0,735;    0,318
587,540;30480,503;   -0,629;    2,227
588,120;30049,535;    1,007;   -0,045
588,700;29034,309;    2,553;    2,136
589,281;29402,801;    0,462;   -0,955
589,861;29307,125;    0,099;   -1,682
590,441;29125,171;    2,371;   -2,682
591,021;28147,735;   -0,265;   -2,591
591,601;28353,035;   -0,537;    0,500
592,181;28288,962;   -0,719;   -0,773
592,761;27577,332;    0,007;    1,409
593,341;27518,555;   -0,901;    0,045
593,921;27553,449;   -0,265;    1,591
594,501;27505,075;   -0,538;    1,318
595,081;27319,929;    0,917;   -0,318
595,661;27676,297;   -1,447;    0,955
596,240;28200,612;   -0,537;    0,136
596,820;27859,217;    0,372;    1,955
597,400;27995,228;    2,008;    0,773
597,980;28221,799;    2,008;    1,045
598,559;28245,218;    2,735;   -0,227
599,139;27911,965;   -0,174;   -1,227
599,718;27838,510;   -0,174;   -0,409
600,298;28120,340;    0,735;    0,682
600,877;28385,445;    2,917;    1,409
601,457;28637,141;    2,281;    1,136
602,036;28520,122;    0,190;    2,045
602,616;28732,705;    0,644;    1,682
603,195;29085,865;   -0,355;    3,500
603,774;28635,945;   -0,901;    2,045
604,354;28495,374;    0,826;   -0,500
604,933;27971,389;    0,463;    1,864
605,512;28081,171;    3,554;    0,591
606,091;28131,720;   -0,537;    3,773
606,671;28940,386;    0,281;    0,773
607,250;28091,393;    1,644;    3,136
607,829;28314,954;    2,372;    3,227
608,408;28186,500;    1,190;    2,591
608,987;27151,126;    1,281;    3,409
609,566;27470,300;   -1,265;   -2,500
610,145;27572,926;   -1,082;    0,682
610,723;27945,516;    4,372;    6,864
611,302;27209,551;   -0,446;    1,682
611,881;26784,759;    5,008;   11,227
612,460;27607,647;    1,645;    3,955
613,039;28021,795;   -0,082;    2,045
613,617;26730,362;    1,736;    4,773
614,196;26926,678;    1,099;    1,227
614,775;27273,575;    1,009;    2,409
615,353;27186,417;    0,736;    0,864
615,932;26962,304;    0,100;    2,409
616,510;27552,935;    0,554;    0,591
617,089;27014,737;    7,100;   17,591
617,667;26785,944;    2,372;    6,136
618,246;26673,027;   -1,537;    1,318
618,824;26814,281;   -3,355;   -0,955
619,402;26406,375;   -2,900;   -1,773
619,981;26896,696;   -0,173;   -1,045
620,559;26775,090;    0,009;    1,682
621,137;26251,260;   -0,718;    1,864
621,715;26291,214;   -1,173;   -0,682
622,293;26199,680;   -0,537;   -0,773
622,871;26649,354;   -0,718;    0,500
623,450;26271,552;    0,373;   -0,864
624,028;26133,027;    0,191;   -0,955
624,606;25734,932;   -1,718;    1,682
625,183;26133,764;   -1,536;   -1,136
625,761;25770,488;    1,009;    1,136
626,339;26113,644;    1,373;    2,591
626,917;26482,328;   -0,172;   -0,045
627,495;26511,369;   -0,354;    1,318
628,073;25943,806;   -0,263;    2,864
628,650;25602,671;    0,100;    2,136
629,228;26023,934;    0,373;    4,409
629,806;25463,223;    2,282;    1,136
630,383;25714,500;    1,464;   -0,318
630,961;25490,891;    2,555;   -0,955
631,539;25283,735;    2,464;    0,227
632,116;24685,982;   11,373;   15,409
632,694;25232,597;    2,555;    6,500
633,271;25503,342;    0,828;    2,682
633,848;25381,479;    1,828;    2,045
634,426;25407,824;   -1,081;    1,773
635,003;24552,947;    1,101;   -0,409
635,580;24920,934;    1,192;    3,682
636,158;25473,358;    3,737;    1,227
636,735;25475,374;    0,555;   -0,500
637,312;25622,646;   -0,809;   -0,682
637,889;25681,867;   -4,354;   -0,682
638,466;25152,278;   -3,990;   -0,409
639,043;25170,851;    2,101;   -1,136
639,620;25445,271;   -2,262;   -0,955
640,197;25781,831;    1,100;    1,682
640,774;25918,794;   -0,172;    1,136
641,351;26258,302;    0,737;    1,136
641,928;25715,264;   -0,627;    1,409
642,505;25349,772;    0,828;   -0,500
643,082;25483,462;   -1,718;    1,227
643,658;24474,697;   -0,718;    1,500
644,235;25273,932;    1,191;    2,500
644,812;25596,349;    1,918;    0,773
645,388;25316,403;   -0,991;    1,409
645,965;25389,274;   -0,809;    1,682
646,542;25476,601;   -1,445;   -0,227
647,118;25441,563;    1,009;   -0,955
647,695;25779,707;   -0,263;    1,136
648,271;25695,397;   -0,536;    0,500
648,848;26053,814;    0,736;    2,227
649,424;25831,322;    0,827;    1,318
650,000;25565,557;   -0,354;   -1,045
650,577;25366,247;   -0,627;   -0,955
651,153;25880,300;   -1,809;    0,955
651,729;26854,263;    1,191;    0,864
652,305;27459,407;    0,645;    2,773
652,881;32582,642;   -0,082;    1,136
653,458;39400,969;    1,100;    0,227
654,034;42772,567;    0,282;    1,591
654,610;43990,894;    0,554;    0,773
655,186;45203,311;    0,645;    3,045
655,762;44786,728;   -0,991;    0,409
656,338;44785,781;    0,100;    0,136
656,913;45746,653;   -0,082;    0,409
657,489;44946,070;    0,827;   -0,318
658,065;44860,032;   -0,173;   -1,591
658,641;45514,449;   -0,900;   -0,864
659,217;44788,684;   -0,991;    0,409
659,792;44212,647;    0,645;   -0,409
660,368;44378,882;   -2,173;   -0,682
660,944;43747,208;   -2,082;    1,227
661,519;38551,262;   -0,628;    0,409
662,095;32705,406;   -1,719;    0,591
662,670;28587,550;    1,281;   -0,136
663,246;27665,240;    1,009;   -0,409
663,821;27108,384;    0,281;    1,682
664,396;26657,256;    0,009;    1,864
664,972;26925,673;    0,009;   -0,500
665,547;27218,726;    1,372;    0,136
666,122;27289,598;   -1,082;    0,318
666,698;27530,833;   -0,173;    0,318
667,273;26868,977;   -0,173;    0,136
667,848;27707,031;    2,372;    1,500
668,423;27478,175;    2,190;    2,318
668,998;28075,138;    2,827;   -0,682
669,573;28633,827;   -3,264;   -1,500
670,148;28432,881;   -1,446;   -0,682
670,723;28205,298;   -1,810;    0,318
671,298;28592,533;    2,372;    1,045
671,873;28772,496;   -0,082;   -0,136
672,448;28695,185;    0,645;    0,136
673,023;28991,057;   -1,992;   -0,227
673,597;29335,292;    0,827;    2,318
674,172;29086,527;   -0,355;    0,318
674,747;28586,581;    0,372;   -1,045
675,321;28382,543;   -0,628;    3,318
675,896;27931,233;    0,645;    1,045
676,471;29028,832;    2,645;    1,591
677,045;28760,340;   -1,264;    0,682
677,620;28804,939;    0,190;    1,136
678,194;29094,265;   -2,628;    1,136
678,769;28725,136;   -1,083;   -0,318
679,343;29026,826;   -0,628;    1,773
679,917;28891,698;   -1,446;    1,955
680,492;28940,660;    0,826;    3,227
681,066;29050,441;    3,372;    0,409
681,640;29097,222;    1,463;   -0,318
682,214;29967,457;    0,735;    0,500
682,788;29475,692;   -1,356;   -0,773
683,363;29413,927;   -1,810;    1,682
683,937;29189,253;   -1,719;   -0,318
684,511;29868,761;    0,463;   -0,591
685,085;29545,996;   -1,356;    0,318
685,659;29307,414;   -2,538;    0,864
686,232;29634,285;   -0,356;   -0,318
686,806;29331,520;   -0,901;    0,409
687,380;29925,301;   -0,174;    0,591
687,954;30123,082;   -1,174;    1,136
688,528;29834,044;   -0,719;    1,955
689,101;30645,916;   -3,992;    1,045
689,675;30199,424;   -0,356;   -0,136
690,249;29565,295;   -0,719;    0,409
690,822;29841,349;    0,280;    0,318
691,396;29967,766;   -0,265;    1,227
691,969;29419,910;    1,280;    0,136
692,543;29840,873;   -0,447;   -1,955
693,116;29448,744;   -0,265;   -1,409
693,690;29399,343;    0,099;    0,500
694,263;29997,669;   -1,083;    2,955
694,836;30042,813;    1,371;    3,591
695,410;28677,049;   -0,265;    1,773
695,983;29169,193;    0,189;    0,591
696,556;29131,883;   -0,447;   -1,045
697,129;29496,118;   -0,356;    1,409
697,703;29124,353;   -1,629;    1,955
698,276;29096,679;    1,462;   -0,773
698,849;28925,187;    1,280;    1,409
699,422;29276,604;   -1,083;    0,591
699,995;29032,749;    0,007;    0,136
700,568;29523,711;   -0,629;    3,045
701,140;29472,128;   -2,811;    1,682
701,713;29250,818;   -0,174;    2,409
702,286;28955,235;   -0,538;    0,864
702,859;28834,470;   -0,902;   -0,591
703,432;28040,251;    0,825;    0,682
704,004;28520,213;    0,462;    0,318
704,577;28403,721;   -0,629;    0,136
705,150;28965,047;    0,189;    2,500
705,722;28733,101;   -0,356;   -3,227
706,295;28522,245;   -0,175;   -0,591
706,867;28404,298;   -0,175;    1,955
707,440;28607,443;   -1,720;   -0,409
708,012;28910,223;    0,462;    0,591
708,584;28798,368;    2,462;    0,227
709,157;29015,967;    1,825;   -0,591
709,729;28669,111;    2,280;    2,045
710,301;29531,346;    0,734;    0,045
710,874;29532,309;   -1,447;   -0,227
711,446;28422,726;    0,371;    0,864
712,018;28295,597;    0,098;    0,500
712,590;28073,651;   -1,993;    1,682
713,162;28580,431;    0,825;    1,318
713,734;28846,757;    1,825;   -2,045
714,306;28719,993;   -1,902;   -0,409
714,878;27368,955;    0,825;    0,864
715,450;28206,918;    0,643;    0,864
716,022;28470,426;    1,552;    1,318
716,593;28624,479;    0,189;    0,591
717,165;28540,169;   -3,175;   -1,227
717,737;28283,949;    0,280;    0,409
718,309;27912,821;    0,280;   -0,045
718,880;27904,693;   -0,539;   -1,409
719,452;28091,837;   -0,175;   -1,591
720,024;27646,163;    0,734;   -0,591
720,595;28275,671;   -2,902;    0,955
721,167;27814,724;    0,370;   -2,045
721,738;27322,141;   -0,812;   -1,045
722,309;27381,831;   -0,993;   -1,227
722,881;27119,066;   -1,357;    0,773
723,452;27722,847;   -2,630;    2,864
724,023;27944,082;   -0,721;    2,682
724,595;27687,227;    0,007;    0,682
725,166;27413,371;    0,007;   -0,409
725,737;27124,152;    1,734;    0,227
726,308;27197,659;   -0,266;    0,318
726,879;27677,713;   -1,630;    1,227
727,450;27490,766;    0,552;   -0,045
728,021;27432,547;    3,097;    0,682
728,592;27212,055;    0,734;    0,500
729,163;27552,654;    0,643;   -0,136
729,734;27598,798;    0,188;   -0,227
730,305;27971,124;    1,734;    0,136
730,876;28314,178;    0,188;    2,955
731,447;28028,958;    2,188;    2,682
732,017;28137,103;    1,097;    1,864
732,588;27548,883;    0,734;    1,227
733,159;27786,937;    0,643;   -1,045
733,729;27556,263;    0,006;    0,409
734,300;26844,498;    0,915;    0,864
734,870;27314,551;    3,461;    0,591
735,441;27855,514;    0,370;   -0,591
736,011;27567,022;    0,643;   -1,591
736,582;27567,621;   -0,812;    0,045
737,152;26961,583;   -1,721;   -2,045
737,722;27404,455;   -0,267;   -0,682
738,293;27116,872;   -1,358;    1,318
738,863;27006,471;    2,461;    2,318
739,433;26836,797;    5,279;    0,318
740,003;27501,577;   -0,994;   -0,682
740,573;26905,358;    2,097;   -1,591
741,143;26805,866;   -1,085;    0,318
741,713;27630,919;    1,188;   -0,500
742,283;27352,700;    0,915;    1,591
742,853;27105,117;    1,915;    1,591
743,423;26515,807;    1,733;    0,045
743,993;26744,133;   -0,358;    1,500
744,563;26144,005;    0,097;   -0,864
745,133;26042,967;   -0,812;   -0,864
745,702;26724,111;   -0,267;    1,773
746,272;25944,347;   -0,176;    0,591
746,842;25693,582;   -1,358;   -0,591
747,411;26082,817;   -0,267;   -0,318
747,981;26312,143;    0,097;    0,500
748,551;26323,560;    2,278;   -1,045
749,120;26153,159;    0,642;   -0,227
749,690;26526,758;   -0,631;    2,409
750,259;26880,175;    1,369;    2,955
750,828;26819,683;    1,551;   -1,955
751,398;27067,645;    1,278;   -0,045
751,967;26594,608;    2,187;    0,409
752,536;26813,479;   -0,813;   -0,227
753,105;27202,351;    0,096;    0,227
753,675;26978,586;    0,096;    1,773
754,244;26931,185;   -0,904;    3,591
754,813;26984,966;    0,551;    1,227
755,382;26530,110;    0,460;    0,955
755,951;27174,527;    1,551;    3,682
756,520;26729,671;   -0,085;    1,864
757,089;27302,634;    0,278;    0,500
757,658;27418,506;    1,733;    1,227
758,227;27410,741;    1,096;    0,318
758,795;27690,703;    1,187;    1,136
759,364;27867,484;   -0,086;   -0,591
759,933;26906,174;   -1,176;   -0,045
760,501;26396,409;    0,733;   -1,318
761,070;26906,280;   -2,813;   -1,409
761,639;27581,425;   -1,904;    1,318
762,207;26972,933;    1,551;   -0,955
762,776;26893,168;    0,369;    0,864
763,344;26857,858;   -0,995;    0,591
763,913;25953,820;   -0,722;    1,409
764,481;26710,146;    1,005;   -0,136
765,049;26438,109;   -1,358;    1,409
765,618;26333,526;   -0,086;    0,318
766,186;26382,125;    0,278;    0,136
766,754;26576,905;    0,005;    1,864
767,322;25631,777;   -1,995;    0,409
767,890;25647,921;   -0,722;   -1,773
768,459;26084,884;   -2,177;   -0,318
769,027;26266,937;    1,641;    3,409
769,595;25199,809;    3,278;    2,591
770,163;25614,317;    3,823;    2,955
770,730;25393,916;    0,732;   -0,136
771,298;25210,333;    0,187;   -1,409
771,866;25282,477;   -1,541;    4,955
772,434;25639,076;   -0,631;   -1,864
773,002;25836,038;    0,005;    0,682
773,569;25484,910;    0,914;    1,682
774,137;25305,509;   -0,268;   -0,045
774,705;26034,380;    0,278;   -0,136
775,272;25532,434;    0,641;    0,682
775,840;25278,578;   -0,177;    2,682
776,407;24884,722;    0,277;    1,955
776,975;24420,685;   -0,632;    0,318
777,542;25435,465;   -1,086;   -0,045
778,110;25242,882;   -1,268;   -0,045
778,677;24950,572;   -2,359;   -0,864
779,244;24770,807;    2,186;    1,045
779,812;24892,497;    1,823;    0,864
780,379;24664,096;    0,005;    1,136
780,946;24905,240;    1,005;   -0,773
781,513;25279,021;   -1,450;    0,318
782,080;24637,984;   -0,086;    2,864
782,647;25394,128;   -0,268;    3,045
783,214;24979,909;   -0,177;    3,864
783,781;24589,416;   -0,723;   -0,682
784,348;24396,197;   -0,632;    1,500
784,915;24870,614;   -3,177;    0,318
785,482;24702,395;    1,368;    2,591
786,049;25138,357;    0,186;   -0,591
786,615;25225,047;    0,277;   -0,955
787,182;24912,646;    0,186;   -0,682
787,749;24618,245;   -2,814;    1,409
788,315;23956,844;   -1,632;   -0,409
788,882;24217,261;    1,550;   -1,227
789,448;24945,132;    1,732;   -0,955
790,015;24980,368;    1,095;    3,227
790,581;24541,694;    1,459;    0,227
791,148;24440,838;    0,641;    1,045
791,714;24655,800;   -0,541;    3,136
792,280;24330,763;    0,186;    1,591
792,847;23922,544;    0,550;    2,500
793,413;24464,324;   -0,269;   -0,318
793,979;24010,014;    3,459;   -1,318
794,545;24097,522;    4,459;    2,682
795,111;23452,303;    2,186;    1,318
795,678;23626,902;    0,731;   -1,682
796,244;23305,682;    3,368;    0,136
796,810;23856,645;    1,731;    0,773
797,375;23538,789;    0,549;   -2,136
797,941;23603,115;   -0,541;    0,591
798,507;23750,078;   -0,451;   -0,955
799,073;23307,222;   -0,360;    0,591
799,639;23363,730;   -2,632;    3,136
800,205;23356,147;    0,095;    2,682
800,770;22928,746;    0,640;    1,773
801,336;23019,890;    1,368;   -0,955
801,901;22786,489;    4,549;    3,136
802,467;23316,633;   -0,542;    2,045
803,033;22618,505;   -0,087;    0,864
803,598;22811,104;    1,913;   -1,045
804,163;22822,703;    1,095;   -0,318
804,729;22792,483;   -0,178;    1,136
805,294;23158,173;    0,822;    2,227
805,859;22961,590;    0,731;   -0,409
806,425;22469,371;    1,186;    2,682
806,990;22170,060;    2,186;    4,318
807,555;22631,750;   -1,451;    2,591
808,120;22506,804;    0,822;   -0,409
808,685;22541,857;    0,185;   -2,500
809,250;22064,729;    0,004;   -0,500
809,815;22394,418;    1,913;    0,682
810,380;22955,381;   -0,269;    1,591
810,945;23498,980;   -1,087;    2,045
811,510;22579,760;    2,094;    1,591
812,075;22314,723;   -0,633;   -1,409
812,640;22339,231;    2,003;    1,409
813,204;22400,466;    0,822;   -0,227
813,769;22883,338;    2,094;   -0,045
814,334;22278,936;    0,458;    0,864
814,898;22352,717;    0,367;    0,591
815,463;22267,316;    1,276;   -0,773
816,027;22228,278;   -0,724;   -2,318
816,592;22289,968;    0,640;   -2,045
817,156;21784,840;    2,094;    1,136
817,721;21665,711;    4,276;    2,318
818,285;21659,856;    2,912;    1,500
818,849;22301,091;   -1,451;    1,682
819,414;22187,235;   -0,269;    2,955
819,978;21772,198;   -1,269;    1,773
820,542;22337,069;    2,003;    0,500
821,106;22029,214;   -0,815;    0,682
821,670;22094,358;   -0,815;    2,591
822,234;21882,411;   -0,270;    1,409
822,798;21204,010;    0,003;    0,500
823,362;21166,518;   -0,633;    4,227
823,926;20518,662;    0,094;    1,136
824,490;20789,352;   -0,997;   -0,682
825,054;21221,406;   -0,088;   -1,136
825,618;20831,550;   -1,542;   -1,500
826,181;20735,512;    0,458;   -1,318
826,745;20710,020;    1,367;   -1,045
827,309;21015,074;    1,185;    1,318
827,872;20424,854;    1,367;    0,955
828,436;21407,090;    1,185;   -0,773
828,999;21482,143;   -0,997;    1,227
829,563;20300,378;   -0,179;    1,136
830,126;20092,523;   -0,179;   -0,591
830,690;20129,667;   -1,997;    2,864
831,253;19614,448;   -0,543;    2,227
831,816;19802,410;   -1,906;    0,500
832,380;19724,463;    0,185;    0,864
832,943;19917,517;   -1,361;   -0,500
833,506;19377,934;    2,639;   -1,227
834,069;20171,351;    3,912;   -0,955
834,632;20237,586;    1,730;    1,318
835,195;20113,458;    1,003;    0,955
835,758;19329,511;   -0,997;    1,955
836,321;19193,564;    0,730;   -1,045
836,884;19299,345;   -0,725;   -0,955
837,447;19320,762;   -2,816;    1,773
838,010;19598,634;    0,366;    3,227
838,573;19866,505;   -1,179;    0,773
839,135;19832,922;   -1,361;   -0,955
839,698;19299,339;    1,275;    0,409
840,261;18808,484;    1,003;   -0,227
840,823;18666,901;   -0,543;    0,864
841,386;18943,045;   -0,452;   -2,409
841,948;18856,826;   -1,361;    1,773
842,511;18571,516;    0,912;    1,682
843,073;18729,114;    1,912;    0,227
843,636;18508,077;   -0,361;   -0,227
844,198;18442,494;    0,911;    0,591
844,760;18577,820;    1,093;    1,955
845,322;18211,055;    0,548;    1,136
845,885;18618,563;    0,730;    0,591
846,447;19089,253;   -1,998;    0,227
847,009;18710,670;    1,911;   -0,682
847,571;18993,905;    0,820;   -2,045
848,133;19089,413;   -1,089;   -1,864
848,695;18888,103;   -0,543;    1,409
849,257;18495,974;   -1,089;   -1,682
849,819;18665,482;   -0,998;   -0,409
850,381;18702,990;   -0,725;   -0,864
850,942;19093,771;    1,093;   -0,591
851,504;19046,552;    1,184;    0,227
852,066;19055,060;    1,275;   -1,591
852,628;18579,749;   -0,180;    1,955
853,189;18113,894;    1,638;    2,682
853,751;18244,947;   -0,907;    1,409
854,312;18038,728;   -0,453;   -1,682
854,874;18556,145;   -2,089;   -0,773
855,435;19040,835;   -0,907;   -1,682
855,997;19258,706;   -1,816;   -0,136
856,558;18564,941;    0,366;    1,773
857,119;18639,268;    0,820;    2,864
857,681;18291,775;    0,002;    0,318
858,242;18283,738;    1,911;   -2,136
858,803;18779,519;    0,456;   -0,773
859,364;19365,754;    0,184;   -4,773
859,925;18668,716;   -2,453;   -0,955
860,486;18556,770;   -0,453;   -0,955
861,047;18279,460;   -0,544;   -1,227
861,608;18110,149;   -1,089;   -0,773
862,169;18232,385;    0,638;   -0,045
862,730;18020,529;    0,456;    1,409
863,291;18253,037;   -0,635;   -0,500
863,852;18630,090;   -0,635;    1,955
864,412;18066,598;   -0,271;   -0,864
864,973;16660,652;   -0,089;    0,500
865,534;16533,705;   -1,726;    0,227
866,094;18067,940;    1,820;    0,227
866,655;17736,084;    1,274;    3,318
867,215;17990,229;    0,274;    0,136
867,776;17814,464;    0,547;   -0,136
868,336;17909,699;   -1,453;    0,136
868,897;17431,389;    2,638;    1,682
869,457;17130,079;    1,365;    0,318
870,017;17354,496;    0,547;   -1,227
870,578;17898,367;   -0,817;    0,773
871,138;17560,693;   -2,089;   -0,955
871,698;17081,929;   -0,817;   -1,318
872,258;16965,709;   -0,453;   -2,864
872,818;17364,945;    2,729;    0,045
873,378;17320,362;    0,638;    1,045
873,938;16831,233;    0,547;    0,500
874,498;17163,559;    0,274;   -1,955
875,058;17076,613;    2,183;    1,773
875,618;16935,575;    1,910;   -2,682
876,177;16840,265;    1,274;    0,136
876,737;16461,864;   -0,090;    1,955
877,297;16484,099;    0,183;    1,955
877,856;16497,425;   -0,362;    0,318
878,416;16436,660;    1,183;   -0,136
878,976;16678,532;   -1,817;    0,409
879,535;16875,222;    0,092;    3,136
880,095;16589,002;   -0,544;    0,045
880,654;16704,692;   -1,090;    1,318
881,213;16865,473;    2,456;    1,500
881,773;16475,617;    2,637;    2,682
882,332;16854,307;    3,365;    5,136
882,891;16669,178;    3,092;    2,136
883,451;17125,414;   -1,272;    1,682
884,010;16543,558;   -2,908;   -0,409
884,569;16683,975;   -0,999;   -0,045
885,128;16802,119;    2,819;   -1,864
885,687;16890,536;    4,455;    0,682
886,246;16590,408;    1,455;    2,136
886,805;16357,734;    2,455;    2,045
887,364;16597,424;   -0,999;   -0,500
887,922;17005,750;   -1,181;    0,045
888,481;16500,349;   -1,545;    0,591
889,040;16778,402;    1,183;    2,136
889,599;17454,637;    2,455;    1,409
890,157;17524,327;    1,455;    2,409
890,716;17175,926;   -0,090;    0,227
891,274;17015,616;    0,092;   -1,136
891,833;17459,578;    1,546;    0,864
892,391;17336,177;   -0,454;    0,500
892,950;17443,049;    1,819;   -0,773
893,508;17808,193;    0,455;   -0,409
894,067;17110,883;    0,637;    0,136
894,625;16985,845;   -0,636;   -1,500
895,183;17176,535;   -0,363;   -0,682
895,741;17108,770;    1,728;   -1,773
896,299;16947,096;   -0,545;   -2,409
896,858;17118,150;    0,819;   -1,591
897,416;17243,203;    2,728;   -1,318
897,974;17001,802;    1,819;    0,318
898,532;17198,583;    6,091;    2,682
899,089;17049,000;    2,091;   -0,682
899,647;17059,417;   -1,454;    1,318
900,205;16831,561;    1,182;    1,045
900,763;16992,705;   -0,454;    0,227
901,321;17027,941;    2,364;   -1,409
901,878;16423,176;   -1,000;   -0,773
902,436;16343,229;   -1,363;    1,318
902,994;16706,465;    4,728;    3,682
903,551;16145,791;    0,728;    0,409
904,109;16585,390;    0,182;   -1,409
904,666;16089,352;    2,455;    1,045
905,224;15953,496;    0,182;   -0,409
905,781;15720,186;    0,727;   -0,318
906,338;15804,058;   -1,363;    1,045
906,895;15719,747;    0,637;    2,045
907,453;15651,983;    1,727;    1,136
908,010;15667,854;   -0,909;    0,409
908,567;15328,726;    1,273;    0,591
909,124;14803,234;    0,364;   -1,500
909,681;14895,196;   -2,909;    0,682
910,238;15078,068;    0,636;   -1,318
910,795;15363,485;   -0,273;   -1,136
911,352;14974,939;   -2,909;   -2,682
911,909;14389,212;   -1,364;   -0,864
912,466;14948,121;   -3,182;    1,500
913,022;14468,121;   -1,636;    0,500
913,579;14813,848;   -0,909;    2,045
914,136;14512,394;    1,636;    0,955
914,692;14855,576;    0,091;   -1,227
915,249;14441,939;    1,455;    0,409
915,806;14697,030;    0,182;    1,955
916,362;14460,758;    1,909;    1,864
916,918;14006,212;    2,000;    1,045
917,475;13979,667;   -1,182;    0,955
918,031;14005,394;    3,364;   -0,045
918,587;13472,485;   -0,909;   -0,318
919,144;13696,121;   -2,273;    0,227
919,700;14009,394;    1,727;    0,773
920,256;13591,030;    0,727;    0,045
920,812;13256,121;   -0,727;   -1,045
921,368;13258,576;   -1,727;   -1,045
921,924;12857,121;    0,182;   -0,136
922,480;12442,303;   -0,545;    1,227
923,036;13055,212;    1,273;    1,955
923,592;12999,758;    0,455;    0,318
924,148;12927,303;    0,455;   -0,955
924,704;12264,303;   -1,364;   -0,409
925,259;12490,030;   -0,273;    0,591
925,815;12255,394;    1,455;    0,500
926,371;11773,667;    2,909;    1,409
926,926;11671,939;    2,091;    0,591
927,482;11325,121;   -1,364;    0,773
928,037;11187,667;    0,909;    2,045
928,593;11493,848;    1,636;    1,045
929,148;11284,303;   -1,818;   -1,500
929,704;10804,121;   -1,455;   -0,500
930,259;11033,030;    0,091;   -0,136
930,814;10102,758;   -0,818;    1,955
931,369; 9753,212;    1,091;   -0,773
931,925; 9640,212;   -0,091;    0,136
932,480; 9559,485;   -2,818;   -2,591
933,035; 9450,576;    0,545;   -0,318
933,590; 9190,030;    0,364;   -1,773
934,145; 8832,939;   -1,364;   -0,318
934,700; 9190,121;    0,455;   -0,591
935,255; 8994,212;   -0,091;    0,045
935,809; 8290,394;    3,182;    0,864
936,364; 7426,758;   -0,455;   -0,136
936,919; 7389,667;    0,455;   -1,773
937,474; 7267,667;    1,455;    0,136
938,028; 7015,667;   -1,636;    1,136
938,583; 6522,758;    1,818;    4,682
939,138; 6777,758;    2,091;    2,136
939,692; 6200,939;    1,636;   -1,136
940,247; 5934,212;   -0,727;   -1,045
940,801; 5493,848;   -0,636;    0,227
941,355; 5379,030;   -0,364;    2,591
941,910; 5025,576;   -0,273;   -2,136
942,464; 5149,576;   -0,818;   -0,318
943,018; 4942,848;    1,000;   -0,227
943,572; 4915,848;    2,545;   -0,682
944,126; 4325,030;    0,091;   -0,409
944,681; 4225,121;    3,091;    0,227
945,235; 4205,303;    1,000;   -0,591
945,789; 4145,121;    0,364;   -1,864
946,342; 4252,667;    0,455;   -0,591
946,896; 4051,758;   -2,273;    0,955
947,450; 3804,121;    1,545;   -0,227
948,004; 4004,939;    1,727;   -0,045
948,558; 3980,939;    0,273;   -0,864
949,111; 3925,485;   -0,273;   -0,318
949,665; 3954,485;    1,636;   -0,682
950,219; 3842,939;   -0,091;   -1,045
950,772; 3931,121;   -1,909;    1,864
951,326; 3815,939;    0,545;   -0,955
951,879; 3937,848;    0,727;   -2,318
952,433; 3955,758;    0,000;    2,227
952,986; 3774,212;    2,909;    0,682
953,539; 3735,030;   -0,273;    0,591
954,093; 3628,576;    0,545;   -1,318
954,646; 3794,485;    0,909;    1,318
955,199; 3625,848;    0,000;   -0,500
955,752; 3515,848;   -0,455;    1,773
956,305; 3479,848;   -0,091;    2,955
956,858; 3632,939;    0,818;   -0,318
957,411; 3797,939;   -0,545;    2,136
957,964; 3631,121;    1,364;    2,136
958,517; 3625,121;   -1,545;    3,136
959,070; 3448,758;   -0,455;    1,955
959,623; 3532,939;    1,091;    1,500
960,176; 3308,667;    1,727;    2,045
960,728; 3276,121;   -2,727;    0,773
961,281; 3332,848;    0,545;    0,500
961,834; 3377,030;   -0,909;    0,864
962,386; 3282,939;    1,727;    1,045
962,939; 3213,939;    0,364;   -0,318
963,491; 3362,394;    0,455;    1,136
964,043; 3225,848;    1,182;    2,409
964,596; 3354,212;   -1,000;    2,227
965,148; 3199,485;   -1,000;    1,773
965,700; 3117,667;    1,091;   -0,227
966,253; 3262,394;   -0,636;    0,318
966,805; 3115,576;   -2,273;    0,773
967,357; 3171,667;    1,091;   -1,500
967,909; 3133,939;    0,455;   -1,227
968,461; 3235,758;    0,545;    3,136
969,013; 3152,485;   -0,182;   -0,864
969,565; 3246,485;   -0,455;   -1,136
970,117; 3295,030;   -0,364;    1,045
970,669; 3114,758;    0,182;   -0,136
971,220; 2961,394;   -0,455;   -1,500
971,772; 2916,667;   -0,636;   -0,318
972,324; 3041,576;    0,091;   -0,500
972,876; 2979,758;    0,818;   -0,045
973,427; 3137,303;    1,909;   -1,045
973,979; 3106,303;   -0,727;   -2,500
974,530; 3136,394;    1,818;    1,318
975,082; 3127,848;   -0,545;    1,682
975,633; 3017,848;    1,091;    1,682
976,184; 3171,394;    0,909;    0,773
976,736; 2952,030;    0,091;    0,227
977,287; 2764,939;   -0,909;   -0,500
977,838; 2960,576;    0,909;   -0,318
978,389; 3010,121;   -1,000;   -0,500
978,940; 2872,394;    0,545;   -0,409
979,491; 2898,303;    0,091;   -0,500
980,042; 2870,121;    0,182;    3,045
980,593; 2919,576;   -2,545;    0,227
981,144; 2973,848;    2,545;   -0,500
981,695; 2913,758;    1,455;    1,500
982,246; 2890,212;   -0,273;    1,045
982,797; 3031,576;   -1,727;    0,682
983,347; 3135,576;    0,364;    0,591
983,898; 3315,121;    3,091;    0,409
984,449; 3135,485;    2,182;    0,773
984,999; 3044,212;    1,455;   -1,136
985,550; 2823,939;    0,182;   -0,318
986,100; 2846,939;   -0,455;   -0,318
986,651; 2883,667;   -0,818;    0,045
987,201; 2856,848;   -1,000;   -0,591
987,751; 2942,667;    0,818;    2,864
988,302; 2940,303;    2,636;    1,500
988,852; 2961,939;    0,455;   -1,136
989,402; 3018,667;    0,091;    0,682
989,952; 2930,212;   -2,182;    0,864
990,502; 3015,848;   -0,091;    0,682
991,052; 2964,212;   -0,727;    0,045
991,602; 2846,485;   -2,909;    1,318
992,152; 2866,303;    0,455;    0,682
992,702; 2843,848;    1,364;   -0,045
993,252; 2763,394;   -3,000;   -0,500
993,802; 2867,848;   -0,273;    1,318
994,352; 3101,576;   -1,545;    1,136
994,901; 3170,485;   -0,182;    3,227
995,451; 3073,394;   -0,182;    0,318
996,000; 3160,939;    1,636;    0,318
996,550; 2879,303;    2,273;    0,227
997,100; 2883,576;    1,273;   -0,045
997,649; 3149,576;    2,182;    0,955
998,198; 2773,030;    1,727;   -1,500
998,748; 2983,394;    1,091;   -2,318
999,297; 2897,030;   -0,818;   -0,409
999,846; 2956,394;    1,000;   -0,773
1000,395; 3013,576;   -0,818;    0,500
1000,945; 2961,939;    1,818;   -0,773
1001,494; 3054,576;    2,364;    0,682
1002,043; 3045,758;    4,636;    0,864
1002,592; 2870,758;   -1,091;    1,955
1003,141; 3030,030;   -0,455;   -0,682
1003,690; 2879,303;    1,727;    0,500
1004,238; 2965,121;    1,455;   -0,045
1004,787; 2592,212;    1,364;    1,227
1005,336; 2844,394;    0,364;    0,682
1005,885; 2991,121;    1,364;   -2,773
1006,433; 3119,394;    0,545;    0,955
1006,982; 3174,030;    0,455;    1,682
1007,531; 3086,121;   -1,818;   -0,227
1008,079; 3027,303;   -2,273;    0,500
1008,627; 3157,939;   -1,455;    0,409
1009,176; 2899,576;    0,000;   -1,955
1009,724; 2940,667;    1,091;    0,864
1010,273; 3004,576;    1,273;    0,500
1010,821; 3112,030;    0,091;    1,409
1011,369; 2849,212;   -1,364;    1,318
1011,917; 2834,576;   -1,364;   -0,591
1012,465; 3110,121;    1,273;   -1,591
1013,013; 3217,667;    2,091;   -1,682
1013,561; 3114,576;    0,455;   -0,773
1014,109; 3154,303;   -1,909;    1,682
1014,657; 3017,485;    0,364;    0,591
1015,205; 3144,485;    1,636;   -0,955
1015,753; 3174,667;   -0,545;   -1,409
1016,301; 3225,758;   -2,636;    3,045
1016,848; 3224,848;   -1,273;    0,409
1017,396; 3280,394;    2,545;    0,045
1017,944; 3410,212;    1,182;    1,864
1018,491; 3154,758;    0,273;    1,409
1019,039; 3300,667;    0,455;    0,591
1019,586; 3205,303;   -1,364;    1,682
1020,134; 3308,848;    0,455;    1,500
1020,681; 3345,576;    0,182;   -1,136
1021,228; 3323,758;    2,909;   -2,227
1021,776; 3146,758;    1,182;   -1,136
1022,323; 3383,394;    0,455;    0,773
1022,870; 3319,121;   -1,000;   -0,045
1023,417; 3197,939;    2,636;    1,864
1023,964; 3325,667;    2,636;    1,227
1024,511; 3186,485;    1,000;    0,773
1025,058; 2989,121;    3,182;   -0,045
1025,605; 3050,758;   -2,273;    3,136
1026,152; 3294,121;    1,727;   -0,591
1026,699; 3006,212;    1,818;    1,318
1027,245; 3143,394;   -0,091;    0,318
1027,792; 3360,030;   -1,000;    1,409
1028,339; 3263,303;    2,364;   -0,045
1028,885; 3121,303;    1,000;   -0,227
1029,432; 3045,576;   -0,091;    0,227
1029,978; 3118,394;   -1,000;   -1,591
1030,525; 3007,394;    1,000;    0,409
1031,071; 3240,667;   -1,364;    1,136
1031,618; 3345,121;    0,364;    1,682
1032,164; 3129,121;   -0,091;    3,045
1032,710; 3194,212;    1,636;   -1,500
1033,256; 3094,394;   -0,636;   -0,136
1033,803; 3080,939;   -0,545;    1,500
1034,349; 2783,667;   -1,364;    0,136
1034,895; 2943,667;    0,000;   -0,318
1035,441; 2937,303;   -0,818;    0,318
1035,987; 2932,939;   -2,364;   -0,682
1036,533; 2944,667;   -1,455;   -0,955
1037,078; 3147,576;    1,455;    1,682
1037,624; 2950,667;    2,455;   -0,955
1038,170; 2967,667;    0,455;   -0,318
1038,716; 2889,212;    1,636;   -0,409
1039,261; 2795,848;   -2,273;   -0,773
1039,807; 2742,848;   -0,091;    3,409
1040,352; 2797,939;   -1,909;   -0,318
1040,898; 2846,485;   -1,545;   -0,682
1041,443; 2752,939;   -1,455;   -2,591
1041,989; 2784,121;    1,091;    1,591
1042,534; 2647,121;   -0,364;    2,591
1043,079; 2758,394;    2,909;    0,955
1043,625; 2577,939;    1,818;    0,500
1044,170; 2615,212;   -1,364;    1,045
1044,715; 2880,576;    2,455;    0,955
1045,260; 2698,576;    2,182;   -0,955
1045,805; 2747,758;    1,182;   -0,591
1046,350; 2663,212;    1,364;   -0,409
1046,895; 2650,485;    2,909;    1,591
1047,440; 2584,758;    5,364;    0,409
1047,985; 2477,758;    2,818;   -0,955
1048,530; 2392,030;    1,545;    1,227
1049,074; 2464,848;    0,000;    0,318
1049,619; 2431,394;   -1,364;    1,955
1050,164; 2236,939;    0,455;    0,227
1050,708; 2272,758;   -0,455;    0,045
1051,253; 2662,212;    1,273;   -2,227
1051,797; 2373,394;    0,818;   -1,318
1052,342; 2362,030;   -1,182;    1,045
1052,886; 2365,758;    0,364;   -1,409
1053,430; 2237,848;   -1,364;    0,136
1053,975; 2249,212;   -0,818;   -0,318
1054,519; 2242,030;   -0,727;    3,227
1055,063; 2276,667;    0,909;    1,318
1055,607; 2146,394;   -0,182;    0,227
1056,151; 2168,212;    2,909;    1,682
1056,695; 2075,576;    2,273;   -1,136
1057,239; 2151,485;   -1,727;   -0,682
1057,783; 2169,303;    0,818;   -1,500
1058,327; 2101,939;    0,000;    1,409
1058,871; 2352,758;   -0,545;    1,318
1059,415; 2061,848;   -0,818;   -0,045
1059,958; 2328,667;    1,455;    2,591
1060,502; 2033,394;   -1,000;   -0,773
1061,046; 1917,758;    0,364;   -0,955
1061,589; 1902,667;   -3,000;   -1,136
1062,133; 1800,212;   -1,273;    1,864
1062,676; 1748,212;    1,182;    0,864
1063,220; 1749,212;    1,091;    0,500
1063,763; 1777,030;    0,909;    1,136
1064,306; 1859,939;   -0,909;    1,864
1064,849; 1744,939;   -0,909;    0,591
1065,393; 1740,030;    2,000;   -1,500
1065,936; 1854,303;    0,182;   -0,409
1066,479; 1724,303;   -1,455;    1,318
1067,022; 1760,212;   -0,273;   -0,227
1067,565; 1645,121;   -0,091;   -1,318
1068,108; 1688,485;    0,727;   -0,591
1068,651; 1652,030;   -0,636;    1,409
1069,194; 1589,576;   -0,455;   -1,682
1069,736; 1593,485;   -1,273;    0,955
1070,279; 1554,758;   -1,364;   -0,500
1070,822; 1633,485;   -2,000;   -0,318
1071,364; 1729,485;   -0,364;    1,318
1071,907; 1538,030;   -0,727;    3,227
1072,450; 1413,848;    0,000;   -0,045
1072,992; 1420,939;   -0,273;    3,136
1073,535; 1570,394;    2,091;    2,136
1074,077; 1364,212;   -0,727;    2,045
1074,619; 1336,485;   -1,364;    0,591
1075,161; 1368,848;   -1,091;    1,500
1075,704; 1559,939;    1,545;    1,227
1076,246; 1341,485;   -0,182;    0,682
1076,788; 1259,576;   -0,364;    1,773
1077,330; 1336,303;    1,273;    2,136
1077,872; 1309,485;    0,909;    0,955
1078,414; 1545,758;    2,727;    0,773
1078,956; 1274,848;    1,273;   -0,227
1079,498; 1556,576;    1,636;    0,318
1080,040; 1255,576;    1,909;   -1,318
1080,581; 1187,121;    1,636;   -0,318
1081,123; 1101,848;    0,091;   -0,773
1081,665; 1155,667;   -1,182;   -0,955
1082,206; 1464,485;    1,364;   -0,500
1082,748; 1312,576;    0,727;    2,045
1083,289; 1188,212;   -2,000;    1,318
1083,831; 1093,848;   -0,545;    0,227
1084,372; 1140,303;    0,000;    0,591
1084,913; 1146,939;    1,091;    0,864
1085,455; 1109,303;   -1,909;   -2,045
1085,996; 1082,030;   -2,273;    0,136
1086,537; 1120,121;   -0,091;    0,864
1087,078; 1138,667;   -0,909;   -2,136
1087,619; 1175,667;   -1,273;    0,227
1088,160; 1092,576;    0,000;    1,318
1088,701; 1073,394;   -1,091;    0,682
1089,242; 1012,758;    1,364;   -2,227
1089,783; 1106,667;   -0,273;    1,409
1090,324; 1085,394;    0,455;    0,682
1090,865;  970,848;    2,727;   -0,409
1091,405;  911,576;    0,727;    2,227
1091,946;  951,394;    0,182;   -0,955
1092,487;  879,576;    0,818;   -1,409
1093,027; 1053,576;   -1,364;   -1,500
1093,568;  910,212;   -0,364;    1,227
1094,108;  999,121;    0,273;    1,773
1094,649;  947,303;   -1,182;    0,136
1095,189;  883,576;   -0,636;   -0,682
1095,729;  826,939;   -0,091;    0,955
1096,269;  827,303;    0,727;   -0,955
1096,810; 1158,394;   -1,364;    0,500
1097,350;  981,030;    1,364;   -0,773
1097,890;  867,667;    0,364;    1,227
1098,430; 1137,576;    2,364;    2,864
1098,970; 1011,030;    2,182;    1,682
1099,510;  859,030;    0,545;   -2,318
1100,050;  793,758;    1,000;   -1,591
1100,589;  759,667;   -0,727;   -0,318
1101,129;  895,212;    0,818;   -0,955
1101,669; 1048,212;    1,727;    2,136
1102,209;  858,485;   -0,091;    2,227
1102,748;  816,848;    0,000;    0,955
1103,288;  803,121;    1,273;   -1,227
1103,827;  833,667;    3,091;   -2,227
1104,367;  712,758;   -0,091;   -2,409
1104,906;  670,848;    1,364;   -1,136
1105,445;  753,939;    0,636;   -1,136
1105,985;  705,667;   -0,727;    1,500
1106,524;  739,667;   -1,727;   -0,682
1107,063;  712,394;   -2,727;    1,409
1107,602;  691,939;   -1,909;   -1,500
1108,141;  611,394;   -1,909;    1,500
1108,680;  726,212;   -3,455;   -0,591
1109,219;  654,576;   -0,909;   -0,500
1109,758;  661,939;    0,455;    0,682
1110,297;  636,303;    1,000;   -0,682
1110,836;  574,212;   -0,727;    0,955
1111,375;  744,939;   -2,545;    0,409
1111,913;  753,939;   -1,000;    0,773
1112,452;  690,758;   -0,273;    0,136
1112,991;  577,667;    1,091;    1,955
1113,529;  525,394;   -0,818;   -0,045
1114,068;  608,303;   -0,273;    2,955
1114,606;  503,939;   -0,364;   -0,955
1115,144;  663,848;   -1,273;    1,045
1115,683;  594,939;   -0,727;    0,318
1116,221;  647,939;   -0,455;   -0,864
1116,759;  555,212;    0,636;   -0,864
1117,297;  767,939;    0,000;    1,864
1117,836;  558,212;   -2,182;   -1,227
1118,374;  572,667;    0,182;   -0,682
1118,912;  508,576;    0,909;    2,682
1119,450;  505,303;    1,000;    0,864
1119,988;  558,576;    1,545;    2,136
1120,525; 1018,303;    5,091;    3,318
1121,063;  720,576;    1,182;    1,864
1121,601;  517,939;   -0,909;   -1,227
1122,139;  476,758;   -0,727;   -2,045
1122,676;  686,939;   -0,727;    2,773
1123,214;  615,485;   -1,182;    4,409
1123,751;  413,212;    1,727;    2,227
1124,289;  551,485;   -0,091;   -0,409
1124,826;  416,030;    1,727;    0,227
1125,364;  337,212;    1,727;   -0,955
1125,901;  534,667;    1,182;    1,227
1126,438;  650,030;    0,818;    0,955
1126,975;  372,485;   -0,727;   -0,773
1127,513;  440,758;    0,273;    2,136
1128,050;  341,394;    1,636;   -0,682
1128,587;  450,030;    2,000;   -0,227
1129,124;  498,303;    0,091;    1,318
1129,661;  358,485;    0,273;    0,227
1130,198;  524,121;    1,636;    0,773
1130,734;  459,485;    0,182;    1,409
1131,271;  322,303;   -0,909;    0,864
1131,808;  511,030;    2,909;    3,045
1132,345;  366,212;    1,545;    0,318
1132,881;  232,758;   -1,545;   -1,864
1133,418;  383,030;    0,727;   -1,136
1133,954;  311,848;    2,455;   -2,682
1134,491;  394,576;    1,364;   -0,773
1135,027;  296,303;    2,364;    0,864
1135,564;  385,758;    0,273;    2,955
1136,100;  368,758;    0,364;    2,136
1136,636;  260,303;   -1,273;   -1,045
1137,172;  358,939;    0,000;   -1,045
1137,708;  275,212;   -1,364;   -1,045
1138,245;  281,121;    1,273;   -1,227
1138,781;  216,758;    1,091;   -3,318
1139,317;  298,485;    1,273;   -1,409
1139,852;  289,939;    3,091;    0,136
1140,388;  408,667;   -1,182;   -0,409
1140,924;  289,758;   -1,091;   -2,227
1141,460;  227,848;   -1,636;    0,136
1141,996;  155,939;   -1,364;    2,682
1142,531;  200,303;    1,364;    3,318
1143,067;  420,758;    1,182;    1,045
1143,602;  489,030;   -0,091;   -0,318
1144,138;  328,576;   -2,636;    1,045
1144,673;  184,758;   -1,455;    1,409
1145,209;  266,121;   -1,909;   -0,318
1145,744;  173,939;   -0,727;    0,864
1146,279;  316,848;    1,818;   -0,136
1146,815;  229,667;    1,545;   -2,682
1147,350;  277,485;   -1,364;    0,045
1147,885;  194,121;   -0,818;   -1,318
1148,420;  186,576;   -2,273;    0,773
1148,955;  160,303;   -1,727;    1,864
1149,490;  188,303;   -0,909;   -1,591
1150,025;  176,758;    0,455;   -1,773
1150,560;  289,848;    1,091;   -0,955
1151,094;  257,303;    1,455;   -0,591
1151,629;  267,939;    1,636;    0,864
1152,164;  182,848;    1,364;    1,318
1152,698;  145,939;   -0,182;   -0,136
1153,233;   98,667;    0,091;   -0,682
1153,767;  144,394;   -3,000;   -2,318
1154,302;  194,121;   -1,455;    1,773
1154,836;  196,212;   -0,455;   -2,136
1155,371;  262,394;   -1,364;    3,682
1155,905;  213,485;   -0,636;    1,682
1156,439;  175,939;   -0,636;   -0,500
1156,973;  212,667;    0,364;    0,318
1157,507;  143,394;   -0,364;    0,682
1158,042;  176,758;   -0,727;    1,045
1158,576;  224,121;    0,182;    1,773
1159,110;  210,576;   -0,818;    2,409
1159,643;  180,667;    0,636;   -0,045
1160,177;  111,121;   -1,545;    1,500

