
Integration time [ms]:   0,040
Averaging Nr. [scans]: 11
Smoothing Nr. [pixels]: 0
Data measured with spectrometer [name]: 7318044SP
Wave   ;Sample   ;Dark     ;Reference
[nm]   ;[counts] ;[counts] ;[counts] 

186,757;   28,798;   31,551;    1,318
187,357;   71,554;   22,551;    0,955
187,958;   43,173;   15,460;   -1,591
188,558;   88,973;    8,915;   -1,227
189,159;   56,474;    6,733;   -4,500
189,759;   23,257;    7,278;   -3,591
190,360;   24,258;    2,824;   -2,136
190,960;   63,556;    2,915;   -4,136
191,560;   75,156;    3,189;   -6,591
192,161;  341,298;    4,372;   -3,500
192,761;  179,813;    4,010;   -3,227
193,361;  121,687;    1,556;   -3,773
193,962;  172,192;    2,010;   -2,682
194,562;   92,294;    1,189;   -3,955
195,162;  131,826;   -2,448;   -2,227
195,762;  304,517;   -3,176;   -0,045
196,362;  250,013;    1,370;   -2,500
196,963;  100,649;    2,006;   -0,864
197,563;  178,158;    1,551;   -0,955
198,163;  118,857;    0,096;   -0,682
198,763;  144,102;    1,733;   -0,500
199,363;  259,535;    3,096;   -0,500
199,963;  214,010;    0,369;    0,409
200,563;  183,360;    2,823;   -1,409
201,163;  160,810;    3,277;   -0,227
201,763;  264,429;    3,732;    0,318
202,363;  190,611;    1,459;    1,500
202,963;  315,093;    1,459;    1,045
203,563;  420,995;    0,277;    0,500
204,162;  255,827;    2,096;   -1,864
204,762;  241,340;    0,550;    0,591
205,362;  215,432;    3,004;    1,955
205,962;  311,989;    3,096;    1,955
206,562;  328,795;    1,823;    2,318
207,161;  282,892;   -0,087;    0,318
207,761;  453,463;    1,277;    2,409
208,361;  319,834;   -0,268;    1,409
208,960;  432,932;    0,459;    1,500
209,560;  515,260;    1,277;    1,591
210,160;  485,938;    0,550;    1,864
210,759;  455,844;    4,186;    1,227
211,359;  460,585;    1,459;    1,045
211,958;  729,222;    1,277;    2,045
212,558;  823,746;    1,732;    1,864
213,157;  659,700;    1,822;    1,500
213,757; 1121,151;    3,822;   -0,227
214,356;  804,218;    1,277;   -0,409
214,956; 1153,358;    3,095;    0,409
215,555;  764,805;    2,095;    2,136
216,154;  690,927;   -2,723;   -0,591
216,754;  705,193;    0,277;    0,773
217,353;  843,452;   -0,268;   -1,045
217,952;  696,937;   -0,178;    0,318
218,552;  949,668;    1,368;   -0,773
219,151;  838,650;    0,277;    0,955
219,750;  845,779;    0,004;   -0,227
220,349;  998,563;   -0,451;    1,045
220,948; 1058,975;   -1,360;    1,136
221,548; 1082,374;    0,913;    1,227
222,147; 1186,843;   -0,087;   -0,409
222,746; 1482,237;   -0,451;   -0,955
223,345; 1369,982;    0,731;    0,500
223,944; 1382,975;   -0,451;    0,773
224,543; 1577,567;    1,004;   -1,409
225,142; 1690,929;    0,094;    0,136
225,741; 1584,877;   -0,814;    1,045
226,340; 1628,835;   -0,451;   -0,955
226,939; 2103,018;   -0,996;   -0,136
227,538; 2076,626;   -0,360;   -0,773
228,137; 2226,322;   -0,814;    0,864
228,735; 2392,046;   -0,541;    1,227
229,334; 2134,039;   -0,905;   -0,227
229,933; 2544,745;    0,459;    0,591
230,532; 2658,703;    1,186;   -0,409
231,131; 2697,616;    1,732;    0,318
231,729; 2875,546;   -2,450;   -2,318
232,328; 3034,413;   -0,723;   -1,500
232,927; 3134,019;    1,004;   -0,500
233,525; 3286,559;    3,640;    0,045
234,124; 3494,581;    2,368;   -1,591
234,723; 3500,336;    0,913;   -1,045
235,321; 3664,451;    2,277;    0,136
235,920; 3934,186;    1,186;   -1,227
236,518; 4209,937;    3,459;    0,318
237,117; 4376,255;    0,004;   -0,227
237,715; 4573,193;    0,640;   -0,500
238,314; 4621,714;   -0,087;   -2,318
238,912; 4706,745;   -0,723;   -1,409
239,510; 4770,641;    0,459;   -1,227
240,109; 4987,840;    0,004;    3,773
240,707; 5012,735;   -0,996;    1,227
241,305; 5379,609;    0,550;    0,136
241,904; 5616,246;   -0,178;   -2,045
242,502; 5582,347;   -0,632;   -0,227
243,100; 5505,731;   -0,087;   -0,955
243,698; 5779,760;    0,732;    1,682
244,297; 5969,497;   -0,632;    0,682
244,895; 5779,081;   -0,269;   -2,318
245,493; 6146,993;    2,186;   -0,591
246,091; 6183,039;    1,368;   -1,318
246,689; 6175,762;    1,004;    0,591
247,287; 6325,909;    0,822;   -1,136
247,885; 6622,706;   -1,451;    1,227
248,483; 6750,602;    1,822;   -0,500
249,081; 6884,286;    0,185;    1,591
249,679; 7039,758;   -0,178;    1,682
250,277; 7295,773;   -1,723;    0,864
250,875; 7283,280;   -1,087;   -1,045
251,473; 7291,017;   -1,178;    0,500
252,071; 7496,965;    1,459;    1,045
252,669; 7697,339;   -1,814;    0,318
253,267; 7931,003;   -0,087;    0,773
253,864; 7883,273;   -0,360;    0,682
254,462; 7746,514;    1,640;    1,591
255,060; 7721,315;   -0,269;    1,318
255,658; 8040,339;    0,822;   -0,136
256,255; 8486,906;    0,186;   -2,045
256,853; 8349,797;   -0,269;    1,409
257,451; 8328,986;    0,822;    1,864
258,048; 8630,787;    1,822;    1,864
258,646; 8378,056;    1,731;   -1,045
259,243; 8578,433;   -0,087;    2,227
259,841; 8629,856;   -0,814;    0,318
260,438; 8508,132;   -0,087;    0,864
261,036; 9260,805;   -1,905;    1,409
261,633; 9113,982;   -0,087;    2,227
262,231; 8837,996;    2,731;   -0,045
262,828; 8925,871;   -0,905;    1,136
263,425; 8991,053;    0,913;   -0,591
264,023; 9305,860;    0,186;    0,045
264,620; 8841,231;   -0,360;   -0,318
265,217; 9210,888;   -2,087;    3,136
265,815; 9301,279;   -1,905;    2,136
266,412; 9076,713;    0,731;    0,136
267,009; 9117,528;   -1,451;    0,773
267,606; 9001,237;    0,822;   -0,955
268,203; 8991,214;   -0,269;   -0,591
268,801; 9289,094;    1,731;    0,591
269,398; 9572,839;   -0,360;    2,500
269,995; 9565,144;    0,277;    1,591
270,592; 9350,252;   -0,632;   -0,500
271,189; 9556,052;    0,186;    0,409
271,786; 9674,633;   -0,632;    1,227
272,383; 9504,266;   -1,087;    0,227
272,980; 9683,049;    0,277;    0,318
273,577;10190,847;    0,004;    1,227
274,174; 9763,347;    0,822;    2,591
274,771; 9758,884;   -0,814;   -0,773
275,367; 9852,662;    2,277;    1,409
275,964; 9795,221;    0,731;   -0,500
276,561; 9896,804;    1,549;   -1,045
277,158;10135,213;    0,095;   -1,773
277,755;10287,195;    2,185;    0,409
278,351; 9676,143;   -0,451;   -1,500
278,948;10011,160;   -0,815;    0,045
279,545; 9982,059;   -1,360;    2,318
280,141;10639,336;   -1,723;   -2,045
280,738;10522,059;   -0,451;   -0,136
281,334;10759,657;   -1,633;    0,591
281,931;10163,013;   -0,087;   -1,318
282,528;10235,209;    0,822;   -0,500
283,124;10932,514;   -1,087;   -0,500
283,721;10832,181;   -0,451;    1,409
284,317;10644,806;    0,185;    2,500
284,913;11206,883;   -1,360;    0,591
285,510;11431,247;    0,640;   -0,318
286,106;11438,807;   -2,269;   -0,955
286,703;11039,209;   -0,360;    1,955
287,299;11237,675;   -1,451;   -0,591
287,895;11429,717;    0,822;   -1,045
288,491;12017,657;    0,186;    2,136
289,088;11727,384;   -2,360;    2,409
289,684;11800,157;   -1,723;    1,500
290,280;11820,507;    0,368;    0,682
290,876;11905,468;    1,822;    5,500
291,472;11780,971;    1,276;    2,227
292,068;11902,905;    1,367;    0,227
292,665;11585,493;    2,095;    0,773
293,261;11163,695;    0,276;    2,136
293,857;11602,318;    2,913;    2,136
294,453;11532,287;    3,550;    0,955
295,049;11417,705;   -0,268;    1,955
295,644;11438,770;    0,095;    0,136
296,240;11337,862;   -0,905;   -0,136
296,836;11403,785;   -0,995;    0,318
297,432;11646,300;    1,096;   -0,500
298,028;11695,453;    0,732;    0,773
298,624;12124,432;    1,459;    1,864
299,220;12361,097;    2,368;    0,591
299,815;12011,565;    1,005;   -0,409
300,411;11845,432;    0,914;    1,773
301,007;11863,898;    1,368;    0,227
301,602;11885,670;   -0,541;   -2,318
302,198;12068,136;    0,732;   -0,773
302,794;12405,237;    1,187;   -0,500
303,389;12508,065;   -1,177;    1,045
303,985;12597,044;    0,550;    1,409
304,580;12537,778;    1,459;    1,591
305,176;12521,855;   -3,086;    0,136
305,771;12459,645;   -1,268;   -1,227
306,367;12332,365;    4,095;    0,136
306,962;12629,306;    0,641;    1,500
307,558;12388,698;   -0,450;    0,136
308,153;12319,404;    1,095;   -1,136
308,748;12515,079;   -0,814;    1,682
309,344;12496,578;   -0,632;   -1,318
309,939;12601,760;   -1,905;   -1,318
310,534;12840,442;   -0,086;   -1,682
311,130;12777,145;    0,459;   -2,500
311,725;12523,355;    1,004;   -0,500
312,320;12827,918;    2,459;    0,045
312,915;12664,173;    1,459;   -1,045
313,510;12762,572;    1,550;   -0,500
314,105;13258,275;    1,096;    1,409
314,700;12644,576;   -3,086;   -1,045
315,295;12273,142;   -0,904;    0,045
315,890;11805,481;    1,277;    0,864
316,485;12217,180;   -0,359;   -0,318
317,080;12349,677;   -3,086;    1,591
317,675;12915,921;    2,005;   -0,682
318,270;12319,153;    5,550;    3,318
318,865;12308,786;    3,278;    3,045
319,460;12148,457;   -0,904;    0,591
320,055;12373,814;   -0,541;   -1,227
320,650;12021,493;   -1,995;   -0,591
321,244;12044,104;   -0,177;   -1,409
321,839;13027,768;   -1,541;   -0,227
322,434;12891,100;   -1,086;   -1,591
323,029;12517,929;    1,732;    1,591
323,623;12348,715;    1,550;    0,773
324,218;12110,087;    2,368;    1,409
324,812;12008,331;    1,096;    1,591
325,407;11806,729;   -0,814;    2,045
326,002;11719,796;    0,277;   -0,409
326,596;12033,565;    0,914;    1,318
327,191;12204,051;    0,823;   -1,045
327,785;11794,838;   -0,813;   -0,227
328,379;12012,537;    1,368;    0,136
328,974;11815,387;    0,914;   -3,955
329,568;12019,184;    0,186;   -2,409
330,163;11813,786;    2,096;    1,045
330,757;12178,523;    2,459;    1,591
331,351;11503,516;    0,459;    0,682
331,945;11824,233;    0,914;    1,409
332,540;11396,792;   -1,723;   -0,591
333,134;11537,316;   -1,086;    0,773
333,728;11826,215;    0,005;    0,318
334,322;12083,925;   -1,177;   -0,864
334,916;11383,141;    0,277;    0,955
335,510;11736,904;   -0,450;   -0,136
336,105;11966,324;   -1,086;    1,591
336,699;11686,439;   -1,086;    0,591
337,293;11654,285;   -1,723;    0,318
337,887;11762,949;   -2,723;    1,955
338,481;11891,638;    0,459;    0,591
339,074;12045,501;   -0,359;    2,682
339,668;11860,452;   -1,632;    1,227
340,262;12120,624;    1,732;    3,227
340,856;11593,326;    1,822;   -0,682
341,450;10944,053;    1,004;    1,864
342,044;11853,830;    1,459;    0,136
342,637;11607,749;    0,913;   -2,136
343,231;11503,231;   -2,360;    0,682
343,825;11464,253;   -1,086;   -0,591
344,419;11382,163;   -1,995;    0,500
345,012;11184,618;    2,459;    4,045
345,606;11217,293;    4,641;    1,591
346,199;11026,461;   -1,813;   -0,227
346,793;10567,230;    1,914;    2,045
347,386;10757,932;   -0,813;   -1,136
347,980;10733,947;   -0,268;   -0,045
348,573;10523,860;    2,278;    0,409
349,167;10204,221;    5,278;    4,773
349,760;10540,077;    2,914;    2,682
350,354;10536,037;   -0,813;    1,136
350,947;10273,595;    1,096;    1,682
351,540; 9934,711;   -0,358;   -1,409
352,134; 9879,382;    1,096;    1,136
352,727; 9966,748;   -0,086;    1,136
353,320; 9744,430;    0,005;    0,591
353,913; 9566,846;   -1,995;    1,864
354,507; 9793,227;    0,823;   -1,227
355,100; 9794,479;    0,460;    0,864
355,693; 9045,987;    2,005;    2,409
356,286; 9078,833;    0,823;    2,773
356,879; 9427,266;   -0,722;    1,227
357,472; 8999,581;   -0,904;    1,500
358,065; 9258,312;   -0,722;    2,500
358,658; 9135,081;   -0,540;    2,318
359,251; 8785,815;   -1,631;   -0,591
359,844; 8279,302;   -1,904;   -1,136
360,437; 8432,000;   -2,995;    0,045
361,030; 8708,147;    1,369;   -0,682
361,623; 8316,358;    2,824;    0,318
362,215; 8353,333;   -0,086;    2,045
362,808; 8164,627;   -2,358;   -1,682
363,401; 8353,753;   -2,449;    0,136
363,994; 8121,872;   -0,631;   -1,500
364,586; 8029,530;    0,824;   -1,500
365,179; 8232,045;   -0,449;   -1,136
365,772; 7704,431;   -1,995;    2,045
366,364; 8017,111;    1,915;   -3,227
366,957; 8205,587;    2,279;   -0,045
367,549; 8221,850;    2,188;   -0,864
368,142; 7896,309;    1,825;   -1,500
368,734; 8090,257;    0,734;   -2,136
369,327; 8043,100;    1,643;   -0,500
369,919; 7967,863;   -1,538;    0,409
370,512; 7744,455;   -1,083;   -0,500
371,104; 7536,944;   -0,901;    1,591
371,696; 7687,984;    1,191;   -0,955
372,289; 7795,552;    0,373;    1,136
372,881; 7945,674;   -2,080;    1,318
373,473; 7871,442;   -2,170;    1,136
374,066; 7670,565;   -0,169;    0,500
374,658; 7509,228;    0,378;    1,136
375,250; 7899,929;    0,653;   -1,409
375,842; 7708,529;    0,473;   -0,045
376,434; 7591,097;   -0,435;   -0,409
377,026; 8187,628;    0,204;   -2,500
377,618; 8092,319;   -0,158;   -0,682
378,210; 7923,384;   -0,338;   -1,955
378,802; 7727,891;    0,754;   -0,591
379,394; 7747,195;    1,846;    0,682
379,986; 8303,914;    1,393;   -0,955
380,578; 8412,695;   -0,153;    0,773
381,170; 7747,790;   -0,972;    0,045
381,762; 7707,147;    0,755;    1,409
382,354; 7926,234;   -0,065;   -1,318
382,945; 8007,271;   -2,976;    0,318
383,537; 8148,438;   -2,705;   -1,955
384,129; 8173,364;   -2,160;   -1,136
384,721; 8376,439;   -0,252;    0,955
385,312; 8307,788;   -0,161;   -0,955
385,904; 8386,198;   -2,706;    1,591
386,496; 7765,353;   -0,979;    1,045
387,087; 7884,595;    1,022;    2,500
387,679; 7952,949;   -1,160;    0,045
388,270; 8087,233;    2,840;    2,045
388,862; 8196,956;    1,295;   -0,318
389,453; 8101,103;   -0,887;    1,045
390,045; 8376,890;   -0,705;   -2,682
390,636; 8301,583;    0,204;   -0,591
391,227; 8127,247;   -0,523;   -0,045
391,819; 8260,215;    0,204;    0,773
392,410; 8331,267;    1,022;    0,045
393,001; 8247,090;   -0,979;   -1,591
393,593; 8549,537;    1,930;   -0,045
394,184; 8420,188;    1,385;   -0,409
394,775; 8317,587;    1,839;    2,136
395,366; 8512,794;    1,385;    0,773
395,957; 8549,396;    0,113;    0,136
396,548; 8887,032;   -0,342;    2,682
397,139; 9168,347;   -2,433;    0,591
397,730; 8895,573;   -1,888;    0,955
398,321; 8940,839;   -1,252;    0,955
398,912; 8983,080;   -0,615;    0,136
399,503; 9019,468;   -3,524;   -1,409
400,094; 8463,555;    0,294;    1,682
400,685; 8312,493;   -0,433;    0,045
401,276; 8417,556;    0,930;   -0,955
401,867; 8745,803;   -0,888;    0,773
402,458; 8806,881;   -2,251;   -2,318
403,048; 8810,191;    1,112;    0,591
403,639; 8430,993;    0,840;    0,864
404,230; 8662,684;    2,476;    0,318
404,821; 8581,559;   -0,615;    0,045
405,411; 8718,380;    1,203;   -2,591
406,002; 8344,503;   -1,252;   -1,136
406,592; 8185,589;    2,294;    0,045
407,183; 8491,826;    0,566;   -1,500
407,774; 8401,204;    3,475;   -0,136
408,364; 8755,414;    0,930;    0,409
408,954; 8322,694;    0,384;    1,227
409,545; 8363,865;    1,021;    1,045
410,135; 7903,871;    1,293;    0,500
410,726; 8082,986;    1,838;    0,318
411,316; 8458,011;    0,111;    0,773
411,906; 8106,937;   -0,253;   -0,409
412,497; 7609,931;   -1,070;   -0,045
413,087; 8207,274;   -1,980;   -0,227
413,677; 8617,563;   -0,707;    3,864
414,267; 8448,972;    0,656;    1,409
414,857; 8447,084;   -2,980;    4,227
415,448; 8748,050;    0,839;    0,500
416,038; 8443,826;    0,020;   -0,591
416,628; 8402,007;   -0,889;    0,409
417,218; 7862,387;    0,565;    3,318
417,808; 8148,226;    0,202;   -0,409
418,398; 8614,716;    0,020;    2,682
418,988; 8642,429;    2,020;    0,591
419,578; 8903,825;   -0,707;    1,409
420,168; 9214,308;   -1,343;   -0,955
420,757; 8827,354;   -1,343;   -1,500
421,347; 8488,051;    0,111;   -0,227
421,937; 8667,708;    2,292;    1,409
422,527; 8643,117;    0,838;   -0,773
423,116; 8451,289;   -0,253;   -0,045
423,706; 8753,667;   -1,889;    0,318
424,296; 8745,751;    1,384;    0,682
424,885; 9188,933;   -0,071;   -3,045
425,475; 9477,348;    1,474;   -2,864
426,065; 9366,100;   -0,980;   -0,318
426,654; 9004,487;   -0,435;   -0,318
427,244; 9153,757;    0,020;    1,409
427,833; 8587,733;    1,383;   -0,500
428,423; 9092,781;   -0,526;    1,136
429,012; 9858,602;   -0,344;   -1,136
429,601; 9345,046;   -1,344;    0,136
430,191; 9543,714;    1,292;    4,318
430,780; 9201,757;   -0,344;   -0,409
431,369; 9122,777;    0,746;   -0,045
431,959; 9730,644;   -1,254;    0,500
432,548; 9548,049;   -1,163;   -0,045
433,137; 9706,182;   -1,254;   -1,318
433,726;10221,514;    0,292;    0,500
434,315; 9523,059;   -0,526;    2,409
434,905; 9640,321;   -1,254;    1,409
435,494; 9532,919;    0,746;    0,955
436,083; 9979,409;   -0,981;   -0,955
436,672; 9873,269;    0,110;    0,500
437,261; 9444,496;    0,292;   -1,955
437,850; 9617,520;    1,383;    0,682
438,439; 9612,981;    3,291;    1,955
439,027; 9439,645;    3,655;    1,773
439,616; 9753,928;    2,927;    1,227
440,205; 9601,285;    0,200;   -2,136
440,794; 9700,854;    2,109;   -0,045
441,383; 9993,455;   -1,346;   -0,591
441,971; 9803,714;   -2,436;    0,591
442,560; 9658,829;    0,563;   -1,773
443,149; 9417,294;    0,379;   -1,318
443,737; 9605,579;   -0,074;   -2,318
444,326; 9864,203;    0,018;    0,318
444,915; 9940,762;   -1,982;    0,864
445,503;10331,088;   -2,891;   -0,318
446,092; 9568,207;    0,382;    2,136
446,680;10137,350;    0,382;    0,318
447,269;10280,622;   -0,346;   -0,318
447,857;10024,782;    0,018;   -1,773
448,445;10151,293;    0,563;    1,318
449,034;10373,122;   -1,528;   -1,136
449,622;10526,489;   -1,073;    3,500
450,210; 9751,820;    2,017;    2,227
450,799;10290,208;    0,290;   -0,591
451,387;10245,540;    1,381;   -0,591
451,975; 9895,956;    2,654;    0,864
452,563; 9974,680;    3,472;    2,318
453,151;10019,054;   -0,528;   -1,227
453,739; 9940,074;   -1,347;    0,136
454,328; 9778,179;    2,381;   -2,136
454,916; 9480,902;    2,562;   -0,136
455,504; 9681,154;    1,017;    1,227
456,092; 9834,504;    0,017;   -1,591
456,679; 9849,302;    1,472;    0,682
457,267; 9818,553;    4,017;    1,045
457,855; 9969,927;    1,017;    1,409
458,443; 9690,555;   -0,165;    1,682
459,031; 9847,685;    0,108;    2,409
459,619;10323,245;   -1,801;    2,864
460,206;10468,853;    0,835;    2,045
460,794;10500,115;   -2,983;   -0,227
461,382;10756,160;   -0,529;   -0,864
461,970;10345,551;    1,198;    1,864
462,557;10354,394;   -0,711;   -0,682
463,145;10543,688;   -3,165;   -1,682
463,732;10706,163;    2,016;   -1,045
464,320;10640,278;   -0,075;   -3,045
464,907;10324,306;    2,743;   -0,773
465,495;10198,168;    0,743;   -1,227
466,082;10345,935;   -1,984;   -0,045
466,670;10292,767;   -2,529;    1,227
467,257;10665,256;   -1,711;    2,045
467,844;10812,137;   -0,075;    0,045
468,432;10848,728;    0,834;    3,500
469,019;10354,248;    0,925;   -1,773
469,606;10846,525;    0,470;    3,682
470,193;10618,073;   -1,439;    0,227
470,780;10193,577;   -2,075;    0,864
471,368;10539,035;   -1,257;   -0,773
471,955;10347,276;    1,379;   -0,682
472,542; 9949,762;    0,652;   -1,136
473,129;10198,720;   -0,166;    0,136
473,716; 9924,937;    1,470;    0,591
474,303;10136,217;    0,652;   -0,864
474,890;10451,593;   -1,439;   -0,500
475,477;10473,425;   -1,621;    0,409
476,064;10370,708;    1,106;   -1,591
476,650;10326,072;    0,288;    0,318
477,237;10168,799;   -0,258;    0,955
477,824;10362,033;   -1,076;    0,864
478,411;10352,747;   -1,894;   -0,318
478,997;10524,372;    0,560;   -0,773
479,584;10569,536;    1,196;   -0,409
480,171;11271,494;   -0,440;   -0,773
480,757;10908,528;    2,651;    0,773
481,344;11283,924;    0,469;    0,409
481,931;10795,083;    1,105;    1,045
482,517;11864,601;   -1,258;    0,318
483,104;12473,959;    1,106;    2,864
483,690;12736,515;   -1,804;    0,045
484,276;13109,259;   -0,895;    0,227
484,863;12822,305;    2,469;    1,136
485,449;13404,958;   -0,077;    0,318
486,035;13396,003;   -1,986;   -0,136
486,622;13790,930;   -0,895;    0,045
487,208;13747,675;    1,378;    1,500
487,794;13593,227;    0,741;    0,318
488,380;13699,527;    0,105;   -1,409
488,967;13770,390;   -1,168;   -0,409
489,553;13851,638;   -1,895;   -1,409
490,139;14037,887;    1,559;    0,773
490,725;13351,995;    0,741;   -0,227
491,311;12905,764;    3,287;    3,045
491,897;12262,866;   -0,986;    1,500
492,483;12072,925;    0,105;    1,227
493,069;11954,939;    3,923;    0,864
493,655;11923,309;    1,650;    0,682
494,241;11814,260;    1,377;   -0,955
494,826;12229,453;    0,287;   -1,045
495,412;11682,030;    2,559;   -0,682
495,998;11827,207;   -0,805;   -0,318
496,584;11966,830;    0,377;    1,045
497,169;11967,200;    1,014;   -0,682
497,755;11956,112;    0,650;    1,227
498,341;12520,015;    0,559;    0,318
498,926;12108,584;    1,832;    1,955
499,512;12277,890;    1,286;    2,955
500,097;12409,590;    0,195;   -0,318
500,683;12341,094;   -0,350;    2,136
501,268;12720,951;   -0,169;   -0,955
501,854;12427,961;   -0,169;    1,227
502,439;12386,785;   -0,624;   -1,773
503,024;12591,866;    0,195;    0,500
503,610;12663,433;   -0,078;   -0,682
504,195;12662,866;    0,558;    1,955
504,780;12798,692;    2,922;    1,227
505,366;12599,489;    3,013;    2,864
505,951;12332,932;    0,740;    1,045
506,536;12358,851;   -3,260;   -3,682
507,121;12333,659;    0,285;   -0,318
507,706;12870,306;    2,376;    1,045
508,291;13277,662;    2,649;    1,136
508,876;12748,339;   -0,988;    2,591
509,461;12202,267;   -0,169;   -0,773
510,046;12587,284;    0,194;    0,318
510,631;12868,861;   -0,351;   -0,773
511,216;12528,697;    2,467;   -0,500
511,801;12862,649;   -0,442;    2,591
512,386;13211,585;    0,740;    0,500
512,971;13160,864;   -2,988;    0,955
513,555;12725,130;   -0,897;   -1,500
514,140;13489,732;   -0,442;   -3,136
514,725;13503,720;   -0,715;   -1,136
515,309;13649,336;   -0,533;    0,318
515,894;13077,846;   -0,624;   -2,227
516,479;13539,972;   -0,624;   -0,955
517,063;13358,486;    0,376;    1,227
517,648;13502,500;    1,012;   -1,136
518,232;13160,338;   -0,261;   -1,409
518,817;13492,586;   -0,079;    1,682
519,401;13705,625;    2,194;    0,591
519,985;13218,779;    1,103;    1,136
520,570;13102,873;    0,830;   -1,955
521,154;13402,617;    2,102;    0,591
521,738;13598,442;   -2,352;    2,409
522,323;14129,596;   -0,170;    1,682
522,907;13905,218;    0,466;   -0,136
523,491;13596,138;    0,557;    0,955
524,075;13574,931;    2,284;    0,591
524,659;13658,176;    1,466;    0,591
525,243;13125,858;    1,739;    0,409
525,827;13404,903;    0,648;   -0,045
526,411;14230,995;   -1,989;   -0,136
526,995;14436,725;   -0,352;    1,409
527,579;14023,763;   -0,443;   -1,045
528,163;14364,304;    0,375;   -1,500
528,747;14313,014;    2,466;   -0,773
529,331;14591,574;   -0,080;   -1,409
529,915;14828,615;    1,738;    0,955
530,499;14762,493;   -0,807;    1,227
531,082;14491,483;   -0,534;    1,591
531,666;13899,608;    1,374;    0,773
532,250;14552,808;    1,284;    2,682
532,833;14889,923;    0,920;    2,773
533,417;14727,234;   -1,807;    0,864
534,001;14763,513;    1,647;   -0,318
534,584;15470,345;    0,374;    0,500
535,168;15272,792;    0,465;    1,409
535,751;15382,188;    0,647;    0,045
536,334;14798,310;   -0,898;   -0,409
536,918;15357,877;    0,011;    1,591
537,501;15495,562;   -0,899;    1,318
538,085;15494,223;   -0,444;    1,045
538,668;15673,016;    0,829;    2,409
539,251;16030,355;    1,829;    3,773
539,834;15986,796;    0,101;    0,773
540,418;15966,925;   -1,990;    4,318
541,001;16054,775;   -0,990;    1,773
541,584;16041,997;    2,101;    2,227
542,167;15729,697;    1,374;    2,955
542,750;15871,305;    1,919;   -0,773
543,333;15474,116;    0,555;    2,136
543,916;16274,162;    0,192;    2,500
544,499;16878,074;   -1,354;    0,227
545,082;16886,962;    1,374;    3,591
545,665;17027,875;    1,919;    1,500
546,248;17367,116;    1,010;   -0,318
546,830;17027,067;   -0,445;    1,955
547,413;17443,479;    1,010;   -0,773
547,996;17945,765;    0,555;    0,500
548,579;17747,157;    0,919;    0,955
549,161;17525,590;    1,828;    2,682
549,744;17303,072;   -0,809;    0,409
550,326;17874,261;   -0,809;   -1,136
550,909;17686,551;    2,737;    0,591
551,492;18019,240;   -0,263;    0,227
552,074;17756,519;   -0,173;   -1,318
552,657;18353,128;    2,373;    0,045
553,239;18109,236;   -0,173;   -0,773
553,821;17981,985;   -1,082;    1,045
554,404;17494,638;    1,282;    1,136
554,986;17932,589;    0,464;    1,045
555,568;18472,243;    1,191;   -0,955
556,151;17693,036;    1,191;   -0,227
556,733;17881,662;   -0,264;   -0,864
557,315;18382,592;    0,100;    0,500
557,897;18220,274;    0,554;   -0,500
558,479;18306,312;   -1,991;    1,318
559,061;18460,962;   -0,719;   -0,864
559,643;18838,427;   -0,264;    0,045
560,225;19220,767;    1,645;    2,864
560,807;19220,973;    0,918;    0,318
561,389;18680,326;    0,554;    2,318
561,971;19459,276;    0,463;    2,136
562,553;19235,088;   -1,628;    1,591
563,135;19403,927;   -0,537;    1,136
563,717;19008,892;    3,372;    1,136
564,298;19736,413;    3,645;   -0,045
564,880;19471,985;    0,645;   -1,409
565,462;19655,621;    0,645;    1,318
566,043;20810,356;   -0,446;    2,318
566,625;20309,898;    1,918;    1,227
567,207;20184,597;    1,099;    1,682
567,788;21361,251;   -1,264;    1,500
568,370;22193,397;    1,917;   -0,500
568,951;21996,062;    0,190;    0,227
569,533;22831,719;   -0,628;   -0,500
570,114;23317,146;   -0,446;    0,682
570,695;23859,645;   -0,174;   -1,318
571,277;24294,960;   -0,265;   -1,682
571,858;25136,502;    2,008;   -1,136
572,439;26033,698;    1,554;   -1,045
573,021;26138,186;    2,099;   -2,773
573,602;26670,141;   -1,265;    0,318
574,183;27604,791;   -2,083;    2,227
574,764;27671,295;   -1,629;    0,409
575,345;28246,060;    0,917;   -0,136
575,926;28869,064;   -0,356;    0,136
576,507;28847,956;    1,099;   -0,227
577,088;29941,470;    3,099;    1,682
577,669;29957,414;    0,735;    1,955
578,250;30766,155;    0,644;   -1,045
578,831;31421,332;   -1,356;   -2,227
579,412;31646,753;   -0,810;    0,955
579,993;32481,641;    1,008;    0,227
580,573;32832,494;   -0,629;   -0,955
581,154;31821,903;    0,735;   -0,591
581,735;32734,106;    0,644;    0,773
582,315;32244,379;   -0,629;    2,136
582,896;32452,659;   -0,174;    1,227
583,477;31920,469;    0,189;    1,227
584,057;32084,700;    0,553;    0,955
584,638;32414,095;    2,553;    2,318
585,218;32414,148;   -0,538;    2,682
585,799;32606,424;    0,281;   -0,227
586,379;32530,197;    0,372;    1,591
586,959;31241,672;    0,735;    0,318
587,540;30513,228;   -0,629;    2,227
588,120;30081,720;    1,007;   -0,045
588,700;29136,308;    2,553;    2,136
589,281;29439,340;    0,462;   -0,955
589,861;29376,029;    0,099;   -1,682
590,441;29168,711;    2,371;   -2,682
591,021;28168,274;   -0,265;   -2,591
591,601;28382,204;   -0,537;    0,500
592,181;28422,313;   -0,719;   -0,773
592,761;27674,787;    0,007;    1,409
593,341;27588,728;   -0,901;    0,045
593,921;27584,711;   -0,265;    1,591
594,501;27534,340;   -0,538;    1,318
595,081;27377,190;    0,917;   -0,318
595,661;27691,015;   -1,447;    0,955
596,240;28182,690;   -0,537;    0,136
596,820;27909,929;    0,372;    1,955
597,400;28044,309;    2,008;    0,773
597,980;28253,785;    2,008;    1,045
598,559;28253,844;    2,735;   -0,227
599,139;27924,956;   -0,174;   -1,227
599,718;27894,865;   -0,174;   -0,409
600,298;28165,148;    0,735;    0,682
600,877;28424,341;    2,917;    1,409
601,457;28654,034;    2,281;    1,136
602,036;28537,474;    0,190;    2,045
602,616;28810,327;    0,644;    1,682
603,195;29132,848;   -0,355;    3,500
603,774;28642,383;   -0,901;    2,045
604,354;28519,722;    0,826;   -0,500
604,933;27984,194;    0,463;    1,864
605,512;28171,701;    3,554;    0,591
606,091;28187,338;   -0,537;    3,773
606,671;29012,187;    0,281;    0,773
607,250;28145,558;    1,644;    3,136
607,829;28363,660;    2,372;    3,227
608,408;28210,391;    1,190;    2,591
608,987;27199,556;    1,281;    3,409
609,566;27493,746;   -1,265;   -2,500
610,145;27619,083;   -1,082;    0,682
610,723;28065,583;    4,372;    6,864
611,302;27395,615;   -0,446;    1,682
611,881;26837,734;    5,008;   11,227
612,460;27660,167;    1,645;    3,955
613,039;28052,493;   -0,082;    2,045
613,617;26815,160;    1,736;    4,773
614,196;26989,017;    1,099;    1,227
614,775;27377,364;    1,009;    2,409
615,353;27291,021;    0,736;    0,864
615,932;27034,000;    0,100;    2,409
616,510;27576,542;    0,554;    0,591
617,089;27075,616;    7,100;   17,591
617,667;26841,549;    2,372;    6,136
618,246;26716,721;   -1,537;    1,318
618,824;26910,976;   -3,355;   -0,955
619,402;26467,161;   -2,900;   -1,773
619,981;26945,662;   -0,173;   -1,045
620,559;26780,690;    0,009;    1,682
621,137;26308,134;   -0,718;    1,864
621,715;26327,997;   -1,173;   -0,682
622,293;26269,462;   -0,537;   -0,773
622,871;26740,592;   -0,718;    0,500
623,450;26290,512;    0,373;   -0,864
624,028;26191,445;    0,191;   -0,955
624,606;25799,529;   -1,718;    1,682
625,183;26209,449;   -1,536;   -1,136
625,761;25826,900;    1,009;    1,136
626,339;26105,333;    1,373;    2,591
626,917;26434,009;   -0,172;   -0,045
627,495;26508,415;   -0,354;    1,318
628,073;25947,849;   -0,263;    2,864
628,650;25664,446;    0,100;    2,136
629,228;26112,802;    0,373;    4,409
629,806;25518,635;    2,282;    1,136
630,383;25754,544;    1,464;   -0,318
630,961;25587,212;    2,555;   -0,955
631,539;25318,779;    2,464;    0,227
632,116;24701,393;   11,373;   15,409
632,694;25287,460;    2,555;    6,500
633,271;25551,472;    0,828;    2,682
633,848;25522,338;    1,828;    2,045
634,426;25491,224;   -1,081;    1,773
635,003;24627,612;    1,101;   -0,409
635,580;24937,417;    1,192;    3,682
636,158;25493,755;    3,737;    1,227
636,735;25502,412;    0,555;   -0,500
637,312;25630,142;   -0,809;   -0,682
637,889;25737,902;   -4,354;   -0,682
638,466;25208,305;   -3,990;   -0,409
639,043;25200,418;    2,101;   -1,136
639,620;25531,019;   -2,262;   -0,955
640,197;25841,235;    1,100;    1,682
640,774;25954,198;   -0,172;    1,136
641,351;26348,070;    0,737;    1,136
641,928;25762,215;   -0,627;    1,409
642,505;25444,178;    0,828;   -0,500
643,082;25551,232;   -1,718;    1,227
643,658;24522,377;   -0,718;    1,500
644,235;25287,340;    1,191;    2,500
644,812;25649,303;    1,918;    0,773
645,388;25343,720;   -0,991;    1,409
645,965;25473,956;   -0,809;    1,682
646,542;25551,010;   -1,445;   -0,227
647,118;25517,245;    1,009;   -0,955
647,695;25850,299;   -0,263;    1,136
648,271;25729,171;   -0,536;    0,500
648,848;26005,044;    0,736;    2,227
649,424;25883,097;    0,827;    1,318
650,000;25660,424;   -0,354;   -1,045
650,577;25475,205;   -0,627;   -0,955
651,153;25925,714;   -1,809;    0,955
651,729;26893,313;    1,191;    0,864
652,305;27455,367;    0,645;    2,773
652,881;32585,512;   -0,082;    1,136
653,458;39388,929;    1,100;    0,227
654,034;42772,801;    0,282;    1,591
654,610;44032,401;    0,554;    0,773
655,186;45257,909;    0,645;    3,045
655,762;44894,508;   -0,991;    0,409
656,338;44930,017;    0,100;    0,136
656,913;45798,707;   -0,082;    0,409
657,489;45076,125;    0,827;   -0,318
658,065;44946,815;   -0,173;   -1,591
658,641;45560,778;   -0,900;   -0,864
659,217;44825,832;   -0,991;    0,409
659,792;44213,613;    0,645;   -0,409
660,368;44393,212;   -2,173;   -0,682
660,944;43796,630;   -2,082;    1,227
661,519;38629,957;   -0,628;    0,409
662,095;32755,829;   -1,719;    0,591
662,670;28636,155;    1,281;   -0,136
663,246;27710,118;    1,009;   -0,409
663,821;27158,263;    0,281;    1,682
664,396;26643,044;    0,009;    1,864
664,972;26903,098;    0,009;   -0,500
665,547;27208,425;    1,372;    0,136
666,122;27258,115;   -1,082;    0,318
666,698;27579,078;   -0,173;    0,318
667,273;26912,223;   -0,173;    0,136
667,848;27782,549;    2,372;    1,500
668,423;27597,149;    2,190;    2,318
668,998;28117,657;    2,827;   -0,682
669,573;28593,166;   -3,264;   -1,500
670,148;28473,674;   -1,446;   -0,682
670,723;28290,728;   -1,810;    0,318
671,298;28628,236;    2,372;    1,045
671,873;28794,745;   -0,082;   -0,136
672,448;28744,162;    0,645;    0,136
673,023;29070,580;   -1,992;   -0,227
673,597;29428,997;    0,827;    2,318
674,172;29215,688;   -0,355;    0,318
674,747;28676,742;    0,372;   -1,045
675,321;28492,796;   -0,628;    3,318
675,896;28065,940;    0,645;    1,045
676,471;29062,176;    2,645;    1,591
677,045;28796,139;   -1,264;    0,682
677,620;28874,466;    0,190;    1,136
678,194;29102,520;   -2,628;    1,136
678,769;28728,573;   -1,083;   -0,318
679,343;29016,991;   -0,628;    1,773
679,917;28913,409;   -1,446;    1,955
680,492;28967,644;    0,826;    3,227
681,066;29134,607;    3,372;    0,409
681,640;29152,934;    1,463;   -0,318
682,214;30009,533;    0,735;    0,500
682,788;29547,133;   -1,356;   -0,773
683,363;29470,186;   -1,810;    1,682
683,937;29152,513;   -1,719;   -0,318
684,511;29889,840;    0,463;   -0,591
685,085;29608,075;   -1,356;    0,318
685,659;29333,129;   -2,538;    0,864
686,232;29651,092;   -0,356;   -0,318
686,806;29367,237;   -0,901;    0,409
687,380;30016,655;   -0,174;    0,591
687,954;30164,254;   -1,174;    1,136
688,528;29875,672;   -0,719;    1,955
689,101;30622,180;   -3,992;    1,045
689,675;30264,961;   -0,356;   -0,136
690,249;29630,106;   -0,719;    0,409
690,822;29916,433;    0,280;    0,318
691,396;30016,941;   -0,265;    1,227
691,969;29472,631;    1,280;    0,136
692,543;29969,594;   -0,447;   -1,955
693,116;29591,012;   -0,265;   -1,409
693,690;29486,066;    0,099;    0,500
694,263;30056,029;   -1,083;    2,955
694,836;30102,174;    1,371;    3,591
695,410;28774,137;   -0,265;    1,773
695,983;29211,190;    0,189;    0,591
696,556;29154,790;   -0,447;   -1,045
697,129;29478,116;   -0,356;    1,409
697,703;29111,170;   -1,629;    1,955
698,276;29121,679;    1,462;   -0,773
698,849;28985,914;    1,280;    1,409
699,422;29362,150;   -1,083;    0,591
699,995;29014,386;    0,007;    0,136
700,568;29561,803;   -0,629;    3,045
701,140;29556,221;   -2,811;    1,682
701,713;29281,548;   -0,174;    2,409
702,286;29017,601;   -0,538;    0,864
702,859;28936,564;   -0,902;   -0,591
703,432;28082,164;    0,825;    0,682
704,004;28585,854;    0,462;    0,318
704,577;28473,453;   -0,629;    0,136
705,150;29032,416;    0,189;    2,500
705,722;28820,379;   -0,356;   -3,227
706,295;28571,252;   -0,175;   -0,591
706,867;28437,942;   -0,175;    1,955
707,440;28694,450;   -1,720;   -0,409
708,012;28986,504;    0,462;    0,591
708,584;28870,740;    2,462;    0,227
709,157;29092,703;    1,825;   -0,591
709,729;28729,666;    2,280;    2,045
710,301;29558,083;    0,734;    0,045
710,874;29622,228;   -1,447;   -0,227
711,446;28482,373;    0,371;    0,864
712,018;28366,790;    0,098;    0,500
712,590;28121,935;   -1,993;    1,682
713,162;28625,989;    0,825;    1,318
713,734;28883,952;    1,825;   -2,045
714,306;28722,642;   -1,902;   -0,409
714,878;27471,515;    0,825;    0,864
715,450;28304,932;    0,643;    0,864
716,022;28473,622;    1,552;    1,318
716,593;28701,222;    0,189;    0,591
717,165;28606,548;   -3,175;   -1,227
717,737;28365,329;    0,280;    0,409
718,309;27978,838;    0,280;   -0,045
718,880;27945,710;   -0,539;   -1,409
719,452;28175,855;   -0,175;   -1,591
720,024;27748,909;    0,734;   -0,591
720,595;28301,781;   -2,902;    0,955
721,167;27884,016;    0,370;   -2,045
721,738;27418,070;   -0,812;   -1,045
722,309;27422,215;   -0,993;   -1,227
722,881;27164,633;   -1,357;    0,773
723,452;27820,505;   -2,630;    2,864
724,023;27984,013;   -0,721;    2,682
724,595;27781,885;    0,007;    0,682
725,166;27472,848;    0,007;   -0,409
725,737;27216,539;    1,734;    0,227
726,308;27255,956;   -0,266;    0,318
726,879;27712,646;   -1,630;    1,227
727,450;27532,791;    0,552;   -0,045
728,021;27505,300;    3,097;    0,682
728,592;27270,899;    0,734;    0,500
729,163;27630,317;    0,643;   -0,136
729,734;27643,916;    0,188;   -0,227
730,305;28046,788;    1,734;    0,136
730,876;28365,024;    0,188;    2,955
731,447;28100,714;    2,188;    2,682
732,017;28193,041;    1,097;    1,864
732,588;27578,004;    0,734;    1,227
733,159;27839,148;    0,643;   -1,045
733,729;27643,839;    0,006;    0,409
734,300;26956,983;    0,915;    0,864
734,870;27336,492;    3,461;    0,591
735,441;27883,637;    0,370;   -0,591
736,011;27635,327;    0,643;   -1,591
736,582;27548,199;   -0,812;    0,045
737,152;27046,162;   -1,721;   -2,045
737,722;27476,670;   -0,267;   -0,682
738,293;27192,633;   -1,358;    1,318
738,863;27091,687;    2,461;    2,318
739,433;26891,741;    5,279;    0,318
740,003;27559,068;   -0,994;   -0,682
740,573;26938,394;    2,097;   -1,591
741,143;26905,176;   -1,085;    0,318
741,713;27689,775;    1,188;   -0,500
742,283;27387,556;    0,915;    1,591
742,853;27168,701;    1,915;    1,591
743,423;26571,391;    1,733;    0,045
743,993;26747,536;   -0,358;    1,500
744,563;26125,590;    0,097;   -0,864
745,133;26095,007;   -0,812;   -0,864
745,702;26784,243;   -0,267;    1,773
746,272;25935,933;   -0,176;    0,591
746,842;25727,351;   -1,358;   -0,591
747,411;26158,314;   -0,267;   -0,318
747,981;26348,913;    0,097;    0,500
748,551;26305,058;    2,278;   -1,045
749,120;26205,930;    0,642;   -0,227
749,690;26582,166;   -0,631;    2,409
750,259;26979,311;    1,369;    2,955
750,828;26929,637;    1,551;   -1,955
751,398;27160,600;    1,278;   -0,045
751,967;26691,836;    2,187;    0,409
752,536;26857,345;   -0,813;   -0,227
753,105;27297,489;    0,096;    0,227
753,675;27103,543;    0,096;    1,773
754,244;27038,961;   -0,904;    3,591
754,813;27030,469;    0,551;    1,227
755,382;26640,069;    0,460;    0,955
755,951;27250,122;    1,551;    3,682
756,520;26732,267;   -0,085;    1,864
757,089;27354,230;    0,278;    0,500
757,658;27507,466;    1,733;    1,227
758,227;27444,702;    1,096;    0,318
758,795;27743,665;    1,187;    1,136
759,364;27944,809;   -0,086;   -0,591
759,933;26951,227;   -1,176;   -0,045
760,501;26440,735;    0,733;   -1,318
761,070;26924,517;   -2,813;   -1,409
761,639;27646,480;   -1,904;    1,318
762,207;27031,443;    1,551;   -0,955
762,776;26926,769;    0,369;    0,864
763,344;26921,641;   -0,995;    0,591
763,913;26010,150;   -0,722;    1,409
764,481;26709,931;    1,005;   -0,136
765,049;26535,985;   -1,358;    1,409
765,618;26359,311;   -0,086;    0,318
766,186;26410,820;    0,278;    0,136
766,754;26656,510;    0,005;    1,864
767,322;25681,382;   -1,995;    0,409
767,890;25714,709;   -0,722;   -1,773
768,459;26092,126;   -2,177;   -0,318
769,027;26287,362;    1,641;    3,409
769,595;25184,143;    3,278;    2,591
770,163;25686,561;    3,823;    2,955
770,730;25461,978;    0,732;   -0,136
771,298;25236,850;    0,187;   -1,409
771,866;25317,541;   -1,541;    4,955
772,434;25687,049;   -0,631;   -1,864
773,002;25831,376;    0,005;    0,682
773,569;25442,157;    0,914;    1,682
774,137;25305,120;   -0,268;   -0,045
774,705;26103,810;    0,278;   -0,136
775,272;25599,137;    0,641;    0,682
775,840;25311,918;   -0,177;    2,682
776,407;24857,426;    0,277;    1,955
776,975;24439,026;   -0,632;    0,318
777,542;25523,989;   -1,086;   -0,045
778,110;25318,588;   -1,268;   -0,045
778,677;24992,642;   -2,359;   -0,864
779,244;24765,332;    2,186;    1,045
779,812;24932,750;    1,823;    0,864
780,379;24764,167;    0,005;    1,136
780,946;24989,403;    1,005;   -0,773
781,513;25255,275;   -1,450;    0,318
782,080;24658,965;   -0,086;    2,864
782,647;25397,656;   -0,268;    3,045
783,214;25032,982;   -0,177;    3,864
783,781;24664,491;   -0,723;   -0,682
784,348;24486,272;   -0,632;    1,500
784,915;24930,417;   -3,177;    0,318
785,482;24702,198;    1,368;    2,591
786,049;25145,252;    0,186;   -0,591
786,615;25259,942;    0,277;   -0,955
787,182;24937,814;    0,186;   -0,682
787,749;24678,868;   -2,814;    1,409
788,315;24052,286;   -1,632;   -0,409
788,882;24319,794;    1,550;   -1,227
789,448;24999,757;    1,732;   -0,955
790,015;25012,720;    1,095;    3,227
790,581;24541,956;    1,459;    0,227
791,148;24479,828;    0,641;    1,045
791,714;24671,427;   -0,541;    3,136
792,280;24333,026;    0,186;    1,591
792,847;23919,171;    0,550;    2,500
793,413;24489,862;   -0,269;   -0,318
793,979;24021,734;    3,459;   -1,318
794,545;24113,424;    4,459;    2,682
795,111;23559,660;    2,186;    1,318
795,678;23722,986;    0,731;   -1,682
796,244;23406,131;    3,368;    0,136
796,810;23941,185;    1,731;    0,773
797,375;23607,057;    0,549;   -2,136
797,941;23629,656;   -0,541;    0,591
798,507;23783,347;   -0,451;   -0,955
799,073;23282,401;   -0,360;    0,591
799,639;23371,818;   -2,632;    3,136
800,205;23366,963;    0,095;    2,682
800,770;22908,562;    0,640;    1,773
801,336;23065,707;    1,368;   -0,955
801,901;22807,215;    4,549;    3,136
802,467;23339,724;   -0,542;    2,045
803,033;22663,869;   -0,087;    0,864
803,598;22845,104;    1,913;   -1,045
804,163;22873,704;    1,095;   -0,318
804,729;22818,212;   -0,178;    1,136
805,294;23249,175;    0,822;    2,227
805,859;23055,593;    0,731;   -0,409
806,425;22526,465;    1,186;    2,682
806,990;22126,064;    2,186;    4,318
807,555;22644,300;   -1,451;    2,591
808,120;22589,081;    0,822;   -0,409
808,685;22628,226;    0,185;   -2,500
809,250;22105,825;    0,004;   -0,500
809,815;22419,606;    1,913;    0,682
810,380;22967,478;   -0,269;    1,591
810,945;23524,078;   -1,087;    2,045
811,510;22633,768;    2,094;    1,591
812,075;22355,186;   -0,633;   -1,409
812,640;22379,149;    2,003;    1,409
813,204;22458,839;    0,822;   -0,227
813,769;22943,438;    2,094;   -0,045
814,334;22356,401;    0,458;    0,864
814,898;22384,728;    0,367;    0,591
815,463;22246,145;    1,276;   -0,773
816,027;22255,836;   -0,724;   -2,318
816,592;22322,162;    0,640;   -2,045
817,156;21823,216;    2,094;    1,136
817,721;21745,452;    4,276;    2,318
818,285;21700,688;    2,912;    1,500
818,849;22341,105;   -1,451;    1,682
819,414;22220,523;   -0,269;    2,955
819,978;21760,031;   -1,269;    1,773
820,542;22346,358;    2,003;    0,500
821,106;22105,866;   -0,815;    0,682
821,670;22200,466;   -0,815;    2,591
822,234;21909,974;   -0,270;    1,409
822,798;21312,755;    0,003;    0,500
823,362;21266,809;   -0,633;    4,227
823,926;20573,408;    0,094;    1,136
824,490;20804,371;   -0,997;   -0,682
825,054;21262,516;   -0,088;   -1,136
825,618;20897,388;   -1,542;   -1,500
826,181;20819,169;    0,458;   -1,318
826,745;20743,951;    1,367;   -1,045
827,309;21121,641;    1,185;    1,318
827,872;20493,695;    1,367;    0,955
828,436;21441,294;    1,185;   -0,773
828,999;21454,075;   -0,997;    1,227
829,563;20272,402;   -0,179;    1,136
830,126;20101,274;   -0,179;   -0,591
830,690;20148,510;   -1,997;    2,864
831,253;19662,655;   -0,543;    2,227
831,816;19824,890;   -1,906;    0,500
832,380;19713,217;    0,185;    0,864
832,943;19965,998;   -1,361;   -0,500
833,506;19422,234;    2,639;   -1,227
834,069;20201,651;    3,912;   -0,955
834,632;20263,342;    1,730;    1,318
835,195;20190,668;    1,003;    0,955
835,758;19373,540;   -0,997;    1,955
836,321;19220,140;    0,730;   -1,045
836,884;19344,103;   -0,725;   -0,955
837,447;19353,429;   -2,816;    1,773
838,010;19645,847;    0,366;    3,227
838,573;19917,082;   -1,179;    0,773
839,135;19867,136;   -1,361;   -0,955
839,698;19304,645;    1,275;    0,409
840,261;18810,608;    1,003;   -0,227
840,823;18649,753;   -0,543;    0,864
841,386;18975,807;   -0,452;   -2,409
841,948;18849,588;   -1,361;    1,773
842,511;18612,733;    0,912;    1,682
843,073;18804,786;    1,912;    0,227
843,636;18555,204;   -0,361;   -0,227
844,198;18505,894;    0,911;    0,591
844,760;18642,675;    1,093;    1,955
845,322;18250,638;    0,548;    1,136
845,885;18655,783;    0,730;    0,591
846,447;19111,292;   -1,998;    0,227
847,009;18711,982;    1,911;   -0,682
847,571;19023,399;    0,820;   -2,045
848,133;19142,181;   -1,089;   -1,864
848,695;18914,507;   -0,543;    1,409
849,257;18484,743;   -1,089;   -1,682
849,819;18689,524;   -0,998;   -0,409
850,381;18716,396;   -0,725;   -0,864
850,942;19092,359;    1,093;   -0,591
851,504;19102,868;    1,184;    0,227
852,066;19094,376;    1,275;   -1,591
852,628;18593,521;   -0,180;    1,955
853,189;18187,847;    1,638;    2,682
853,751;18307,447;   -0,907;    1,409
854,312;18043,046;   -0,453;   -1,682
854,874;18546,191;   -2,089;   -0,773
855,435;19089,336;   -0,907;   -1,682
855,997;19242,026;   -1,816;   -0,136
856,558;18522,444;    0,366;    1,773
857,119;18687,952;    0,820;    2,864
857,681;18339,370;    0,002;    0,318
858,242;18420,514;    1,911;   -2,136
858,803;18790,296;    0,456;   -0,773
859,364;19389,077;    0,184;   -4,773
859,925;18653,040;   -2,453;   -0,955
860,486;18572,185;   -0,453;   -0,955
861,047;18265,238;   -0,544;   -1,227
861,608;18145,383;   -1,089;   -0,773
862,169;18255,801;    0,638;   -0,045
862,730;18028,855;    0,456;    1,409
863,291;18264,999;   -0,635;   -0,500
863,852;18657,053;   -0,635;    1,955
864,412;18108,016;   -0,271;   -0,864
864,973;16682,434;   -0,089;    0,500
865,534;16570,488;   -1,726;    0,227
866,094;18051,269;    1,820;    0,227
866,655;17743,323;    1,274;    3,318
867,215;17962,740;    0,274;    0,136
867,776;17856,976;    0,547;   -0,136
868,336;17931,757;   -1,453;    0,136
868,897;17443,720;    2,638;    1,682
869,457;17143,229;    1,365;    0,318
870,017;17326,010;    0,547;   -1,227
870,578;17901,427;   -0,817;    0,773
871,138;17646,572;   -2,089;   -0,955
871,698;17156,990;   -0,817;   -1,318
872,258;17026,953;   -0,453;   -2,864
872,818;17391,188;    2,729;    0,045
873,378;17356,697;    0,638;    1,045
873,938;16869,205;    0,547;    0,500
874,498;17191,805;    0,274;   -1,955
875,058;17135,950;    2,183;    1,773
875,618;16983,003;    1,910;   -2,682
876,177;16885,330;    1,274;    0,136
876,737;16480,020;   -0,090;    1,955
877,297;16547,529;    0,183;    1,955
877,856;16566,310;   -0,362;    0,318
878,416;16456,455;    1,183;   -0,136
878,976;16670,236;   -1,817;    0,409
879,535;16884,199;    0,092;    3,136
880,095;16591,889;   -0,544;    0,045
880,654;16722,034;   -1,090;    1,318
881,213;16852,451;    2,456;    1,500
881,773;16509,960;    2,637;    2,682
882,332;16874,559;    3,365;    5,136
882,891;16711,522;    3,092;    2,136
883,451;17169,485;   -1,272;    1,682
884,010;16601,539;   -2,908;   -0,409
884,569;16701,048;   -0,999;   -0,045
885,128;16853,192;    2,819;   -1,864
885,687;16927,610;    4,455;    0,682
886,246;16622,482;    1,455;    2,136
886,805;16391,809;    2,455;    2,045
887,364;16702,953;   -0,999;   -0,500
887,922;17046,826;   -1,181;    0,045
888,481;16552,243;   -1,545;    0,591
889,040;16832,024;    1,183;    2,136
889,599;17528,896;    2,455;    1,409
890,157;17578,041;    1,455;    2,409
890,716;17220,368;   -0,090;    0,227
891,274;17028,422;    0,092;   -1,136
891,833;17525,476;    1,546;    0,864
892,391;17351,893;   -0,454;    0,500
892,950;17420,038;    1,819;   -0,773
893,508;17798,910;    0,455;   -0,409
894,067;17167,782;    0,637;    0,136
894,625;17078,109;   -0,636;   -1,500
895,183;17252,708;   -0,363;   -0,682
895,741;17134,944;    1,728;   -1,773
896,299;16970,270;   -0,545;   -2,409
896,858;17175,688;    0,819;   -1,591
897,416;17325,833;    2,728;   -1,318
897,974;17029,250;    1,819;    0,318
898,532;17215,031;    6,091;    2,682
899,089;17124,631;    2,091;   -0,682
899,647;17158,866;   -1,454;    1,318
900,205;16901,011;    1,182;    1,045
900,763;17093,338;   -0,454;    0,227
901,321;17084,483;    2,364;   -1,409
901,878;16509,809;   -1,000;   -0,773
902,436;16375,409;   -1,363;    1,318
902,994;16782,190;    4,728;    3,682
903,551;16195,971;    0,728;    0,409
904,109;16598,479;    0,182;   -1,409
904,666;16215,624;    2,455;    1,045
905,224;16014,042;    0,182;   -0,409
905,781;15757,641;    0,727;   -0,318
906,338;15823,241;   -1,363;    1,045
906,895;15734,931;    0,637;    2,045
907,453;15683,076;    1,727;    1,136
908,010;15708,220;   -0,909;    0,409
908,567;15375,365;    1,273;    0,591
909,124;14833,692;    0,364;   -1,500
909,681;14910,837;   -2,909;    0,682
910,238;15065,527;    0,636;   -1,318
910,795;15415,763;   -0,273;   -1,136
911,352;14994,126;   -2,909;   -2,682
911,909;14420,308;   -1,364;   -0,864
912,466;14982,308;   -3,182;    1,500
913,022;14516,217;   -1,636;    0,500
913,579;14851,581;   -0,909;    2,045
914,136;14574,581;    1,636;    0,955
914,692;14856,581;    0,091;   -1,227
915,249;14479,581;    1,455;    0,409
915,806;14703,035;    0,182;    1,955
916,362;14492,126;    1,909;    1,864
916,918;14036,490;    2,000;    1,045
917,475;14008,763;   -1,182;    0,955
918,031;14090,126;    3,364;   -0,045
918,587;13519,763;   -0,909;   -0,318
919,144;13748,944;   -2,273;    0,227
919,700;14043,217;    1,727;    0,773
920,256;13611,217;    0,727;    0,045
920,812;13247,763;   -0,727;   -1,045
921,368;13264,581;   -1,727;   -1,045
921,924;12870,672;    0,182;   -0,136
922,480;12485,854;   -0,545;    1,227
923,036;13080,854;    1,273;    1,955
923,592;13001,763;    0,455;    0,318
924,148;12912,399;    0,455;   -0,955
924,704;12238,944;   -1,364;   -0,409
925,259;12477,944;   -0,273;    0,591
925,815;12275,672;    1,455;    0,500
926,371;11778,854;    2,909;    1,409
926,926;11675,035;    2,091;    0,591
927,482;11334,854;   -1,364;    0,773
928,037;11216,490;    0,909;    2,045
928,593;11521,854;    1,636;    1,045
929,148;11325,308;   -1,818;   -1,500
929,704;10839,399;   -1,455;   -0,500
930,259;11033,672;    0,091;   -0,136
930,814;10104,126;   -0,818;    1,955
931,369; 9796,581;    1,091;   -0,773
931,925; 9656,399;   -0,091;    0,136
932,480; 9577,672;   -2,818;   -2,591
933,035; 9477,308;    0,545;   -0,318
933,590; 9280,035;    0,364;   -1,773
934,145; 8876,672;   -1,364;   -0,318
934,700; 9212,399;    0,455;   -0,591
935,255; 9012,126;   -0,091;    0,045
935,809; 8317,490;    3,182;    0,864
936,364; 7449,217;   -0,455;   -0,136
936,919; 7383,217;    0,455;   -1,773
937,474; 7285,035;    1,455;    0,136
938,028; 7028,944;   -1,636;    1,136
938,583; 6555,763;    1,818;    4,682
939,138; 6787,399;    2,091;    2,136
939,692; 6219,035;    1,636;   -1,136
940,247; 5949,308;   -0,727;   -1,045
940,801; 5521,035;   -0,636;    0,227
941,355; 5403,854;   -0,364;    2,591
941,910; 5043,399;   -0,273;   -2,136
942,464; 5158,581;   -0,818;   -0,318
943,018; 4951,581;    1,000;   -0,227
943,572; 4915,854;    2,545;   -0,682
944,126; 4328,399;    0,091;   -0,409
944,681; 4220,217;    3,091;    0,227
945,235; 4190,217;    1,000;   -0,591
945,789; 4139,217;    0,364;   -1,864
946,342; 4248,672;    0,455;   -0,591
946,896; 4047,763;   -2,273;    0,955
947,450; 3797,490;    1,545;   -0,227
948,004; 4006,217;    1,727;   -0,045
948,558; 4000,763;    0,273;   -0,864
949,111; 3954,944;   -0,273;   -0,318
949,665; 3988,490;    1,636;   -0,682
950,219; 3863,672;   -0,091;   -1,045
950,772; 3928,581;   -1,909;    1,864
951,326; 3846,763;    0,545;   -0,955
951,879; 3922,490;    0,727;   -2,318
952,433; 3958,763;    0,000;    2,227
952,986; 3787,581;    2,909;    0,682
953,539; 3764,854;   -0,273;    0,591
954,093; 3683,854;    0,545;   -1,318
954,646; 3815,217;    0,909;    1,318
955,199; 3607,944;    0,000;   -0,500
955,752; 3526,126;   -0,455;    1,773
956,305; 3480,672;   -0,091;    2,955
956,858; 3643,217;    0,818;   -0,318
957,411; 3819,763;   -0,545;    2,136
957,964; 3639,399;    1,364;    2,136
958,517; 3629,490;   -1,545;    3,136
959,070; 3469,763;   -0,455;    1,955
959,623; 3541,490;    1,091;    1,500
960,176; 3307,308;    1,727;    2,045
960,728; 3292,944;   -2,727;    0,773
961,281; 3351,581;    0,545;    0,500
961,834; 3399,490;   -0,909;    0,864
962,386; 3307,490;    1,727;    1,045
962,939; 3220,399;    0,364;   -0,318
963,491; 3367,035;    0,455;    1,136
964,043; 3248,126;    1,182;    2,409
964,596; 3379,672;   -1,000;    2,227
965,148; 3205,308;   -1,000;    1,773
965,700; 3145,944;    1,091;   -0,227
966,253; 3312,854;   -0,636;    0,318
966,805; 3131,672;   -2,273;    0,773
967,357; 3167,581;    1,091;   -1,500
967,909; 3138,490;    0,455;   -1,227
968,461; 3234,399;    0,545;    3,136
969,013; 3144,399;   -0,182;   -0,864
969,565; 3238,581;   -0,455;   -1,136
970,117; 3327,854;   -0,364;    1,045
970,669; 3142,854;    0,182;   -0,136
971,220; 2985,581;   -0,455;   -1,500
971,772; 2929,126;   -0,636;   -0,318
972,324; 3045,126;    0,091;   -0,500
972,876; 2996,308;    0,818;   -0,045
973,427; 3157,763;    1,909;   -1,045
973,979; 3100,581;   -0,727;   -2,500
974,530; 3131,126;    1,818;    1,318
975,082; 3149,399;   -0,545;    1,682
975,633; 3033,581;    1,091;    1,682
976,184; 3164,308;    0,909;    0,773
976,736; 2968,581;    0,091;    0,227
977,287; 2783,763;   -0,909;   -0,500
977,838; 2949,217;    0,909;   -0,318
978,389; 2997,581;   -1,000;   -0,500
978,940; 2889,399;    0,545;   -0,409
979,491; 2908,672;    0,091;   -0,500
980,042; 2865,672;    0,182;    3,045
980,593; 2932,672;   -2,545;    0,227
981,144; 2972,944;    2,545;   -0,500
981,695; 2951,672;    1,455;    1,500
982,246; 2906,672;   -0,273;    1,045
982,797; 3057,308;   -1,727;    0,682
983,347; 3151,944;    0,364;    0,591
983,898; 3343,763;    3,091;    0,409
984,449; 3156,944;    2,182;    0,773
984,999; 3062,399;    1,455;   -1,136
985,550; 2842,854;    0,182;   -0,318
986,100; 2861,672;   -0,455;   -0,318
986,651; 2898,217;   -0,818;    0,045
987,201; 2887,854;   -1,000;   -0,591
987,751; 2944,854;    0,818;    2,864
988,302; 2948,763;    2,636;    1,500
988,852; 2973,126;    0,455;   -1,136
989,402; 3017,217;    0,091;    0,682
989,952; 2930,399;   -2,182;    0,864
990,502; 3019,126;   -0,091;    0,682
991,052; 2985,399;   -0,727;    0,045
991,602; 2868,490;   -2,909;    1,318
992,152; 2863,308;    0,455;    0,682
992,702; 2836,308;    1,364;   -0,045
993,252; 2761,854;   -3,000;   -0,500
993,802; 2862,035;   -0,273;    1,318
994,352; 3075,581;   -1,545;    1,136
994,901; 3148,763;   -0,182;    3,227
995,451; 3075,490;   -0,182;    0,318
996,000; 3179,672;    1,636;    0,318
996,550; 2895,763;    2,273;    0,227
997,100; 2885,490;    1,273;   -0,045
997,649; 3162,490;    2,182;    0,955
998,198; 2811,944;    1,727;   -1,500
998,748; 3009,035;    1,091;   -2,318
999,297; 2895,035;   -0,818;   -0,409
999,846; 2962,217;    1,000;   -0,773
1000,395; 3020,854;   -0,818;    0,500
1000,945; 2983,763;    1,818;   -0,773
1001,494; 3059,308;    2,364;    0,682
1002,043; 3041,944;    4,636;    0,864
1002,592; 2874,126;   -1,091;    1,955
1003,141; 3033,854;   -0,455;   -0,682
1003,690; 2903,944;    1,727;    0,500
1004,238; 2970,944;    1,455;   -0,045
1004,787; 2594,581;    1,364;    1,227
1005,336; 2862,490;    0,364;    0,682
1005,885; 2979,035;    1,364;   -2,773
1006,433; 3123,035;    0,545;    0,955
1006,982; 3201,581;    0,455;    1,682
1007,531; 3098,672;   -1,818;   -0,227
1008,079; 3031,581;   -2,273;    0,500
1008,627; 3164,581;   -1,455;    0,409
1009,176; 2913,672;    0,000;   -1,955
1009,724; 2963,763;    1,091;    0,864
1010,273; 3019,490;    1,273;    0,500
1010,821; 3121,672;    0,091;    1,409
1011,369; 2858,490;   -1,364;    1,318
1011,917; 2855,399;   -1,364;   -0,591
1012,465; 3136,308;    1,273;   -1,591
1013,013; 3240,854;    2,091;   -1,682
1013,561; 3110,854;    0,455;   -0,773
1014,109; 3155,399;   -1,909;    1,682
1014,657; 3037,490;    0,364;    0,591
1015,205; 3155,399;    1,636;   -0,955
1015,753; 3183,217;   -0,545;   -1,409
1016,301; 3231,763;   -2,636;    3,045
1016,848; 3232,217;   -1,273;    0,409
1017,396; 3270,581;    2,545;    0,045
1017,944; 3402,308;    1,182;    1,864
1018,491; 3157,217;    0,273;    1,409
1019,039; 3307,217;    0,455;    0,591
1019,586; 3213,672;   -1,364;    1,682
1020,134; 3303,308;    0,455;    1,500
1020,681; 3328,308;    0,182;   -1,136
1021,228; 3322,490;    2,909;   -2,227
1021,776; 3161,490;    1,182;   -1,136
1022,323; 3394,035;    0,455;    0,773
1022,870; 3329,944;   -1,000;   -0,045
1023,417; 3224,490;    2,636;    1,864
1023,964; 3356,854;    2,636;    1,227
1024,511; 3210,126;    1,000;    0,773
1025,058; 3010,490;    3,182;   -0,045
1025,605; 3053,126;   -2,273;    3,136
1026,152; 3281,308;    1,727;   -0,591
1026,699; 3020,854;    1,818;    1,318
1027,245; 3166,854;   -0,091;    0,318
1027,792; 3363,490;   -1,000;    1,409
1028,339; 3261,672;    2,364;   -0,045
1028,885; 3111,944;    1,000;   -0,227
1029,432; 3068,126;   -0,091;    0,227
1029,978; 3126,399;   -1,000;   -1,591
1030,525; 3019,035;    1,000;    0,409
1031,071; 3259,672;   -1,364;    1,136
1031,618; 3370,763;    0,364;    1,682
1032,164; 3143,944;   -0,091;    3,045
1032,710; 3201,308;    1,636;   -1,500
1033,256; 3102,763;   -0,636;   -0,136
1033,803; 3088,308;   -0,545;    1,500
1034,349; 2806,217;   -1,364;    0,136
1034,895; 2947,399;    0,000;   -0,318
1035,441; 2937,672;   -0,818;    0,318
1035,987; 2932,944;   -2,364;   -0,682
1036,533; 2930,944;   -1,455;   -0,955
1037,078; 3149,581;    1,455;    1,682
1037,624; 2957,763;    2,455;   -0,955
1038,170; 2980,217;    0,455;   -0,318
1038,716; 2908,217;    1,636;   -0,409
1039,261; 2804,672;   -2,273;   -0,773
1039,807; 2736,126;   -0,091;    3,409
1040,352; 2823,308;   -1,909;   -0,318
1040,898; 2859,581;   -1,545;   -0,682
1041,443; 2767,035;   -1,455;   -2,591
1041,989; 2806,944;    1,091;    1,591
1042,534; 2673,944;   -0,364;    2,591
1043,079; 2772,308;    2,909;    0,955
1043,625; 2572,581;    1,818;    0,500
1044,170; 2622,308;   -1,364;    1,045
1044,715; 2878,217;    2,455;    0,955
1045,260; 2691,490;    2,182;   -0,955
1045,805; 2740,399;    1,182;   -0,591
1046,350; 2650,035;    1,364;   -0,409
1046,895; 2633,672;    2,909;    1,591
1047,440; 2584,944;    5,364;    0,409
1047,985; 2485,581;    2,818;   -0,955
1048,530; 2410,490;    1,545;    1,227
1049,074; 2476,308;    0,000;    0,318
1049,619; 2444,944;   -1,364;    1,955
1050,164; 2250,490;    0,455;    0,227
1050,708; 2279,944;   -0,455;    0,045
1051,253; 2674,490;    1,273;   -2,227
1051,797; 2377,308;    0,818;   -1,318
1052,342; 2372,581;   -1,182;    1,045
1052,886; 2373,581;    0,364;   -1,409
1053,430; 2244,399;   -1,364;    0,136
1053,975; 2269,854;   -0,818;   -0,318
1054,519; 2257,490;   -0,727;    3,227
1055,063; 2270,399;    0,909;    1,318
1055,607; 2144,581;   -0,182;    0,227
1056,151; 2172,308;    2,909;    1,682
1056,695; 2097,399;    2,273;   -1,136
1057,239; 2161,854;   -1,727;   -0,682
1057,783; 2169,035;    0,818;   -1,500
1058,327; 2115,944;    0,000;    1,409
1058,871; 2349,217;   -0,545;    1,318
1059,415; 2064,399;   -0,818;   -0,045
1059,958; 2353,672;    1,455;    2,591
1060,502; 2055,672;   -1,000;   -0,773
1061,046; 1941,308;    0,364;   -0,955
1061,589; 1917,035;   -3,000;   -1,136
1062,133; 1800,763;   -1,273;    1,864
1062,676; 1742,763;    1,182;    0,864
1063,220; 1750,944;    1,091;    0,500
1063,763; 1784,035;    0,909;    1,136
1064,306; 1863,126;   -0,909;    1,864
1064,849; 1759,944;   -0,909;    0,591
1065,393; 1754,035;    2,000;   -1,500
1065,936; 1869,763;    0,182;   -0,409
1066,479; 1745,854;   -1,455;    1,318
1067,022; 1769,490;   -0,273;   -0,227
1067,565; 1656,490;   -0,091;   -1,318
1068,108; 1679,763;    0,727;   -0,591
1068,651; 1660,763;   -0,636;    1,409
1069,194; 1581,672;   -0,455;   -1,682
1069,736; 1608,581;   -1,273;    0,955
1070,279; 1583,763;   -1,364;   -0,500
1070,822; 1636,672;   -2,000;   -0,318
1071,364; 1731,763;   -0,364;    1,318
1071,907; 1542,763;   -0,727;    3,227
1072,450; 1421,854;    0,000;   -0,045
1072,992; 1432,490;   -0,273;    3,136
1073,535; 1582,217;    2,091;    2,136
1074,077; 1360,854;   -0,727;    2,045
1074,619; 1339,399;   -1,364;    0,591
1075,161; 1381,126;   -1,091;    1,500
1075,704; 1564,672;    1,545;    1,227
1076,246; 1337,217;   -0,182;    0,682
1076,788; 1266,490;   -0,364;    1,773
1077,330; 1344,490;    1,273;    2,136
1077,872; 1319,308;    0,909;    0,955
1078,414; 1550,854;    2,727;    0,773
1078,956; 1295,035;    1,273;   -0,227
1079,498; 1550,763;    1,636;    0,318
1080,040; 1249,490;    1,909;   -1,318
1080,581; 1182,308;    1,636;   -0,318
1081,123; 1107,490;    0,091;   -0,773
1081,665; 1160,308;   -1,182;   -0,955
1082,206; 1472,944;    1,364;   -0,500
1082,748; 1317,854;    0,727;    2,045
1083,289; 1191,308;   -2,000;    1,318
1083,831; 1108,035;   -0,545;    0,227
1084,372; 1145,217;    0,000;    0,591
1084,913; 1157,672;    1,091;    0,864
1085,455; 1109,672;   -1,909;   -2,045
1085,996; 1077,672;   -2,273;    0,136
1086,537; 1118,581;   -0,091;    0,864
1087,078; 1147,581;   -0,909;   -2,136
1087,619; 1189,399;   -1,273;    0,227
1088,160; 1107,308;    0,000;    1,318
1088,701; 1088,399;   -1,091;    0,682
1089,242; 1021,308;    1,364;   -2,227
1089,783; 1134,581;   -0,273;    1,409
1090,324; 1096,126;    0,455;    0,682
1090,865;  970,490;    2,727;   -0,409
1091,405;  926,217;    0,727;    2,227
1091,946;  956,944;    0,182;   -0,955
1092,487;  875,126;    0,818;   -1,409
1093,027; 1064,854;   -1,364;   -1,500
1093,568;  906,672;   -0,364;    1,227
1094,108; 1013,763;    0,273;    1,773
1094,649;  947,308;   -1,182;    0,136
1095,189;  884,763;   -0,636;   -0,682
1095,729;  844,035;   -0,091;    0,955
1096,269;  834,944;    0,727;   -0,955
1096,810; 1164,217;   -1,364;    0,500
1097,350;  984,763;    1,364;   -0,773
1097,890;  888,490;    0,364;    1,227
1098,430; 1138,126;    2,364;    2,864
1098,970; 1016,035;    2,182;    1,682
1099,510;  872,308;    0,545;   -2,318
1100,050;  799,672;    1,000;   -1,591
1100,589;  767,217;   -0,727;   -0,318
1101,129;  906,035;    0,818;   -0,955
1101,669; 1051,308;    1,727;    2,136
1102,209;  873,944;   -0,091;    2,227
1102,748;  819,854;    0,000;    0,955
1103,288;  811,399;    1,273;   -1,227
1103,827;  839,490;    3,091;   -2,227
1104,367;  715,399;   -0,091;   -2,409
1104,906;  683,126;    1,364;   -1,136
1105,445;  759,763;    0,636;   -1,136
1105,985;  707,217;   -0,727;    1,500
1106,524;  752,944;   -1,727;   -0,682
1107,063;  727,308;   -2,727;    1,409
1107,602;  694,672;   -1,909;   -1,500
1108,141;  617,308;   -1,909;    1,500
1108,680;  725,035;   -3,455;   -0,591
1109,219;  652,581;   -0,909;   -0,500
1109,758;  665,490;    0,455;    0,682
1110,297;  641,217;    1,000;   -0,682
1110,836;  578,035;   -0,727;    0,955
1111,375;  749,944;   -2,545;    0,409
1111,913;  761,217;   -1,000;    0,773
1112,452;  700,944;   -0,273;    0,136
1112,991;  581,490;    1,091;    1,955
1113,529;  531,490;   -0,818;   -0,045
1114,068;  617,035;   -0,273;    2,955
1114,606;  504,035;   -0,364;   -0,955
1115,144;  670,217;   -1,273;    1,045
1115,683;  610,581;   -0,727;    0,318
1116,221;  649,944;   -0,455;   -0,864
1116,759;  559,308;    0,636;   -0,864
1117,297;  770,944;    0,000;    1,864
1117,836;  574,944;   -2,182;   -1,227
1118,374;  584,490;    0,182;   -0,682
1118,912;  522,308;    0,909;    2,682
1119,450;  510,399;    1,000;    0,864
1119,988;  560,035;    1,545;    2,136
1120,525; 1029,399;    5,091;    3,318
1121,063;  718,217;    1,182;    1,864
1121,601;  530,399;   -0,909;   -1,227
1122,139;  483,126;   -0,727;   -2,045
1122,676;  690,854;   -0,727;    2,773
1123,214;  617,490;   -1,182;    4,409
1123,751;  426,126;    1,727;    2,227
1124,289;  558,126;   -0,091;   -0,409
1124,826;  416,854;    1,727;    0,227
1125,364;  342,126;    1,727;   -0,955
1125,901;  540,672;    1,182;    1,227
1126,438;  650,763;    0,818;    0,955
1126,975;  365,217;   -0,727;   -0,773
1127,513;  442,854;    0,273;    2,136
1128,050;  343,308;    1,636;   -0,682
1128,587;  443,944;    2,000;   -0,227
1129,124;  502,490;    0,091;    1,318
1129,661;  359,763;    0,273;    0,227
1130,198;  533,308;    1,636;    0,773
1130,734;  478,944;    0,182;    1,409
1131,271;  332,126;   -0,909;    0,864
1131,808;  514,581;    2,909;    3,045
1132,345;  384,399;    1,545;    0,318
1132,881;  243,399;   -1,545;   -1,864
1133,418;  385,944;    0,727;   -1,136
1133,954;  322,217;    2,455;   -2,682
1134,491;  393,035;    1,364;   -0,773
1135,027;  296,581;    2,364;    0,864
1135,564;  392,854;    0,273;    2,955
1136,100;  377,490;    0,364;    2,136
1136,636;  249,763;   -1,273;   -1,045
1137,172;  360,581;    0,000;   -1,045
1137,708;  283,672;   -1,364;   -1,045
1138,245;  289,581;    1,273;   -1,227
1138,781;  235,035;    1,091;   -3,318
1139,317;  312,944;    1,273;   -1,409
1139,852;  293,035;    3,091;    0,136
1140,388;  414,399;   -1,182;   -0,409
1140,924;  287,490;   -1,091;   -2,227
1141,460;  223,399;   -1,636;    0,136
1141,996;  148,490;   -1,364;    2,682
1142,531;  211,217;    1,364;    3,318
1143,067;  438,035;    1,182;    1,045
1143,602;  499,763;   -0,091;   -0,318
1144,138;  335,490;   -2,636;    1,045
1144,673;  194,399;   -1,455;    1,409
1145,209;  261,581;   -1,909;   -0,318
1145,744;  179,763;   -0,727;    0,864
1146,279;  319,944;    1,818;   -0,136
1146,815;  230,399;    1,545;   -2,682
1147,350;  277,672;   -1,364;    0,045
1147,885;  189,944;   -0,818;   -1,318
1148,420;  191,035;   -2,273;    0,773
1148,955;  166,126;   -1,727;    1,864
1149,490;  202,854;   -0,909;   -1,591
1150,025;  177,308;    0,455;   -1,773
1150,560;  290,581;    1,091;   -0,955
1151,094;  259,944;    1,455;   -0,591
1151,629;  266,035;    1,636;    0,864
1152,164;  184,217;    1,364;    1,318
1152,698;  144,308;   -0,182;   -0,136
1153,233;  103,399;    0,091;   -0,682
1153,767;  153,217;   -3,000;   -2,318
1154,302;  208,308;   -1,455;    1,773
1154,836;  200,763;   -0,455;   -2,136
1155,371;  260,126;   -1,364;    3,682
1155,905;  213,581;   -0,636;    1,682
1156,439;  176,854;   -0,636;   -0,500
1156,973;  220,854;    0,364;    0,318
1157,507;  142,672;   -0,364;    0,682
1158,042;  177,763;   -0,727;    1,045
1158,576;  224,944;    0,182;    1,773
1159,110;  214,581;   -0,818;    2,409
1159,643;  181,035;    0,636;   -0,045
1160,177;  110,944;   -1,545;    1,500

