
Integration time [ms]:   0,040
Averaging Nr. [scans]: 11
Smoothing Nr. [pixels]: 0
Data measured with spectrometer [name]: 7318044SP
Wave   ;Sample   ;Dark     ;Reference
[nm]   ;[counts] ;[counts] ;[counts] 

186,757;   20,817;   31,551;    1,318
187,357;   62,118;   22,551;    0,955
187,958;   36,646;   15,460;   -1,591
188,558;   80,265;    8,915;   -1,227
189,159;   54,401;    6,733;   -4,500
189,759;   20,548;    7,278;   -3,591
190,360;   23,548;    2,824;   -2,136
190,960;   56,118;    2,915;   -4,136
191,560;   84,261;    3,189;   -6,591
192,161;  341,125;    4,372;   -3,500
192,761;  178,272;    4,010;   -3,227
193,361;  120,146;    1,556;   -3,773
193,962;  176,471;    2,010;   -2,682
194,562;   90,761;    1,189;   -3,955
195,162;  136,387;   -2,448;   -2,227
195,762;  300,352;   -3,176;   -0,045
196,362;  245,212;    1,370;   -2,500
196,963;  105,485;    2,006;   -0,864
197,563;  180,632;    1,551;   -0,955
198,163;  123,786;    0,096;   -0,682
198,763;  148,394;    1,733;   -0,500
199,363;  251,919;    3,096;   -0,500
199,963;  212,576;    0,369;    0,409
200,563;  184,289;    2,823;   -1,409
201,163;  159,831;    3,277;   -0,227
201,763;  266,905;    3,732;    0,318
202,363;  197,359;    1,459;    1,500
202,963;  310,660;    1,459;    1,045
203,563;  427,835;    0,277;    0,500
204,162;  265,758;    2,096;   -1,864
204,762;  247,090;    0,550;    0,591
205,362;  214,545;    3,004;    1,955
205,962;  326,373;    3,096;    1,955
206,562;  318,726;    1,823;    2,318
207,161;  292,097;   -0,087;    0,318
207,761;  442,758;    1,277;    2,409
208,361;  317,583;   -0,268;    1,409
208,960;  434,772;    0,459;    1,500
209,560;  513,373;    1,277;    1,591
210,160;  485,052;    0,550;    1,864
210,759;  444,412;    4,186;    1,227
211,359;  451,880;    1,459;    1,045
211,958;  733,062;    1,277;    2,045
212,558;  826,496;    1,732;    1,864
213,157;  649,996;    1,822;    1,500
213,757; 1122,174;    3,822;   -0,227
214,356;  805,695;    1,277;   -0,409
214,956; 1157,471;    3,095;    0,409
215,555;  757,737;    2,095;    2,136
216,154;  688,041;   -2,723;   -0,591
216,754;  700,125;    0,277;    0,773
217,353;  858,475;   -0,268;   -1,045
217,952;  704,324;   -0,178;    0,318
218,552;  948,419;    1,368;   -0,773
219,151;  844,947;    0,277;    0,955
219,750;  843,258;    0,004;   -0,227
220,349;  987,768;   -0,451;    1,045
220,948; 1045,363;   -1,360;    1,136
221,548; 1072,670;    0,913;    1,227
222,147; 1189,775;   -0,087;   -0,409
222,746; 1497,989;   -0,451;   -0,955
223,345; 1374,461;    0,731;    0,500
223,944; 1372,999;   -0,451;    0,773
224,543; 1571,681;    1,004;   -1,409
225,142; 1692,226;    0,094;    0,136
225,741; 1602,810;   -0,814;    1,045
226,340; 1623,405;   -0,451;   -0,955
226,939; 2092,496;   -0,996;   -0,136
227,538; 2090,558;   -0,360;   -0,773
228,137; 2244,709;   -0,814;    0,864
228,735; 2443,705;   -0,541;    1,227
229,334; 2158,607;   -0,905;   -0,227
229,933; 2545,405;    0,459;    0,591
230,532; 2671,545;    1,186;   -0,409
231,131; 2715,184;    1,732;    0,318
231,729; 2900,478;   -2,450;   -2,318
232,328; 3044,527;   -0,723;   -1,500
232,927; 3129,768;    1,004;   -0,500
233,525; 3277,856;    3,640;    0,045
234,124; 3516,695;    2,368;   -1,591
234,723; 3525,723;    0,913;   -1,045
235,321; 3672,475;    2,277;    0,136
235,920; 3946,300;    1,186;   -1,227
236,518; 4197,870;    3,459;    0,318
237,117; 4399,279;    0,004;   -0,227
237,715; 4590,943;    0,640;   -0,500
238,314; 4640,282;   -0,087;   -2,318
238,912; 4745,586;   -0,723;   -1,409
239,510; 4790,845;    0,459;   -1,227
240,109; 4976,772;    0,004;    3,773
240,707; 5034,576;   -0,996;    1,227
241,305; 5401,723;    0,550;    0,136
241,904; 5632,723;   -0,178;   -2,045
242,502; 5578,552;   -0,632;   -0,227
243,100; 5523,027;   -0,087;   -0,955
243,698; 5778,873;    0,732;    1,682
244,297; 5964,975;   -0,632;    0,682
244,895; 5795,558;   -0,269;   -2,318
245,493; 6145,380;    2,186;   -0,591
246,091; 6187,062;    1,368;   -1,318
246,689; 6196,240;    1,004;    0,591
247,287; 6357,296;    0,822;   -1,136
247,885; 6635,275;   -1,451;    1,227
248,483; 6734,079;    1,822;   -0,500
249,081; 6897,401;    0,185;    1,591
249,679; 7065,237;   -0,178;    1,682
250,277; 7323,614;   -1,723;    0,864
250,875; 7325,121;   -1,087;   -1,045
251,473; 7331,677;   -1,178;    0,500
252,071; 7519,807;    1,459;    1,045
252,669; 7684,545;   -1,814;    0,318
253,267; 7954,209;   -0,087;    0,773
253,864; 7935,296;   -0,360;    0,682
254,462; 7755,538;    1,640;    1,591
255,060; 7740,520;   -0,269;    1,318
255,658; 8072,181;    0,822;   -0,136
256,255; 8516,929;    0,186;   -2,045
256,853; 8376,639;   -0,269;    1,409
257,451; 8375,737;    0,822;    1,864
258,048; 8648,901;    1,822;    1,864
258,646; 8401,079;    1,731;   -1,045
259,243; 8589,275;   -0,087;    2,227
259,841; 8652,607;   -0,814;    0,318
260,438; 8524,702;   -0,087;    0,864
261,036; 9256,191;   -1,905;    1,409
261,633; 9152,006;   -0,087;    2,227
262,231; 8894,293;    2,731;   -0,045
262,828; 8969,985;   -0,905;    1,136
263,425; 9045,531;    0,913;   -0,591
264,023; 9309,247;    0,186;    0,045
264,620; 8862,709;   -0,360;   -0,318
265,217; 9216,457;   -2,087;    3,136
265,815; 9333,485;   -1,905;    2,136
266,412; 9080,737;    0,731;    0,136
267,009; 9149,006;   -1,451;    0,773
267,606; 8999,898;    0,822;   -0,955
268,203; 8986,964;   -0,269;   -0,591
268,801; 9321,845;    1,731;    0,591
269,398; 9645,226;   -0,360;    2,500
269,995; 9583,985;    0,277;    1,591
270,592; 9301,821;   -0,632;   -0,500
271,189; 9535,712;    0,186;    0,409
271,786; 9651,565;   -0,632;    1,227
272,383; 9477,017;   -1,087;    0,227
272,980; 9733,618;    0,277;    0,318
273,577;10237,779;    0,004;    1,227
274,174; 9765,824;    0,822;    2,591
274,771; 9731,363;   -0,814;   -0,773
275,367; 9885,048;    2,277;    1,409
275,964; 9850,971;    0,731;   -0,500
276,561; 9938,919;    1,549;   -1,045
277,158;10156,691;    0,095;   -1,773
277,755;10305,038;    2,185;    0,409
278,351; 9667,712;   -0,451;   -1,500
278,948;10007,639;   -0,815;    0,045
279,545;10046,174;   -1,360;    2,318
280,141;10650,177;   -1,723;   -2,045
280,738;10536,538;   -0,451;   -0,136
281,334;10801,317;   -1,633;    0,591
281,931;10142,947;   -0,087;   -1,318
282,528;10210,597;    0,822;   -0,500
283,124;10952,265;   -1,087;   -0,500
283,721;10856,751;   -0,451;    1,409
284,317;10684,922;    0,185;    2,500
284,913;11249,181;   -1,360;    0,591
285,510;11422,545;    0,640;   -0,318
286,106;11441,740;   -2,269;   -0,955
286,703;10999,870;   -0,360;    1,955
287,299;11255,971;   -1,451;   -0,591
287,895;11435,195;    0,822;   -1,045
288,491;12015,772;    0,186;    2,136
289,088;11744,317;   -2,360;    2,409
289,684;11842,726;   -1,723;    1,500
290,280;11829,894;    0,368;    0,682
290,876;11890,674;    1,822;    5,500
291,472;11802,996;    1,276;    2,227
292,068;11908,384;    1,367;    0,227
292,665;11591,971;    2,095;    0,773
293,261;11194,356;    0,276;    2,136
293,857;11610,160;    2,913;    2,136
294,453;11547,583;    3,550;    0,955
295,049;11425,999;   -0,268;    1,955
295,644;11418,611;    0,095;    0,136
296,240;11336,793;   -0,905;   -0,136
296,836;11372,079;   -0,995;    0,318
297,432;11688,503;    1,096;   -0,500
298,028;11747,656;    0,732;    0,773
298,624;12119,181;    1,459;    1,864
299,220;12336,300;    2,368;    0,591
299,815;12058,314;    1,005;   -0,409
300,411;11821,817;    0,914;    1,773
301,007;11857,373;    1,368;    0,227
301,602;11892,237;   -0,541;   -2,318
302,198;12041,975;    0,732;   -0,773
302,794;12357,712;    1,187;   -0,500
303,389;12493,632;   -1,177;    1,045
303,985;12591,793;    0,550;    1,409
304,580;12568,436;    1,459;    1,591
305,176;12548,059;   -3,086;    0,136
305,771;12467,303;   -1,268;   -1,227
306,367;12323,751;    4,095;    0,136
306,962;12600,510;    0,641;    1,500
307,558;12338,174;   -0,450;    0,136
308,153;12303,062;    1,095;   -1,136
308,748;12517,737;   -0,814;    1,682
309,344;12505,782;   -0,632;   -1,318
309,939;12592,237;   -1,905;   -1,318
310,534;12857,191;   -0,086;   -1,682
311,130;12804,258;    0,459;   -2,500
311,725;12502,468;    1,004;   -0,500
312,320;12824,031;    2,459;    0,045
312,915;12664,831;    1,459;   -1,045
313,510;12781,048;    1,550;   -0,500
314,105;13270,114;    1,096;    1,409
314,700;12651,233;   -3,086;   -1,045
315,295;12302,618;   -0,904;    0,045
315,890;11867,412;    1,277;    0,864
316,485;12229,293;   -0,359;   -0,318
317,080;12317,153;   -3,086;    1,591
317,675;12896,398;    2,005;   -0,682
318,270;12330,628;    5,550;    3,318
318,865;12295,716;    3,278;    3,045
319,460;12124,024;   -0,904;    0,591
320,055;12373,653;   -0,541;   -1,227
320,650;12056,695;   -1,995;   -0,591
321,244;12094,489;   -0,177;   -1,409
321,839;13010,335;   -1,541;   -0,227
322,434;12908,394;   -1,086;   -1,591
323,029;12500,586;    1,732;    1,591
323,623;12381,737;    1,550;    0,773
324,218;12137,107;    2,368;    1,409
324,812;11972,716;    1,096;    1,591
325,407;11823,205;   -0,814;    2,045
326,002;11707,090;    0,277;   -0,409
326,596;12011,041;    0,914;    1,318
327,191;12194,072;    0,823;   -1,045
327,785;11792,496;   -0,813;   -0,227
328,379;12017,013;    1,368;    0,136
328,974;11792,045;    0,914;   -3,955
329,568;12022,751;    0,186;   -2,409
330,163;11849,534;    2,096;    1,045
330,757;12200,545;    2,459;    1,591
331,351;11501,719;    0,459;    0,682
331,945;11804,982;    0,914;    1,409
332,540;11412,359;   -1,723;   -0,591
333,134;11554,429;   -1,086;    0,773
333,728;11826,964;    0,005;    0,318
334,322;12115,219;   -1,177;   -0,864
334,916;11386,163;    0,277;    0,955
335,510;11713,380;   -0,450;   -0,136
336,105;12019,163;   -1,086;    1,591
336,699;11707,733;   -1,086;    0,591
337,293;11630,125;   -1,723;    0,318
337,887;11802,062;   -2,723;    1,955
338,481;11929,478;    0,459;    0,591
339,074;12031,433;   -0,359;    2,682
339,668;11876,747;   -1,632;    1,227
340,262;12159,010;    1,732;    3,227
340,856;11622,349;    1,822;   -0,682
341,450;10962,349;    1,004;    1,864
342,044;11916,216;    1,459;    0,136
342,637;11615,681;    0,913;   -2,136
343,231;11482,163;   -2,360;    0,682
343,825;11478,457;   -1,086;   -0,591
344,419;11447,457;   -1,995;    0,500
345,012;11194,275;    2,459;    4,045
345,606;11200,132;    4,641;    1,591
346,199;11051,845;   -1,813;   -0,227
346,793;10564,160;    1,914;    2,045
347,386;10742,135;   -0,813;   -1,136
347,980;10742,513;   -0,268;   -0,045
348,573;10536,880;    2,278;    0,409
349,167;10205,513;    5,278;    4,773
349,760;10537,461;    2,914;    2,682
350,354;10512,146;   -0,813;    1,136
350,947;10296,614;    1,096;    1,682
351,540; 9941,093;   -0,358;   -1,409
352,134; 9876,765;    1,096;    1,136
352,727; 9951,768;   -0,086;    1,136
353,320; 9720,905;    0,005;    0,591
353,913; 9611,593;   -1,995;    1,864
354,507; 9804,520;    0,823;   -1,227
355,100; 9782,772;    0,460;    0,864
355,693; 9033,461;    2,005;    2,409
356,286; 9068,216;    0,823;    2,773
356,879; 9414,013;   -0,722;    1,227
357,472; 8997,782;   -0,904;    1,500
358,065; 9209,695;   -0,722;    2,500
358,658; 9131,737;   -0,540;    2,318
359,251; 8790,289;   -1,631;   -0,591
359,844; 8245,503;   -1,904;   -1,136
360,437; 8478,293;   -2,995;    0,045
361,030; 8732,531;    1,369;   -0,682
361,623; 8312,649;    2,824;    0,318
362,215; 8351,625;   -0,086;    2,045
362,808; 8171,464;   -2,358;   -1,682
363,401; 8386,863;   -2,449;    0,136
363,994; 8095,345;   -0,631;   -1,500
364,586; 8020,275;    0,824;   -1,500
365,179; 8255,062;   -0,449;   -1,136
365,772; 7721,177;   -1,995;    2,045
366,364; 8031,856;    1,915;   -3,227
366,957; 8231,422;    2,279;   -0,045
367,549; 8264,412;    2,188;   -0,864
368,142; 7877,415;    1,825;   -1,500
368,734; 8096,545;    0,734;   -2,136
369,327; 8048,205;    1,643;   -0,500
369,919; 7980,786;   -1,538;    0,409
370,512; 7759,649;   -1,083;   -0,500
371,104; 7535,317;   -0,901;    1,591
371,696; 7704,719;    1,191;   -0,955
372,289; 7821,559;    0,373;    1,136
372,881; 7960,223;   -2,080;    1,318
373,473; 7849,443;   -2,170;    1,136
374,066; 7668,653;   -0,169;    0,500
374,658; 7519,310;    0,378;    1,136
375,250; 7857,370;    0,653;   -1,409
375,842; 7693,691;    0,473;   -0,045
376,434; 7583,982;   -0,435;   -0,409
377,026; 8196,870;    0,204;   -2,500
377,618; 8058,282;   -0,158;   -0,682
378,210; 7921,160;   -0,338;   -1,955
378,802; 7774,936;    0,754;   -0,591
379,394; 7739,873;    1,846;    0,682
379,986; 8311,227;    1,393;   -0,955
380,578; 8401,370;   -0,153;    0,773
381,170; 7739,104;   -0,972;    0,045
381,762; 7699,010;    0,755;    1,409
382,354; 7946,464;   -0,065;   -1,318
382,945; 8030,233;   -2,976;    0,318
383,537; 8161,950;   -2,705;   -1,955
384,129; 8173,244;   -2,160;   -1,136
384,721; 8365,230;   -0,252;    0,955
385,312; 8310,125;   -0,161;   -0,955
385,904; 8389,898;   -2,706;    1,591
386,496; 7751,506;   -0,979;    1,045
387,087; 7918,929;    1,022;    2,500
387,679; 7972,737;   -1,160;    0,045
388,270; 8094,293;    2,840;    2,045
388,862; 8193,562;    1,295;   -0,318
389,453; 8116,073;   -0,887;    1,045
390,045; 8407,496;   -0,705;   -2,682
390,636; 8278,461;    0,204;   -0,591
391,227; 8131,852;   -0,523;   -0,045
391,819; 8246,548;    0,204;    0,773
392,410; 8320,691;    1,022;    0,045
393,001; 8255,426;   -0,979;   -1,591
393,593; 8550,146;    1,930;   -0,045
394,184; 8417,251;    1,385;   -0,409
394,775; 8342,468;    1,839;    2,136
395,366; 8545,129;    1,385;    0,773
395,957; 8570,730;    0,113;    0,136
396,548; 8842,639;   -0,342;    2,682
397,139; 9205,772;   -2,433;    0,591
397,730; 8897,636;   -1,888;    0,955
398,321; 8955,447;   -1,252;    0,955
398,912; 8979,415;   -0,615;    0,136
399,503; 9032,985;   -3,524;   -1,409
400,094; 8473,709;    0,294;    1,682
400,685; 8339,919;   -0,433;    0,045
401,276; 8426,800;    0,930;   -0,955
401,867; 8730,957;   -0,888;    0,773
402,458; 8825,034;   -2,251;   -2,318
403,048; 8805,254;    1,112;    0,591
403,639; 8391,146;    0,840;    0,864
404,230; 8641,384;    2,476;    0,318
404,821; 8580,167;   -0,615;    0,045
405,411; 8710,989;    1,203;   -2,591
406,002; 8304,747;   -1,252;   -1,136
406,592; 8161,653;    2,294;    0,045
407,183; 8466,800;    0,566;   -1,500
407,774; 8382,632;    3,475;   -0,136
408,364; 8727,751;    0,930;    0,409
408,954; 8347,212;    0,384;    1,227
409,545; 8396,657;    1,021;    1,045
410,135; 7918,845;    1,293;    0,500
410,726; 8089,143;    1,838;    0,318
411,316; 8502,076;    0,111;    0,773
411,906; 8134,912;   -0,253;   -0,409
412,497; 7606,814;   -1,070;   -0,045
413,087; 8240,793;   -1,980;   -0,227
413,677; 8631,265;   -0,707;    3,864
414,267; 8454,129;    0,656;    1,409
414,857; 8471,513;   -2,980;    4,227
415,448; 8791,024;    0,839;    0,500
416,038; 8461,073;    0,020;   -0,591
416,628; 8398,891;   -0,889;    0,409
417,218; 7858,090;    0,565;    3,318
417,808; 8142,929;    0,202;   -0,409
418,398; 8625,146;    0,020;    2,682
418,988; 8650,678;    2,020;    0,591
419,578; 8932,436;   -0,707;    1,409
420,168; 9237,919;   -1,343;   -0,955
420,757; 8865,510;   -1,343;   -1,500
421,347; 8526,936;    0,111;   -0,227
421,937; 8658,230;    2,292;    1,409
422,527; 8645,275;    0,838;   -0,773
423,116; 8470,719;   -0,253;   -0,045
423,706; 8764,188;   -1,889;    0,318
424,296; 8746,999;    1,384;    0,682
424,885; 9180,636;   -0,071;   -3,045
425,475; 9491,779;    1,474;   -2,864
426,065; 9401,894;   -0,980;   -0,318
426,654; 9014,828;   -0,435;   -0,318
427,244; 9150,279;    0,020;    1,409
427,833; 8589,982;    1,383;   -0,500
428,423; 9074,485;   -0,526;    1,136
429,012; 9880,580;   -0,344;   -1,136
429,601; 9363,842;   -1,344;    0,136
430,191; 9588,510;    1,292;    4,318
430,780; 9228,733;   -0,344;   -0,409
431,369; 9131,118;    0,746;   -0,045
431,959; 9767,985;   -1,254;    0,500
432,548; 9554,754;   -1,163;   -0,045
433,137; 9646,615;   -1,254;   -1,318
433,726;10241,492;    0,292;    0,500
434,315; 9571,038;   -0,526;    2,409
434,905; 9678,936;   -1,254;    1,409
435,494; 9559,625;    0,746;    0,955
436,083;10021,569;   -0,981;   -0,955
436,672; 9917,611;    0,110;    0,500
437,261; 9479,747;    0,292;   -1,955
437,850; 9574,226;    1,383;    0,682
438,439; 9587,052;    3,291;    1,955
439,027; 9435,261;    3,655;    1,773
439,616; 9807,272;    2,927;    1,227
440,205; 9682,538;    0,200;   -2,136
440,794; 9759,289;    2,109;   -0,045
441,383;10029,163;   -1,346;   -0,591
441,971; 9852,331;   -2,436;    0,591
442,560; 9709,901;    0,563;   -1,773
443,149; 9463,464;    0,379;   -1,318
443,737; 9637,198;   -0,074;   -2,318
444,326; 9920,003;    0,018;    0,318
444,915; 9958,108;   -1,982;    0,864
445,503;10349,160;   -2,891;   -0,318
446,092; 9601,733;    0,382;    2,136
446,680;10165,059;    0,382;    0,318
447,269;10316,877;   -0,346;   -0,318
447,857;10102,492;    0,018;   -1,773
448,445;10214,275;    0,563;    1,318
449,034;10436,195;   -1,528;   -1,136
449,622;10545,108;   -1,073;    3,500
450,210; 9772,622;    2,017;    2,227
450,799;10361,373;    0,290;   -0,591
451,387;10277,160;    1,381;   -0,591
451,975; 9916,122;    2,654;    0,864
452,563;10012,209;    3,472;    2,318
453,151;10079,947;   -0,528;   -1,227
453,739; 9999,422;   -1,347;    0,136
454,328; 9857,073;    2,381;   -2,136
454,916; 9555,160;    2,562;   -0,136
455,504; 9734,048;    1,017;    1,227
456,092; 9902,670;    0,017;   -1,591
456,679; 9894,740;    1,472;    0,682
457,267; 9830,719;    4,017;    1,045
457,855; 9987,003;    1,017;    1,409
458,443; 9745,814;   -0,165;    1,682
459,031; 9898,398;    0,108;    2,409
459,619;10363,048;   -1,801;    2,864
460,206;10493,202;    0,835;    2,045
460,794;10573,646;   -2,983;   -0,227
461,382;10829,873;   -0,529;   -0,864
461,970;10396,174;    1,198;    1,864
462,557;10424,653;   -0,711;   -0,682
463,145;10610,129;   -3,165;   -1,682
463,732;10780,695;    2,016;   -1,045
464,320;10730,538;   -0,075;   -3,045
464,907;10386,293;    2,743;   -0,773
465,495;10244,793;    0,743;   -1,227
466,082;10423,740;   -1,984;   -0,045
466,670;10320,209;   -2,529;    1,227
467,257;10713,153;   -1,711;    2,045
467,844;10882,852;   -0,075;    0,045
468,432;10917,080;    0,834;    3,500
469,019;10394,782;    0,925;   -1,773
469,606;10879,059;    0,470;    3,682
470,193;10673,698;   -1,439;    0,227
470,780;10272,838;   -2,075;    0,864
471,368;10616,660;   -1,257;   -0,773
471,955;10397,629;    1,379;   -0,682
472,542;10019,933;    0,652;   -1,136
473,129;10275,709;   -0,166;    0,136
473,716;10019,198;    1,470;    0,591
474,303;10227,205;    0,652;   -0,864
474,890;10560,219;   -1,439;   -0,500
475,477;10542,324;   -1,621;    0,409
476,064;10442,608;    1,106;   -1,591
476,650;10399,517;    0,288;    0,318
477,237;10226,244;   -0,258;    0,955
477,824;10394,660;   -1,076;    0,864
478,411;10405,555;   -1,894;   -0,318
478,997;10611,181;    0,560;   -0,773
479,584;10686,800;    1,196;   -0,409
480,171;11389,122;   -0,440;   -0,773
480,757;11059,520;    2,651;    0,773
481,344;11406,733;    0,469;    0,409
481,931;10868,076;    1,105;    1,045
482,517;11938,048;   -1,258;    0,318
483,104;12572,950;    1,106;    2,864
483,690;12883,506;   -1,804;    0,045
484,276;13194,342;   -0,895;    0,227
484,863;12924,115;    2,469;    1,136
485,449;13530,132;   -0,077;    0,318
486,035;13524,905;   -1,986;   -0,136
486,622;13974,104;   -0,895;    0,045
487,208;13907,849;    1,378;    1,500
487,794;13715,674;    0,741;    0,318
488,380;13822,338;    0,105;   -1,409
488,967;13897,111;   -1,168;   -0,409
489,553;13937,268;   -1,895;   -1,409
490,139;14172,335;    1,559;    0,773
490,725;13532,989;    0,741;   -0,227
491,311;13060,667;    3,287;    3,045
491,897;12365,587;   -0,986;    1,500
492,483;12177,737;    0,105;    1,227
493,069;11998,933;    3,923;    0,864
493,655;12013,758;    1,650;    0,682
494,241;11907,254;    1,377;   -0,955
494,826;12319,719;    0,287;   -1,045
495,412;11774,296;    2,559;   -0,682
495,998;11906,293;   -0,805;   -0,318
496,584;12069,552;    0,377;    1,045
497,169;12063,195;    1,014;   -0,682
497,755;12013,835;    0,650;    1,227
498,341;12603,828;    0,559;    0,318
498,926;12211,034;    1,832;    1,955
499,512;12367,433;    1,286;    2,955
500,097;12458,132;    0,195;   -0,318
500,683;12448,272;   -0,350;    2,136
501,268;12818,492;   -0,169;   -0,955
501,854;12522,230;   -0,169;    1,227
502,439;12428,419;   -0,624;   -1,773
503,024;12648,499;    0,195;    0,500
503,610;12729,520;   -0,078;   -0,682
504,195;12720,863;    0,558;    1,955
504,780;12827,233;    2,922;    1,227
505,366;12670,303;    3,013;    2,864
505,951;12365,111;    0,740;    1,045
506,536;12422,031;   -3,260;   -3,682
507,121;12371,020;    0,285;   -0,318
507,706;12903,758;    2,376;    1,045
508,291;13289,024;    2,649;    1,136
508,876;12752,884;   -0,988;    2,591
509,461;12233,629;   -0,169;   -0,773
510,046;12640,282;    0,194;    0,318
510,631;12900,132;   -0,351;   -0,773
511,216;12577,968;    2,467;   -0,500
511,801;12884,919;   -0,442;    2,591
512,386;13216,038;    0,740;    0,500
512,971;13162,863;   -2,988;    0,955
513,555;12708,856;   -0,897;   -1,500
514,140;13554,730;   -0,442;   -3,136
514,725;13542,265;   -0,715;   -1,136
515,309;13667,062;   -0,533;    0,318
515,894;13074,754;   -0,624;   -2,227
516,479;13577,608;   -0,624;   -0,955
517,063;13403,758;    0,376;    1,227
517,648;13524,863;    1,012;   -1,136
518,232;13182,611;   -0,261;   -1,409
518,817;13572,768;   -0,079;    1,682
519,401;13752,080;    2,194;    0,591
519,985;13242,961;    1,103;    1,136
520,570;13119,146;    0,830;   -1,955
521,154;13444,163;    2,102;    0,591
521,738;13594,443;   -2,352;    2,409
522,323;14132,506;   -0,170;    1,682
522,907;13858,401;    0,466;   -0,136
523,491;13600,775;    0,557;    0,955
524,075;13563,296;    2,284;    0,591
524,659;13668,996;    1,466;    0,591
525,243;13142,496;    1,739;    0,409
525,827;13383,177;    0,648;   -0,045
526,411;14228,905;   -1,989;   -0,136
526,995;14475,363;   -0,352;    1,409
527,579;14078,219;   -0,443;   -1,045
528,163;14409,307;    0,375;   -1,500
528,747;14327,926;    2,466;   -0,773
529,331;14584,485;   -0,080;   -1,409
529,915;14800,527;    1,738;    0,955
530,499;14751,314;   -0,807;    1,227
531,082;14429,849;   -0,534;    1,591
531,666;13882,975;    1,374;    0,773
532,250;14606,174;    1,284;    2,682
532,833;14944,380;    0,920;    2,773
533,417;14756,237;   -1,807;    0,864
534,001;14744,062;    1,647;   -0,318
534,584;15477,349;    0,374;    0,500
535,168;15321,705;    0,465;    1,409
535,751;15346,737;    0,647;    0,045
536,334;14809,496;   -0,898;   -0,409
536,918;15374,244;    0,011;    1,591
537,501;15502,020;   -0,899;    1,318
538,085;15482,590;   -0,444;    1,045
538,668;15664,747;    0,829;    2,409
539,251;15999,541;    1,829;    3,773
539,834;16006,709;    0,101;    0,773
540,418;15929,929;   -1,990;    4,318
541,001;16058,142;   -0,990;    1,773
541,584;16054,730;    2,101;    2,227
542,167;15714,702;    1,374;    2,955
542,750;15887,674;    1,919;   -0,773
543,333;15503,394;    0,555;    2,136
543,916;16273,349;    0,192;    2,500
544,499;16873,080;   -1,354;    0,227
545,082;16885,149;    1,374;    3,591
545,665;17051,335;    1,919;    1,500
546,248;17361,031;    1,010;   -0,318
546,830;17021,800;   -0,445;    1,955
547,413;17439,121;    1,010;   -0,773
547,996;17947,408;    0,555;    0,500
548,579;17730,527;    0,919;    0,955
549,161;17535,506;    1,828;    2,682
549,744;17330,443;   -0,809;    0,409
550,326;17799,177;   -0,809;   -1,136
550,909;17628,377;    2,737;    0,591
551,492;17997,156;   -0,263;    0,227
552,074;17815,163;   -0,173;   -1,318
552,657;18384,772;    2,373;    0,045
553,239;18104,335;   -0,173;   -0,773
553,821;18020,810;   -1,082;    1,045
554,404;17572,555;    1,282;    1,136
554,986;17922,142;    0,464;    1,045
555,568;18522,705;    1,191;   -0,955
556,151;17753,772;    1,191;   -0,227
556,733;17916,943;   -0,264;   -0,864
557,315;18419,510;    0,100;    0,500
557,897;18229,555;    0,554;   -0,500
558,479;18362,957;   -1,991;    1,318
559,061;18462,062;   -0,719;   -0,864
559,643;18807,254;   -0,264;    0,045
560,225;19241,503;    1,645;    2,864
560,807;19195,163;    0,918;    0,318
561,389;18663,698;    0,554;    2,318
561,971;19460,559;    0,463;    2,136
562,553;19229,370;   -1,628;    1,591
563,135;19389,482;   -0,537;    1,136
563,717;18950,810;    3,372;    1,136
564,298;19684,059;    3,645;   -0,045
564,880;19435,814;    0,645;   -1,409
565,462;19589,359;    0,645;    1,318
566,043;20788,094;   -0,446;    2,318
566,625;20322,817;    1,918;    1,227
567,207;20171,062;    1,099;    1,682
567,788;21322,625;   -1,264;    1,500
568,370;22198,772;    1,917;   -0,500
568,951;22000,073;    0,190;    0,227
569,533;22850,639;   -0,628;   -0,500
570,114;23312,611;   -0,446;    0,682
570,695;23864,475;   -0,174;   -1,318
571,277;24360,153;   -0,265;   -1,682
571,858;25115,331;    2,008;   -1,136
572,439;25987,618;    1,554;   -1,045
573,021;26177,289;    2,099;   -2,773
573,602;26654,880;   -1,265;    0,318
574,183;27608,803;   -2,083;    2,227
574,764;27736,761;   -1,629;    0,409
575,345;28302,800;    0,917;   -0,136
575,926;28845,076;   -0,356;    0,136
576,507;28797,786;    1,099;   -0,227
577,088;29982,209;    3,099;    1,682
577,669;30015,153;    0,735;    1,955
578,250;30836,440;    0,644;   -1,045
578,831;31416,073;   -1,356;   -2,227
579,412;31719,219;   -0,810;    0,955
579,993;32545,744;    1,008;    0,227
580,573;32866,142;   -0,629;   -0,955
581,154;31873,188;    0,735;   -0,591
581,735;32656,482;    0,644;    0,773
582,315;32208,936;   -0,629;    2,136
582,896;32465,852;   -0,174;    1,227
583,477;31884,573;    0,189;    1,227
584,057;32136,258;    0,553;    0,955
584,638;32487,107;    2,553;    2,318
585,218;32440,978;   -0,538;    2,682
585,799;32590,891;    0,281;   -0,227
586,379;32514,936;    0,372;    1,591
586,959;31222,593;    0,735;    0,318
587,540;30552,331;   -0,629;    2,227
588,120;30130,188;    1,007;   -0,045
588,700;29106,593;    2,553;    2,136
589,281;29501,080;    0,462;   -0,955
589,861;29449,314;    0,099;   -1,682
590,441;29241,268;    2,371;   -2,682
591,021;28171,468;   -0,265;   -2,591
591,601;28365,398;   -0,537;    0,500
592,181;28383,233;   -0,719;   -0,773
592,761;27720,345;    0,007;    1,409
593,341;27630,831;   -0,901;    0,045
593,921;27610,450;   -0,265;    1,591
594,501;27539,716;   -0,538;    1,318
595,081;27370,111;    0,917;   -0,318
595,661;27768,300;   -1,447;    0,955
596,240;28263,611;   -0,537;    0,136
596,820;27959,212;    0,372;    1,955
597,400;28087,503;    2,008;    0,773
597,980;28266,160;    2,008;    1,045
598,559;28298,401;    2,735;   -0,227
599,139;28002,604;   -0,174;   -1,227
599,718;27901,422;   -0,174;   -0,409
600,298;28170,705;    0,735;    0,682
600,877;28472,625;    2,917;    1,409
601,457;28672,317;    2,281;    1,136
602,036;28583,212;    0,190;    2,045
602,616;28839,066;    0,644;    1,682
603,195;29179,859;   -0,355;    3,500
603,774;28685,758;   -0,901;    2,045
604,354;28525,824;    0,826;   -0,500
604,933;28021,478;    0,463;    1,864
605,512;28171,531;    3,554;    0,591
606,091;28237,167;   -0,537;    3,773
606,671;29006,653;    0,281;    0,773
607,250;28157,751;    1,644;    3,136
607,829;28378,852;    2,372;    3,227
608,408;28208,856;    1,190;    2,591
608,987;27218,656;    1,281;    3,409
609,566;27556,303;   -1,265;   -2,500
610,145;27682,457;   -1,082;    0,682
610,723;28049,139;    4,372;    6,864
611,302;27276,807;   -0,446;    1,682
611,881;26807,380;    5,008;   11,227
612,460;27690,905;    1,645;    3,955
613,039;28117,230;   -0,082;    2,045
613,617;26806,352;    1,736;    4,773
614,196;26998,754;    1,099;    1,227
614,775;27400,010;    1,009;    2,409
615,353;27278,303;    0,736;    0,864
615,932;27019,555;    0,100;    2,409
616,510;27614,097;    0,554;    0,591
617,089;27124,080;    7,100;   17,591
617,667;26839,922;    2,372;    6,136
618,246;26728,639;   -1,537;    1,318
618,824;26894,621;   -3,355;   -0,955
619,402;26458,261;   -2,900;   -1,773
619,981;26952,852;   -0,173;   -1,045
620,559;26777,517;    0,009;    1,682
621,137;26235,688;   -0,718;    1,864
621,715;26330,552;   -1,173;   -0,682
622,293;26283,653;   -0,537;   -0,773
622,871;26683,691;   -0,718;    0,500
623,450;26317,066;    0,373;   -0,864
624,028;26211,272;    0,191;   -0,955
624,606;25845,265;   -1,718;    1,682
625,183;26214,094;   -1,536;   -1,136
625,761;25825,363;    1,009;    1,136
626,339;26147,796;    1,373;    2,591
626,917;26497,744;   -0,172;   -0,045
627,495;26537,968;   -0,354;    1,318
628,073;25962,310;   -0,263;    2,864
628,650;25645,454;    0,100;    2,136
629,228;26128,538;    0,373;    4,409
629,806;25573,097;    2,282;    1,136
630,383;25792,552;    1,464;   -0,318
630,961;25571,674;    2,555;   -0,955
631,539;25316,786;    2,464;    0,227
632,116;24710,947;   11,373;   15,409
632,694;25288,831;    2,555;    6,500
633,271;25598,478;    0,828;    2,682
633,848;25515,163;    1,828;    2,045
634,426;25545,321;   -1,081;    1,773
635,003;24621,982;    1,101;   -0,409
635,580;24971,240;    1,192;    3,682
636,158;25546,034;    3,737;    1,227
636,735;25502,510;    0,555;   -0,500
637,312;25606,786;   -0,809;   -0,682
637,889;25733,454;   -4,354;   -0,682
638,466;25211,674;   -3,990;   -0,409
639,043;25165,968;    2,101;   -1,136
639,620;25505,205;   -2,262;   -0,955
640,197;25840,606;    1,100;    1,682
640,774;25950,750;   -0,172;    1,136
641,351;26327,350;    0,737;    1,136
641,928;25727,131;   -0,627;    1,409
642,505;25442,640;    0,828;   -0,500
643,082;25583,239;   -1,718;    1,227
643,658;24607,838;   -0,718;    1,500
644,235;25319,256;    1,191;    2,500
644,812;25691,764;    1,918;    0,773
645,388;25422,000;   -0,991;    1,409
645,965;25497,327;   -0,809;    1,682
646,542;25594,563;   -1,445;   -0,227
647,118;25523,435;    1,009;   -0,955
647,695;25845,762;   -0,263;    1,136
648,271;25726,725;   -0,536;    0,500
648,848;26048,142;    0,736;    2,227
649,424;25891,742;    0,827;    1,318
650,000;25625,341;   -0,354;   -1,045
650,577;25420,031;   -0,627;   -0,955
651,153;25893,994;   -1,809;    0,955
651,729;26901,594;    1,191;    0,864
652,305;27426,648;    0,645;    2,773
652,881;32588,338;   -0,082;    1,136
653,458;39440,937;    1,100;    0,227
654,034;42755,537;    0,282;    1,591
654,610;43995,318;    0,554;    0,773
655,186;45228,008;    0,645;    3,045
655,762;44873,517;   -0,991;    0,409
656,338;44890,025;    0,100;    0,136
656,913;45821,443;   -0,082;    0,409
657,489;45059,770;    0,827;   -0,318
658,065;44950,187;   -0,173;   -1,591
658,641;45579,969;   -0,900;   -0,864
659,217;44853,113;   -0,991;    0,409
659,792;44275,167;    0,645;   -0,409
660,368;44445,676;   -2,173;   -0,682
660,944;43809,003;   -2,082;    1,227
661,519;38679,693;   -0,628;    0,409
662,095;32823,383;   -1,719;    0,591
662,670;28655,528;    1,281;   -0,136
663,246;27793,946;    1,009;   -0,409
663,821;27176,909;    0,281;    1,682
664,396;26658,508;    0,009;    1,864
664,972;26917,471;    0,009;   -0,500
665,547;27212,071;    1,372;    0,136
666,122;27260,034;   -1,082;    0,318
666,698;27534,815;   -0,173;    0,318
667,273;26915,414;   -0,173;    0,136
667,848;27712,014;    2,372;    1,500
668,423;27570,977;    2,190;    2,318
668,998;28129,485;    2,827;   -0,682
669,573;28662,085;   -3,264;   -1,500
670,148;28453,684;   -1,446;   -0,682
670,723;28239,283;   -1,810;    0,318
671,298;28703,792;    2,372;    1,045
671,873;28811,300;   -0,082;   -0,136
672,448;28799,445;    0,645;    0,136
673,023;29078,136;   -1,992;   -0,227
673,597;29341,826;    0,827;    2,318
674,172;29180,880;   -0,355;    0,318
674,747;28675,388;    0,372;   -1,045
675,321;28423,806;   -0,628;    3,318
675,896;28024,678;    0,645;    1,045
676,471;29103,459;    2,645;    1,591
677,045;28842,695;   -1,264;    0,682
677,620;28829,840;    0,190;    1,136
678,194;29120,349;   -2,628;    1,136
678,769;28716,493;   -1,083;   -0,318
679,343;29074,002;   -0,628;    1,773
679,917;28906,874;   -1,446;    1,955
680,492;28976,110;    0,826;    3,227
681,066;29167,255;    3,372;    0,409
681,640;29208,218;    1,463;   -0,318
682,214;29966,908;    0,735;    0,500
682,788;29497,598;   -1,356;   -0,773
683,363;29492,743;   -1,810;    1,682
683,937;29160,888;   -1,719;   -0,318
684,511;29883,851;    0,463;   -0,591
685,085;29639,905;   -1,356;    0,318
685,659;29382,232;   -2,538;    0,864
686,232;29660,649;   -0,356;   -0,318
686,806;29355,522;   -0,901;    0,409
687,380;30029,121;   -0,174;    0,591
687,954;30235,357;   -1,174;    1,136
688,528;29865,229;   -0,719;    1,955
689,101;30672,374;   -3,992;    1,045
689,675;30238,064;   -0,356;   -0,136
690,249;29631,936;   -0,719;    0,409
690,822;29920,717;    0,280;    0,318
691,396;30028,317;   -0,265;    1,227
691,969;29452,644;    1,280;    0,136
692,543;29974,425;   -0,447;   -1,955
693,116;29626,751;   -0,265;   -1,409
693,690;29466,442;    0,099;    0,500
694,263;30049,041;   -1,083;    2,955
694,836;30070,277;    1,371;    3,591
695,410;28685,604;   -0,265;    1,773
695,983;29134,476;    0,189;    0,591
696,556;29129,712;   -0,447;   -1,045
697,129;29484,856;   -0,356;    1,409
697,703;29163,092;   -1,629;    1,955
698,276;29130,146;    1,462;   -0,773
698,849;28947,200;    1,280;    1,409
699,422;29368,527;   -1,083;    0,591
699,995;29073,217;    0,007;    0,136
700,568;29552,817;   -0,629;    3,045
701,140;29567,598;   -2,811;    1,682
701,713;29265,288;   -0,174;    2,409
702,286;29021,251;   -0,538;    0,864
702,859;28972,305;   -0,902;   -0,591
703,432;28101,905;    0,825;    0,682
704,004;28535,231;    0,462;    0,318
704,577;28433,558;   -0,629;    0,136
705,150;29003,794;    0,189;    2,500
705,722;28807,484;   -0,356;   -3,227
706,295;28597,629;   -0,175;   -0,591
706,867;28495,228;   -0,175;    1,955
707,440;28710,282;   -1,720;   -0,409
708,012;28960,791;    0,462;    0,591
708,584;28821,845;    2,462;    0,227
709,157;29092,262;    1,825;   -0,591
709,729;28757,316;    2,280;    2,045
710,301;29604,643;    0,734;    0,045
710,874;29627,879;   -1,447;   -0,227
711,446;28465,569;    0,371;    0,864
712,018;28381,714;    0,098;    0,500
712,590;28101,131;   -1,993;    1,682
713,162;28682,367;    0,825;    1,318
713,734;28881,148;    1,825;   -2,045
714,306;28723,293;   -1,902;   -0,409
714,878;27440,802;    0,825;    0,864
715,450;28268,219;    0,643;    0,864
716,022;28503,910;    1,552;    1,318
716,593;28647,146;    0,189;    0,591
717,165;28632,290;   -3,175;   -1,227
717,737;28311,890;    0,280;    0,409
718,309;27964,035;    0,280;   -0,045
718,880;27929,998;   -0,539;   -1,409
719,452;28133,597;   -0,175;   -1,591
720,024;27787,106;    0,734;   -0,591
720,595;28305,069;   -2,902;    0,955
721,167;27865,395;    0,370;   -2,045
721,738;27394,358;   -0,812;   -1,045
722,309;27426,685;   -0,993;   -1,227
722,881;27154,921;   -1,357;    0,773
723,452;27812,429;   -2,630;    2,864
724,023;27984,120;   -0,721;    2,682
724,595;27758,992;    0,007;    0,682
725,166;27464,591;    0,007;   -0,409
725,737;27146,100;    1,734;    0,227
726,308;27210,245;   -0,266;    0,318
726,879;27671,299;   -1,630;    1,227
727,450;27532,171;    0,552;   -0,045
728,021;27479,770;    3,097;    0,682
728,592;27271,824;    0,734;    0,500
729,163;27645,151;    0,643;   -0,136
729,734;27692,932;    0,188;   -0,227
730,305;27995,259;    1,734;    0,136
730,876;28391,676;    0,188;    2,955
731,447;28098,185;    2,188;    2,682
732,017;28221,421;    1,097;    1,864
732,588;27681,747;    0,734;    1,227
733,159;27854,438;    0,643;   -1,045
733,729;27655,492;    0,006;    0,409
734,300;26930,091;    0,915;    0,864
734,870;27313,236;    3,461;    0,591
735,441;27873,653;    0,370;   -0,591
736,011;27647,162;    0,643;   -1,591
736,582;27666,580;   -0,812;    0,045
737,152;27072,997;   -1,721;   -2,045
737,722;27569,506;   -0,267;   -0,682
738,293;27245,105;   -1,358;    1,318
738,863;27091,977;    2,461;    2,318
739,433;26910,213;    5,279;    0,318
740,003;27502,540;   -0,994;   -0,682
740,573;26975,321;    2,097;   -1,591
741,143;26970,466;   -1,085;    0,318
741,713;27782,974;    1,188;   -0,500
742,283;27420,483;    0,915;    1,591
742,853;27149,173;    1,915;    1,591
743,423;26602,954;    1,733;    0,045
743,993;26733,917;   -0,358;    1,500
744,563;26159,971;    0,097;   -0,864
745,133;26095,298;   -0,812;   -0,864
745,702;26771,170;   -0,267;    1,773
746,272;25940,860;   -0,176;    0,591
746,842;25765,369;   -1,358;   -0,591
747,411;26161,787;   -0,267;   -0,318
747,981;26300,204;    0,097;    0,500
748,551;26330,804;    2,278;   -1,045
749,120;26250,676;    0,642;   -0,227
749,690;26660,821;   -0,631;    2,409
750,259;27000,784;    1,369;    2,955
750,828;26928,656;    1,551;   -1,955
751,398;27130,801;    1,278;   -0,045
751,967;26679,218;    2,187;    0,409
752,536;26852,818;   -0,813;   -0,227
753,105;27272,235;    0,096;    0,227
753,675;27083,835;    0,096;    1,773
754,244;27013,161;   -0,904;    3,591
754,813;27022,852;    0,551;    1,227
755,382;26625,815;    0,460;    0,955
755,951;27238,232;    1,551;    3,682
756,520;26750,377;   -0,085;    1,864
757,089;27306,977;    0,278;    0,500
757,658;27480,212;    1,733;    1,227
758,227;27463,903;    1,096;    0,318
758,795;27698,684;    1,187;    1,136
759,364;27959,829;   -0,086;   -0,591
759,933;26939,792;   -1,176;   -0,045
760,501;26412,300;    0,733;   -1,318
761,070;26953,627;   -2,813;   -1,409
761,639;27673,226;   -1,904;    1,318
762,207;27028,008;    1,551;   -0,955
762,776;26913,789;    0,369;    0,864
763,344;26897,297;   -0,995;    0,591
763,913;25991,806;   -0,722;    1,409
764,481;26764,951;    1,005;   -0,136
765,049;26529,914;   -1,358;    1,409
765,618;26378,240;   -0,086;    0,318
766,186;26439,931;    0,278;    0,136
766,754;26651,894;    0,005;    1,864
767,322;25655,402;   -1,995;    0,409
767,890;25707,638;   -0,722;   -1,773
768,459;26052,601;   -2,177;   -0,318
769,027;26283,655;    1,641;    3,409
769,595;25216,982;    3,278;    2,591
770,163;25651,399;    3,823;    2,955
770,730;25399,181;    0,732;   -0,136
771,298;25274,053;    0,187;   -1,409
771,866;25331,652;   -1,541;    4,955
772,434;25639,433;   -0,631;   -1,864
773,002;25826,487;    0,005;    0,682
773,569;25495,360;    0,914;    1,682
774,137;25324,413;   -0,268;   -0,045
774,705;26081,558;    0,278;   -0,136
775,272;25534,067;    0,641;    0,682
775,840;25330,212;   -0,177;    2,682
776,407;24888,629;    0,277;    1,955
776,975;24501,865;   -0,632;    0,318
777,542;25490,646;   -1,086;   -0,045
778,110;25294,609;   -1,268;   -0,045
778,677;24974,482;   -2,359;   -0,864
779,244;24745,535;    2,186;    1,045
779,812;24898,499;    1,823;    0,864
780,379;24773,643;    0,005;    1,136
780,946;24960,697;    1,005;   -0,773
781,513;25278,115;   -1,450;    0,318
782,080;24708,078;   -0,086;    2,864
782,647;25433,496;   -0,268;    3,045
783,214;25025,640;   -0,177;    3,864
783,781;24645,149;   -0,723;   -0,682
784,348;24496,021;   -0,632;    1,500
784,915;24948,802;   -3,177;    0,318
785,482;24718,220;    1,368;    2,591
786,049;25140,183;    0,186;   -0,591
786,615;25298,691;    0,277;   -0,955
787,182;25007,745;    0,186;   -0,682
787,749;24680,708;   -2,814;    1,409
788,315;24016,490;   -1,632;   -0,409
788,882;24290,635;    1,550;   -1,227
789,448;25042,961;    1,732;   -0,955
790,015;24989,833;    1,095;    3,227
790,581;24575,342;    1,459;    0,227
791,148;24518,214;    0,641;    1,045
791,714;24682,904;   -0,541;    3,136
792,280;24345,140;    0,186;    1,591
792,847;23929,012;    0,550;    2,500
793,413;24504,157;   -0,269;   -0,318
793,979;23996,847;    3,459;   -1,318
794,545;24107,447;    4,459;    2,682
795,111;23512,683;    2,186;    1,318
795,678;23729,828;    0,731;   -1,682
796,244;23320,791;    3,368;    0,136
796,810;23880,208;    1,731;    0,773
797,375;23605,353;    0,549;   -2,136
797,941;23662,225;   -0,541;    0,591
798,507;23814,097;   -0,451;   -0,955
799,073;23346,060;   -0,360;    0,591
799,639;23418,387;   -2,632;    3,136
800,205;23447,077;    0,095;    2,682
800,770;22957,404;    0,640;    1,773
801,336;23045,094;    1,368;   -0,955
801,901;22744,421;    4,549;    3,136
802,467;23285,930;   -0,542;    2,045
803,033;22622,074;   -0,087;    0,864
803,598;22841,947;    1,913;   -1,045
804,163;22861,091;    1,095;   -0,318
804,729;22871,600;   -0,178;    1,136
805,294;23267,199;    0,822;    2,227
805,859;23070,344;    0,731;   -0,409
806,425;22552,125;    1,186;    2,682
806,990;22175,634;    2,186;    4,318
807,555;22658,415;   -1,451;    2,591
808,120;22598,742;    0,822;   -0,409
808,685;22618,614;    0,185;   -2,500
809,250;22118,486;    0,004;   -0,500
809,815;22376,358;    1,913;    0,682
810,380;22938,776;   -0,269;    1,591
810,945;23483,466;   -1,087;    2,045
811,510;22634,157;    2,094;    1,591
812,075;22388,210;   -0,633;   -1,409
812,640;22433,355;    2,003;    1,409
813,204;22554,137;    0,822;   -0,227
813,769;22972,009;    2,094;   -0,045
814,334;22354,426;    0,458;    0,864
814,898;22407,117;    0,367;    0,591
815,463;22271,716;    1,276;   -0,773
816,027;22297,043;   -0,724;   -2,318
816,592;22347,551;    0,640;   -2,045
817,156;21876,514;    2,094;    1,136
817,721;21744,750;    4,276;    2,318
818,285;21711,622;    2,912;    1,500
818,849;22365,494;   -1,451;    1,682
819,414;22248,276;   -0,269;    2,955
819,978;21826,602;   -1,269;    1,773
820,542;22416,656;    2,003;    0,500
821,106;22083,619;   -0,815;    0,682
821,670;22199,310;   -0,815;    2,591
822,234;21905,636;   -0,270;    1,409
822,798;21288,417;    0,003;    0,500
823,362;21253,199;   -0,633;    4,227
823,926;20572,707;    0,094;    1,136
824,490;20775,943;   -0,997;   -0,682
825,054;21249,542;   -0,088;   -1,136
825,618;20861,051;   -1,542;   -1,500
826,181;20834,741;    0,458;   -1,318
826,745;20759,613;    1,367;   -1,045
827,309;21088,304;    1,185;    1,318
827,872;20447,903;    1,367;    0,955
828,436;21429,775;    1,185;   -0,773
828,999;21470,284;   -0,997;    1,227
829,563;20286,610;   -0,179;    1,136
830,126;20149,483;   -0,179;   -0,591
830,690;20144,991;   -1,997;    2,864
831,253;19638,409;   -0,543;    2,227
831,816;19807,463;   -1,906;    0,500
832,380;19722,698;    0,185;    0,864
832,943;19958,571;   -1,361;   -0,500
833,506;19402,806;    2,639;   -1,227
834,069;20232,678;    3,912;   -0,955
834,632;20266,460;    1,730;    1,318
835,195;20160,514;    1,003;    0,955
835,758;19353,568;   -0,997;    1,955
836,321;19241,258;    0,730;   -1,045
836,884;19334,403;   -0,725;   -0,955
837,447;19373,093;   -2,816;    1,773
838,010;19661,965;    0,366;    3,227
838,573;19906,201;   -1,179;    0,773
839,135;19871,710;   -1,361;   -0,955
839,698;19312,218;    1,275;    0,409
840,261;18847,817;    1,003;   -0,227
840,823;18694,235;   -0,543;    0,864
841,386;18953,016;   -0,452;   -2,409
841,948;18890,070;   -1,361;    1,773
842,511;18631,670;    0,912;    1,682
843,073;18774,087;    1,912;    0,227
843,636;18506,505;   -0,361;   -0,227
844,198;18481,922;    0,911;    0,591
844,760;18632,067;    1,093;    1,955
845,322;18231,939;    0,548;    1,136
845,885;18675,448;    0,730;    0,591
846,447;19122,047;   -1,998;    0,227
847,009;18758,465;    1,911;   -0,682
847,571;19022,064;    0,820;   -2,045
848,133;19138,482;   -1,089;   -1,864
848,695;18972,536;   -0,543;    1,409
849,257;18524,408;   -1,089;   -1,682
849,819;18697,098;   -0,998;   -0,409
850,381;18699,152;   -0,725;   -0,864
850,942;19083,297;    1,093;   -0,591
851,504;19065,715;    1,184;    0,227
852,066;19106,132;    1,275;   -1,591
852,628;18620,641;   -0,180;    1,955
853,189;18164,786;    1,638;    2,682
853,751;18314,840;   -0,907;    1,409
854,312;18071,894;   -0,453;   -1,682
854,874;18602,311;   -2,089;   -0,773
855,435;19119,274;   -0,907;   -1,682
855,997;19269,965;   -1,816;   -0,136
856,558;18561,473;    0,366;    1,773
857,119;18674,073;    0,820;    2,864
857,681;18383,945;    0,002;    0,318
858,242;18364,090;    1,911;   -2,136
858,803;18792,053;    0,456;   -0,773
859,364;19364,743;    0,184;   -4,773
859,925;18702,797;   -2,453;   -0,955
860,486;18599,942;   -0,453;   -0,955
861,047;18316,905;   -0,544;   -1,227
861,608;18114,959;   -1,089;   -0,773
862,169;18200,558;    0,638;   -0,045
862,730;17996,158;    0,456;    1,409
863,291;18275,757;   -0,635;   -0,500
863,852;18646,175;   -0,635;    1,955
864,412;18118,501;   -0,271;   -0,864
864,973;16662,283;   -0,089;    0,500
865,534;16579,700;   -1,726;    0,227
866,094;18082,390;    1,820;    0,227
866,655;17716,353;    1,274;    3,318
867,215;17979,953;    0,274;    0,136
867,776;17829,007;    0,547;   -0,136
868,336;17921,970;   -1,453;    0,136
868,897;17429,115;    2,638;    1,682
869,457;17132,987;    1,365;    0,318
870,017;17370,768;    0,547;   -1,227
870,578;17895,822;   -0,817;    0,773
871,138;17568,512;   -2,089;   -0,955
871,698;17088,112;   -0,817;   -1,318
872,258;17054,893;   -0,453;   -2,864
872,818;17405,947;    2,729;    0,045
873,378;17334,365;    0,638;    1,045
873,938;16902,509;    0,547;    0,500
874,498;17208,836;    0,274;   -1,955
875,058;17138,617;    2,183;    1,773
875,618;16976,217;    1,910;   -2,682
876,177;16903,089;    1,274;    0,136
876,737;16511,143;   -0,090;    1,955
877,297;16543,742;    0,183;    1,955
877,856;16574,069;   -0,362;    0,318
878,416;16517,578;    1,183;   -0,136
878,976;16730,541;   -1,817;    0,409
879,535;16841,322;    0,092;    3,136
880,095;16592,739;   -0,544;    0,045
880,654;16731,430;   -1,090;    1,318
881,213;16880,120;    2,456;    1,500
881,773;16506,992;    2,637;    2,682
882,332;16898,410;    3,365;    5,136
882,891;16716,646;    3,092;    2,136
883,451;17212,427;   -1,272;    1,682
884,010;16593,299;   -2,908;   -0,409
884,569;16693,898;   -0,999;   -0,045
885,128;16869,770;    2,819;   -1,864
885,687;16970,552;    4,455;    0,682
886,246;16645,969;    1,455;    2,136
886,805;16408,569;    2,455;    2,045
887,364;16671,077;   -0,999;   -0,500
887,922;16997,222;   -1,181;    0,045
888,481;16517,821;   -1,545;    0,591
889,040;16819,239;    1,183;    2,136
889,599;17474,657;    2,455;    1,409
890,157;17592,256;    1,455;    2,409
890,716;17245,765;   -0,090;    0,227
891,274;17058,182;    0,092;   -1,136
891,833;17489,236;    1,546;    0,864
892,391;17365,017;   -0,454;    0,500
892,950;17464,253;    1,819;   -0,773
893,508;17855,034;    0,455;   -0,409
894,067;17123,634;    0,637;    0,136
894,625;17033,779;   -0,636;   -1,500
895,183;17244,651;   -0,363;   -0,682
895,741;17103,523;    1,728;   -1,773
896,299;16995,850;   -0,545;   -2,409
896,858;17200,449;    0,819;   -1,591
897,416;17329,776;    2,728;   -1,318
897,974;17043,557;    1,819;    0,318
898,532;17219,975;    6,091;    2,682
899,089;17100,210;    2,091;   -0,682
899,647;17171,537;   -1,454;    1,318
900,205;16885,227;    1,182;    1,045
900,763;17098,281;   -0,454;    0,227
901,321;17076,063;    2,364;   -1,409
901,878;16502,389;   -1,000;   -0,773
902,436;16416,534;   -1,363;    1,318
902,994;16785,770;    4,728;    3,682
903,551;16219,278;    0,728;    0,409
904,109;16594,787;    0,182;   -1,409
904,666;16144,386;    2,455;    1,045
905,224;15993,986;    0,182;   -0,409
905,781;15761,858;    0,727;   -0,318
906,338;15860,094;   -1,363;    1,045
906,895;15754,148;    0,637;    2,045
907,453;15675,474;    1,727;    1,136
908,010;15726,255;   -0,909;    0,409
908,567;15394,855;    1,273;    0,591
909,124;14850,182;    0,364;   -1,500
909,681;14935,145;   -2,909;    0,682
910,238;15096,835;    0,636;   -1,318
910,795;15382,798;   -0,273;   -1,136
911,352;15019,798;   -2,909;   -2,682
911,909;14463,434;   -1,364;   -0,864
912,466;15004,343;   -3,182;    1,500
913,022;14506,434;   -1,636;    0,500
913,579;14824,889;   -0,909;    2,045
914,136;14590,071;    1,636;    0,955
914,692;14928,434;    0,091;   -1,227
915,249;14500,889;    1,455;    0,409
915,806;14749,525;    0,182;    1,955
916,362;14494,162;    1,909;    1,864
916,918;14026,889;    2,000;    1,045
917,475;14038,071;   -1,182;    0,955
918,031;14101,798;    3,364;   -0,045
918,587;13554,343;   -0,909;   -0,318
919,144;13764,071;   -2,273;    0,227
919,700;14084,434;    1,727;    0,773
920,256;13649,525;    0,727;    0,045
920,812;13231,798;   -0,727;   -1,045
921,368;13273,162;   -1,727;   -1,045
921,924;12902,980;    0,182;   -0,136
922,480;12484,798;   -0,545;    1,227
923,036;13101,980;    1,273;    1,955
923,592;12983,525;    0,455;    0,318
924,148;12921,889;    0,455;   -0,955
924,704;12269,980;   -1,364;   -0,409
925,259;12509,980;   -0,273;    0,591
925,815;12262,707;    1,455;    0,500
926,371;11757,071;    2,909;    1,409
926,926;11692,253;    2,091;    0,591
927,482;11342,889;   -1,364;    0,773
928,037;11210,616;    0,909;    2,045
928,593;11516,525;    1,636;    1,045
929,148;11336,253;   -1,818;   -1,500
929,704;10828,707;   -1,455;   -0,500
930,259;11037,071;    0,091;   -0,136
930,814;10118,434;   -0,818;    1,955
931,369; 9816,162;    1,091;   -0,773
931,925; 9675,980;   -0,091;    0,136
932,480; 9607,343;   -2,818;   -2,591
933,035; 9498,980;    0,545;   -0,318
933,590; 9252,253;    0,364;   -1,773
934,145; 8878,707;   -1,364;   -0,318
934,700; 9217,798;    0,455;   -0,591
935,255; 9025,980;   -0,091;    0,045
935,809; 8327,434;    3,182;    0,864
936,364; 7439,525;   -0,455;   -0,136
936,919; 7405,707;    0,455;   -1,773
937,474; 7306,707;    1,455;    0,136
938,028; 7051,343;   -1,636;    1,136
938,583; 6552,343;    1,818;    4,682
939,138; 6813,798;    2,091;    2,136
939,692; 6234,980;    1,636;   -1,136
940,247; 5957,980;   -0,727;   -1,045
940,801; 5505,889;   -0,636;    0,227
941,355; 5400,253;   -0,364;    2,591
941,910; 5035,798;   -0,273;   -2,136
942,464; 5175,616;   -0,818;   -0,318
943,018; 4961,071;    1,000;   -0,227
943,572; 4907,434;    2,545;   -0,682
944,126; 4327,162;    0,091;   -0,409
944,681; 4225,162;    3,091;    0,227
945,235; 4216,980;    1,000;   -0,591
945,789; 4153,707;    0,364;   -1,864
946,342; 4250,434;    0,455;   -0,591
946,896; 4051,889;   -2,273;    0,955
947,450; 3798,525;    1,545;   -0,227
948,004; 4009,889;    1,727;   -0,045
948,558; 4028,071;    0,273;   -0,864
949,111; 3945,253;   -0,273;   -0,318
949,665; 3975,616;    1,636;   -0,682
950,219; 3843,889;   -0,091;   -1,045
950,772; 3923,071;   -1,909;    1,864
951,326; 3820,798;    0,545;   -0,955
951,879; 3927,253;    0,727;   -2,318
952,433; 3956,980;    0,000;    2,227
952,986; 3778,980;    2,909;    0,682
953,539; 3759,798;   -0,273;    0,591
954,093; 3684,616;    0,545;   -1,318
954,646; 3815,980;    0,909;    1,318
955,199; 3636,707;    0,000;   -0,500
955,752; 3529,071;   -0,455;    1,773
956,305; 3493,434;   -0,091;    2,955
956,858; 3652,253;    0,818;   -0,318
957,411; 3817,525;   -0,545;    2,136
957,964; 3627,707;    1,364;    2,136
958,517; 3616,980;   -1,545;    3,136
959,070; 3452,071;   -0,455;    1,955
959,623; 3559,253;    1,091;    1,500
960,176; 3312,071;    1,727;    2,045
960,728; 3288,616;   -2,727;    0,773
961,281; 3345,343;    0,545;    0,500
961,834; 3393,707;   -0,909;    0,864
962,386; 3279,525;    1,727;    1,045
962,939; 3224,798;    0,364;   -0,318
963,491; 3376,980;    0,455;    1,136
964,043; 3238,707;    1,182;    2,409
964,596; 3378,525;   -1,000;    2,227
965,148; 3231,798;   -1,000;    1,773
965,700; 3146,071;    1,091;   -0,227
966,253; 3301,253;   -0,636;    0,318
966,805; 3138,616;   -2,273;    0,773
967,357; 3181,616;    1,091;   -1,500
967,909; 3139,343;    0,455;   -1,227
968,461; 3246,707;    0,545;    3,136
969,013; 3169,525;   -0,182;   -0,864
969,565; 3237,162;   -0,455;   -1,136
970,117; 3295,616;   -0,364;    1,045
970,669; 3139,707;    0,182;   -0,136
971,220; 3004,343;   -0,455;   -1,500
971,772; 2933,616;   -0,636;   -0,318
972,324; 3055,434;    0,091;   -0,500
972,876; 3002,616;    0,818;   -0,045
973,427; 3148,343;    1,909;   -1,045
973,979; 3113,162;   -0,727;   -2,500
974,530; 3138,798;    1,818;    1,318
975,082; 3126,434;   -0,545;    1,682
975,633; 3027,980;    1,091;    1,682
976,184; 3171,071;    0,909;    0,773
976,736; 2967,798;    0,091;    0,227
977,287; 2788,980;   -0,909;   -0,500
977,838; 2963,707;    0,909;   -0,318
978,389; 3026,434;   -1,000;   -0,500
978,940; 2870,616;    0,545;   -0,409
979,491; 2895,707;    0,091;   -0,500
980,042; 2871,616;    0,182;    3,045
980,593; 2923,707;   -2,545;    0,227
981,144; 2977,616;    2,545;   -0,500
981,695; 2938,343;    1,455;    1,500
982,246; 2908,343;   -0,273;    1,045
982,797; 3059,162;   -1,727;    0,682
983,347; 3172,889;    0,364;    0,591
983,898; 3331,071;    3,091;    0,409
984,449; 3172,616;    2,182;    0,773
984,999; 3058,253;    1,455;   -1,136
985,550; 2837,707;    0,182;   -0,318
986,100; 2871,616;   -0,455;   -0,318
986,651; 2889,707;   -0,818;    0,045
987,201; 2875,253;   -1,000;   -0,591
987,751; 2948,707;    0,818;    2,864
988,302; 2952,707;    2,636;    1,500
988,852; 2973,798;    0,455;   -1,136
989,402; 3024,616;    0,091;    0,682
989,952; 2948,434;   -2,182;    0,864
990,502; 3034,343;   -0,091;    0,682
991,052; 2998,798;   -0,727;    0,045
991,602; 2877,525;   -2,909;    1,318
992,152; 2877,434;    0,455;    0,682
992,702; 2847,525;    1,364;   -0,045
993,252; 2757,525;   -3,000;   -0,500
993,802; 2856,162;   -0,273;    1,318
994,352; 3078,707;   -1,545;    1,136
994,901; 3171,525;   -0,182;    3,227
995,451; 3084,980;   -0,182;    0,318
996,000; 3162,798;    1,636;    0,318
996,550; 2895,889;    2,273;    0,227
997,100; 2880,616;    1,273;   -0,045
997,649; 3179,616;    2,182;    0,955
998,198; 2813,798;    1,727;   -1,500
998,748; 3021,253;    1,091;   -2,318
999,297; 2915,798;   -0,818;   -0,409
999,846; 2961,162;    1,000;   -0,773
1000,395; 3012,434;   -0,818;    0,500
1000,945; 2975,525;    1,818;   -0,773
1001,494; 3049,071;    2,364;    0,682
1002,043; 3036,798;    4,636;    0,864
1002,592; 2890,889;   -1,091;    1,955
1003,141; 3041,889;   -0,455;   -0,682
1003,690; 2892,798;    1,727;    0,500
1004,238; 2967,707;    1,455;   -0,045
1004,787; 2610,980;    1,364;    1,227
1005,336; 2854,253;    0,364;    0,682
1005,885; 2980,434;    1,364;   -2,773
1006,433; 3125,707;    0,545;    0,955
1006,982; 3185,343;    0,455;    1,682
1007,531; 3083,980;   -1,818;   -0,227
1008,079; 3033,889;   -2,273;    0,500
1008,627; 3163,343;   -1,455;    0,409
1009,176; 2903,162;    0,000;   -1,955
1009,724; 2949,343;    1,091;    0,864
1010,273; 3029,071;    1,273;    0,500
1010,821; 3128,071;    0,091;    1,409
1011,369; 2860,162;   -1,364;    1,318
1011,917; 2848,525;   -1,364;   -0,591
1012,465; 3127,798;    1,273;   -1,591
1013,013; 3245,889;    2,091;   -1,682
1013,561; 3114,253;    0,455;   -0,773
1014,109; 3174,798;   -1,909;    1,682
1014,657; 3049,343;    0,364;    0,591
1015,205; 3167,889;    1,636;   -0,955
1015,753; 3197,798;   -0,545;   -1,409
1016,301; 3231,889;   -2,636;    3,045
1016,848; 3250,434;   -1,273;    0,409
1017,396; 3282,525;    2,545;    0,045
1017,944; 3401,980;    1,182;    1,864
1018,491; 3158,071;    0,273;    1,409
1019,039; 3337,162;    0,455;    0,591
1019,586; 3247,071;   -1,364;    1,682
1020,134; 3330,071;    0,455;    1,500
1020,681; 3349,798;    0,182;   -1,136
1021,228; 3348,162;    2,909;   -2,227
1021,776; 3179,071;    1,182;   -1,136
1022,323; 3395,525;    0,455;    0,773
1022,870; 3344,343;   -1,000;   -0,045
1023,417; 3223,525;    2,636;    1,864
1023,964; 3369,980;    2,636;    1,227
1024,511; 3199,162;    1,000;    0,773
1025,058; 3003,162;    3,182;   -0,045
1025,605; 3071,343;   -2,273;    3,136
1026,152; 3285,616;    1,727;   -0,591
1026,699; 3016,343;    1,818;    1,318
1027,245; 3179,798;   -0,091;    0,318
1027,792; 3375,343;   -1,000;    1,409
1028,339; 3264,162;    2,364;   -0,045
1028,885; 3097,798;    1,000;   -0,227
1029,432; 3042,707;   -0,091;    0,227
1029,978; 3113,525;   -1,000;   -1,591
1030,525; 3022,071;    1,000;    0,409
1031,071; 3245,253;   -1,364;    1,136
1031,618; 3365,798;    0,364;    1,682
1032,164; 3150,798;   -0,091;    3,045
1032,710; 3192,343;    1,636;   -1,500
1033,256; 3098,071;   -0,636;   -0,136
1033,803; 3082,071;   -0,545;    1,500
1034,349; 2806,980;   -1,364;    0,136
1034,895; 2965,889;    0,000;   -0,318
1035,441; 2940,253;   -0,818;    0,318
1035,987; 2936,343;   -2,364;   -0,682
1036,533; 2943,434;   -1,455;   -0,955
1037,078; 3145,980;    1,455;    1,682
1037,624; 2972,253;    2,455;   -0,955
1038,170; 2984,434;    0,455;   -0,318
1038,716; 2901,253;    1,636;   -0,409
1039,261; 2826,525;   -2,273;   -0,773
1039,807; 2751,343;   -0,091;    3,409
1040,352; 2818,343;   -1,909;   -0,318
1040,898; 2860,798;   -1,545;   -0,682
1041,443; 2756,889;   -1,455;   -2,591
1041,989; 2801,162;    1,091;    1,591
1042,534; 2681,343;   -0,364;    2,591
1043,079; 2779,616;    2,909;    0,955
1043,625; 2580,253;    1,818;    0,500
1044,170; 2623,980;   -1,364;    1,045
1044,715; 2876,616;    2,455;    0,955
1045,260; 2699,889;    2,182;   -0,955
1045,805; 2740,343;    1,182;   -0,591
1046,350; 2667,071;    1,364;   -0,409
1046,895; 2647,434;    2,909;    1,591
1047,440; 2598,980;    5,364;    0,409
1047,985; 2496,616;    2,818;   -0,955
1048,530; 2407,616;    1,545;    1,227
1049,074; 2464,525;    0,000;    0,318
1049,619; 2433,434;   -1,364;    1,955
1050,164; 2248,798;    0,455;    0,227
1050,708; 2290,343;   -0,455;    0,045
1051,253; 2684,798;    1,273;   -2,227
1051,797; 2388,889;    0,818;   -1,318
1052,342; 2368,707;   -1,182;    1,045
1052,886; 2382,071;    0,364;   -1,409
1053,430; 2240,343;   -1,364;    0,136
1053,975; 2281,616;   -0,818;   -0,318
1054,519; 2266,889;   -0,727;    3,227
1055,063; 2280,071;    0,909;    1,318
1055,607; 2155,616;   -0,182;    0,227
1056,151; 2163,434;    2,909;    1,682
1056,695; 2085,434;    2,273;   -1,136
1057,239; 2150,798;   -1,727;   -0,682
1057,783; 2168,707;    0,818;   -1,500
1058,327; 2128,980;    0,000;    1,409
1058,871; 2362,798;   -0,545;    1,318
1059,415; 2066,525;   -0,818;   -0,045
1059,958; 2336,343;    1,455;    2,591
1060,502; 2039,798;   -1,000;   -0,773
1061,046; 1940,707;    0,364;   -0,955
1061,589; 1900,889;   -3,000;   -1,136
1062,133; 1788,253;   -1,273;    1,864
1062,676; 1759,616;    1,182;    0,864
1063,220; 1761,616;    1,091;    0,500
1063,763; 1788,343;    0,909;    1,136
1064,306; 1873,707;   -0,909;    1,864
1064,849; 1751,525;   -0,909;    0,591
1065,393; 1754,071;    2,000;   -1,500
1065,936; 1870,162;    0,182;   -0,409
1066,479; 1745,889;   -1,455;    1,318
1067,022; 1765,707;   -0,273;   -0,227
1067,565; 1672,707;   -0,091;   -1,318
1068,108; 1691,343;    0,727;   -0,591
1068,651; 1667,889;   -0,636;    1,409
1069,194; 1602,980;   -0,455;   -1,682
1069,736; 1601,434;   -1,273;    0,955
1070,279; 1561,889;   -1,364;   -0,500
1070,822; 1639,980;   -2,000;   -0,318
1071,364; 1737,162;   -0,364;    1,318
1071,907; 1545,798;   -0,727;    3,227
1072,450; 1433,071;    0,000;   -0,045
1072,992; 1438,253;   -0,273;    3,136
1073,535; 1581,889;    2,091;    2,136
1074,077; 1368,707;   -0,727;    2,045
1074,619; 1336,434;   -1,364;    0,591
1075,161; 1383,343;   -1,091;    1,500
1075,704; 1563,980;    1,545;    1,227
1076,246; 1362,434;   -0,182;    0,682
1076,788; 1277,525;   -0,364;    1,773
1077,330; 1357,889;    1,273;    2,136
1077,872; 1317,434;    0,909;    0,955
1078,414; 1551,798;    2,727;    0,773
1078,956; 1283,707;    1,273;   -0,227
1079,498; 1560,343;    1,636;    0,318
1080,040; 1247,798;    1,909;   -1,318
1080,581; 1184,071;    1,636;   -0,318
1081,123; 1113,980;    0,091;   -0,773
1081,665; 1156,162;   -1,182;   -0,955
1082,206; 1480,162;    1,364;   -0,500
1082,748; 1328,071;    0,727;    2,045
1083,289; 1191,980;   -2,000;    1,318
1083,831; 1102,253;   -0,545;    0,227
1084,372; 1143,162;    0,000;    0,591
1084,913; 1155,434;    1,091;    0,864
1085,455; 1108,889;   -1,909;   -2,045
1085,996; 1087,798;   -2,273;    0,136
1086,537; 1116,798;   -0,091;    0,864
1087,078; 1150,162;   -0,909;   -2,136
1087,619; 1195,707;   -1,273;    0,227
1088,160; 1096,162;    0,000;    1,318
1088,701; 1092,253;   -1,091;    0,682
1089,242; 1028,343;    1,364;   -2,227
1089,783; 1130,889;   -0,273;    1,409
1090,324; 1093,343;    0,455;    0,682
1090,865;  969,616;    2,727;   -0,409
1091,405;  919,071;    0,727;    2,227
1091,946;  952,071;    0,182;   -0,955
1092,487;  891,525;    0,818;   -1,409
1093,027; 1065,707;   -1,364;   -1,500
1093,568;  900,434;   -0,364;    1,227
1094,108; 1016,253;    0,273;    1,773
1094,649;  952,707;   -1,182;    0,136
1095,189;  889,071;   -0,636;   -0,682
1095,729;  841,434;   -0,091;    0,955
1096,269;  828,707;    0,727;   -0,955
1096,810; 1171,343;   -1,364;    0,500
1097,350;  985,434;    1,364;   -0,773
1097,890;  878,162;    0,364;    1,227
1098,430; 1146,071;    2,364;    2,864
1098,970; 1027,253;    2,182;    1,682
1099,510;  877,616;    0,545;   -2,318
1100,050;  810,343;    1,000;   -1,591
1100,589;  766,525;   -0,727;   -0,318
1101,129;  895,343;    0,818;   -0,955
1101,669; 1054,707;    1,727;    2,136
1102,209;  871,071;   -0,091;    2,227
1102,748;  827,434;    0,000;    0,955
1103,288;  814,889;    1,273;   -1,227
1103,827;  847,525;    3,091;   -2,227
1104,367;  718,071;   -0,091;   -2,409
1104,906;  674,798;    1,364;   -1,136
1105,445;  752,525;    0,636;   -1,136
1105,985;  702,343;   -0,727;    1,500
1106,524;  758,980;   -1,727;   -0,682
1107,063;  731,980;   -2,727;    1,409
1107,602;  696,889;   -1,909;   -1,500
1108,141;  626,343;   -1,909;    1,500
1108,680;  730,071;   -3,455;   -0,591
1109,219;  659,253;   -0,909;   -0,500
1109,758;  662,525;    0,455;    0,682
1110,297;  631,434;    1,000;   -0,682
1110,836;  574,707;   -0,727;    0,955
1111,375;  756,253;   -2,545;    0,409
1111,913;  760,253;   -1,000;    0,773
1112,452;  706,707;   -0,273;    0,136
1112,991;  583,071;    1,091;    1,955
1113,529;  536,798;   -0,818;   -0,045
1114,068;  606,707;   -0,273;    2,955
1114,606;  504,343;   -0,364;   -0,955
1115,144;  680,707;   -1,273;    1,045
1115,683;  609,343;   -0,727;    0,318
1116,221;  656,525;   -0,455;   -0,864
1116,759;  560,343;    0,636;   -0,864
1117,297;  765,980;    0,000;    1,864
1117,836;  560,434;   -2,182;   -1,227
1118,374;  584,253;    0,182;   -0,682
1118,912;  520,434;    0,909;    2,682
1119,450;  508,525;    1,000;    0,864
1119,988;  567,980;    1,545;    2,136
1120,525; 1024,707;    5,091;    3,318
1121,063;  735,434;    1,182;    1,864
1121,601;  531,889;   -0,909;   -1,227
1122,139;  481,071;   -0,727;   -2,045
1122,676;  687,616;   -0,727;    2,773
1123,214;  616,253;   -1,182;    4,409
1123,751;  421,798;    1,727;    2,227
1124,289;  561,162;   -0,091;   -0,409
1124,826;  423,798;    1,727;    0,227
1125,364;  340,253;    1,727;   -0,955
1125,901;  539,162;    1,182;    1,227
1126,438;  649,616;    0,818;    0,955
1126,975;  372,616;   -0,727;   -0,773
1127,513;  442,980;    0,273;    2,136
1128,050;  340,162;    1,636;   -0,682
1128,587;  446,253;    2,000;   -0,227
1129,124;  502,162;    0,091;    1,318
1129,661;  356,525;    0,273;    0,227
1130,198;  529,798;    1,636;    0,773
1130,734;  471,253;    0,182;    1,409
1131,271;  315,616;   -0,909;    0,864
1131,808;  495,616;    2,909;    3,045
1132,345;  367,071;    1,545;    0,318
1132,881;  233,707;   -1,545;   -1,864
1133,418;  384,798;    0,727;   -1,136
1133,954;  318,434;    2,455;   -2,682
1134,491;  399,162;    1,364;   -0,773
1135,027;  293,889;    2,364;    0,864
1135,564;  388,889;    0,273;    2,955
1136,100;  375,616;    0,364;    2,136
1136,636;  257,162;   -1,273;   -1,045
1137,172;  364,253;    0,000;   -1,045
1137,708;  277,798;   -1,364;   -1,045
1138,245;  278,071;    1,273;   -1,227
1138,781;  229,798;    1,091;   -3,318
1139,317;  306,071;    1,273;   -1,409
1139,852;  292,980;    3,091;    0,136
1140,388;  406,616;   -1,182;   -0,409
1140,924;  290,798;   -1,091;   -2,227
1141,460;  225,980;   -1,636;    0,136
1141,996;  160,434;   -1,364;    2,682
1142,531;  212,343;    1,364;    3,318
1143,067;  439,253;    1,182;    1,045
1143,602;  496,525;   -0,091;   -0,318
1144,138;  329,343;   -2,636;    1,045
1144,673;  187,889;   -1,455;    1,409
1145,209;  257,253;   -1,909;   -0,318
1145,744;  174,707;   -0,727;    0,864
1146,279;  321,707;    1,818;   -0,136
1146,815;  229,980;    1,545;   -2,682
1147,350;  273,071;   -1,364;    0,045
1147,885;  181,616;   -0,818;   -1,318
1148,420;  182,707;   -2,273;    0,773
1148,955;  169,798;   -1,727;    1,864
1149,490;  198,343;   -0,909;   -1,591
1150,025;  181,071;    0,455;   -1,773
1150,560;  294,889;    1,091;   -0,955
1151,094;  257,162;    1,455;   -0,591
1151,629;  261,889;    1,636;    0,864
1152,164;  191,434;    1,364;    1,318
1152,698;  147,980;   -0,182;   -0,136
1153,233;  105,616;    0,091;   -0,682
1153,767;  148,071;   -3,000;   -2,318
1154,302;  202,707;   -1,455;    1,773
1154,836;  209,525;   -0,455;   -2,136
1155,371;  263,798;   -1,364;    3,682
1155,905;  210,889;   -0,636;    1,682
1156,439;  173,798;   -0,636;   -0,500
1156,973;  213,707;    0,364;    0,318
1157,507;  146,707;   -0,364;    0,682
1158,042;  179,343;   -0,727;    1,045
1158,576;  227,980;    0,182;    1,773
1159,110;  212,889;   -0,818;    2,409
1159,643;  180,071;    0,636;   -0,045
1160,177;  113,707;   -1,545;    1,500

