
Integration time [ms]:   0,040
Averaging Nr. [scans]: 11
Smoothing Nr. [pixels]: 0
Data measured with spectrometer [name]: 7318044SP
Wave   ;Sample   ;Dark     ;Reference
[nm]   ;[counts] ;[counts] ;[counts] 

186,757;   29,687;   31,551;    1,318
187,357;   67,170;   22,551;    0,955
187,958;   34,243;   15,460;   -1,591
188,558;   85,316;    8,915;   -1,227
189,159;   51,998;    6,733;   -4,500
189,759;   20,963;    7,278;   -3,591
190,360;   21,691;    2,824;   -2,136
190,960;   67,353;    2,915;   -4,136
191,560;   84,770;    3,189;   -6,591
192,161;  337,728;    4,372;   -3,500
192,761;  169,696;    4,010;   -3,227
193,361;  122,753;    1,556;   -3,773
193,962;  170,076;    2,010;   -2,682
194,562;   96,635;    1,189;   -3,955
195,162;  138,077;   -2,448;   -2,227
195,762;  308,768;   -3,176;   -0,045
196,362;  256,992;    1,370;   -2,500
196,963;   95,992;    2,006;   -0,864
197,563;  180,774;    1,551;   -0,955
198,163;  116,927;    0,096;   -0,682
198,763;  143,627;    1,733;   -0,500
199,363;  257,788;    3,096;   -0,500
199,963;  215,626;    0,369;    0,409
200,563;  192,158;    2,823;   -1,409
201,163;  160,245;    3,277;   -0,227
201,763;  252,409;    3,732;    0,318
202,363;  191,864;    1,459;    1,500
202,963;  314,164;    1,459;    1,045
203,563;  427,794;    0,277;    0,500
204,162;  258,080;    2,096;   -1,864
204,762;  248,230;    0,550;    0,591
205,362;  207,957;    3,004;    1,955
205,962;  320,696;    3,096;    1,955
206,562;  326,139;    1,823;    2,318
207,161;  291,237;   -0,087;    0,318
207,761;  449,353;    1,277;    2,409
208,361;  324,905;   -0,268;    1,409
208,960;  440,185;    0,459;    1,500
209,560;  512,331;    1,277;    1,591
210,160;  475,283;    0,550;    1,864
210,759;  445,279;    4,186;    1,227
211,359;  451,747;    1,459;    1,045
211,958;  733,657;    1,277;    2,045
212,558;  812,272;    1,732;    1,864
213,157;  652,499;    1,822;    1,500
213,757; 1112,950;    3,822;   -0,227
214,356;  794,562;    1,277;   -0,409
214,956; 1155,339;    3,095;    0,409
215,555;  754,876;    2,095;    2,136
216,154;  682,817;   -2,723;   -0,591
216,754;  699,446;    0,277;    0,773
217,353;  862,251;   -0,268;   -1,045
217,952;  704,009;   -0,178;    0,318
218,552;  938,830;    1,368;   -0,773
219,151;  835,995;    0,277;    0,955
219,750;  845,851;    0,004;   -0,227
220,349;  989,362;   -0,451;    1,045
220,948; 1053,774;   -1,360;    1,136
221,548; 1081,810;    0,913;    1,227
222,147; 1208,824;   -0,087;   -0,409
222,746; 1493,309;   -0,451;   -0,955
223,345; 1373,599;    0,731;    0,500
223,944; 1402,684;   -0,451;    0,773
224,543; 1576,729;    1,004;   -1,409
225,142; 1693,183;    0,094;    0,136
225,741; 1599,131;   -0,814;    1,045
226,340; 1626,089;   -0,451;   -0,955
226,939; 2101,362;   -0,996;   -0,136
227,538; 2086,061;   -0,360;   -0,773
228,137; 2239,939;   -0,814;    0,864
228,735; 2419,118;   -0,541;    1,227
229,334; 2154,202;   -0,905;   -0,227
229,933; 2530,999;    0,459;    0,591
230,532; 2641,502;    1,186;   -0,409
231,131; 2707,324;    1,732;    0,318
231,729; 2881,163;   -2,450;   -2,318
232,328; 3060,576;   -0,723;   -1,500
232,927; 3144,726;    1,004;   -0,500
233,525; 3262,631;    3,640;    0,045
234,124; 3479,471;    2,368;   -1,591
234,723; 3511,408;    0,913;   -1,045
235,321; 3688,796;    2,277;    0,136
235,920; 3944,985;    1,186;   -1,227
236,518; 4209,464;    3,459;    0,318
237,117; 4425,600;    0,004;   -0,227
237,715; 4581,174;    0,640;   -0,500
238,314; 4621,513;   -0,087;   -2,318
238,912; 4735,817;   -0,723;   -1,409
239,510; 4812,530;    0,459;   -1,227
240,109; 5000,821;    0,004;    3,773
240,707; 5014,989;   -0,996;    1,227
241,305; 5403,044;    0,550;    0,136
241,904; 5662,317;   -0,178;   -2,045
242,502; 5594,419;   -0,632;   -0,227
243,100; 5521,257;   -0,087;   -0,955
243,698; 5782,468;    0,732;    1,682
244,297; 5989,205;   -0,632;    0,682
244,895; 5797,152;   -0,269;   -2,318
245,493; 6152,519;    2,186;   -0,591
246,091; 6186,383;    1,368;   -1,318
246,689; 6172,561;    1,004;    0,591
247,287; 6336,617;    0,822;   -1,136
247,885; 6661,414;   -1,451;    1,227
248,483; 6738,673;    1,822;   -0,500
249,081; 6855,540;    0,185;    1,591
249,679; 7030,830;   -0,178;    1,682
250,277; 7303,026;   -1,723;    0,864
250,875; 7300,534;   -1,087;   -1,045
251,473; 7326,635;   -1,178;    0,500
252,071; 7558,128;    1,459;    1,045
252,669; 7690,229;   -1,814;    0,318
253,267; 7958,166;   -0,087;    0,773
253,864; 7952,345;   -0,360;    0,682
254,462; 7776,677;    1,640;    1,591
255,060; 7749,205;   -0,269;    1,318
255,658; 8076,229;    0,822;   -0,136
256,255; 8523,159;    0,186;   -2,045
256,853; 8364,596;   -0,269;    1,409
257,451; 8353,785;    0,822;    1,864
258,048; 8657,768;    1,822;    1,864
258,646; 8398,218;    1,731;   -1,045
259,243; 8599,687;   -0,087;    2,227
259,841; 8625,019;   -0,814;    0,318
260,438; 8515,114;   -0,087;    0,864
261,036; 9262,422;   -1,905;    1,409
261,633; 9128,145;   -0,087;    2,227
262,231; 8918,432;    2,731;   -0,045
262,828; 8987,397;   -0,905;    1,136
263,425; 9039,397;    0,913;   -0,591
264,023; 9301,386;    0,186;    0,045
264,620; 8855,848;   -0,360;   -0,318
265,217; 9244,323;   -2,087;    3,136
265,815; 9320,896;   -1,905;    2,136
266,412; 9074,240;    0,731;    0,136
267,009; 9142,236;   -1,451;    0,773
267,606; 9012,128;    0,822;   -0,955
268,203; 8988,194;   -0,269;   -0,591
268,801; 9317,075;    1,731;    0,591
269,398; 9615,820;   -0,360;    2,500
269,995; 9607,579;    0,277;    1,591
270,592; 9361,778;   -0,632;   -0,500
271,189; 9601,033;    0,186;    0,409
271,786; 9697,796;   -0,632;    1,227
272,383; 9510,611;   -1,087;    0,227
272,980; 9724,939;    0,277;    0,318
273,577;10184,191;    0,004;    1,227
274,174; 9746,873;    0,822;    2,591
274,771; 9740,775;   -0,814;   -0,773
275,367; 9889,370;    2,277;    1,409
275,964; 9866,474;    0,731;   -0,500
276,561; 9948,421;    1,549;   -1,045
277,158;10155,466;    0,095;   -1,773
277,755;10289,631;    2,185;    0,409
278,351; 9678,397;   -0,451;   -1,500
278,948;10013,778;   -0,815;    0,045
279,545;10014,767;   -1,360;    2,318
280,141;10665,135;   -1,723;   -2,045
280,738;10540,313;   -0,451;   -0,136
281,334;10779,547;   -1,633;    0,591
281,931;10160,358;   -0,087;   -1,318
282,528;10255,008;    0,822;   -0,500
283,124;10934,677;   -1,087;   -0,500
283,721;10843,980;   -0,451;    1,409
284,317;10647,424;    0,185;    2,500
284,913;11223,410;   -1,360;    0,591
285,510;11431,319;    0,640;   -0,318
286,106;11454,243;   -2,269;   -0,955
286,703;11048,281;   -0,360;    1,955
287,299;11227,474;   -1,451;   -0,591
287,895;11446,788;    0,822;   -1,045
288,491;12011,547;    0,186;    2,136
289,088;11756,365;   -2,360;    2,409
289,684;11826,865;   -1,723;    1,500
290,280;11822,670;    0,368;    0,682
290,876;11928,904;    1,822;    5,500
291,472;11835,952;    1,276;    2,227
292,068;11911,068;    1,367;    0,227
292,665;11596,656;    2,095;    0,773
293,261;11195,131;    0,276;    2,136
293,857;11607,390;    2,913;    2,136
294,453;11543,904;    3,550;    0,955
295,049;11443,776;   -0,268;    1,955
295,644;11440,842;    0,095;    0,136
296,240;11347,569;   -0,905;   -0,136
296,836;11399,493;   -0,995;    0,318
297,432;11673,098;    1,096;   -0,500
298,028;11713,979;    0,732;    0,773
298,624;12113,321;    1,459;    1,864
299,220;12384,531;    2,368;    0,591
299,815;12027,363;    1,005;   -0,409
300,411;11815,321;    0,914;    1,773
301,007;11862,878;    1,368;    0,227
301,602;11895,650;   -0,541;   -2,318
302,198;12064,025;    0,732;   -0,773
302,794;12386,398;    1,187;   -0,500
303,389;12510,954;   -1,177;    1,045
303,985;12580,661;    0,550;    1,409
304,580;12570,213;    1,459;    1,591
305,176;12552,199;   -3,086;    0,136
305,771;12438,625;   -1,268;   -1,227
306,367;12286,345;    4,095;    0,136
306,962;12642,650;    0,641;    1,500
307,558;12375,496;   -0,450;    0,136
308,153;12306,384;    1,095;   -1,136
308,748;12513,514;   -0,814;    1,682
309,344;12489,377;   -0,632;   -1,318
309,939;12588,741;   -1,905;   -1,318
310,534;12869,604;   -0,086;   -1,682
311,130;12784,307;    0,459;   -2,500
311,725;12510,062;    1,004;   -0,500
312,320;12880,626;    2,459;    0,045
312,915;12682,608;    1,459;   -1,045
313,510;12765,825;    1,550;   -0,500
314,105;13276,164;    1,096;    1,409
314,700;12659,283;   -3,086;   -1,045
315,295;12296,940;   -0,904;    0,045
315,890;11846,007;    1,277;    0,864
316,485;12226,433;   -0,359;   -0,318
317,080;12323,293;   -3,086;    1,591
317,675;12909,174;    2,005;   -0,682
318,270;12353,315;    5,550;    3,318
318,865;12326,402;    3,278;    3,045
319,460;12147,891;   -0,904;    0,591
320,055;12367,521;   -0,541;   -1,227
320,650;12027,018;   -1,995;   -0,591
321,244;12084,721;   -0,177;   -1,409
321,839;13014,203;   -1,541;   -0,227
322,434;12895,171;   -1,086;   -1,591
323,029;12521,273;    1,732;    1,591
323,623;12350,059;    1,550;    0,773
324,218;12118,158;    2,368;    1,409
324,812;11986,493;    1,096;    1,591
325,407;11820,710;   -0,814;    2,045
326,002;11725,685;    0,277;   -0,409
326,596;12026,454;    0,914;    1,318
327,191;12228,759;    0,823;   -1,045
327,785;11787,818;   -0,813;   -0,227
328,379;11995,699;    1,368;    0,136
328,974;11829,003;    0,914;   -3,955
329,568;12019,982;    0,186;   -2,409
330,163;11842,220;    2,096;    1,045
330,757;12182,048;    2,459;    1,591
331,351;11489,769;    0,459;    0,682
331,945;11814,577;    0,914;    1,409
332,540;11402,500;   -1,723;   -0,591
333,134;11595,024;   -1,086;    0,773
333,728;11844,104;    0,005;    0,318
334,322;12133,542;   -1,177;   -0,864
334,916;11400,849;    0,277;    0,955
335,510;11748,339;   -0,450;   -0,136
336,105;11948,486;   -1,086;    1,591
336,699;11686,055;   -1,086;    0,591
337,293;11618,356;   -1,723;    0,318
337,887;11789,384;   -2,723;    1,955
338,481;11910,982;    0,459;    0,591
339,074;12025,936;   -0,359;    2,682
339,668;11866,887;   -1,632;    1,227
340,262;12135,695;    1,732;    3,227
340,856;11593,307;    1,822;   -0,682
341,450;10932,488;    1,004;    1,864
342,044;11861,265;    1,459;    0,136
342,637;11635,366;    0,913;   -2,136
343,231;11507,303;   -2,360;    0,682
343,825;11456,597;   -1,086;   -0,591
344,419;11394,870;   -1,995;    0,500
345,012;11183,689;    2,459;    4,045
345,606;11192,546;    4,641;    1,591
346,199;11032,259;   -1,813;   -0,227
346,793;10569,028;    1,914;    2,045
347,386;10739,094;   -0,813;   -1,136
347,980;10724,473;   -0,268;   -0,045
348,573;10532,840;    2,278;    0,409
349,167;10205,564;    5,278;    4,773
349,760;10552,057;    2,914;    2,682
350,354;10538,289;   -0,813;    1,136
350,947;10267,666;    1,096;    1,682
351,540; 9929,690;   -0,358;   -1,409
352,134; 9858,907;    1,096;    1,136
352,727; 9953,637;   -0,086;    1,136
353,320; 9750,774;    0,005;    0,591
353,913; 9584,917;   -1,995;    1,864
354,507; 9808,571;    0,823;   -1,227
355,100; 9775,186;    0,460;    0,864
355,693; 9027,785;    2,005;    2,409
356,286; 9065,176;    0,823;    2,773
356,879; 9433,155;   -0,722;    1,227
357,472; 9023,015;   -0,904;    1,500
358,065; 9243,110;   -0,722;    2,500
358,658; 9147,333;   -0,540;    2,318
359,251; 8756,340;   -1,631;   -0,591
359,844; 8242,463;   -1,904;   -1,136
360,437; 8462,344;   -2,995;    0,045
361,030; 8699,400;    1,369;   -0,682
361,623; 8263,519;    2,824;    0,318
362,215; 8340,312;   -0,086;    2,045
362,808; 8191,515;   -2,358;   -1,682
363,401; 8371,187;   -2,449;    0,136
363,994; 8101,942;   -0,631;   -1,500
364,586; 8047,146;    0,824;   -1,500
365,179; 8249,660;   -0,449;   -1,136
365,772; 7730,865;   -1,995;    2,045
366,364; 8037,453;    1,915;   -3,227
366,957; 8223,111;    2,279;   -0,045
367,549; 8246,828;    2,188;   -0,864
368,142; 7892,105;    1,825;   -1,500
368,734; 8116,690;    0,734;   -2,136
369,327; 8032,351;    1,643;   -0,500
369,919; 7952,205;   -1,538;    0,409
370,512; 7769,342;   -1,083;   -0,500
371,104; 7554,193;   -0,901;    1,591
371,696; 7705,596;    1,191;   -0,955
372,289; 7783,891;    0,373;    1,136
372,881; 7940,194;   -2,080;    1,318
373,473; 7873,688;   -2,170;    1,136
374,066; 7656,264;   -0,169;    0,500
374,658; 7515,016;    0,378;    1,136
375,250; 7853,897;    0,653;   -1,409
375,842; 7707,768;    0,473;   -0,045
376,434; 7595,516;   -0,435;   -0,409
377,026; 8170,681;    0,204;   -2,500
377,618; 8085,280;   -0,158;   -0,682
378,210; 7897,798;   -0,338;   -1,955
378,802; 7756,394;    0,754;   -0,591
379,394; 7733,879;    1,846;    0,682
379,986; 8312,143;    1,393;   -0,955
380,578; 8408,559;   -0,153;    0,773
381,170; 7768,383;   -0,972;    0,045
381,762; 7706,287;    0,755;    1,409
382,354; 7919,102;   -0,065;   -1,318
382,945; 8037,050;   -2,976;    0,318
383,537; 8169,854;   -2,705;   -1,955
384,129; 8173,055;   -2,160;   -1,136
384,721; 8382,040;   -0,252;    0,955
385,312; 8305,934;   -0,161;   -0,955
385,904; 8373,435;   -2,706;    1,591
386,496; 7755,589;   -0,979;    1,045
387,087; 7912,922;    1,022;    2,500
387,679; 7953,367;   -1,160;    0,045
388,270; 8083,014;    2,840;    2,045
388,862; 8186,828;    1,295;   -0,318
389,453; 8094,884;   -0,887;    1,045
390,045; 8384,398;   -0,705;   -2,682
390,636; 8288,000;    0,204;   -0,591
391,227; 8127,391;   -0,523;   -0,045
391,819; 8242,632;    0,204;    0,773
392,410; 8326,412;    1,022;    0,045
393,001; 8240,690;   -0,979;   -1,591
393,593; 8551,865;    1,930;   -0,045
394,184; 8400,152;    1,385;   -0,409
394,775; 8311,278;    1,839;    2,136
395,366; 8529,212;    1,385;    0,773
395,957; 8526,996;    0,113;    0,136
396,548; 8868,359;   -0,342;    2,682
397,139; 9166,219;   -2,433;    0,591
397,730; 8887,264;   -1,888;    0,955
398,321; 8946,439;   -1,252;    0,955
398,912; 8997,952;   -0,615;    0,136
399,503; 9054,068;   -3,524;   -1,409
400,094; 8477,882;    0,294;    1,682
400,685; 8332,729;   -0,433;    0,045
401,276; 8420,610;    0,930;   -0,955
401,867; 8750,494;   -0,888;    0,773
402,458; 8833,754;   -2,251;   -2,318
403,048; 8822,155;    1,112;    0,591
403,639; 8414,411;    0,840;    0,864
404,230; 8645,012;    2,476;    0,318
404,821; 8588,159;   -0,615;    0,045
405,411; 8718,707;    1,203;   -2,591
406,002; 8322,194;   -1,252;   -1,136
406,592; 8171,917;    2,294;    0,045
407,183; 8487,700;    0,566;   -1,500
407,774; 8388,987;    3,475;   -0,136
408,364; 8717,924;    0,930;    0,409
408,954; 8321,294;    0,384;    1,227
409,545; 8362,102;    1,021;    1,045
410,135; 7898,927;    1,293;    0,500
410,726; 8057,950;    1,838;    0,318
411,316; 8448,248;    0,111;    0,773
411,906; 8106,993;   -0,253;   -0,409
412,497; 7593,713;   -1,070;   -0,045
413,087; 8238,783;   -1,980;   -0,227
413,677; 8642,073;   -0,707;    3,864
414,267; 8475,300;    0,656;    1,409
414,857; 8473,503;   -2,980;    4,227
415,448; 8770,559;    0,839;    0,500
416,038; 8444,790;    0,020;   -0,591
416,628; 8410,881;   -0,889;    0,409
417,218; 7864,171;    0,565;    3,318
417,808; 8167,919;    0,202;   -0,409
418,398; 8634,226;    0,020;    2,682
418,988; 8651,394;    2,020;    0,591
419,578; 8908,789;   -0,707;    1,409
420,168; 9237,727;   -1,343;   -0,955
420,757; 8820,864;   -1,343;   -1,500
421,347; 8507,289;    0,111;   -0,227
421,937; 8685,674;    2,292;    1,409
422,527; 8651,901;    0,838;   -0,773
423,116; 8465,982;   -0,253;   -0,045
423,706; 8797,268;   -1,889;    0,318
424,296; 8752,898;    1,384;    0,682
424,885; 9216,898;   -0,071;   -3,045
425,475; 9523,859;    1,474;   -2,864
426,065; 9405,883;   -0,980;   -0,318
426,654; 9010,453;   -0,435;   -0,318
427,244; 9156,995;    0,020;    1,409
427,833; 8606,153;    1,383;   -0,500
428,423; 9079,837;   -0,526;    1,136
429,012; 9845,568;   -0,344;   -1,136
429,601; 9364,648;   -1,344;    0,136
430,191; 9600,043;    1,292;    4,318
430,780; 9204,086;   -0,344;   -0,409
431,369; 9112,470;    0,746;   -0,045
431,959; 9762,155;   -1,254;    0,500
432,548; 9586,560;   -1,163;   -0,045
433,137; 9675,693;   -1,254;   -1,318
433,726;10223,662;    0,292;    0,500
434,315; 9578,025;   -0,526;    2,409
434,905; 9675,832;   -1,254;    1,409
435,494; 9565,976;    0,746;    0,955
436,083;10036,739;   -0,981;   -0,955
436,672; 9920,508;    0,110;    0,500
437,261; 9490,916;    0,292;   -1,955
437,850; 9605,214;    1,383;    0,682
438,439; 9605,311;    3,291;    1,955
439,027; 9469,157;    3,655;    1,773
439,616; 9784,804;    2,927;    1,227
440,205; 9658,070;    0,200;   -2,136
440,794; 9748,912;    2,109;   -0,045
441,383;10006,058;   -1,346;   -0,591
441,971; 9867,135;   -2,436;    0,591
442,560; 9742,705;    0,563;   -1,773
443,149; 9504,081;    0,379;   -1,318
443,737; 9627,092;   -0,074;   -2,318
444,326; 9889,533;    0,018;    0,318
444,915; 9967,002;   -1,982;    0,864
445,503;10351,055;   -2,891;   -0,318
446,092; 9590,992;    0,382;    2,136
446,680;10169,953;    0,382;    0,318
447,269;10360,407;   -0,346;   -0,318
447,857;10130,386;    0,018;   -1,773
448,445;10231,806;    0,563;    1,318
449,034;10464,089;   -1,528;   -1,136
449,622;10572,910;   -1,073;    3,500
450,210; 9763,515;    2,017;    2,227
450,799;10319,812;    0,290;   -0,591
451,387;10275,417;    1,381;   -0,591
451,975; 9945,833;    2,654;    0,864
452,563;10025,284;    3,472;    2,318
453,151;10089,112;   -0,528;   -1,227
453,739;10024,860;   -1,347;    0,136
454,328; 9815,147;    2,381;   -2,136
454,916; 9519,689;    2,562;   -0,136
455,504; 9733,213;    1,017;    1,227
456,092; 9888,563;    0,017;   -1,591
456,679; 9886,360;    1,472;    0,682
457,267; 9867,703;    4,017;    1,045
457,855;10025,713;    1,017;    1,409
458,443; 9780,706;   -0,165;    1,682
459,031; 9916,744;    0,108;    2,409
459,619;10358,031;   -1,801;    2,864
460,206;10513,458;    0,835;    2,045
460,794;10583,447;   -2,983;   -0,227
461,382;10835,219;   -0,529;   -0,864
461,970;10413,065;    1,198;    1,864
462,557;10399,999;   -0,711;   -0,682
463,145;10632,565;   -3,165;   -1,682
463,732;10786,586;    2,016;   -1,045
464,320;10712,610;   -0,075;   -3,045
464,907;10377,184;    2,743;   -0,773
465,495;10251,046;    0,743;   -1,227
466,082;10422,631;   -1,984;   -0,045
466,670;10314,918;   -2,529;    1,227
467,257;10729,771;   -1,711;    2,045
467,844;10916,106;   -0,075;    0,045
468,432;10930,515;    0,834;    3,500
469,019;10418,581;    0,925;   -1,773
469,606;10890,312;    0,470;    3,682
470,193;10745,679;   -1,439;    0,227
470,780;10305,910;   -2,075;    0,864
471,368;10620,822;   -1,257;   -0,773
471,955;10401,700;    1,379;   -0,682
472,542;10042,913;    0,652;   -1,136
473,129;10267,780;   -0,166;    0,136
473,716;10024,179;    1,470;    0,591
474,303;10276,550;    0,652;   -0,864
474,890;10554,199;   -1,439;   -0,500
475,477;10579,031;   -1,621;    0,409
476,064;10467,041;    1,106;   -1,591
476,650;10374,314;    0,288;    0,318
477,237;10234,224;   -0,258;    0,955
477,824;10393,094;   -1,076;    0,864
478,411;10400,535;   -1,894;   -0,318
478,997;10596,251;    0,560;   -0,773
479,584;10688,233;    1,196;   -0,409
480,171;11428,464;   -0,440;   -0,773
480,757;11064,771;    2,651;    0,773
481,344;11384,803;    0,469;    0,409
481,931;10875,145;    1,105;    1,045
482,517;11974,208;   -1,258;    0,318
483,104;12634,202;    1,106;    2,864
483,690;12897,758;   -1,804;    0,045
484,276;13223,229;   -0,895;    0,227
484,863;12938,639;    2,469;    1,136
485,449;13549,656;   -0,077;    0,318
486,035;13546,065;   -1,986;   -0,136
486,622;13982,719;   -0,895;    0,045
487,208;13915,554;    1,378;    1,500
487,794;13731,288;    0,741;    0,318
488,380;13822,861;    0,105;   -1,409
488,967;13919,179;   -1,168;   -0,409
489,553;13963,428;   -1,895;   -1,409
490,139;14189,676;    1,559;    0,773
490,725;13555,511;    0,741;   -0,227
491,311;13079,735;    3,287;    3,045
491,897;12416,382;   -0,986;    1,500
492,483;12201,623;    0,105;    1,227
493,069;12025,728;    3,923;    0,864
493,655;12013,371;    1,650;    0,682
494,241;11927,504;    1,377;   -0,955
494,826;12309,515;    0,287;   -1,045
495,412;11812,274;    2,559;   -0,682
495,998;11947,724;   -0,805;   -0,318
496,584;12093,892;    0,377;    1,045
497,169;12115,626;    1,014;   -0,682
497,755;12050,265;    0,650;    1,227
498,341;12611,895;    0,559;    0,318
498,926;12187,829;    1,832;    1,955
499,512;12346,771;    1,286;    2,955
500,097;12496,926;    0,195;   -0,318
500,683;12419,793;   -0,350;    2,136
501,268;12800,922;   -0,169;   -0,955
501,854;12515,205;   -0,169;    1,227
502,439;12423,848;   -0,624;   -1,773
503,024;12647,656;    0,195;    0,500
503,610;12733,677;   -0,078;   -0,682
504,195;12717,111;    0,558;    1,955
504,780;12837,027;    2,922;    1,227
505,366;12672,188;    3,013;    2,864
505,951;12388,086;    0,740;    1,045
506,536;12382,915;   -3,260;   -3,682
507,121;12380,541;    0,285;   -0,318
507,706;12925,642;    2,376;    1,045
508,291;13332,998;    2,649;    1,136
508,876;12762,130;   -0,988;    2,591
509,461;12209,239;   -0,169;   -0,773
510,046;12651,529;    0,194;    0,318
510,631;12934,288;   -0,351;   -0,773
511,216;12530,942;    2,467;   -0,500
511,801;12958,894;   -0,442;    2,591
512,386;13279,285;    0,740;    0,500
512,971;13187,473;   -2,988;    0,955
513,555;12731,921;   -0,897;   -1,500
514,140;13525,431;   -0,442;   -3,136
514,725;13521,511;   -0,715;   -1,136
515,309;13666,763;   -0,533;    0,318
515,894;13098,092;   -0,624;   -2,227
516,479;13545,581;   -0,624;   -0,955
517,063;13350,913;    0,376;    1,227
517,648;13495,836;    1,012;   -1,136
518,232;13194,675;   -0,261;   -1,409
518,817;13515,105;   -0,079;    1,682
519,401;13751,962;    2,194;    0,591
519,985;13241,116;    1,103;    1,136
520,570;13123,846;    0,830;   -1,955
521,154;13429,681;    2,102;    0,591
521,738;13606,779;   -2,352;    2,409
522,323;14164,933;   -0,170;    1,682
522,907;13876,010;    0,466;   -0,136
523,491;13596,657;    0,557;    0,955
524,075;13612,359;    2,284;    0,591
524,659;13693,968;    1,466;    0,591
525,243;13144,104;    1,739;    0,409
525,827;13390,150;    0,648;   -0,045
526,411;14254,877;   -1,989;   -0,136
526,995;14469,790;   -0,352;    1,409
527,579;14054,191;   -0,443;   -1,045
528,163;14361,187;    0,375;   -1,500
528,747;14252,534;    2,466;   -0,773
529,331;14585,366;   -0,080;   -1,409
529,915;14779,589;    1,738;    0,955
530,499;14745,103;   -0,807;    1,227
531,082;14472,002;   -0,534;    1,591
531,666;13900,582;    1,374;    0,773
532,250;14593,418;    1,284;    2,682
532,833;14928,715;    0,920;    2,773
533,417;14763,390;   -1,807;    0,864
534,001;14743,760;    1,647;   -0,318
534,584;15452,774;    0,374;    0,500
535,168;15256,221;    0,465;    1,409
535,751;15341,071;    0,647;    0,045
536,334;14770,375;   -0,898;   -0,409
536,918;15353,669;    0,011;    1,591
537,501;15494,718;   -0,899;    1,318
538,085;15476,015;   -0,444;    1,045
538,668;15670,354;    0,829;    2,409
539,251;16011,512;    1,829;    3,773
539,834;15958,043;    0,101;    0,773
540,418;15923,445;   -1,990;    4,318
541,001;16054,658;   -0,990;    1,773
541,584;16054,790;    2,101;    2,227
542,167;15782,945;    1,374;    2,955
542,750;15912,007;    1,919;   -0,773
543,333;15488,182;    0,555;    2,136
543,916;16289,409;    0,192;    2,500
544,499;16875,049;   -1,354;    0,227
545,082;16867,119;    1,374;    3,591
545,665;17029,941;    1,919;    1,500
546,248;17360,000;    1,010;   -0,318
546,830;17029,133;   -0,445;    1,955
547,413;17463,272;    1,010;   -0,773
547,996;17954,650;    0,555;    0,500
548,579;17741,223;    0,919;    0,955
549,161;17514,566;    1,828;    2,682
549,744;17292,684;   -0,809;    0,409
550,326;17827,964;   -0,809;   -1,136
550,909;17631,708;    2,737;    0,591
551,492;17999,397;   -0,263;    0,227
552,074;17787,313;   -0,173;   -1,318
552,657;18371,831;    2,373;    0,045
553,239;18102,939;   -0,173;   -0,773
553,821;17980,415;   -1,082;    1,045
554,404;17523,796;    1,282;    1,136
554,986;17925,656;    0,464;    1,045
555,568;18488,400;    1,191;   -0,955
556,151;17690,558;    1,191;   -0,227
556,733;17961,729;   -0,264;   -0,864
557,315;18436,022;    0,100;    0,500
557,897;18215,977;    0,554;   -0,500
558,479;18322,197;   -1,991;    1,318
559,061;18462,392;   -0,719;   -0,864
559,643;18815,312;   -0,264;    0,045
560,225;19196,834;    1,645;    2,864
560,807;19179,040;    0,918;    0,318
561,389;18692,665;    0,554;    2,318
561,971;19466,070;    0,463;    2,136
562,553;19223,700;   -1,628;    1,591
563,135;19393,085;   -0,537;    1,136
563,717;19000,232;    3,372;    1,136
564,298;19716,389;    3,645;   -0,045
564,880;19480,507;    0,645;   -1,409
565,462;19620,416;    0,645;    1,318
566,043;20750,878;   -0,446;    2,318
566,625;20336,238;    1,918;    1,227
567,207;20162,392;    1,099;    1,682
567,788;21336,864;   -1,264;    1,500
568,370;22147,192;    1,917;   -0,500
568,951;22012,675;    0,190;    0,227
569,533;22887,877;   -0,628;   -0,500
570,114;23316,032;   -0,446;    0,682
570,695;23809,531;   -0,174;   -1,318
571,277;24342,937;   -0,265;   -1,682
571,858;25148,024;    2,008;   -1,136
572,439;25962,220;    1,554;   -1,045
573,021;26151,891;    2,099;   -2,773
573,602;26664,391;   -1,265;    0,318
574,183;27590,587;   -2,083;    2,227
574,764;27735,726;   -1,629;    0,409
575,345;28260,037;    0,917;   -0,136
575,926;28845,314;   -0,356;    0,136
576,507;28768,206;    1,099;   -0,227
577,088;29922,356;    3,099;    1,682
577,669;29959,391;    0,735;    1,955
578,250;30742,405;    0,644;   -1,045
578,831;31395,764;   -1,356;   -2,227
579,412;31673,821;   -0,810;    0,955
579,993;32538,618;    1,008;    0,227
580,573;32846,835;   -0,629;   -0,955
581,154;31808,153;    0,735;   -0,591
581,735;32626,901;    0,644;    0,773
582,315;32194,992;   -0,629;    2,136
582,896;32416,817;   -0,174;    1,227
583,477;31823,901;    0,189;    1,227
584,057;32086,314;    0,553;    0,955
584,638;32434,709;    2,553;    2,318
585,218;32418,307;   -0,538;    2,682
585,799;32551,674;    0,281;   -0,227
586,379;32547,083;    0,372;    1,591
586,959;31246,831;    0,735;    0,318
587,540;30523,841;   -0,629;    2,227
588,120;30064,607;    1,007;   -0,045
588,700;29089,649;    2,553;    2,136
589,281;29420,135;    0,462;   -0,955
589,861;29420,824;    0,099;   -1,682
590,441;29211,688;    2,371;   -2,682
591,021;28154,523;   -0,265;   -2,591
591,601;28367,181;   -0,537;    0,500
592,181;28394,381;   -0,719;   -0,773
592,761;27703,855;    0,007;    1,409
593,341;27580,342;   -0,901;    0,045
593,921;27612,870;   -0,265;    1,591
594,501;27525,226;   -0,538;    1,318
595,081;27370,804;    0,917;   -0,318
595,661;27736,447;   -1,447;    0,955
596,240;28256,576;   -0,537;    0,136
596,820;27982,724;    0,372;    1,955
597,400;28114,741;    2,008;    0,773
597,980;28258,398;    2,008;    1,045
598,559;28215,094;    2,735;   -0,227
599,139;27954,206;   -0,174;   -1,227
599,718;27909,206;   -0,174;   -0,409
600,298;28191,580;    0,735;    0,682
600,877;28424,772;    2,917;    1,409
601,457;28641,556;    2,281;    1,136
602,036;28554,996;    0,190;    2,045
602,616;28782,213;    0,644;    1,682
603,195;29128,552;   -0,355;    3,500
603,774;28644,814;   -0,901;    2,045
604,354;28564,154;    0,826;   -0,500
604,933;28053,171;    0,463;    1,864
605,512;28132,951;    3,554;    0,591
606,091;28198,951;   -0,537;    3,773
606,671;29035,710;    0,281;    0,773
607,250;28175,262;    1,644;    3,136
607,829;28395,455;    2,372;    3,227
608,408;28222,913;    1,190;    2,591
608,987;27192,714;    1,281;    3,409
609,566;27497,996;   -1,265;   -2,500
610,145;27679,514;   -1,082;    0,682
610,723;28028,469;    4,372;    6,864
611,302;27279,410;   -0,446;    1,682
611,881;26810,801;    5,008;   11,227
612,460;27645,144;    1,645;    3,955
613,039;28058,469;   -0,082;    2,045
613,617;26792,591;    1,736;    4,773
614,196;26975,903;    1,099;    1,227
614,775;27327,704;    1,009;    2,409
615,353;27283,816;    0,736;    0,864
615,932;27006,522;    0,100;    2,409
616,510;27616,427;    0,554;    0,591
617,089;27144,501;    7,100;   17,591
617,667;26844,707;    2,372;    6,136
618,246;26730,061;   -1,537;    1,318
618,824;26947,134;   -3,355;   -0,955
619,402;26467,501;   -2,900;   -1,773
619,981;26995,001;   -0,173;   -1,045
620,559;26780,666;    0,009;    1,682
621,137;26275,019;   -0,718;    1,864
621,715;26333,519;   -1,173;   -0,682
622,293;26300,166;   -0,537;   -0,773
622,871;26694,022;   -0,718;    0,500
623,450;26299,215;    0,373;   -0,864
624,028;26179,148;    0,191;   -0,955
624,606;25793,323;   -1,718;    1,682
625,183;26190,607;   -1,536;   -1,136
625,761;25813,058;    1,009;    1,136
626,339;26143,309;    1,373;    2,591
626,917;26522,530;   -0,172;   -0,045
627,495;26506,481;   -0,354;    1,318
628,073;25923,279;   -0,263;    2,864
628,650;25645,876;    0,100;    2,136
629,228;26097,233;    0,373;    4,409
629,806;25536,247;    2,282;    1,136
630,383;25772,702;    1,464;   -0,318
630,961;25592,551;    2,555;   -0,955
631,539;25324,663;    2,464;    0,227
632,116;24705,642;   11,373;   15,409
632,694;25233,890;    2,555;    6,500
633,271;25528,265;    0,828;    2,682
633,848;25473,859;    1,828;    2,045
634,426;25523,381;   -1,081;    1,773
635,003;24617,951;    1,101;   -0,409
635,580;24964,210;    1,192;    3,682
636,158;25502,185;    3,737;    1,227
636,735;25464,569;    0,555;   -0,500
637,312;25606,663;   -0,809;   -0,682
637,889;25704,604;   -4,354;   -0,682
638,466;25180,825;   -3,990;   -0,409
639,043;25142,847;    2,101;   -1,136
639,620;25461,085;   -2,262;   -0,955
640,197;25814,210;    1,100;    1,682
640,774;25906,264;   -0,172;    1,136
641,351;26326,227;    0,737;    1,136
641,928;25797,190;   -0,627;    1,409
642,505;25406,062;    0,828;   -0,500
643,082;25531,935;   -1,718;    1,227
643,658;24572,170;   -0,718;    1,500
644,235;25322,497;    1,191;    2,500
644,812;25655,551;    1,918;    0,773
645,388;25363,787;   -0,991;    1,409
645,965;25439,113;   -0,809;    1,682
646,542;25539,167;   -1,445;   -0,227
647,118;25541,039;    1,009;   -0,955
647,695;25824,366;   -0,263;    1,136
648,271;25749,783;   -0,536;    0,500
648,848;26058,474;    0,736;    2,227
649,424;25839,800;    0,827;    1,318
650,000;25643,309;   -0,354;   -1,045
650,577;25409,545;   -0,627;   -0,955
651,153;25892,144;   -1,809;    0,955
651,729;26895,107;    1,191;    0,864
652,305;27421,343;    0,645;    2,773
652,881;32538,942;   -0,082;    1,136
653,458;39401,178;    1,100;    0,227
654,034;42750,777;    0,282;    1,591
654,610;44009,558;    0,554;    0,773
655,186;45233,794;    0,645;    3,045
655,762;44891,484;   -0,991;    0,409
656,338;44788,902;    0,100;    0,136
656,913;45719,138;   -0,082;    0,409
657,489;44976,010;    0,827;   -0,318
658,065;44917,609;   -0,173;   -1,591
658,641;45566,481;   -0,900;   -0,864
659,217;44818,081;   -0,991;    0,409
659,792;44240,680;    0,645;   -0,409
660,368;44476,643;   -2,173;   -0,682
660,944;43816,151;   -2,082;    1,227
661,519;38652,569;   -0,628;    0,409
662,095;32784,350;   -1,719;    0,591
662,670;28606,495;    1,281;   -0,136
663,246;27694,458;    1,009;   -0,409
663,821;27122,239;    0,281;    1,682
664,396;26652,566;    0,009;    1,864
664,972;26888,529;    0,009;   -0,500
665,547;27239,765;    1,372;    0,136
666,122;27332,637;   -1,082;    0,318
666,698;27617,418;   -0,173;    0,318
667,273;26948,290;   -0,173;    0,136
667,848;27773,253;    2,372;    1,500
668,423;27549,489;    2,190;    2,318
668,998;28052,543;    2,827;   -0,682
669,573;28629,233;   -3,264;   -1,500
670,148;28505,469;   -1,446;   -0,682
670,723;28292,977;   -1,810;    0,318
671,298;28700,940;    2,372;    1,045
671,873;28842,721;   -0,082;   -0,136
672,448;28753,230;    0,645;    0,136
673,023;29083,193;   -1,992;   -0,227
673,597;29422,883;    0,827;    2,318
674,172;29205,573;   -0,355;    0,318
674,747;28645,264;    0,372;   -1,045
675,321;28459,136;   -0,628;    3,318
675,896;28054,099;    0,645;    1,045
676,471;29060,062;    2,645;    1,591
677,045;28807,479;   -1,264;    0,682
677,620;28883,442;    0,190;    1,136
678,194;29156,951;   -2,628;    1,136
678,769;28742,732;   -1,083;   -0,318
679,343;29021,150;   -0,628;    1,773
679,917;28952,567;   -1,446;    1,955
680,492;28962,894;    0,826;    3,227
681,066;29147,948;    3,372;    0,409
681,640;29146,820;    1,463;   -0,318
682,214;30005,146;    0,735;    0,500
682,788;29548,018;   -1,356;   -0,773
683,363;29501,891;   -1,810;    1,682
683,937;29165,308;   -1,719;   -0,318
684,511;29925,817;    0,463;   -0,591
685,085;29618,052;   -1,356;    0,318
685,659;29328,924;   -2,538;    0,864
686,232;29655,433;   -0,356;   -0,318
686,806;29356,941;   -0,901;    0,409
687,380;30001,177;   -0,174;    0,591
687,954;30186,140;   -1,174;    1,136
688,528;29852,830;   -0,719;    1,955
689,101;30692,884;   -3,992;    1,045
689,675;30253,393;   -0,356;   -0,136
690,249;29671,719;   -0,719;    0,409
690,822;29951,137;    0,280;    0,318
691,396;30069,009;   -0,265;    1,227
691,969;29470,608;    1,280;    0,136
692,543;29949,662;   -0,447;   -1,955
693,116;29558,989;   -0,265;   -1,409
693,690;29528,861;    0,099;    0,500
694,263;30082,097;   -1,083;    2,955
694,836;30104,333;    1,371;    3,591
695,410;28681,932;   -0,265;    1,773
695,983;29178,350;    0,189;    0,591
696,556;29123,585;   -0,447;   -1,045
697,129;29527,094;   -0,356;    1,409
697,703;29187,148;   -1,629;    1,955
698,276;29129,292;    1,462;   -0,773
698,849;28970,165;    1,280;    1,409
699,422;29311,673;   -1,083;    0,591
699,995;29002,636;    0,007;    0,136
700,568;29545,417;   -0,629;    3,045
701,140;29558,926;   -2,811;    1,682
701,713;29261,616;   -0,174;    2,409
702,286;29014,397;   -0,538;    0,864
702,859;28939,178;   -0,902;   -0,591
703,432;28090,505;    0,825;    0,682
704,004;28527,650;    0,462;    0,318
704,577;28464,704;   -0,629;    0,136
705,150;29041,303;    0,189;    2,500
705,722;28781,630;   -0,356;   -3,227
706,295;28582,593;   -0,175;   -0,591
706,867;28468,283;   -0,175;    1,955
707,440;28686,246;   -1,720;   -0,409
708,012;28951,027;    0,462;    0,591
708,584;28833,172;    2,462;    0,227
709,157;29060,953;    1,825;   -0,591
709,729;28744,007;    2,280;    2,045
710,301;29615,516;    0,734;    0,045
710,874;29644,842;   -1,447;   -0,227
711,446;28506,896;    0,371;    0,864
712,018;28395,041;    0,098;    0,500
712,590;28076,368;   -1,993;    1,682
713,162;28623,331;    0,825;    1,318
713,734;28889,657;    1,825;   -2,045
714,306;28820,529;   -1,902;   -0,409
714,878;27453,220;    0,825;    0,864
715,450;28264,546;    0,643;    0,864
716,022;28540,237;    1,552;    1,318
716,593;28690,381;    0,189;    0,591
717,165;28647,435;   -3,175;   -1,227
717,737;28356,035;    0,280;    0,409
718,309;27994,271;    0,280;   -0,045
718,880;27978,415;   -0,539;   -1,409
719,452;28209,560;   -0,175;   -1,591
720,024;27751,796;    0,734;   -0,591
720,595;28338,486;   -2,902;    0,955
721,167;27884,540;    0,370;   -2,045
721,738;27394,685;   -0,812;   -1,045
722,309;27404,830;   -0,993;   -1,227
722,881;27175,247;   -1,357;    0,773
723,452;27763,756;   -2,630;    2,864
724,023;27956,446;   -0,721;    2,682
724,595;27763,500;    0,007;    0,682
725,166;27510,008;    0,007;   -0,409
725,737;27188,881;    1,734;    0,227
726,308;27227,662;   -0,266;    0,318
726,879;27674,352;   -1,630;    1,227
727,450;27478,497;    0,552;   -0,045
728,021;27448,823;    3,097;    0,682
728,592;27299,877;    0,734;    0,500
729,163;27586,022;    0,643;   -0,136
729,734;27622,894;    0,188;   -0,227
730,305;27976,676;    1,734;    0,136
730,876;28394,184;    0,188;    2,955
731,447;28094,420;    2,188;    2,682
732,017;28165,474;    1,097;    1,864
732,588;27657,528;    0,734;    1,227
733,159;27842,400;    0,643;   -1,045
733,729;27638,363;    0,006;    0,409
734,300;26957,507;    0,915;    0,864
734,870;27342,107;    3,461;    0,591
735,441;27902,434;    0,370;   -0,591
736,011;27648,669;    0,643;   -1,591
736,582;27607,269;   -0,812;    0,045
737,152;27077,232;   -1,721;   -2,045
737,722;27530,013;   -0,267;   -0,682
738,293;27222,067;   -1,358;    1,318
738,863;27144,484;    2,461;    2,318
739,433;26934,811;    5,279;    0,318
740,003;27539,956;   -0,994;   -0,682
740,573;26957,101;    2,097;   -1,591
741,143;26936,609;   -1,085;    0,318
741,713;27724,845;    1,188;   -0,500
742,283;27430,990;    0,915;    1,591
742,853;27176,498;    1,915;    1,591
743,423;26610,643;    1,733;    0,045
743,993;26765,060;   -0,358;    1,500
744,563;26123,114;    0,097;   -0,864
745,133;26051,986;   -0,812;   -0,864
745,702;26740,768;   -0,267;    1,773
746,272;25921,822;   -0,176;    0,591
746,842;25728,148;   -1,358;   -0,591
747,411;26157,202;   -0,267;   -0,318
747,981;26317,529;    0,097;    0,500
748,551;26346,037;    2,278;   -1,045
749,120;26278,455;    0,642;   -0,227
749,690;26615,054;   -0,631;    2,409
750,259;26919,290;    1,369;    2,955
750,828;26871,617;    1,551;   -1,955
751,398;27158,670;    1,278;   -0,045
751,967;26692,997;    2,187;    0,409
752,536;26912,142;   -0,813;   -0,227
753,105;27318,923;    0,096;    0,227
753,675;27124,613;    0,096;    1,773
754,244;27028,849;   -0,904;    3,591
754,813;27038,358;    0,551;    1,227
755,382;26599,502;    0,460;    0,955
755,951;27190,284;    1,551;    3,682
756,520;26737,701;   -0,085;    1,864
757,089;27318,028;    0,278;    0,500
757,658;27460,900;    1,733;    1,227
758,227;27430,499;    1,096;    0,318
758,795;27757,099;    1,187;    1,136
759,364;27954,334;   -0,086;   -0,591
759,933;26965,570;   -1,176;   -0,045
760,501;26433,351;    0,733;   -1,318
761,070;26927,133;   -2,813;   -1,409
761,639;27659,277;   -1,904;    1,318
762,207;27007,604;    1,551;   -0,955
762,776;26969,385;    0,369;    0,864
763,344;26904,712;   -0,995;    0,591
763,913;25978,038;   -0,722;    1,409
764,481;26727,547;    1,005;   -0,136
765,049;26503,965;   -1,358;    1,409
765,618;26401,200;   -0,086;    0,318
766,186;26470,891;    0,278;    0,136
766,754;26707,944;    0,005;    1,864
767,322;25646,635;   -1,995;    0,409
767,890;25719,870;   -0,722;   -1,773
768,459;26107,197;   -2,177;   -0,318
769,027;26308,251;    1,641;    3,409
769,595;25249,305;    3,278;    2,591
770,163;25636,541;    3,823;    2,955
770,730;25435,322;    0,732;   -0,136
771,298;25236,012;    0,187;   -1,409
771,866;25301,521;   -1,541;    4,955
772,434;25631,484;   -0,631;   -1,864
773,002;25851,901;    0,005;    0,682
773,569;25493,137;    0,914;    1,682
774,137;25327,464;   -0,268;   -0,045
774,705;26054,063;    0,278;   -0,136
775,272;25581,299;    0,641;    0,682
775,840;25318,080;   -0,177;    2,682
776,407;24854,588;    0,277;    1,955
776,975;24476,188;   -0,632;    0,318
777,542;25480,242;   -1,086;   -0,045
778,110;25283,750;   -1,268;   -0,045
778,677;24968,531;   -2,359;   -0,864
779,244;24760,040;    2,186;    1,045
779,812;24889,821;    1,823;    0,864
780,379;24760,602;    0,005;    1,136
780,946;24984,474;    1,005;   -0,773
781,513;25318,801;   -1,450;    0,318
782,080;24687,673;   -0,086;    2,864
782,647;25442,272;   -0,268;    3,045
783,214;24983,690;   -0,177;    3,864
783,781;24609,562;   -0,723;   -0,682
784,348;24518,616;   -0,632;    1,500
784,915;24911,761;   -3,177;    0,318
785,482;24674,815;    1,368;    2,591
786,049;25134,869;    0,186;   -0,591
786,615;25237,650;    0,277;   -0,955
787,182;24994,067;    0,186;   -0,682
787,749;24691,667;   -2,814;    1,409
788,315;24014,448;   -1,632;   -0,409
788,882;24301,138;    1,550;   -1,227
789,448;24992,556;    1,732;   -0,955
790,015;24988,155;    1,095;    3,227
790,581;24565,845;    1,459;    0,227
791,148;24516,899;    0,641;    1,045
791,714;24681,862;   -0,541;    3,136
792,280;24332,098;    0,186;    1,591
792,847;23892,516;    0,550;    2,500
793,413;24442,751;   -0,269;   -0,318
793,979;24001,260;    3,459;   -1,318
794,545;24162,041;    4,459;    2,682
795,111;23609,913;    2,186;    1,318
795,678;23746,876;    0,731;   -1,682
796,244;23372,021;    3,368;    0,136
796,810;23931,257;    1,731;    0,773
797,375;23638,583;    0,549;   -2,136
797,941;23636,637;   -0,541;    0,591
798,507;23794,418;   -0,451;   -0,955
799,073;23332,563;   -0,360;    0,591
799,639;23403,163;   -2,632;    3,136
800,205;23428,762;    0,095;    2,682
800,770;22962,816;    0,640;    1,773
801,336;23049,233;    1,368;   -0,955
801,901;22802,651;    4,549;    3,136
802,467;23338,523;   -0,542;    2,045
803,033;22658,122;   -0,087;    0,864
803,598;22865,631;    1,913;   -1,045
804,163;22938,776;    1,095;   -0,318
804,729;22892,648;   -0,178;    1,136
805,294;23282,520;    0,822;    2,227
805,859;23034,756;    0,731;   -0,409
806,425;22541,446;    1,186;    2,682
806,990;22196,045;    2,186;    4,318
807,555;22705,645;   -1,451;    2,591
808,120;22552,244;    0,822;   -0,409
808,685;22562,025;    0,185;   -2,500
809,250;22089,170;    0,004;   -0,500
809,815;22413,679;    1,913;    0,682
810,380;22998,369;   -0,269;    1,591
810,945;23520,423;   -1,087;    2,045
811,510;22631,840;    2,094;    1,591
812,075;22375,622;   -0,633;   -1,409
812,640;22402,675;    2,003;    1,409
813,204;22471,002;    0,822;   -0,227
813,769;22941,783;    2,094;   -0,045
814,334;22355,019;    0,458;    0,864
814,898;22395,709;    0,367;    0,591
815,463;22288,036;    1,276;   -0,773
816,027;22282,181;   -0,724;   -2,318
816,592;22290,689;    0,640;   -2,045
817,156;21850,198;    2,094;    1,136
817,721;21718,706;    4,276;    2,318
818,285;21693,487;    2,912;    1,500
818,849;22314,905;   -1,451;    1,682
819,414;22186,959;   -0,269;    2,955
819,978;21734,740;   -1,269;    1,773
820,542;22378,976;    2,003;    0,500
821,106;22060,484;   -0,815;    0,682
821,670;22184,720;   -0,815;    2,591
822,234;21893,956;   -0,270;    1,409
822,798;21268,373;    0,003;    0,500
823,362;21273,154;   -0,633;    4,227
823,926;20607,299;    0,094;    1,136
824,490;20809,626;   -0,997;   -0,682
825,054;21285,225;   -0,088;   -1,136
825,618;20871,097;   -1,542;   -1,500
826,181;20858,969;    0,458;   -1,318
826,745;20749,296;    1,367;   -1,045
827,309;21099,259;    1,185;    1,318
827,872;20481,040;    1,367;    0,955
828,436;21488,276;    1,185;   -0,773
828,999;21510,057;   -0,997;    1,227
829,563;20288,838;   -0,179;    1,136
830,126;20116,165;   -0,179;   -0,591
830,690;20193,583;   -1,997;    2,864
831,253;19627,364;   -0,543;    2,227
831,816;19796,418;   -1,906;    0,500
832,380;19744,108;    0,185;    0,864
832,943;19983,798;   -1,361;   -0,500
833,506;19409,852;    2,639;   -1,227
834,069;20180,724;    3,912;   -0,955
834,632;20240,051;    1,730;    1,318
835,195;20154,832;    1,003;    0,955
835,758;19335,613;   -0,997;    1,955
836,321;19246,395;    0,730;   -1,045
836,884;19313,630;   -0,725;   -0,955
837,447;19316,321;   -2,816;    1,773
838,010;19608,738;    0,366;    3,227
838,573;19903,428;   -1,179;    0,773
839,135;19809,119;   -1,361;   -0,955
839,698;19328,082;    1,275;    0,409
840,261;18840,408;    1,003;   -0,227
840,823;18669,917;   -0,543;    0,864
841,386;18972,971;   -0,452;   -2,409
841,948;18874,206;   -1,361;    1,773
842,511;18604,624;    0,912;    1,682
843,073;18785,769;    1,912;    0,227
843,636;18532,368;   -0,361;   -0,227
844,198;18516,149;    0,911;    0,591
844,760;18629,749;    1,093;    1,955
845,322;18258,166;    0,548;    1,136
845,885;18673,402;    0,730;    0,591
846,447;19129,638;   -1,998;    0,227
847,009;18756,055;    1,911;   -0,682
847,571;19034,200;    0,820;   -2,045
848,133;19120,618;   -1,089;   -1,864
848,695;18916,581;   -0,543;    1,409
849,257;18510,544;   -1,089;   -1,682
849,819;18714,416;   -0,998;   -0,409
850,381;18704,833;   -0,725;   -0,864
850,942;19105,251;    1,093;   -0,591
851,504;19091,032;    1,184;    0,227
852,066;19085,541;    1,275;   -1,591
852,628;18610,231;   -0,180;    1,955
853,189;18132,376;    1,638;    2,682
853,751;18247,884;   -0,907;    1,409
854,312;18071,393;   -0,453;   -1,682
854,874;18570,537;   -2,089;   -0,773
855,435;19066,773;   -0,907;   -1,682
855,997;19272,373;   -1,816;   -0,136
856,558;18542,881;    0,366;    1,773
857,119;18650,390;    0,820;    2,864
857,681;18356,898;    0,002;    0,318
858,242;18399,406;    1,911;   -2,136
858,803;18807,460;    0,456;   -0,773
859,364;19343,787;    0,184;   -4,773
859,925;18672,114;   -2,453;   -0,955
860,486;18590,895;   -0,453;   -0,955
861,047;18285,494;   -0,544;   -1,227
861,608;18139,185;   -1,089;   -0,773
862,169;18229,693;    0,638;   -0,045
862,730;18035,656;    0,456;    1,409
863,291;18257,801;   -0,635;   -0,500
863,852;18638,673;   -0,635;    1,955
864,412;18095,181;   -0,271;   -0,864
864,973;16691,417;   -0,089;    0,500
865,534;16588,744;   -1,726;    0,227
866,094;18081,161;    1,820;    0,227
866,655;17742,852;    1,274;    3,318
867,215;17989,906;    0,274;    0,136
867,776;17822,414;    0,547;   -0,136
868,336;17890,922;   -1,453;    0,136
868,897;17436,249;    2,638;    1,682
869,457;17165,758;    1,365;    0,318
870,017;17383,902;    0,547;   -1,227
870,578;17921,593;   -0,817;    0,773
871,138;17595,192;   -2,089;   -0,955
871,698;17186,428;   -0,817;   -1,318
872,258;17079,936;   -0,453;   -2,864
872,818;17401,081;    2,729;    0,045
873,378;17359,680;    0,638;    1,045
873,938;16875,734;    0,547;    0,500
874,498;17202,879;    0,274;   -1,955
875,058;17160,479;    2,183;    1,773
875,618;16968,805;    1,910;   -2,682
876,177;16887,495;    1,274;    0,136
876,737;16507,913;   -0,090;    1,955
877,297;16548,421;    0,183;    1,955
877,856;16581,657;   -0,362;    0,318
878,416;16508,348;    1,183;   -0,136
878,976;16727,765;   -1,817;    0,409
879,535;16853,819;    0,092;    3,136
880,095;16625,691;   -0,544;    0,045
880,654;16775,745;   -1,090;    1,318
881,213;16889,708;    2,456;    1,500
881,773;16536,762;    2,637;    2,682
882,332;16888,179;    3,365;    5,136
882,891;16683,052;    3,092;    2,136
883,451;17183,924;   -1,272;    1,682
884,010;16617,068;   -2,908;   -0,409
884,569;16683,850;   -0,999;   -0,045
885,128;16844,631;    2,819;   -1,864
885,687;16919,958;    4,455;    0,682
886,246;16636,648;    1,455;    2,136
886,805;16401,247;    2,455;    2,045
887,364;16663,483;   -0,999;   -0,500
887,922;17016,628;   -1,181;    0,045
888,481;16538,045;   -1,545;    0,591
889,040;16821,281;    1,183;    2,136
889,599;17498,971;    2,455;    1,409
890,157;17617,025;    1,455;    2,409
890,716;17220,170;   -0,090;    0,227
891,274;17020,042;    0,092;   -1,136
891,833;17486,823;    1,546;    0,864
892,391;17357,332;   -0,454;    0,500
892,950;17442,113;    1,819;   -0,773
893,508;17834,167;    0,455;   -0,409
894,067;17149,857;    0,637;    0,136
894,625;17016,184;   -0,636;   -1,500
895,183;17221,329;   -0,363;   -0,682
895,741;17136,383;    1,728;   -1,773
896,299;16980,618;   -0,545;   -2,409
896,858;17142,218;    0,819;   -1,591
897,416;17297,453;    2,728;   -1,318
897,974;17042,507;    1,819;    0,318
898,532;17237,470;    6,091;    2,682
899,089;17124,888;    2,091;   -0,682
899,647;17187,033;   -1,454;    1,318
900,205;16894,723;    1,182;    1,045
900,763;17055,413;   -0,454;    0,227
901,321;17099,740;    2,364;   -1,409
901,878;16488,521;   -1,000;   -0,773
902,436;16400,211;   -1,363;    1,318
902,994;16828,629;    4,728;    3,682
903,551;16224,319;    0,728;    0,409
904,109;16571,828;    0,182;   -1,409
904,666;16146,973;    2,455;    1,045
905,224;15949,481;    0,182;   -0,409
905,781;15724,535;    0,727;   -0,318
906,338;15800,771;   -1,363;    1,045
906,895;15750,006;    0,637;    2,045
907,453;15719,333;    1,727;    1,136
908,010;15736,023;   -0,909;    0,409
908,567;15402,986;    1,273;    0,591
909,124;14849,949;    0,364;   -1,500
909,681;14912,367;   -2,909;    0,682
910,238;15063,330;    0,636;   -1,318
910,795;15412,020;   -0,273;   -1,136
911,352;15045,111;   -2,909;   -2,682
911,909;14435,111;   -1,364;   -0,864
912,466;14930,838;   -3,182;    1,500
913,022;14495,657;   -1,636;    0,500
913,579;14884,475;   -0,909;    2,045
914,136;14543,111;    1,636;    0,955
914,692;14907,747;    0,091;   -1,227
915,249;14493,838;    1,455;    0,409
915,806;14717,020;    0,182;    1,955
916,362;14480,566;    1,909;    1,864
916,918;14018,657;    2,000;    1,045
917,475;13992,475;   -1,182;    0,955
918,031;14077,202;    3,364;   -0,045
918,587;13538,020;   -0,909;   -0,318
919,144;13777,657;   -2,273;    0,227
919,700;14034,838;    1,727;    0,773
920,256;13629,293;    0,727;    0,045
920,812;13266,202;   -0,727;   -1,045
921,368;13251,111;   -1,727;   -1,045
921,924;12893,020;    0,182;   -0,136
922,480;12484,111;   -0,545;    1,227
923,036;13088,020;    1,273;    1,955
923,592;13017,747;    0,455;    0,318
924,148;12949,929;    0,455;   -0,955
924,704;12252,747;   -1,364;   -0,409
925,259;12506,293;   -0,273;    0,591
925,815;12275,020;    1,455;    0,500
926,371;11743,566;    2,909;    1,409
926,926;11680,293;    2,091;    0,591
927,482;11329,202;   -1,364;    0,773
928,037;11214,838;    0,909;    2,045
928,593;11512,111;    1,636;    1,045
929,148;11340,020;   -1,818;   -1,500
929,704;10847,384;   -1,455;   -0,500
930,259;11038,747;    0,091;   -0,136
930,814;10127,747;   -0,818;    1,955
931,369; 9802,202;    1,091;   -0,773
931,925; 9655,657;   -0,091;    0,136
932,480; 9616,747;   -2,818;   -2,591
933,035; 9466,657;    0,545;   -0,318
933,590; 9228,202;    0,364;   -1,773
934,145; 8886,384;   -1,364;   -0,318
934,700; 9207,020;    0,455;   -0,591
935,255; 9026,020;   -0,091;    0,045
935,809; 8340,566;    3,182;    0,864
936,364; 7448,838;   -0,455;   -0,136
936,919; 7407,475;    0,455;   -1,773
937,474; 7280,293;    1,455;    0,136
938,028; 7040,475;   -1,636;    1,136
938,583; 6554,475;    1,818;    4,682
939,138; 6797,838;    2,091;    2,136
939,692; 6220,838;    1,636;   -1,136
940,247; 5957,929;   -0,727;   -1,045
940,801; 5515,838;   -0,636;    0,227
941,355; 5404,293;   -0,364;    2,591
941,910; 5023,475;   -0,273;   -2,136
942,464; 5151,475;   -0,818;   -0,318
943,018; 4969,657;    1,000;   -0,227
943,572; 4924,202;    2,545;   -0,682
944,126; 4355,293;    0,091;   -0,409
944,681; 4233,838;    3,091;    0,227
945,235; 4193,293;    1,000;   -0,591
945,789; 4135,384;    0,364;   -1,864
946,342; 4276,657;    0,455;   -0,591
946,896; 4065,747;   -2,273;    0,955
947,450; 3817,111;    1,545;   -0,227
948,004; 4001,566;    1,727;   -0,045
948,558; 4007,384;    0,273;   -0,864
949,111; 3939,566;   -0,273;   -0,318
949,665; 3980,929;    1,636;   -0,682
950,219; 3849,929;   -0,091;   -1,045
950,772; 3941,929;   -1,909;    1,864
951,326; 3850,384;    0,545;   -0,955
951,879; 3957,929;    0,727;   -2,318
952,433; 3960,202;    0,000;    2,227
952,986; 3796,747;    2,909;    0,682
953,539; 3745,384;   -0,273;    0,591
954,093; 3669,293;    0,545;   -1,318
954,646; 3812,384;    0,909;    1,318
955,199; 3628,020;    0,000;   -0,500
955,752; 3522,838;   -0,455;    1,773
956,305; 3469,202;   -0,091;    2,955
956,858; 3640,475;    0,818;   -0,318
957,411; 3816,111;   -0,545;    2,136
957,964; 3643,929;    1,364;    2,136
958,517; 3637,838;   -1,545;    3,136
959,070; 3454,293;   -0,455;    1,955
959,623; 3557,020;    1,091;    1,500
960,176; 3324,475;    1,727;    2,045
960,728; 3304,747;   -2,727;    0,773
961,281; 3352,566;    0,545;    0,500
961,834; 3410,020;   -0,909;    0,864
962,386; 3287,293;    1,727;    1,045
962,939; 3225,747;    0,364;   -0,318
963,491; 3381,657;    0,455;    1,136
964,043; 3247,020;    1,182;    2,409
964,596; 3373,657;   -1,000;    2,227
965,148; 3216,020;   -1,000;    1,773
965,700; 3122,566;    1,091;   -0,227
966,253; 3268,202;   -0,636;    0,318
966,805; 3113,020;   -2,273;    0,773
967,357; 3157,566;    1,091;   -1,500
967,909; 3137,293;    0,455;   -1,227
968,461; 3237,020;    0,545;    3,136
969,013; 3157,566;   -0,182;   -0,864
969,565; 3213,566;   -0,455;   -1,136
970,117; 3293,293;   -0,364;    1,045
970,669; 3130,747;    0,182;   -0,136
971,220; 2992,475;   -0,455;   -1,500
971,772; 2914,111;   -0,636;   -0,318
972,324; 3047,929;    0,091;   -0,500
972,876; 2991,202;    0,818;   -0,045
973,427; 3154,838;    1,909;   -1,045
973,979; 3103,111;   -0,727;   -2,500
974,530; 3147,929;    1,818;    1,318
975,082; 3131,202;   -0,545;    1,682
975,633; 3036,020;    1,091;    1,682
976,184; 3166,020;    0,909;    0,773
976,736; 2966,566;    0,091;    0,227
977,287; 2780,929;   -0,909;   -0,500
977,838; 2958,929;    0,909;   -0,318
978,389; 3024,929;   -1,000;   -0,500
978,940; 2896,202;    0,545;   -0,409
979,491; 2920,747;    0,091;   -0,500
980,042; 2878,566;    0,182;    3,045
980,593; 2919,020;   -2,545;    0,227
981,144; 2973,475;    2,545;   -0,500
981,695; 2950,566;    1,455;    1,500
982,246; 2909,657;   -0,273;    1,045
982,797; 3056,202;   -1,727;    0,682
983,347; 3152,293;    0,364;    0,591
983,898; 3339,020;    3,091;    0,409
984,449; 3159,929;    2,182;    0,773
984,999; 3056,747;    1,455;   -1,136
985,550; 2827,475;    0,182;   -0,318
986,100; 2873,202;   -0,455;   -0,318
986,651; 2896,657;   -0,818;    0,045
987,201; 2870,657;   -1,000;   -0,591
987,751; 2964,111;    0,818;    2,864
988,302; 2943,838;    2,636;    1,500
988,852; 2972,202;    0,455;   -1,136
989,402; 3022,475;    0,091;    0,682
989,952; 2937,475;   -2,182;    0,864
990,502; 3031,202;   -0,091;    0,682
991,052; 2985,657;   -0,727;    0,045
991,602; 2850,384;   -2,909;    1,318
992,152; 2848,475;    0,455;    0,682
992,702; 2827,929;    1,364;   -0,045
993,252; 2762,202;   -3,000;   -0,500
993,802; 2860,566;   -0,273;    1,318
994,352; 3097,384;   -1,545;    1,136
994,901; 3158,384;   -0,182;    3,227
995,451; 3077,747;   -0,182;    0,318
996,000; 3173,747;    1,636;    0,318
996,550; 2897,475;    2,273;    0,227
997,100; 2880,384;    1,273;   -0,045
997,649; 3165,475;    2,182;    0,955
998,198; 2790,566;    1,727;   -1,500
998,748; 3007,020;    1,091;   -2,318
999,297; 2920,293;   -0,818;   -0,409
999,846; 2972,566;    1,000;   -0,773
1000,395; 3006,202;   -0,818;    0,500
1000,945; 2981,202;    1,818;   -0,773
1001,494; 3063,020;    2,364;    0,682
1002,043; 3051,657;    4,636;    0,864
1002,592; 2870,475;   -1,091;    1,955
1003,141; 3014,111;   -0,455;   -0,682
1003,690; 2897,929;    1,727;    0,500
1004,238; 2975,293;    1,455;   -0,045
1004,787; 2601,475;    1,364;    1,227
1005,336; 2843,020;    0,364;    0,682
1005,885; 2978,293;    1,364;   -2,773
1006,433; 3116,929;    0,545;    0,955
1006,982; 3198,475;    0,455;    1,682
1007,531; 3096,566;   -1,818;   -0,227
1008,079; 3043,293;   -2,273;    0,500
1008,627; 3184,202;   -1,455;    0,409
1009,176; 2923,747;    0,000;   -1,955
1009,724; 2964,293;    1,091;    0,864
1010,273; 3023,020;    1,273;    0,500
1010,821; 3109,566;    0,091;    1,409
1011,369; 2862,747;   -1,364;    1,318
1011,917; 2833,747;   -1,364;   -0,591
1012,465; 3125,838;    1,273;   -1,591
1013,013; 3250,293;    2,091;   -1,682
1013,561; 3104,384;    0,455;   -0,773
1014,109; 3165,657;   -1,909;    1,682
1014,657; 3046,020;    0,364;    0,591
1015,205; 3162,566;    1,636;   -0,955
1015,753; 3191,202;   -0,545;   -1,409
1016,301; 3242,475;   -2,636;    3,045
1016,848; 3243,293;   -1,273;    0,409
1017,396; 3279,657;    2,545;    0,045
1017,944; 3409,657;    1,182;    1,864
1018,491; 3164,293;    0,273;    1,409
1019,039; 3334,111;    0,455;    0,591
1019,586; 3226,566;   -1,364;    1,682
1020,134; 3326,020;    0,455;    1,500
1020,681; 3352,838;    0,182;   -1,136
1021,228; 3336,566;    2,909;   -2,227
1021,776; 3168,202;    1,182;   -1,136
1022,323; 3402,111;    0,455;    0,773
1022,870; 3317,111;   -1,000;   -0,045
1023,417; 3226,657;    2,636;    1,864
1023,964; 3370,838;    2,636;    1,227
1024,511; 3196,475;    1,000;    0,773
1025,058; 3009,020;    3,182;   -0,045
1025,605; 3056,384;   -2,273;    3,136
1026,152; 3299,747;    1,727;   -0,591
1026,699; 3020,384;    1,818;    1,318
1027,245; 3170,111;   -0,091;    0,318
1027,792; 3363,929;   -1,000;    1,409
1028,339; 3266,475;    2,364;   -0,045
1028,885; 3113,202;    1,000;   -0,227
1029,432; 3047,838;   -0,091;    0,227
1029,978; 3122,838;   -1,000;   -1,591
1030,525; 3030,838;    1,000;    0,409
1031,071; 3254,475;   -1,364;    1,136
1031,618; 3379,020;    0,364;    1,682
1032,164; 3157,111;   -0,091;    3,045
1032,710; 3184,838;    1,636;   -1,500
1033,256; 3087,293;   -0,636;   -0,136
1033,803; 3080,293;   -0,545;    1,500
1034,349; 2804,566;   -1,364;    0,136
1034,895; 2951,566;    0,000;   -0,318
1035,441; 2934,384;   -0,818;    0,318
1035,987; 2950,475;   -2,364;   -0,682
1036,533; 2938,657;   -1,455;   -0,955
1037,078; 3162,202;    1,455;    1,682
1037,624; 2970,566;    2,455;   -0,955
1038,170; 2995,020;    0,455;   -0,318
1038,716; 2896,384;    1,636;   -0,409
1039,261; 2815,111;   -2,273;   -0,773
1039,807; 2759,384;   -0,091;    3,409
1040,352; 2812,111;   -1,909;   -0,318
1040,898; 2853,475;   -1,545;   -0,682
1041,443; 2780,657;   -1,455;   -2,591
1041,989; 2819,111;    1,091;    1,591
1042,534; 2674,384;   -0,364;    2,591
1043,079; 2761,838;    2,909;    0,955
1043,625; 2573,929;    1,818;    0,500
1044,170; 2628,384;   -1,364;    1,045
1044,715; 2885,747;    2,455;    0,955
1045,260; 2692,838;    2,182;   -0,955
1045,805; 2735,566;    1,182;   -0,591
1046,350; 2662,747;    1,364;   -0,409
1046,895; 2635,838;    2,909;    1,591
1047,440; 2601,384;    5,364;    0,409
1047,985; 2502,384;    2,818;   -0,955
1048,530; 2402,111;    1,545;    1,227
1049,074; 2473,111;    0,000;    0,318
1049,619; 2432,202;   -1,364;    1,955
1050,164; 2241,475;    0,455;    0,227
1050,708; 2298,202;   -0,455;    0,045
1051,253; 2667,838;    1,273;   -2,227
1051,797; 2372,475;    0,818;   -1,318
1052,342; 2369,929;   -1,182;    1,045
1052,886; 2379,929;    0,364;   -1,409
1053,430; 2245,747;   -1,364;    0,136
1053,975; 2273,657;   -0,818;   -0,318
1054,519; 2254,838;   -0,727;    3,227
1055,063; 2277,020;    0,909;    1,318
1055,607; 2154,111;   -0,182;    0,227
1056,151; 2179,838;    2,909;    1,682
1056,695; 2090,657;    2,273;   -1,136
1057,239; 2157,929;   -1,727;   -0,682
1057,783; 2165,929;    0,818;   -1,500
1058,327; 2115,111;    0,000;    1,409
1058,871; 2358,838;   -0,545;    1,318
1059,415; 2063,111;   -0,818;   -0,045
1059,958; 2338,929;    1,455;    2,591
1060,502; 2047,293;   -1,000;   -0,773
1061,046; 1949,838;    0,364;   -0,955
1061,589; 1913,929;   -3,000;   -1,136
1062,133; 1798,475;   -1,273;    1,864
1062,676; 1745,747;    1,182;    0,864
1063,220; 1760,384;    1,091;    0,500
1063,763; 1784,475;    0,909;    1,136
1064,306; 1867,111;   -0,909;    1,864
1064,849; 1760,293;   -0,909;    0,591
1065,393; 1755,293;    2,000;   -1,500
1065,936; 1881,475;    0,182;   -0,409
1066,479; 1746,111;   -1,455;    1,318
1067,022; 1761,929;   -0,273;   -0,227
1067,565; 1661,657;   -0,091;   -1,318
1068,108; 1675,475;    0,727;   -0,591
1068,651; 1661,384;   -0,636;    1,409
1069,194; 1598,657;   -0,455;   -1,682
1069,736; 1589,384;   -1,273;    0,955
1070,279; 1569,566;   -1,364;   -0,500
1070,822; 1624,020;   -2,000;   -0,318
1071,364; 1723,293;   -0,364;    1,318
1071,907; 1541,657;   -0,727;    3,227
1072,450; 1438,566;    0,000;   -0,045
1072,992; 1447,838;   -0,273;    3,136
1073,535; 1592,566;    2,091;    2,136
1074,077; 1373,384;   -0,727;    2,045
1074,619; 1347,475;   -1,364;    0,591
1075,161; 1383,202;   -1,091;    1,500
1075,704; 1574,838;    1,545;    1,227
1076,246; 1350,020;   -0,182;    0,682
1076,788; 1270,293;   -0,364;    1,773
1077,330; 1332,293;    1,273;    2,136
1077,872; 1316,657;    0,909;    0,955
1078,414; 1559,475;    2,727;    0,773
1078,956; 1276,202;    1,273;   -0,227
1079,498; 1550,657;    1,636;    0,318
1080,040; 1254,020;    1,909;   -1,318
1080,581; 1198,929;    1,636;   -0,318
1081,123; 1111,293;    0,091;   -0,773
1081,665; 1163,657;   -1,182;   -0,955
1082,206; 1472,020;    1,364;   -0,500
1082,748; 1309,475;    0,727;    2,045
1083,289; 1189,929;   -2,000;    1,318
1083,831; 1117,475;   -0,545;    0,227
1084,372; 1157,475;    0,000;    0,591
1084,913; 1147,838;    1,091;    0,864
1085,455; 1113,566;   -1,909;   -2,045
1085,996; 1082,202;   -2,273;    0,136
1086,537; 1112,202;   -0,091;    0,864
1087,078; 1147,657;   -0,909;   -2,136
1087,619; 1192,657;   -1,273;    0,227
1088,160; 1103,293;    0,000;    1,318
1088,701; 1086,384;   -1,091;    0,682
1089,242; 1023,384;    1,364;   -2,227
1089,783; 1135,020;   -0,273;    1,409
1090,324; 1096,929;    0,455;    0,682
1090,865;  977,020;    2,727;   -0,409
1091,405;  919,838;    0,727;    2,227
1091,946;  959,384;    0,182;   -0,955
1092,487;  883,020;    0,818;   -1,409
1093,027; 1071,566;   -1,364;   -1,500
1093,568;  908,202;   -0,364;    1,227
1094,108; 1020,384;    0,273;    1,773
1094,649;  951,111;   -1,182;    0,136
1095,189;  889,111;   -0,636;   -0,682
1095,729;  841,657;   -0,091;    0,955
1096,269;  835,747;    0,727;   -0,955
1096,810; 1164,838;   -1,364;    0,500
1097,350;  984,747;    1,364;   -0,773
1097,890;  892,020;    0,364;    1,227
1098,430; 1146,929;    2,364;    2,864
1098,970; 1028,566;    2,182;    1,682
1099,510;  877,657;    0,545;   -2,318
1100,050;  805,111;    1,000;   -1,591
1100,589;  775,111;   -0,727;   -0,318
1101,129;  902,838;    0,818;   -0,955
1101,669; 1056,384;    1,727;    2,136
1102,209;  876,475;   -0,091;    2,227
1102,748;  824,838;    0,000;    0,955
1103,288;  817,747;    1,273;   -1,227
1103,827;  852,384;    3,091;   -2,227
1104,367;  710,838;   -0,091;   -2,409
1104,906;  683,384;    1,364;   -1,136
1105,445;  759,202;    0,636;   -1,136
1105,985;  716,202;   -0,727;    1,500
1106,524;  754,293;   -1,727;   -0,682
1107,063;  729,929;   -2,727;    1,409
1107,602;  701,111;   -1,909;   -1,500
1108,141;  616,747;   -1,909;    1,500
1108,680;  727,475;   -3,455;   -0,591
1109,219;  659,929;   -0,909;   -0,500
1109,758;  657,475;    0,455;    0,682
1110,297;  633,111;    1,000;   -0,682
1110,836;  580,747;   -0,727;    0,955
1111,375;  755,111;   -2,545;    0,409
1111,913;  748,202;   -1,000;    0,773
1112,452;  691,111;   -0,273;    0,136
1112,991;  568,111;    1,091;    1,955
1113,529;  529,293;   -0,818;   -0,045
1114,068;  606,293;   -0,273;    2,955
1114,606;  506,929;   -0,364;   -0,955
1115,144;  670,020;   -1,273;    1,045
1115,683;  613,020;   -0,727;    0,318
1116,221;  667,202;   -0,455;   -0,864
1116,759;  564,566;    0,636;   -0,864
1117,297;  767,838;    0,000;    1,864
1117,836;  568,111;   -2,182;   -1,227
1118,374;  578,384;    0,182;   -0,682
1118,912;  528,657;    0,909;    2,682
1119,450;  513,202;    1,000;    0,864
1119,988;  567,202;    1,545;    2,136
1120,525; 1031,111;    5,091;    3,318
1121,063;  726,384;    1,182;    1,864
1121,601;  513,475;   -0,909;   -1,227
1122,139;  472,657;   -0,727;   -2,045
1122,676;  681,202;   -0,727;    2,773
1123,214;  606,202;   -1,182;    4,409
1123,751;  416,929;    1,727;    2,227
1124,289;  558,475;   -0,091;   -0,409
1124,826;  418,384;    1,727;    0,227
1125,364;  351,020;    1,727;   -0,955
1125,901;  545,657;    1,182;    1,227
1126,438;  660,384;    0,818;    0,955
1126,975;  374,566;   -0,727;   -0,773
1127,513;  450,020;    0,273;    2,136
1128,050;  348,293;    1,636;   -0,682
1128,587;  453,657;    2,000;   -0,227
1129,124;  498,657;    0,091;    1,318
1129,661;  346,566;    0,273;    0,227
1130,198;  525,202;    1,636;    0,773
1130,734;  476,657;    0,182;    1,409
1131,271;  323,747;   -0,909;    0,864
1131,808;  505,838;    2,909;    3,045
1132,345;  371,384;    1,545;    0,318
1132,881;  233,838;   -1,545;   -1,864
1133,418;  388,293;    0,727;   -1,136
1133,954;  319,566;    2,455;   -2,682
1134,491;  408,202;    1,364;   -0,773
1135,027;  295,747;    2,364;    0,864
1135,564;  392,838;    0,273;    2,955
1136,100;  364,657;    0,364;    2,136
1136,636;  250,566;   -1,273;   -1,045
1137,172;  363,293;    0,000;   -1,045
1137,708;  279,657;   -1,364;   -1,045
1138,245;  273,747;    1,273;   -1,227
1138,781;  219,747;    1,091;   -3,318
1139,317;  300,293;    1,273;   -1,409
1139,852;  293,929;    3,091;    0,136
1140,388;  412,657;   -1,182;   -0,409
1140,924;  281,202;   -1,091;   -2,227
1141,460;  215,020;   -1,636;    0,136
1141,996;  157,929;   -1,364;    2,682
1142,531;  218,747;    1,364;    3,318
1143,067;  436,020;    1,182;    1,045
1143,602;  490,747;   -0,091;   -0,318
1144,138;  329,566;   -2,636;    1,045
1144,673;  186,838;   -1,455;    1,409
1145,209;  271,929;   -1,909;   -0,318
1145,744;  194,566;   -0,727;    0,864
1146,279;  327,293;    1,818;   -0,136
1146,815;  234,838;    1,545;   -2,682
1147,350;  279,020;   -1,364;    0,045
1147,885;  180,293;   -0,818;   -1,318
1148,420;  184,475;   -2,273;    0,773
1148,955;  166,475;   -1,727;    1,864
1149,490;  198,202;   -0,909;   -1,591
1150,025;  182,111;    0,455;   -1,773
1150,560;  302,293;    1,091;   -0,955
1151,094;  270,202;    1,455;   -0,591
1151,629;  268,111;    1,636;    0,864
1152,164;  189,384;    1,364;    1,318
1152,698;  149,657;   -0,182;   -0,136
1153,233;  110,475;    0,091;   -0,682
1153,767;  155,202;   -3,000;   -2,318
1154,302;  210,475;   -1,455;    1,773
1154,836;  202,202;   -0,455;   -2,136
1155,371;  260,747;   -1,364;    3,682
1155,905;  211,566;   -0,636;    1,682
1156,439;  166,384;   -0,636;   -0,500
1156,973;  209,929;    0,364;    0,318
1157,507;  141,475;   -0,364;    0,682
1158,042;  176,929;   -0,727;    1,045
1158,576;  228,020;    0,182;    1,773
1159,110;  208,111;   -0,818;    2,409
1159,643;  180,929;    0,636;   -0,045
1160,177;  116,566;   -1,545;    1,500

