
Integration time [ms]:   0,040
Averaging Nr. [scans]: 11
Smoothing Nr. [pixels]: 0
Data measured with spectrometer [name]: 7318044SP
Wave   ;Sample   ;Dark     ;Reference
[nm]   ;[counts] ;[counts] ;[counts] 

186,757;   26,414;   31,551;    1,318
187,357;   64,349;   22,551;    0,955
187,958;   42,877;   15,460;   -1,591
188,558;   84,862;    8,915;   -1,227
189,159;   55,178;    6,733;   -4,500
189,759;   21,870;    7,278;   -3,591
190,360;   21,048;    2,824;   -2,136
190,960;   66,978;    2,915;   -4,136
191,560;   81,022;    3,189;   -6,591
192,161;  344,776;    4,372;   -3,500
192,761;  172,179;    4,010;   -3,227
193,361;  109,779;    1,556;   -3,773
193,962;  166,932;    2,010;   -2,682
194,562;   82,790;    1,189;   -3,955
195,162;  128,154;   -2,448;   -2,227
195,762;  307,397;   -3,176;   -0,045
196,362;  239,895;    1,370;   -2,500
196,963;   94,442;    2,006;   -0,864
197,563;  175,138;    1,551;   -0,955
198,163;  113,386;    0,096;   -0,682
198,763;  136,629;    1,733;   -0,500
199,363;  243,881;    3,096;   -0,500
199,963;  209,723;    0,369;    0,409
200,563;  180,074;    2,823;   -1,409
201,163;  158,345;    3,277;   -0,227
201,763;  261,417;    3,732;    0,318
202,363;  188,964;    1,459;    1,500
202,963;  307,084;    1,459;    1,045
203,563;  435,258;    0,277;    0,500
204,162;  262,636;    2,096;   -1,864
204,762;  244,517;    0,550;    0,591
205,362;  207,607;    3,004;    1,955
205,962;  324,795;    3,096;    1,955
206,562;  321,151;    1,823;    2,318
207,161;  291,071;   -0,087;    0,318
207,761;  454,547;    1,277;    2,409
208,361;  323,552;   -0,268;    1,409
208,960;  427,651;    0,459;    1,500
209,560;  508,983;    1,277;    1,591
210,160;  485,569;    0,550;    1,864
210,759;  444,837;    4,186;    1,227
211,359;  454,309;    1,459;    1,045
211,958;  724,216;    1,277;    2,045
212,558;  822,922;    1,732;    1,864
213,157;  639,150;    1,822;    1,500
213,757; 1121,603;    3,822;   -0,227
214,356;  806,577;    1,277;   -0,409
214,956; 1147,078;    3,095;    0,409
215,555;  741,258;    2,095;    2,136
216,154;  686,562;   -2,723;   -0,591
216,754;  700,555;    0,277;    0,773
217,353;  840,266;   -0,268;   -1,045
217,952;  689,938;   -0,178;    0,318
218,552;  939,941;    1,368;   -0,773
219,151;  832,834;    0,277;    0,955
219,750;  842,601;    0,004;   -0,227
220,349;  984,473;   -0,451;    1,045
220,948; 1050,978;   -1,360;    1,136
221,548; 1070,920;    0,913;    1,227
222,147; 1199,115;   -0,087;   -0,409
222,746; 1479,694;   -0,451;   -0,955
223,345; 1366,894;    0,731;    0,500
223,944; 1377,158;   -0,451;    0,773
224,543; 1567,203;    1,004;   -1,409
225,142; 1666,207;    0,094;    0,136
225,741; 1582,061;   -0,814;    1,045
226,340; 1622,474;   -0,451;   -0,955
226,939; 2102,744;   -0,996;   -0,136
227,538; 2066,263;   -0,360;   -0,773
228,137; 2227,412;   -0,814;    0,864
228,735; 2401,499;   -0,541;    1,227
229,334; 2132,310;   -0,905;   -0,227
229,933; 2503,925;    0,459;    0,591
230,532; 2625,973;    1,186;   -0,409
231,131; 2683,249;    1,732;    0,318
231,729; 2875,089;   -2,450;   -2,318
232,328; 3022,229;   -0,723;   -1,500
232,927; 3109,287;    1,004;   -0,500
233,525; 3250,651;    3,640;    0,045
234,124; 3458,669;    2,368;   -1,591
234,723; 3478,971;    0,913;   -1,045
235,321; 3627,996;    2,277;    0,136
235,920; 3896,275;    1,186;   -1,227
236,518; 4181,937;    3,459;    0,318
237,117; 4370,437;    0,004;   -0,227
237,715; 4558,555;    0,640;   -0,500
238,314; 4596,984;   -0,087;   -2,318
238,912; 4700,652;   -0,723;   -1,409
239,510; 4760,092;    0,459;   -1,227
240,109; 4929,108;    0,004;    3,773
240,707; 4992,731;   -0,996;    1,227
241,305; 5400,424;    0,550;    0,136
241,904; 5614,424;   -0,178;   -2,045
242,502; 5572,798;   -0,632;   -0,227
243,100; 5516,729;   -0,087;   -0,955
243,698; 5733,665;    0,732;    1,682
244,297; 5930,132;   -0,632;    0,682
244,895; 5752,353;   -0,269;   -2,318
245,493; 6148,812;    2,186;   -0,591
246,091; 6176,948;    1,368;   -1,318
246,689; 6162,581;    1,004;    0,591
247,287; 6329,727;    0,822;   -1,136
247,885; 6604,890;   -1,451;    1,227
248,483; 6729,692;    1,822;   -0,500
249,081; 6873,108;    0,185;    1,591
249,679; 7010,216;   -0,178;    1,682
250,277; 7262,683;   -1,723;    0,864
250,875; 7274,642;   -1,087;   -1,045
251,473; 7304,018;   -1,178;    0,500
252,071; 7512,510;    1,459;    1,045
252,669; 7682,704;   -1,814;    0,318
253,267; 7924,462;   -0,087;    0,773
253,864; 7889,545;   -0,360;    0,682
254,462; 7744,697;    1,640;    1,591
255,060; 7721,952;   -0,269;    1,318
255,658; 8087,704;    0,822;   -0,136
256,255; 8529,905;    0,186;   -2,045
256,853; 8376,617;   -0,269;    1,409
257,451; 8352,532;    0,822;    1,864
258,048; 8663,696;    1,822;    1,864
258,646; 8394,966;    1,731;   -1,045
259,243; 8596,708;   -0,087;    2,227
259,841; 8640,221;   -0,814;    0,318
260,438; 8491,862;   -0,087;    0,864
261,036; 9264,712;   -1,905;    1,409
261,633; 9155,347;   -0,087;    2,227
262,231; 8875,634;    2,731;   -0,045
262,828; 8958,505;   -0,905;    1,136
263,425; 9030,234;    0,913;   -0,591
264,023; 9312,770;    0,186;    0,045
264,620; 8869,505;   -0,360;   -0,318
265,217; 9221,344;   -2,087;    3,136
265,815; 9294,101;   -1,905;    2,136
266,412; 9042,442;    0,731;    0,136
267,009; 9115,619;   -1,451;    0,773
267,606; 9000,330;    0,822;   -0,955
268,203; 8986,031;   -0,269;   -0,591
268,801; 9310,641;    1,731;    0,591
269,398; 9572,659;   -0,360;    2,500
269,995; 9587,869;    0,277;    1,591
270,592; 9335,523;   -0,632;   -0,500
271,189; 9568,418;    0,186;    0,409
271,786; 9674,451;   -0,632;    1,227
272,383; 9487,174;   -1,087;    0,227
272,980; 9697,504;    0,277;    0,318
273,577;10194,753;    0,004;    1,227
274,174; 9712,617;    0,822;    2,591
274,771; 9733,249;   -0,814;   -0,773
275,367; 9888,840;    2,277;    1,409
275,964; 9838,583;    0,731;   -0,500
276,561; 9925,896;    1,549;   -1,045
277,158;10162,489;    0,095;   -1,773
277,755;10269,563;    2,185;    0,409
278,351; 9670,236;   -0,451;   -1,500
278,948;10009,982;   -0,815;    0,045
279,545;10036,153;   -1,360;    2,318
280,141;10649,336;   -1,723;   -2,045
280,738;10554,424;   -0,451;   -0,136
281,334;10779,750;   -1,633;    0,591
281,931;10129,655;   -0,087;   -1,318
282,528;10233,214;    0,822;   -0,500
283,124;10941,334;   -1,087;   -0,500
283,721;10856,641;   -0,451;    1,409
284,317;10638,358;    0,185;    2,500
284,913;11176,798;   -1,360;    0,591
285,510;11430,071;    0,640;   -0,318
286,106;11484,811;   -2,269;   -0,955
286,703;11069,213;   -0,360;    1,955
287,299;11240,403;   -1,451;   -0,591
287,895;11481,263;    0,822;   -1,045
288,491;12036,659;    0,186;    2,136
289,088;11745,478;   -2,360;    2,409
289,684;11796,249;   -1,723;    1,500
290,280;11824,416;    0,368;    0,682
290,876;11930,379;    1,822;    5,500
291,472;11806,702;    1,276;    2,227
292,068;11886,727;    1,367;    0,227
292,665;11612,858;    2,095;    0,773
293,261;11185,062;    0,276;    2,136
293,857;11623,136;    2,913;    2,136
294,453;11523,831;    3,550;    0,955
295,049;11377,788;   -0,268;    1,955
295,644;11424,584;    0,095;    0,136
296,240;11319,401;   -0,905;   -0,136
296,836;11392,140;   -0,995;    0,318
297,432;11672,380;    1,096;   -0,500
298,028;11722,897;    0,732;    0,773
298,624;12140,514;    1,459;    1,864
299,220;12388,632;    2,368;    0,591
299,815;12026,557;    1,005;   -0,409
300,411;11830,879;    0,914;    1,773
301,007;11834,977;    1,368;    0,227
301,602;11854,661;   -0,541;   -2,318
302,198;12028,123;    0,732;   -0,773
302,794;12414,317;    1,187;   -0,500
303,389;12510,601;   -1,177;    1,045
303,985;12591,762;    0,550;    1,409
304,580;12550,950;    1,459;    1,591
305,176;12494,665;   -3,086;    0,136
305,771;12427,638;   -1,268;   -1,227
306,367;12302,177;    4,095;    0,136
306,962;12624,479;    0,641;    1,500
307,558;12351,143;   -0,450;    0,136
308,153;12250,214;    1,095;   -1,136
308,748;12512,798;   -0,814;    1,682
309,344;12507,391;   -0,632;   -1,318
309,939;12590,572;   -1,905;   -1,318
310,534;12835,163;   -0,086;   -1,682
311,130;12780,319;    0,459;   -2,500
311,725;12544,893;    1,004;   -0,500
312,320;12868,728;    2,459;    0,045
312,915;12636,257;    1,459;   -1,045
313,510;12750,746;    1,550;   -0,500
314,105;13273,628;    1,096;    1,409
314,700;12618,475;   -3,086;   -1,045
315,295;12287,496;   -0,904;    0,045
315,890;11834,745;    1,277;    0,864
316,485;12216,537;   -0,359;   -0,318
317,080;12330,395;   -3,086;    1,591
317,675;12892,368;    2,005;   -0,682
318,270;12349,414;    5,550;    3,318
318,865;12306,047;    3,278;    3,045
319,460;12127,902;   -0,904;    0,591
320,055;12400,528;   -0,541;   -1,227
320,650;12036,297;   -1,995;   -0,591
321,244;12091,183;   -0,177;   -1,409
321,839;13048,667;   -1,541;   -0,227
322,434;12947,728;   -1,086;   -1,591
323,029;12539,282;    1,732;    1,591
323,623;12363,798;    1,550;    0,773
324,218;12122,620;    2,368;    1,409
324,812;12004,503;    1,096;    1,591
325,407;11817,448;   -0,814;    2,045
326,002;11722,605;    0,277;   -0,409
326,596;12032,464;    0,914;    1,318
327,191;12221,587;    0,823;   -1,045
327,785;11784,464;   -0,813;   -0,227
328,379;12038,437;    1,368;    0,136
328,974;11865,287;    0,914;   -3,955
329,568;12047,356;    0,186;   -2,409
330,163;11836,229;    2,096;    1,045
330,757;12230,789;    2,459;    1,591
331,351;11526,690;    0,459;    0,682
331,945;11821,677;    0,914;    1,409
332,540;11412,330;   -1,723;   -0,591
333,134;11579,764;   -1,086;    0,773
333,728;11841,934;    0,005;    0,318
334,322;12148,916;   -1,177;   -0,864
334,916;11418,863;    0,277;    0,955
335,510;11752,623;   -0,450;   -0,136
336,105;11978,860;   -1,086;    1,591
336,699;11696,613;   -1,086;    0,591
337,293;11632,097;   -1,723;    0,318
337,887;11795,032;   -2,723;    1,955
338,481;11904,903;    0,459;    0,591
339,074;12030,950;   -0,359;    2,682
339,668;11840,992;   -1,632;    1,227
340,262;12118,345;    1,732;    3,227
340,856;11617,049;    1,822;   -0,682
341,450;10956,141;    1,004;    1,864
342,044;11875,097;    1,459;    0,136
342,637;11633,926;    0,913;   -2,136
343,231;11512,049;   -2,360;    0,682
343,825;11478,519;   -1,086;   -0,591
344,419;11418,335;   -1,995;    0,500
345,012;11209,698;    2,459;    4,045
345,606;11193,282;    4,641;    1,591
346,199;11031,176;   -1,813;   -0,227
346,793;10565,944;    1,914;    2,045
347,386;10730,286;   -0,813;   -1,136
347,980;10745,751;   -0,268;   -0,045
348,573;10537,662;    2,278;    0,409
349,167;10212,475;    5,278;    4,773
349,760;10562,241;    2,914;    2,682
350,354;10551,013;   -0,813;    1,136
350,947;10310,938;    1,096;    1,682
351,540; 9959,781;   -0,358;   -1,409
352,134; 9912,364;    1,096;    1,136
352,727; 9955,642;   -0,086;    1,136
353,320; 9733,595;    0,005;    0,591
353,913; 9588,284;   -1,995;    1,864
354,507; 9785,029;    0,823;   -1,227
355,100; 9783,462;    0,460;    0,864
355,693; 9024,239;    2,005;    2,409
356,286; 9115,996;    0,823;    2,773
356,879; 9438,612;   -0,722;    1,227
357,472; 9004,018;   -0,904;    1,500
358,065; 9221,020;   -0,722;    2,500
358,658; 9117,063;   -0,540;    2,318
359,251; 8766,161;   -1,631;   -0,591
359,844; 8253,009;   -1,904;   -1,136
360,437; 8444,165;   -2,995;    0,045
361,030; 8701,311;    1,369;   -0,682
361,623; 8289,428;    2,824;    0,318
362,215; 8330,041;   -0,086;    2,045
362,808; 8186,608;   -2,358;   -1,682
363,401; 8399,822;   -2,449;    0,136
363,994; 8116,304;   -0,631;   -1,500
364,586; 8042,777;    0,824;   -1,500
365,179; 8240,198;   -0,449;   -1,136
365,772; 7720,502;   -1,995;    2,045
366,364; 8036,993;    1,915;   -3,227
366,957; 8253,101;    2,279;   -0,045
367,549; 8252,089;    2,188;   -0,864
368,142; 7903,636;    1,825;   -1,500
368,734; 8106,943;    0,734;   -2,136
369,327; 8060,239;    1,643;   -0,500
369,919; 8004,089;   -1,538;    0,409
370,512; 7772,948;   -1,083;   -0,500
371,104; 7525,881;   -0,901;    1,591
371,696; 7724,820;    1,191;   -0,955
372,289; 7798,653;    0,373;    1,136
372,881; 7951,399;   -2,080;    1,318
373,473; 7887,247;   -2,170;    1,136
374,066; 7678,442;   -0,169;    0,500
374,658; 7513,079;    0,378;    1,136
375,250; 7855,119;    0,653;   -1,409
375,842; 7727,510;    0,473;   -0,045
376,434; 7617,693;   -0,435;   -0,409
377,026; 8191,830;    0,204;   -2,500
377,618; 8088,402;   -0,158;   -0,682
378,210; 7914,987;   -0,338;   -1,955
378,802; 7766,022;    0,754;   -0,591
379,394; 7764,130;    1,846;    0,682
379,986; 8342,838;    1,393;   -0,955
380,578; 8424,706;   -0,153;    0,773
381,170; 7769,540;   -0,972;    0,045
381,762; 7712,729;    0,755;    1,409
382,354; 7886,745;   -0,065;   -1,318
382,945; 8013,713;   -2,976;    0,318
383,537; 8171,084;   -2,705;   -1,955
384,129; 8199,664;   -2,160;   -1,136
384,721; 8360,201;   -0,252;    0,955
385,312; 8307,918;   -0,161;   -0,955
385,904; 8396,688;   -2,706;    1,591
386,496; 7744,111;   -0,979;    1,045
387,087; 7892,529;    1,022;    2,500
387,679; 7955,789;   -1,160;    0,045
388,270; 8109,615;    2,840;    2,045
388,862; 8224,704;    1,295;   -0,318
389,453; 8133,123;   -0,887;    1,045
390,045; 8411,273;   -0,705;   -2,682
390,636; 8320,145;    0,204;   -0,591
391,227; 8171,358;   -0,523;   -0,045
391,819; 8254,328;    0,204;    0,773
392,410; 8332,655;    1,022;    0,045
393,001; 8283,123;   -0,979;   -1,591
393,593; 8576,390;    1,930;   -0,045
394,184; 8457,312;    1,385;   -0,409
394,775; 8349,620;    1,839;    2,136
395,366; 8549,914;    1,385;    0,773
395,957; 8577,694;    0,113;    0,136
396,548; 8862,060;   -0,342;    2,682
397,139; 9171,189;   -2,433;    0,591
397,730; 8880,511;   -1,888;    0,955
398,321; 8974,506;   -1,252;    0,955
398,912; 8975,658;   -0,615;    0,136
399,503; 9019,318;   -3,524;   -1,409
400,094; 8455,043;    0,294;    1,682
400,685; 8325,069;   -0,433;    0,045
401,276; 8416,586;    0,930;   -0,955
401,867; 8761,836;   -0,888;    0,773
402,458; 8822,820;   -2,251;   -2,318
403,048; 8816,770;    1,112;    0,591
403,639; 8412,386;    0,840;    0,864
404,230; 8653,081;    2,476;    0,318
404,821; 8562,591;   -0,615;    0,045
405,411; 8717,414;    1,203;   -2,591
406,002; 8308,627;   -1,252;   -1,136
406,592; 8149,625;    2,294;    0,045
407,183; 8490,593;    0,566;   -1,500
407,774; 8409,788;    3,475;   -0,136
408,364; 8744,452;    0,930;    0,409
408,954; 8345,823;    0,384;    1,227
409,545; 8374,085;    1,021;    1,045
410,135; 7919,822;    1,293;    0,500
410,726; 8092,942;    1,838;    0,318
411,316; 8482,508;    0,111;    0,773
411,906; 8127,437;   -0,253;   -0,409
412,497; 7624,609;   -1,070;   -0,045
413,087; 8218,497;   -1,980;   -0,227
413,677; 8637,337;   -0,707;    3,864
414,267; 8473,655;    0,656;    1,409
414,857; 8467,494;   -2,980;    4,227
415,448; 8770,637;    0,839;    0,500
416,038; 8462,687;    0,020;   -0,591
416,628; 8428,053;   -0,889;    0,409
417,218; 7862,890;    0,565;    3,318
417,808; 8183,457;    0,202;   -0,409
418,398; 8617,583;    0,020;    2,682
418,988; 8659,479;    2,020;    0,591
419,578; 8930,963;   -0,707;    1,409
420,168; 9259,171;   -1,343;   -0,955
420,757; 8843,214;   -1,343;   -1,500
421,347; 8502,467;    0,111;   -0,227
421,937; 8680,760;    2,292;    1,409
422,527; 8650,261;    0,838;   -0,773
423,116; 8458,247;   -0,253;   -0,045
423,706; 8774,444;   -1,889;    0,318
424,296; 8752,255;    1,384;    0,682
424,885; 9186,255;   -0,071;   -3,045
425,475; 9491,309;    1,474;   -2,864
426,065; 9410,333;   -0,980;   -0,318
426,654; 9042,452;   -0,435;   -0,318
427,244; 9147,809;    0,020;    1,409
427,833; 8623,148;    1,383;   -0,500
428,423; 9108,200;   -0,526;    1,136
429,012; 9878,024;   -0,344;   -1,136
429,601; 9348,924;   -1,344;    0,136
430,191; 9597,135;    1,292;    4,318
430,780; 9248,266;   -0,344;   -0,409
431,369; 9154,927;    0,746;   -0,045
431,959; 9741,522;   -1,254;    0,500
432,548; 9551,383;   -1,163;   -0,045
433,137; 9722,516;   -1,254;   -1,318
433,726;10280,757;    0,292;    0,500
434,315; 9584,485;   -0,526;    2,409
434,905; 9654,660;   -1,254;    1,409
435,494; 9551,529;    0,746;    0,955
436,083;10020,289;   -0,981;   -0,955
436,672; 9891,150;    0,110;    0,500
437,261; 9472,925;    0,292;   -1,955
437,850; 9611,766;    1,383;    0,682
438,439; 9620,231;    3,291;    1,955
439,027; 9459,987;    3,655;    1,773
439,616; 9808,454;    2,927;    1,227
440,205; 9657,900;    0,200;   -2,136
440,794; 9770,563;    2,109;   -0,045
441,383;10046,439;   -1,346;   -0,591
441,971; 9858,334;   -2,436;    0,591
442,560; 9707,269;    0,563;   -1,773
443,149; 9523,857;    0,379;   -1,318
443,737; 9640,210;   -0,074;   -2,318
444,326; 9925,462;    0,018;    0,318
444,915; 9982,839;   -1,982;    0,864
445,503;10382,527;   -2,891;   -0,318
446,092; 9625,647;    0,382;    2,136
446,680;10156,428;    0,382;    0,318
447,269;10372,338;   -0,346;   -0,318
447,857;10146,955;    0,018;   -1,773
448,445;10210,648;    0,563;    1,318
449,034;10459,112;   -1,528;   -1,136
449,622;10584,661;   -1,073;    3,500
450,210; 9803,179;    2,017;    2,227
450,799;10387,295;    0,290;   -0,591
451,387;10323,810;    1,381;   -0,591
451,975; 9963,043;    2,654;    0,864
452,563;10036,129;    3,472;    2,318
453,151;10089,051;   -0,528;   -1,227
453,739;10029,621;   -1,347;    0,136
454,328; 9852,906;    2,381;   -2,136
454,916; 9540,086;    2,562;   -0,136
455,504; 9760,882;    1,017;    1,227
456,092; 9933,685;    0,017;   -1,591
456,679; 9932,574;    1,472;    0,682
457,267; 9868,100;    4,017;    1,045
457,855;10018,748;    1,017;    1,409
458,443; 9779,743;   -0,165;    1,682
459,031; 9917,962;    0,108;    2,409
459,619;10364,793;   -1,801;    2,864
460,206;10532,675;    0,835;    2,045
460,794;10627,575;   -2,983;   -0,227
461,382;10834,259;   -0,529;   -0,864
461,970;10420,832;    1,198;    1,864
462,557;10449,857;   -0,711;   -0,682
463,145;10643,513;   -3,165;   -1,682
463,732;10803,173;    2,016;   -1,045
464,320;10748,109;   -0,075;   -3,045
464,907;10416,136;    2,743;   -0,773
465,495;10289,822;    0,743;   -1,227
466,082;10473,857;   -1,984;   -0,045
466,670;10366,508;   -2,529;    1,227
467,257;10740,725;   -1,711;    2,045
467,844;10914,516;   -0,075;    0,045
468,432;10965,471;    0,834;    3,500
469,019;10412,813;    0,925;   -1,773
469,606;10929,088;    0,470;    3,682
470,193;10743,640;   -1,439;    0,227
470,780;10287,777;   -2,075;    0,864
471,368;10633,782;   -1,257;   -0,773
471,955;10416,114;    1,379;   -0,682
472,542;10062,238;    0,652;   -1,136
473,129;10304,194;   -0,166;    0,136
473,716;10040,047;    1,470;    0,591
474,303;10255,145;    0,652;   -0,864
474,890;10586,345;   -1,439;   -0,500
475,477;10601,815;   -1,621;    0,409
476,064;10473,282;    1,106;   -1,591
476,650;10436,280;    0,288;    0,318
477,237;10226,007;   -0,258;    0,955
477,824;10422,333;   -1,076;    0,864
478,411;10450,591;   -1,894;   -0,318
478,997;10658,583;    0,560;   -0,773
479,584;10691,386;    1,196;   -0,409
480,171;11427,252;   -0,440;   -0,773
480,757;11060,653;    2,651;    0,773
481,344;11408,501;    0,469;    0,409
481,931;10939,305;    1,105;    1,045
482,517;12014,638;   -1,258;    0,318
483,104;12619,082;    1,106;    2,864
483,690;12924,638;   -1,804;    0,045
484,276;13277,385;   -0,895;    0,227
484,863;13009,247;    2,469;    1,136
485,449;13601,722;   -0,077;    0,318
486,035;13561,768;   -1,986;   -0,136
486,622;14010,693;   -0,895;    0,045
487,208;13953,439;    1,378;    1,500
487,794;13786,356;    0,741;    0,318
488,380;13859,385;    0,105;   -1,409
488,967;13958,616;   -1,168;   -0,409
489,553;14016,590;   -1,895;   -1,409
490,139;14223,656;    1,559;    0,773
490,725;13595,674;    0,741;   -0,227
491,311;13090,807;    3,287;    3,045
491,897;12413,545;   -0,986;    1,500
492,483;12241,514;    0,105;    1,227
493,069;12084,164;    3,923;    0,864
493,655;12071,627;    1,650;    0,682
494,241;11949,396;    1,377;   -0,955
494,826;12366,950;    0,287;   -1,045
495,412;11846,709;    2,559;   -0,682
495,998;11960,710;   -0,805;   -0,318
496,584;12147,513;    0,377;    1,045
497,169;12120,884;    1,014;   -0,682
497,755;12056,073;    0,650;    1,227
498,341;12636,153;    0,559;    0,318
498,926;12216,816;    1,832;    1,955
499,512;12408,676;    1,286;    2,955
500,097;12515,190;    0,195;   -0,318
500,683;12435,329;   -0,350;    2,136
501,268;12828,095;   -0,169;   -0,955
501,854;12514,743;   -0,169;    1,227
502,439;12452,752;   -0,624;   -1,773
503,024;12654,831;    0,195;    0,500
503,610;12727,579;   -0,078;   -0,682
504,195;12746,468;    0,558;    1,955
504,780;12860,200;    2,922;    1,227
505,366;12724,088;    3,013;    2,864
505,951;12416,810;    0,740;    1,045
506,536;12419,730;   -3,260;   -3,682
507,121;12444,536;    0,285;   -0,318
507,706;12904,183;    2,376;    1,045
508,291;13325,905;    2,649;    1,136
508,876;12790,770;   -0,988;    2,591
509,461;12245,240;   -0,169;   -0,773
510,046;12682,894;    0,194;    0,318
510,631;12936,833;   -0,351;   -0,773
511,216;12592,942;    2,467;   -0,500
511,801;12893,072;   -0,442;    2,591
512,386;13265,739;    0,740;    0,500
512,971;13214,748;   -2,988;    0,955
513,555;12746,740;   -0,897;   -1,500
514,140;13545,524;   -0,442;   -3,136
514,725;13524,152;   -0,715;   -1,136
515,309;13648,131;   -0,533;    0,318
515,894;13107,277;   -0,624;   -2,227
516,479;13556,859;   -0,624;   -0,955
517,063;13417,917;    0,376;    1,227
517,648;13553,932;    1,012;   -1,136
518,232;13206,139;   -0,261;   -1,409
518,817;13529,205;   -0,079;    1,682
519,401;13771,971;    2,194;    0,591
519,985;13244,578;    1,103;    1,136
520,570;13156,765;    0,830;   -1,955
521,154;13402,602;    2,102;    0,591
521,738;13617,157;   -2,352;    2,409
522,323;14153,762;   -0,170;    1,682
522,907;13891,024;    0,466;   -0,136
523,491;13614,489;    0,557;    0,955
524,075;13576,828;    2,284;    0,591
524,659;13648,981;    1,466;    0,591
525,243;13170,390;    1,739;    0,409
525,827;13444,891;    0,648;   -0,045
526,411;14244,708;   -1,989;   -0,136
526,995;14437,076;   -0,352;    1,409
527,579;14098,300;   -0,443;   -1,045
528,163;14384,752;    0,375;   -1,500
528,747;14271,916;    2,466;   -0,773
529,331;14580,566;   -0,080;   -1,409
529,915;14789,700;    1,738;    0,955
530,499;14761,759;   -0,807;    1,227
531,082;14508,656;   -0,534;    1,591
531,666;13901,150;    1,374;    0,773
532,250;14566,710;    1,284;    2,682
532,833;14908,373;    0,920;    2,773
533,417;14776,412;   -1,807;    0,864
534,001;14808,057;    1,647;   -0,318
534,584;15492,618;    0,374;    0,500
535,168;15303,611;    0,465;    1,409
535,751;15371,276;    0,647;    0,045
536,334;14808,126;   -0,898;   -0,409
536,918;15365,147;    0,011;    1,591
537,501;15492,379;   -0,899;    1,318
538,085;15488,858;   -0,444;    1,045
538,668;15705,743;    0,829;    2,409
539,251;16048,446;    1,829;    3,773
539,834;16030,432;    0,101;    0,773
540,418;15934,927;   -1,990;    4,318
541,001;16046,231;   -0,990;    1,773
541,584;16051,459;    2,101;    2,227
542,167;15742,791;    1,374;    2,955
542,750;15883,037;    1,919;   -0,773
543,333;15518,851;    0,555;    2,136
543,916;16285,258;    0,192;    2,500
544,499;16898,899;   -1,354;    0,227
545,082;16903,242;    1,374;    3,591
545,665;17050,790;    1,919;    1,500
546,248;17398,487;    1,010;   -0,318
546,830;17041,347;   -0,445;    1,955
547,413;17480,398;    1,010;   -0,773
547,996;17979,958;    0,555;    0,500
548,579;17748,261;    0,919;    0,955
549,161;17542,422;    1,828;    2,682
549,744;17294,906;   -0,809;    0,409
550,326;17825,095;   -0,809;   -1,136
550,909;17626,659;    2,737;    0,591
551,492;18024,709;   -0,263;    0,227
552,074;17828,355;   -0,173;   -1,318
552,657;18384,509;    2,373;    0,045
553,239;18103,436;   -0,173;   -0,773
553,821;18012,546;   -1,082;    1,045
554,404;17588,838;    1,282;    1,136
554,986;17936,790;    0,464;    1,045
555,568;18512,535;    1,191;   -0,955
556,151;17745,602;    1,191;   -0,227
556,733;17966,226;   -0,264;   -0,864
557,315;18432,250;    0,100;    0,500
557,897;18264,841;    0,554;   -0,500
558,479;18307,970;   -1,991;    1,318
559,061;18459,169;   -0,719;   -0,864
559,643;18848,360;   -0,264;    0,045
560,225;19199,878;    1,645;    2,864
560,807;19224,269;    0,918;    0,318
561,389;18721,895;    0,554;    2,318
561,971;19489,941;    0,463;    2,136
562,553;19310,840;   -1,628;    1,591
563,135;19434,770;   -0,537;    1,136
563,717;19008,371;    3,372;    1,136
564,298;19696,893;    3,645;   -0,045
564,880;19461,925;    0,645;   -1,409
565,462;19623,379;    0,645;    1,318
566,043;20800,747;   -0,446;    2,318
566,625;20334,835;    1,918;    1,227
567,207;20186,899;    1,099;    1,682
567,788;21334,462;   -1,264;    1,500
568,370;22183,521;    1,917;   -0,500
568,951;22009,183;    0,190;    0,227
569,533;22884,207;   -0,628;   -0,500
570,114;23366,902;   -0,446;    0,682
570,695;23841,133;   -0,174;   -1,318
571,277;24396,085;   -0,265;   -1,682
571,858;25134,171;    2,008;   -1,136
572,439;26047,911;    1,554;   -1,045
573,021;26167,678;    2,099;   -2,773
573,602;26643,904;   -1,265;    0,318
574,183;27545,556;   -2,083;    2,227
574,764;27720,605;   -1,629;    0,409
575,345;28337,735;    0,917;   -0,136
575,926;28891,463;   -0,356;    0,136
576,507;28838,446;    1,099;   -0,227
577,088;29927,142;    3,099;    1,682
577,669;29994,997;    0,735;    1,955
578,250;30814,283;    0,644;   -1,045
578,831;31478,828;   -1,356;   -2,227
579,412;31683,154;   -0,810;    0,955
579,993;32540,134;    1,008;    0,227
580,573;32889,260;   -0,629;   -0,955
581,154;31840,396;    0,735;   -0,591
581,735;32751,053;    0,644;    0,773
582,315;32240,871;   -0,629;    2,136
582,896;32501,423;   -0,174;    1,227
583,477;31862,418;    0,189;    1,227
584,057;32132,829;    0,553;    0,955
584,638;32466,225;    2,553;    2,318
585,218;32472,549;   -0,538;    2,682
585,799;32624,916;    0,281;   -0,227
586,379;32555,869;    0,372;    1,591
586,959;31235,801;    0,735;    0,318
587,540;30559,268;   -0,629;    2,227
588,120;30133,309;    1,007;   -0,045
588,700;29155,531;    2,553;    2,136
589,281;29484,469;    0,462;   -0,955
589,861;29424,159;    0,099;   -1,682
590,441;29207,658;    2,371;   -2,682
591,021;28160,857;   -0,265;   -2,591
591,601;28403,785;   -0,537;    0,500
592,181;28417,529;   -0,719;   -0,773
592,761;27723,920;    0,007;    1,409
593,341;27639,038;   -0,901;    0,045
593,921;27674,111;   -0,265;    1,591
594,501;27540,196;   -0,538;    1,318
595,081;27435,135;    0,917;   -0,318
595,661;27782,870;   -1,447;    0,955
596,240;28292,362;   -0,537;    0,136
596,820;27934,325;    0,372;    1,955
597,400;28146,436;    2,008;    0,773
597,980;28234,274;    2,008;    1,045
598,559;28295,698;    2,735;   -0,227
599,139;27997,992;   -0,174;   -1,227
599,718;27866,174;   -0,174;   -0,409
600,298;28164,912;    0,735;    0,682
600,877;28393,557;    2,917;    1,409
601,457;28670,702;    2,281;    1,136
602,036;28566,418;    0,190;    2,045
602,616;28835,543;    0,644;    1,682
603,195;29195,244;   -0,355;    3,500
603,774;28684,325;   -0,901;    2,045
604,354;28587,028;    0,826;   -0,500
604,933;28068,320;    0,463;    1,864
605,512;28163,916;    3,554;    0,591
606,091;28217,279;   -0,537;    3,773
606,671;29035,493;    0,281;    0,773
607,250;28164,409;    1,644;    3,136
607,829;28436,599;    2,372;    3,227
608,408;28249,422;    1,190;    2,591
608,987;27236,856;    1,281;    3,409
609,566;27571,146;   -1,265;   -2,500
610,145;27656,748;   -1,082;    0,682
610,723;28076,430;    4,372;    6,864
611,302;27373,006;   -0,446;    1,682
611,881;26866,125;    5,008;   11,227
612,460;27683,741;    1,645;    3,955
613,039;28109,701;   -0,082;    2,045
613,617;26828,190;    1,736;    4,773
614,196;27050,863;    1,099;    1,227
614,775;27388,571;    1,009;    2,409
615,353;27303,227;    0,736;    0,864
615,932;27021,207;    0,100;    2,409
616,510;27583,295;    0,554;    0,591
617,089;27140,277;    7,100;   17,591
617,667;26880,665;    2,372;    6,136
618,246;26758,926;   -1,537;    1,318
618,824;26843,182;   -3,355;   -0,955
619,402;26457,185;   -2,900;   -1,773
619,981;26998,411;   -0,173;   -1,045
620,559;26794,438;    0,009;    1,682
621,137;26294,156;   -0,718;    1,864
621,715;26347,747;   -1,173;   -0,682
622,293;26243,666;   -0,537;   -0,773
622,871;26725,614;   -0,718;    0,500
623,450;26279,622;    0,373;   -0,864
624,028;26197,012;    0,191;   -0,955
624,606;25833,004;   -1,718;    1,682
625,183;26208,740;   -1,536;   -1,136
625,761;25841,555;    1,009;    1,136
626,339;26135,172;    1,373;    2,591
626,917;26538,389;   -0,172;   -0,045
627,495;26565,431;   -0,354;    1,318
628,073;26050,045;   -0,263;    2,864
628,650;25782,372;    0,100;    2,136
629,228;26188,458;    0,373;    4,409
629,806;25577,016;    2,282;    1,136
630,383;25741,105;    1,464;   -0,318
630,961;25595,684;    2,555;   -0,955
631,539;25379,885;    2,464;    0,227
632,116;24746,957;   11,373;   15,409
632,694;25274,203;    2,555;    6,500
633,271;25571,211;    0,828;    2,682
633,848;25496,352;    1,828;    2,045
634,426;25517,235;   -1,081;    1,773
635,003;24663,801;    1,101;   -0,409
635,580;24982,423;    1,192;    3,682
636,158;25513,947;    3,737;    1,227
636,735;25540,334;    0,555;   -0,500
637,312;25663,066;   -0,809;   -0,682
637,889;25747,458;   -4,354;   -0,682
638,466;25235,220;   -3,990;   -0,409
639,043;25224,239;    2,101;   -1,136
639,620;25504,204;   -2,262;   -0,955
640,197;25789,794;    1,100;    1,682
640,774;25955,303;   -0,172;    1,136
641,351;26348,266;    0,737;    1,136
641,928;25849,047;   -0,627;    1,409
642,505;25472,556;    0,828;   -0,500
643,082;25582,701;   -1,718;    1,227
643,658;24621,028;   -0,718;    1,500
644,235;25354,719;    1,191;    2,500
644,812;25700,409;    1,918;    0,773
645,388;25421,463;   -0,991;    1,409
645,965;25543,245;   -0,809;    1,682
646,542;25606,663;   -1,445;   -0,227
647,118;25538,899;    1,009;   -0,955
647,695;25877,771;   -0,263;    1,136
648,271;25745,734;   -0,536;    0,500
648,848;26047,970;    0,736;    2,227
649,424;25874,479;    0,827;    1,318
650,000;25671,442;   -0,354;   -1,045
650,577;25489,405;   -0,627;   -0,955
651,153;25929,823;   -1,809;    0,955
651,729;26939,332;    1,191;    0,864
652,305;27482,841;    0,645;    2,773
652,881;32542,077;   -0,082;    1,136
653,458;39384,949;    1,100;    0,227
654,034;42875,640;    0,282;    1,591
654,610;44088,330;    0,554;    0,773
655,186;45296,112;    0,645;    3,045
655,762;44862,075;   -0,991;    0,409
656,338;44914,765;    0,100;    0,136
656,913;45832,365;   -0,082;    0,409
657,489;44975,692;    0,827;   -0,318
658,065;45015,655;   -0,173;   -1,591
658,641;45654,437;   -0,900;   -0,864
659,217;44903,764;   -0,991;    0,409
659,792;44312,636;    0,645;   -0,409
660,368;44504,326;   -2,173;   -0,682
660,944;43883,199;   -2,082;    1,227
661,519;38738,980;   -0,628;    0,409
662,095;32894,489;   -1,719;    0,591
662,670;28730,361;    1,281;   -0,136
663,246;27780,415;    1,009;   -0,409
663,821;27172,742;    0,281;    1,682
664,396;26649,887;    0,009;    1,864
664,972;26996,487;    0,009;   -0,500
665,547;27352,632;    1,372;    0,136
666,122;27287,050;   -1,082;    0,318
666,698;27624,650;   -0,173;    0,318
667,273;26925,067;   -0,173;    0,136
667,848;27825,940;    2,372;    1,500
668,423;27628,721;    2,190;    2,318
668,998;28201,866;    2,827;   -0,682
669,573;28721,830;   -3,264;   -1,500
670,148;28484,066;   -1,446;   -0,682
670,723;28284,211;   -1,810;    0,318
671,298;28709,992;    2,372;    1,045
671,873;28839,683;   -0,082;   -0,136
672,448;28778,010;    0,645;    0,136
673,023;29122,246;   -1,992;   -0,227
673,597;29464,754;    0,827;    2,318
674,172;29203,990;   -0,355;    0,318
674,747;28670,044;    0,372;   -1,045
675,321;28500,917;   -0,628;    3,318
675,896;28104,153;    0,645;    1,045
676,471;29125,843;    2,645;    1,591
677,045;28835,170;   -1,264;    0,682
677,620;28905,679;    0,190;    1,136
678,194;29149,279;   -2,628;    1,136
678,769;28742,606;   -1,083;   -0,318
679,343;29040,569;   -0,628;    1,773
679,917;28958,623;   -1,446;    1,955
680,492;29052,859;    0,826;    3,227
681,066;29173,004;    3,372;    0,409
681,640;29192,967;    1,463;   -0,318
682,214;29987,385;    0,735;    0,500
682,788;29586,167;   -1,356;   -0,773
683,363;29510,857;   -1,810;    1,682
683,937;29164,002;   -1,719;   -0,318
684,511;29961,238;    0,463;   -0,591
685,085;29664,202;   -1,356;    0,318
685,659;29340,256;   -2,538;    0,864
686,232;29688,764;   -0,356;   -0,318
686,806;29371,455;   -0,901;    0,409
687,380;30007,145;   -0,174;    0,591
687,954;30239,836;   -1,174;    1,136
688,528;29929,799;   -0,719;    1,955
689,101;30693,763;   -3,992;    1,045
689,675;30281,362;   -0,356;   -0,136
690,249;29624,325;   -0,719;    0,409
690,822;29952,471;    0,280;    0,318
691,396;30043,070;   -0,265;    1,227
691,969;29534,670;    1,280;    0,136
692,543;29988,542;   -0,447;   -1,955
693,116;29626,142;   -0,265;   -1,409
693,690;29483,923;    0,099;    0,500
694,263;29975,705;   -1,083;    2,955
694,836;30055,941;    1,371;    3,591
695,410;28711,813;   -0,265;    1,773
695,983;29169,231;    0,189;    0,591
696,556;29146,467;   -0,447;   -1,045
697,129;29522,066;   -0,356;    1,409
697,703;29233,030;   -1,629;    1,955
698,276;29178,538;    1,462;   -0,773
698,849;28985,411;    1,280;    1,409
699,422;29322,374;   -1,083;    0,591
699,995;29045,246;    0,007;    0,136
700,568;29625,482;   -0,629;    3,045
701,140;29608,628;   -2,811;    1,682
701,713;29322,500;   -0,174;    2,409
702,286;29062,736;   -0,538;    0,864
702,859;28922,063;   -0,902;   -0,591
703,432;28088,390;    0,825;    0,682
704,004;28577,262;    0,462;    0,318
704,577;28486,862;   -0,629;    0,136
705,150;29016,280;    0,189;    2,500
705,722;28781,970;   -0,356;   -3,227
706,295;28621,297;   -0,175;   -0,591
706,867;28508,260;   -0,175;    1,955
707,440;28725,042;   -1,720;   -0,409
708,012;29006,005;    0,462;    0,591
708,584;28901,695;    2,462;    0,227
709,157;29145,477;    1,825;   -0,591
709,729;28811,986;    2,280;    2,045
710,301;29656,403;    0,734;    0,045
710,874;29634,912;   -1,447;   -0,227
711,446;28497,330;    0,371;    0,864
712,018;28405,293;    0,098;    0,500
712,590;28141,711;   -1,993;    1,682
713,162;28639,856;    0,825;    1,318
713,734;28884,456;    1,825;   -2,045
714,306;28808,510;   -1,902;   -0,409
714,878;27502,201;    0,825;    0,864
715,450;28328,346;    0,643;    0,864
716,022;28555,582;    1,552;    1,318
716,593;28691,636;    0,189;    0,591
717,165;28632,145;   -3,175;   -1,227
717,737;28354,926;    0,280;    0,409
718,309;28035,435;    0,280;   -0,045
718,880;28009,125;   -0,539;   -1,409
719,452;28180,452;   -0,175;   -1,591
720,024;27756,415;    0,734;   -0,591
720,595;28351,015;   -2,902;    0,955
721,167;27870,160;    0,370;   -2,045
721,738;27449,760;   -0,812;   -1,045
722,309;27463,541;   -0,993;   -1,227
722,881;27214,050;   -1,357;    0,773
723,452;27870,831;   -2,630;    2,864
724,023;28037,886;   -0,721;    2,682
724,595;27785,212;    0,007;    0,682
725,166;27544,448;    0,007;   -0,409
725,737;27216,503;    1,734;    0,227
726,308;27250,830;   -0,266;    0,318
726,879;27723,066;   -1,630;    1,227
727,450;27575,029;    0,552;   -0,045
728,021;27521,174;    3,097;    0,682
728,592;27313,137;    0,734;    0,500
729,163;27649,100;    0,643;   -0,136
729,734;27706,700;    0,188;   -0,227
730,305;28058,300;    1,734;    0,136
730,876;28418,627;    0,188;    2,955
731,447;28119,317;    2,188;    2,682
732,017;28206,826;    1,097;    1,864
732,588;27669,153;    0,734;    1,227
733,159;27882,752;    0,643;   -1,045
733,729;27701,261;    0,006;    0,409
734,300;26965,133;    0,915;    0,864
734,870;27380,097;    3,461;    0,591
735,441;27972,787;    0,370;   -0,591
736,011;27690,932;    0,643;   -1,591
736,582;27626,714;   -0,812;    0,045
737,152;27149,859;   -1,721;   -2,045
737,722;27508,731;   -0,267;   -0,682
738,293;27245,058;   -1,358;    1,318
738,863;27161,931;    2,461;    2,318
739,433;26950,257;    5,279;    0,318
740,003;27549,039;   -0,994;   -0,682
740,573;26978,548;    2,097;   -1,591
741,143;26933,056;   -1,085;    0,318
741,713;27671,292;    1,188;   -0,500
742,283;27430,256;    0,915;    1,591
742,853;27187,946;    1,915;    1,591
743,423;26617,364;    1,733;    0,045
743,993;26777,600;   -0,358;    1,500
744,563;26205,927;    0,097;   -0,864
745,133;26047,163;   -0,812;   -0,864
745,702;26751,762;   -0,267;    1,773
746,272;26026,089;   -0,176;    0,591
746,842;25796,053;   -1,358;   -0,591
747,411;26204,016;   -0,267;   -0,318
747,981;26353,070;    0,097;    0,500
748,551;26397,397;    2,278;   -1,045
749,120;26250,997;    0,642;   -0,227
749,690;26612,778;   -0,631;    2,409
750,259;26989,741;    1,369;    2,955
750,828;26880,432;    1,551;   -1,955
751,398;27130,486;    1,278;   -0,045
751,967;26703,631;    2,187;    0,409
752,536;26918,322;   -0,813;   -0,227
753,105;27289,194;    0,096;    0,227
753,675;27129,885;    0,096;    1,773
754,244;27091,211;   -0,904;    3,591
754,813;27053,811;    0,551;    1,227
755,382;26655,502;    0,460;    0,955
755,951;27238,374;    1,551;    3,682
756,520;26746,519;   -0,085;    1,864
757,089;27344,573;    0,278;    0,500
757,658;27497,082;    1,733;    1,227
758,227;27470,863;    1,096;    0,318
758,795;27740,736;    1,187;    1,136
759,364;27971,426;   -0,086;   -0,591
759,933;27043,481;   -1,176;   -0,045
760,501;26516,535;    0,733;   -1,318
761,070;26951,498;   -2,813;   -1,409
761,639;27684,098;   -1,904;    1,318
762,207;27063,606;    1,551;   -0,955
762,776;26944,661;    0,369;    0,864
763,344;26933,260;   -0,995;    0,591
763,913;26005,587;   -0,722;    1,409
764,481;26800,914;    1,005;   -0,136
765,049;26547,059;   -1,358;    1,409
765,618;26411,659;   -0,086;    0,318
766,186;26482,076;    0,278;    0,136
766,754;26661,222;    0,005;    1,864
767,322;25708,367;   -1,995;    0,409
767,890;25713,966;   -0,722;   -1,773
768,459;26157,839;   -2,177;   -0,318
769,027;26304,893;    1,641;    3,409
769,595;25225,583;    3,278;    2,591
770,163;25679,728;    3,823;    2,955
770,730;25458,510;    0,732;   -0,136
771,298;25311,837;    0,187;   -1,409
771,866;25369,527;   -1,541;    4,955
772,434;25700,854;   -0,631;   -1,864
773,002;25817,363;    0,005;    0,682
773,569;25500,599;    0,914;    1,682
774,137;25344,471;   -0,268;   -0,045
774,705;26081,162;    0,278;   -0,136
775,272;25618,398;    0,641;    0,682
775,840;25363,634;   -0,177;    2,682
776,407;24882,597;    0,277;    1,955
776,975;24482,833;   -0,632;    0,318
777,542;25466,433;   -1,086;   -0,045
778,110;25274,123;   -1,268;   -0,045
778,677;25052,541;   -2,359;   -0,864
779,244;24823,050;    2,186;    1,045
779,812;24922,286;    1,823;    0,864
780,379;24795,340;    0,005;    1,136
780,946;25049,849;    1,005;   -0,773
781,513;25364,994;   -1,450;    0,318
782,080;24739,412;   -0,086;    2,864
782,647;25451,739;   -0,268;    3,045
783,214;25032,975;   -0,177;    3,864
783,781;24676,665;   -0,723;   -0,682
784,348;24527,174;   -0,632;    1,500
784,915;24987,501;   -3,177;    0,318
785,482;24779,282;    1,368;    2,591
786,049;25155,427;    0,186;   -0,591
786,615;25306,027;    0,277;   -0,955
787,182;24984,081;    0,186;   -0,682
787,749;24651,135;   -2,814;    1,409
788,315;24033,553;   -1,632;   -0,409
788,882;24321,153;    1,550;   -1,227
789,448;25030,934;    1,732;   -0,955
790,015;25044,716;    1,095;    3,227
790,581;24577,770;    1,459;    0,227
791,148;24487,733;    0,641;    1,045
791,714;24718,151;   -0,541;    3,136
792,280;24389,387;    0,186;    1,591
792,847;23924,714;    0,550;    2,500
793,413;24501,495;   -0,269;   -0,318
793,979;24027,640;    3,459;   -1,318
794,545;24126,513;    4,459;    2,682
795,111;23542,203;    2,186;    1,318
795,678;23756,621;    0,731;   -1,682
796,244;23400,584;    3,368;    0,136
796,810;23881,820;    1,731;    0,773
797,375;23621,965;    0,549;   -2,136
797,941;23701,838;   -0,541;    0,591
798,507;23865,710;   -0,451;   -0,955
799,073;23315,219;   -0,360;    0,591
799,639;23393,546;   -2,632;    3,136
800,205;23404,600;    0,095;    2,682
800,770;22983,654;    0,640;    1,773
801,336;23118,981;    1,368;   -0,955
801,901;22809,490;    4,549;    3,136
802,467;23283,453;   -0,542;    2,045
803,033;22639,143;   -0,087;    0,864
803,598;22905,925;    1,913;   -1,045
804,163;22960,797;    1,095;   -0,318
804,729;22912,397;   -0,178;    1,136
805,294;23253,360;    0,822;    2,227
805,859;23062,596;    0,731;   -0,409
806,425;22533,832;    1,186;    2,682
806,990;22190,068;    2,186;    4,318
807,555;22705,304;   -1,451;    2,591
808,120;22547,722;    0,822;   -0,409
808,685;22631,412;    0,185;   -2,500
809,250;22113,739;    0,004;   -0,500
809,815;22358,612;    1,913;    0,682
810,380;22952,393;   -0,269;    1,591
810,945;23553,993;   -1,087;    2,045
811,510;22721,683;    2,094;    1,591
812,075;22376,556;   -0,633;   -1,409
812,640;22387,155;    2,003;    1,409
813,204;22467,391;    0,822;   -0,227
813,769;22967,264;    2,094;   -0,045
814,334;22436,500;    0,458;    0,864
814,898;22470,099;    0,367;    0,591
815,463;22307,063;    1,276;   -0,773
816,027;22256,390;   -0,724;   -2,318
816,592;22360,353;    0,640;   -2,045
817,156;21913,407;    2,094;    1,136
817,721;21753,552;    4,276;    2,318
818,285;21653,970;    2,912;    1,500
818,849;22319,297;   -1,451;    1,682
819,414;22236,442;   -0,269;    2,955
819,978;21792,223;   -1,269;    1,773
820,542;22374,550;    2,003;    0,500
821,106;22115,513;   -0,815;    0,682
821,670;22251,204;   -0,815;    2,591
822,234;21948,622;   -0,270;    1,409
822,798;21288,585;    0,003;    0,500
823,362;21284,821;   -0,633;    4,227
823,926;20577,512;    0,094;    1,136
824,490;20832,020;   -0,997;   -0,682
825,054;21285,893;   -0,088;   -1,136
825,618;20937,856;   -1,542;   -1,500
826,181;20865,001;    0,458;   -1,318
826,745;20784,783;    1,367;   -1,045
827,309;21110,746;    1,185;    1,318
827,872;20501,164;    1,367;    0,955
828,436;21495,400;    1,185;   -0,773
828,999;21513,090;   -0,997;    1,227
829,563;20312,144;   -0,179;    1,136
830,126;20141,017;   -0,179;   -0,591
830,690;20144,616;   -1,997;    2,864
831,253;19696,670;   -0,543;    2,227
831,816;19828,997;   -1,906;    0,500
832,380;19753,688;    0,185;    0,864
832,943;20008,924;   -1,361;   -0,500
833,506;19430,069;    2,639;   -1,227
834,069;20231,669;    3,912;   -0,955
834,632;20284,268;    1,730;    1,318
835,195;20181,686;    1,003;    0,955
835,758;19385,013;   -0,997;    1,955
836,321;19233,067;    0,730;   -1,045
836,884;19357,030;   -0,725;   -0,955
837,447;19326,903;   -2,816;    1,773
838,010;19657,684;    0,366;    3,227
838,573;19924,920;   -1,179;    0,773
839,135;19880,702;   -1,361;   -0,955
839,698;19403,483;    1,275;    0,409
840,261;18896,355;    1,003;   -0,227
840,823;18714,046;   -0,543;    0,864
841,386;18986,827;   -0,452;   -2,409
841,948;18908,882;   -1,361;    1,773
842,511;18652,118;    0,912;    1,682
843,073;18783,172;    1,912;    0,227
843,636;18536,590;   -0,361;   -0,227
844,198;18538,826;    0,911;    0,591
844,760;18664,698;    1,093;    1,955
845,322;18311,661;    0,548;    1,136
845,885;18694,534;    0,730;    0,591
846,447;19141,497;   -1,998;    0,227
847,009;18749,187;    1,911;   -0,682
847,571;19035,605;    0,820;   -2,045
848,133;19166,296;   -1,089;   -1,864
848,695;18968,259;   -0,543;    1,409
849,257;18531,313;   -1,089;   -1,682
849,819;18688,822;   -0,998;   -0,409
850,381;18711,331;   -0,725;   -0,864
850,942;19090,021;    1,093;   -0,591
851,504;19093,712;    1,184;    0,227
852,066;19149,220;    1,275;   -1,591
852,628;18626,638;   -0,180;    1,955
853,189;18162,056;    1,638;    2,682
853,751;18305,019;   -0,907;    1,409
854,312;18108,801;   -0,453;   -1,682
854,874;18601,582;   -2,089;   -0,773
855,435;19126,273;   -0,907;   -1,682
855,997;19281,691;   -1,816;   -0,136
856,558;18560,108;    0,366;    1,773
857,119;18662,344;    0,820;    2,864
857,681;18339,762;    0,002;    0,318
858,242;18397,907;    1,911;   -2,136
858,803;18858,052;    0,456;   -0,773
859,364;19454,288;    0,184;   -4,773
859,925;18748,888;   -2,453;   -0,955
860,486;18636,579;   -0,453;   -0,955
861,047;18289,360;   -0,544;   -1,227
861,608;18143,960;   -1,089;   -0,773
862,169;18281,468;    0,638;   -0,045
862,730;18030,795;    0,456;    1,409
863,291;18293,122;   -0,635;   -0,500
863,852;18665,449;   -0,635;    1,955
864,412;18123,594;   -0,271;   -0,864
864,973;16663,376;   -0,089;    0,500
865,534;16540,339;   -1,726;    0,227
866,094;18100,302;    1,820;    0,227
866,655;17787,084;    1,274;    3,318
867,215;18009,592;    0,274;    0,136
867,776;17838,737;    0,547;   -0,136
868,336;17962,246;   -1,453;    0,136
868,897;17472,846;    2,638;    1,682
869,457;17185,173;    1,365;    0,318
870,017;17410,227;    0,547;   -1,227
870,578;17922,736;   -0,817;    0,773
871,138;17617,790;   -2,089;   -0,955
871,698;17206,480;   -0,817;   -1,318
872,258;17119,989;   -0,453;   -2,864
872,818;17471,498;    2,729;    0,045
873,378;17434,006;    0,638;    1,045
873,938;16877,242;    0,547;    0,500
874,498;17226,569;    0,274;   -1,955
875,058;17135,896;    2,183;    1,773
875,618;17001,950;    1,910;   -2,682
876,177;16909,096;    1,274;    0,136
876,737;16528,422;   -0,090;    1,955
877,297;16586,477;    0,183;    1,955
877,856;16575,531;   -0,362;    0,318
878,416;16529,494;    1,183;   -0,136
878,976;16745,094;   -1,817;    0,409
879,535;16890,512;    0,092;    3,136
880,095;16645,748;   -0,544;    0,045
880,654;16757,529;   -1,090;    1,318
881,213;16894,401;    2,456;    1,500
881,773;16538,819;    2,637;    2,682
882,332;16946,055;    3,365;    5,136
882,891;16729,291;    3,092;    2,136
883,451;17222,527;   -1,272;    1,682
884,010;16606,581;   -2,908;   -0,409
884,569;16730,363;   -0,999;   -0,045
885,128;16887,326;    2,819;   -1,864
885,687;16967,471;    4,455;    0,682
886,246;16699,889;    1,455;    2,136
886,805;16462,943;    2,455;    2,045
887,364;16712,543;   -0,999;   -0,500
887,922;17054,779;   -1,181;    0,045
888,481;16532,197;   -1,545;    0,591
889,040;16872,251;    1,183;    2,136
889,599;17486,669;    2,455;    1,409
890,157;17622,632;    1,455;    2,409
890,716;17266,868;   -0,090;    0,227
891,274;17107,195;    0,092;   -1,136
891,833;17514,067;    1,546;    0,864
892,391;17369,212;   -0,454;    0,500
892,950;17462,266;    1,819;   -0,773
893,508;17825,593;    0,455;   -0,409
894,067;17173,466;    0,637;    0,136
894,625;17048,429;   -0,636;   -1,500
895,183;17288,301;   -0,363;   -0,682
895,741;17213,537;    1,728;   -1,773
896,299;17006,864;   -0,545;   -2,409
896,858;17153,918;    0,819;   -1,591
897,416;17321,609;    2,728;   -1,318
897,974;17077,390;    1,819;    0,318
898,532;17274,444;    6,091;    2,682
899,089;17126,499;    2,091;   -0,682
899,647;17181,644;   -1,454;    1,318
900,205;16930,789;    1,182;    1,045
900,763;17075,207;   -0,454;    0,227
901,321;17098,624;    2,364;   -1,409
901,878;16516,588;   -1,000;   -0,773
902,436;16415,278;   -1,363;    1,318
902,994;16804,151;    4,728;    3,682
903,551;16242,932;    0,728;    0,409
904,109;16616,532;    0,182;   -1,409
904,666;16164,495;    2,455;    1,045
905,224;16018,913;    0,182;   -0,409
905,781;15750,967;    0,727;   -0,318
906,338;15815,294;   -1,363;    1,045
906,895;15766,803;    0,637;    2,045
907,453;15726,857;    1,727;    1,136
908,010;15730,184;   -0,909;    0,409
908,567;15404,420;    1,273;    0,591
909,124;14883,837;    0,364;   -1,500
909,681;14954,801;   -2,909;    0,682
910,238;15120,764;    0,636;   -1,318
910,795;15402,909;   -0,273;   -1,136
911,352;15022,364;   -2,909;   -2,682
911,909;14454,273;   -1,364;   -0,864
912,466;14948,000;   -3,182;    1,500
913,022;14509,909;   -1,636;    0,500
913,579;14900,091;   -0,909;    2,045
914,136;14570,909;    1,636;    0,955
914,692;14877,000;    0,091;   -1,227
915,249;14512,091;    1,455;    0,409
915,806;14749,455;    0,182;    1,955
916,362;14471,364;    1,909;    1,864
916,918;14044,636;    2,000;    1,045
917,475;14026,364;   -1,182;    0,955
918,031;14113,727;    3,364;   -0,045
918,587;13560,091;   -0,909;   -0,318
919,144;13787,091;   -2,273;    0,227
919,700;14099,455;    1,727;    0,773
920,256;13649,000;    0,727;    0,045
920,812;13279,000;   -0,727;   -1,045
921,368;13252,545;   -1,727;   -1,045
921,924;12898,909;    0,182;   -0,136
922,480;12476,909;   -0,545;    1,227
923,036;13125,273;    1,273;    1,955
923,592;13018,273;    0,455;    0,318
924,148;12923,545;    0,455;   -0,955
924,704;12243,545;   -1,364;   -0,409
925,259;12501,727;   -0,273;    0,591
925,815;12299,091;    1,455;    0,500
926,371;11805,455;    2,909;    1,409
926,926;11723,273;    2,091;    0,591
927,482;11335,727;   -1,364;    0,773
928,037;11211,818;    0,909;    2,045
928,593;11544,909;    1,636;    1,045
929,148;11336,182;   -1,818;   -1,500
929,704;10845,909;   -1,455;   -0,500
930,259;11056,727;    0,091;   -0,136
930,814;10156,091;   -0,818;    1,955
931,369; 9793,091;    1,091;   -0,773
931,925; 9673,727;   -0,091;    0,136
932,480; 9580,000;   -2,818;   -2,591
933,035; 9477,727;    0,545;   -0,318
933,590; 9248,273;    0,364;   -1,773
934,145; 8889,364;   -1,364;   -0,318
934,700; 9246,091;    0,455;   -0,591
935,255; 9056,455;   -0,091;    0,045
935,809; 8351,000;    3,182;    0,864
936,364; 7448,455;   -0,455;   -0,136
936,919; 7430,455;    0,455;   -1,773
937,474; 7297,364;    1,455;    0,136
938,028; 7044,545;   -1,636;    1,136
938,583; 6541,091;    1,818;    4,682
939,138; 6797,000;    2,091;    2,136
939,692; 6242,909;    1,636;   -1,136
940,247; 5955,818;   -0,727;   -1,045
940,801; 5526,182;   -0,636;    0,227
941,355; 5412,455;   -0,364;    2,591
941,910; 5052,273;   -0,273;   -2,136
942,464; 5169,364;   -0,818;   -0,318
943,018; 4990,091;    1,000;   -0,227
943,572; 4921,818;    2,545;   -0,682
944,126; 4339,091;    0,091;   -0,409
944,681; 4253,455;    3,091;    0,227
945,235; 4221,727;    1,000;   -0,591
945,789; 4169,091;    0,364;   -1,864
946,342; 4277,091;    0,455;   -0,591
946,896; 4060,636;   -2,273;    0,955
947,450; 3810,818;    1,545;   -0,227
948,004; 4019,727;    1,727;   -0,045
948,558; 4037,364;    0,273;   -0,864
949,111; 3971,727;   -0,273;   -0,318
949,665; 3984,909;    1,636;   -0,682
950,219; 3850,273;   -0,091;   -1,045
950,772; 3924,545;   -1,909;    1,864
951,326; 3830,182;    0,545;   -0,955
951,879; 3941,545;    0,727;   -2,318
952,433; 3959,182;    0,000;    2,227
952,986; 3798,182;    2,909;    0,682
953,539; 3754,273;   -0,273;    0,591
954,093; 3673,455;    0,545;   -1,318
954,646; 3821,909;    0,909;    1,318
955,199; 3630,182;    0,000;   -0,500
955,752; 3519,182;   -0,455;    1,773
956,305; 3459,455;   -0,091;    2,955
956,858; 3645,364;    0,818;   -0,318
957,411; 3804,545;   -0,545;    2,136
957,964; 3649,909;    1,364;    2,136
958,517; 3622,091;   -1,545;    3,136
959,070; 3453,636;   -0,455;    1,955
959,623; 3547,636;    1,091;    1,500
960,176; 3318,182;    1,727;    2,045
960,728; 3294,545;   -2,727;    0,773
961,281; 3338,364;    0,545;    0,500
961,834; 3384,182;   -0,909;    0,864
962,386; 3282,818;    1,727;    1,045
962,939; 3223,909;    0,364;   -0,318
963,491; 3371,182;    0,455;    1,136
964,043; 3244,000;    1,182;    2,409
964,596; 3375,909;   -1,000;    2,227
965,148; 3229,545;   -1,000;    1,773
965,700; 3129,727;    1,091;   -0,227
966,253; 3280,182;   -0,636;    0,318
966,805; 3122,545;   -2,273;    0,773
967,357; 3162,273;    1,091;   -1,500
967,909; 3133,364;    0,455;   -1,227
968,461; 3235,091;    0,545;    3,136
969,013; 3172,818;   -0,182;   -0,864
969,565; 3240,455;   -0,455;   -1,136
970,117; 3299,091;   -0,364;    1,045
970,669; 3134,091;    0,182;   -0,136
971,220; 2997,909;   -0,455;   -1,500
971,772; 2933,455;   -0,636;   -0,318
972,324; 3051,636;    0,091;   -0,500
972,876; 3006,455;    0,818;   -0,045
973,427; 3145,818;    1,909;   -1,045
973,979; 3089,364;   -0,727;   -2,500
974,530; 3130,727;    1,818;    1,318
975,082; 3135,545;   -0,545;    1,682
975,633; 3032,364;    1,091;    1,682
976,184; 3153,909;    0,909;    0,773
976,736; 2963,818;    0,091;    0,227
977,287; 2776,818;   -0,909;   -0,500
977,838; 2959,455;    0,909;   -0,318
978,389; 3029,000;   -1,000;   -0,500
978,940; 2880,909;    0,545;   -0,409
979,491; 2909,636;    0,091;   -0,500
980,042; 2879,091;    0,182;    3,045
980,593; 2935,818;   -2,545;    0,227
981,144; 2977,091;    2,545;   -0,500
981,695; 2923,273;    1,455;    1,500
982,246; 2896,818;   -0,273;    1,045
982,797; 3040,727;   -1,727;    0,682
983,347; 3144,273;    0,364;    0,591
983,898; 3337,545;    3,091;    0,409
984,449; 3178,909;    2,182;    0,773
984,999; 3060,091;    1,455;   -1,136
985,550; 2855,727;    0,182;   -0,318
986,100; 2871,636;   -0,455;   -0,318
986,651; 2895,727;   -0,818;    0,045
987,201; 2874,364;   -1,000;   -0,591
987,751; 2948,545;    0,818;    2,864
988,302; 2934,818;    2,636;    1,500
988,852; 2974,727;    0,455;   -1,136
989,402; 3019,545;    0,091;    0,682
989,952; 2924,636;   -2,182;    0,864
990,502; 3042,545;   -0,091;    0,682
991,052; 3000,818;   -0,727;    0,045
991,602; 2871,000;   -2,909;    1,318
992,152; 2875,000;    0,455;    0,682
992,702; 2823,364;    1,364;   -0,045
993,252; 2749,909;   -3,000;   -0,500
993,802; 2880,545;   -0,273;    1,318
994,352; 3094,364;   -1,545;    1,136
994,901; 3177,364;   -0,182;    3,227
995,451; 3083,636;   -0,182;    0,318
996,000; 3153,000;    1,636;    0,318
996,550; 2881,091;    2,273;    0,227
997,100; 2879,727;    1,273;   -0,045
997,649; 3166,000;    2,182;    0,955
998,198; 2816,727;    1,727;   -1,500
998,748; 3009,273;    1,091;   -2,318
999,297; 2916,909;   -0,818;   -0,409
999,846; 2975,909;    1,000;   -0,773
1000,395; 3007,273;   -0,818;    0,500
1000,945; 2960,455;    1,818;   -0,773
1001,494; 3088,545;    2,364;    0,682
1002,043; 3057,364;    4,636;    0,864
1002,592; 2877,818;   -1,091;    1,955
1003,141; 3038,455;   -0,455;   -0,682
1003,690; 2906,636;    1,727;    0,500
1004,238; 2982,273;    1,455;   -0,045
1004,787; 2630,727;    1,364;    1,227
1005,336; 2872,545;    0,364;    0,682
1005,885; 3000,818;    1,364;   -2,773
1006,433; 3154,182;    0,545;    0,955
1006,982; 3197,909;    0,455;    1,682
1007,531; 3104,000;   -1,818;   -0,227
1008,079; 3039,818;   -2,273;    0,500
1008,627; 3183,364;   -1,455;    0,409
1009,176; 2926,000;    0,000;   -1,955
1009,724; 2973,364;    1,091;    0,864
1010,273; 3036,818;    1,273;    0,500
1010,821; 3120,636;    0,091;    1,409
1011,369; 2845,545;   -1,364;    1,318
1011,917; 2827,545;   -1,364;   -0,591
1012,465; 3114,545;    1,273;   -1,591
1013,013; 3225,909;    2,091;   -1,682
1013,561; 3124,364;    0,455;   -0,773
1014,109; 3183,818;   -1,909;    1,682
1014,657; 3061,545;    0,364;    0,591
1015,205; 3164,091;    1,636;   -0,955
1015,753; 3201,364;   -0,545;   -1,409
1016,301; 3232,000;   -2,636;    3,045
1016,848; 3232,636;   -1,273;    0,409
1017,396; 3293,091;    2,545;    0,045
1017,944; 3401,818;    1,182;    1,864
1018,491; 3155,545;    0,273;    1,409
1019,039; 3310,091;    0,455;    0,591
1019,586; 3221,182;   -1,364;    1,682
1020,134; 3304,818;    0,455;    1,500
1020,681; 3331,818;    0,182;   -1,136
1021,228; 3338,455;    2,909;   -2,227
1021,776; 3173,273;    1,182;   -1,136
1022,323; 3400,000;    0,455;    0,773
1022,870; 3342,000;   -1,000;   -0,045
1023,417; 3231,909;    2,636;    1,864
1023,964; 3360,000;    2,636;    1,227
1024,511; 3204,818;    1,000;    0,773
1025,058; 2998,364;    3,182;   -0,045
1025,605; 3071,636;   -2,273;    3,136
1026,152; 3315,364;    1,727;   -0,591
1026,699; 3026,091;    1,818;    1,318
1027,245; 3165,455;   -0,091;    0,318
1027,792; 3372,909;   -1,000;    1,409
1028,339; 3267,273;    2,364;   -0,045
1028,885; 3126,364;    1,000;   -0,227
1029,432; 3060,636;   -0,091;    0,227
1029,978; 3119,182;   -1,000;   -1,591
1030,525; 3031,273;    1,000;    0,409
1031,071; 3264,091;   -1,364;    1,136
1031,618; 3370,273;    0,364;    1,682
1032,164; 3144,182;   -0,091;    3,045
1032,710; 3207,000;    1,636;   -1,500
1033,256; 3109,182;   -0,636;   -0,136
1033,803; 3078,727;   -0,545;    1,500
1034,349; 2803,273;   -1,364;    0,136
1034,895; 2963,000;    0,000;   -0,318
1035,441; 2957,455;   -0,818;    0,318
1035,987; 2947,000;   -2,364;   -0,682
1036,533; 2950,455;   -1,455;   -0,955
1037,078; 3164,455;    1,455;    1,682
1037,624; 2967,273;    2,455;   -0,955
1038,170; 2998,545;    0,455;   -0,318
1038,716; 2923,364;    1,636;   -0,409
1039,261; 2828,091;   -2,273;   -0,773
1039,807; 2757,182;   -0,091;    3,409
1040,352; 2824,091;   -1,909;   -0,318
1040,898; 2871,636;   -1,545;   -0,682
1041,443; 2760,818;   -1,455;   -2,591
1041,989; 2810,182;    1,091;    1,591
1042,534; 2670,091;   -0,364;    2,591
1043,079; 2772,182;    2,909;    0,955
1043,625; 2564,636;    1,818;    0,500
1044,170; 2630,182;   -1,364;    1,045
1044,715; 2896,182;    2,455;    0,955
1045,260; 2701,909;    2,182;   -0,955
1045,805; 2730,818;    1,182;   -0,591
1046,350; 2653,909;    1,364;   -0,409
1046,895; 2633,091;    2,909;    1,591
1047,440; 2587,182;    5,364;    0,409
1047,985; 2490,000;    2,818;   -0,955
1048,530; 2401,182;    1,545;    1,227
1049,074; 2470,273;    0,000;    0,318
1049,619; 2433,909;   -1,364;    1,955
1050,164; 2251,273;    0,455;    0,227
1050,708; 2293,909;   -0,455;    0,045
1051,253; 2674,545;    1,273;   -2,227
1051,797; 2372,091;    0,818;   -1,318
1052,342; 2384,636;   -1,182;    1,045
1052,886; 2404,545;    0,364;   -1,409
1053,430; 2249,909;   -1,364;    0,136
1053,975; 2276,182;   -0,818;   -0,318
1054,519; 2258,091;   -0,727;    3,227
1055,063; 2270,545;    0,909;    1,318
1055,607; 2155,909;   -0,182;    0,227
1056,151; 2169,909;    2,909;    1,682
1056,695; 2092,182;    2,273;   -1,136
1057,239; 2161,545;   -1,727;   -0,682
1057,783; 2171,727;    0,818;   -1,500
1058,327; 2123,000;    0,000;    1,409
1058,871; 2362,455;   -0,545;    1,318
1059,415; 2066,273;   -0,818;   -0,045
1059,958; 2338,909;    1,455;    2,591
1060,502; 2055,182;   -1,000;   -0,773
1061,046; 1945,636;    0,364;   -0,955
1061,589; 1918,182;   -3,000;   -1,136
1062,133; 1798,364;   -1,273;    1,864
1062,676; 1744,909;    1,182;    0,864
1063,220; 1755,182;    1,091;    0,500
1063,763; 1775,273;    0,909;    1,136
1064,306; 1865,273;   -0,909;    1,864
1064,849; 1759,000;   -0,909;    0,591
1065,393; 1750,818;    2,000;   -1,500
1065,936; 1862,636;    0,182;   -0,409
1066,479; 1744,545;   -1,455;    1,318
1067,022; 1763,636;   -0,273;   -0,227
1067,565; 1660,909;   -0,091;   -1,318
1068,108; 1696,364;    0,727;   -0,591
1068,651; 1668,727;   -0,636;    1,409
1069,194; 1600,364;   -0,455;   -1,682
1069,736; 1601,000;   -1,273;    0,955
1070,279; 1555,273;   -1,364;   -0,500
1070,822; 1626,818;   -2,000;   -0,318
1071,364; 1738,273;   -0,364;    1,318
1071,907; 1546,909;   -0,727;    3,227
1072,450; 1449,091;    0,000;   -0,045
1072,992; 1445,273;   -0,273;    3,136
1073,535; 1592,818;    2,091;    2,136
1074,077; 1376,273;   -0,727;    2,045
1074,619; 1346,455;   -1,364;    0,591
1075,161; 1390,636;   -1,091;    1,500
1075,704; 1576,636;    1,545;    1,227
1076,246; 1360,182;   -0,182;    0,682
1076,788; 1281,364;   -0,364;    1,773
1077,330; 1360,091;    1,273;    2,136
1077,872; 1325,000;    0,909;    0,955
1078,414; 1558,091;    2,727;    0,773
1078,956; 1279,909;    1,273;   -0,227
1079,498; 1548,364;    1,636;    0,318
1080,040; 1249,727;    1,909;   -1,318
1080,581; 1187,273;    1,636;   -0,318
1081,123; 1106,364;    0,091;   -0,773
1081,665; 1159,273;   -1,182;   -0,955
1082,206; 1466,818;    1,364;   -0,500
1082,748; 1332,545;    0,727;    2,045
1083,289; 1195,727;   -2,000;    1,318
1083,831; 1108,182;   -0,545;    0,227
1084,372; 1157,636;    0,000;    0,591
1084,913; 1149,455;    1,091;    0,864
1085,455; 1107,636;   -1,909;   -2,045
1085,996; 1090,818;   -2,273;    0,136
1086,537; 1112,000;   -0,091;    0,864
1087,078; 1137,909;   -0,909;   -2,136
1087,619; 1191,909;   -1,273;    0,227
1088,160; 1098,909;    0,000;    1,318
1088,701; 1083,273;   -1,091;    0,682
1089,242; 1029,636;    1,364;   -2,227
1089,783; 1131,455;   -0,273;    1,409
1090,324; 1082,818;    0,455;    0,682
1090,865;  958,636;    2,727;   -0,409
1091,405;  936,818;    0,727;    2,227
1091,946;  961,000;    0,182;   -0,955
1092,487;  886,909;    0,818;   -1,409
1093,027; 1063,909;   -1,364;   -1,500
1093,568;  903,909;   -0,364;    1,227
1094,108; 1007,909;    0,273;    1,773
1094,649;  950,091;   -1,182;    0,136
1095,189;  880,545;   -0,636;   -0,682
1095,729;  830,727;   -0,091;    0,955
1096,269;  836,818;    0,727;   -0,955
1096,810; 1166,545;   -1,364;    0,500
1097,350;  992,455;    1,364;   -0,773
1097,890;  888,182;    0,364;    1,227
1098,430; 1146,091;    2,364;    2,864
1098,970; 1023,091;    2,182;    1,682
1099,510;  871,727;    0,545;   -2,318
1100,050;  801,273;    1,000;   -1,591
1100,589;  768,636;   -0,727;   -0,318
1101,129;  896,273;    0,818;   -0,955
1101,669; 1049,364;    1,727;    2,136
1102,209;  866,727;   -0,091;    2,227
1102,748;  825,636;    0,000;    0,955
1103,288;  822,727;    1,273;   -1,227
1103,827;  839,545;    3,091;   -2,227
1104,367;  717,727;   -0,091;   -2,409
1104,906;  687,636;    1,364;   -1,136
1105,445;  745,182;    0,636;   -1,136
1105,985;  697,636;   -0,727;    1,500
1106,524;  751,909;   -1,727;   -0,682
1107,063;  726,091;   -2,727;    1,409
1107,602;  696,273;   -1,909;   -1,500
1108,141;  621,364;   -1,909;    1,500
1108,680;  749,000;   -3,455;   -0,591
1109,219;  672,364;   -0,909;   -0,500
1109,758;  670,727;    0,455;    0,682
1110,297;  633,364;    1,000;   -0,682
1110,836;  577,455;   -0,727;    0,955
1111,375;  746,818;   -2,545;    0,409
1111,913;  762,818;   -1,000;    0,773
1112,452;  691,455;   -0,273;    0,136
1112,991;  570,909;    1,091;    1,955
1113,529;  535,545;   -0,818;   -0,045
1114,068;  613,636;   -0,273;    2,955
1114,606;  507,818;   -0,364;   -0,955
1115,144;  687,909;   -1,273;    1,045
1115,683;  604,000;   -0,727;    0,318
1116,221;  659,364;   -0,455;   -0,864
1116,759;  562,545;    0,636;   -0,864
1117,297;  773,818;    0,000;    1,864
1117,836;  565,455;   -2,182;   -1,227
1118,374;  583,818;    0,182;   -0,682
1118,912;  525,182;    0,909;    2,682
1119,450;  515,000;    1,000;    0,864
1119,988;  567,455;    1,545;    2,136
1120,525; 1023,273;    5,091;    3,318
1121,063;  712,091;    1,182;    1,864
1121,601;  520,727;   -0,909;   -1,227
1122,139;  474,818;   -0,727;   -2,045
1122,676;  685,818;   -0,727;    2,773
1123,214;  617,273;   -1,182;    4,409
1123,751;  425,364;    1,727;    2,227
1124,289;  552,455;   -0,091;   -0,409
1124,826;  416,091;    1,727;    0,227
1125,364;  339,182;    1,727;   -0,955
1125,901;  532,545;    1,182;    1,227
1126,438;  654,909;    0,818;    0,955
1126,975;  370,545;   -0,727;   -0,773
1127,513;  438,909;    0,273;    2,136
1128,050;  342,636;    1,636;   -0,682
1128,587;  458,545;    2,000;   -0,227
1129,124;  498,000;    0,091;    1,318
1129,661;  352,364;    0,273;    0,227
1130,198;  527,182;    1,636;    0,773
1130,734;  478,364;    0,182;    1,409
1131,271;  327,727;   -0,909;    0,864
1131,808;  498,000;    2,909;    3,045
1132,345;  379,455;    1,545;    0,318
1132,881;  237,455;   -1,545;   -1,864
1133,418;  394,545;    0,727;   -1,136
1133,954;  324,909;    2,455;   -2,682
1134,491;  396,364;    1,364;   -0,773
1135,027;  297,273;    2,364;    0,864
1135,564;  392,909;    0,273;    2,955
1136,100;  376,727;    0,364;    2,136
1136,636;  255,545;   -1,273;   -1,045
1137,172;  362,455;    0,000;   -1,045
1137,708;  286,273;   -1,364;   -1,045
1138,245;  278,727;    1,273;   -1,227
1138,781;  226,273;    1,091;   -3,318
1139,317;  308,182;    1,273;   -1,409
1139,852;  294,364;    3,091;    0,136
1140,388;  410,818;   -1,182;   -0,409
1140,924;  289,182;   -1,091;   -2,227
1141,460;  227,182;   -1,636;    0,136
1141,996;  157,909;   -1,364;    2,682
1142,531;  211,818;    1,364;    3,318
1143,067;  429,818;    1,182;    1,045
1143,602;  493,455;   -0,091;   -0,318
1144,138;  325,909;   -2,636;    1,045
1144,673;  193,364;   -1,455;    1,409
1145,209;  275,182;   -1,909;   -0,318
1145,744;  181,636;   -0,727;    0,864
1146,279;  328,636;    1,818;   -0,136
1146,815;  229,273;    1,545;   -2,682
1147,350;  279,182;   -1,364;    0,045
1147,885;  186,455;   -0,818;   -1,318
1148,420;  184,545;   -2,273;    0,773
1148,955;  168,182;   -1,727;    1,864
1149,490;  200,545;   -0,909;   -1,591
1150,025;  176,091;    0,455;   -1,773
1150,560;  293,636;    1,091;   -0,955
1151,094;  250,000;    1,455;   -0,591
1151,629;  264,273;    1,636;    0,864
1152,164;  183,545;    1,364;    1,318
1152,698;  147,273;   -0,182;   -0,136
1153,233;  106,545;    0,091;   -0,682
1153,767;  151,364;   -3,000;   -2,318
1154,302;  197,545;   -1,455;    1,773
1154,836;  203,273;   -0,455;   -2,136
1155,371;  263,364;   -1,364;    3,682
1155,905;  206,455;   -0,636;    1,682
1156,439;  175,364;   -0,636;   -0,500
1156,973;  207,091;    0,364;    0,318
1157,507;  133,091;   -0,364;    0,682
1158,042;  168,000;   -0,727;    1,045
1158,576;  229,818;    0,182;    1,773
1159,110;  208,000;   -0,818;    2,409
1159,643;  177,818;    0,636;   -0,045
1160,177;  108,818;   -1,545;    1,500

