
Integration time [ms]:   0,040
Averaging Nr. [scans]: 11
Smoothing Nr. [pixels]: 0
Data measured with spectrometer [name]: 7318044SP
Wave   ;Sample   ;Dark     ;Reference
[nm]   ;[counts] ;[counts] ;[counts] 

186,757;   28,333;   31,551;    1,318
187,357;   65,543;   22,551;    0,955
187,958;   41,708;   15,460;   -1,591
188,558;   92,144;    8,915;   -1,227
189,159;   58,372;    6,733;   -4,500
189,759;   24,882;    7,278;   -3,591
190,360;   19,701;    2,824;   -2,136
190,960;   67,999;    2,915;   -4,136
191,560;   83,508;    3,189;   -6,591
192,161;  343,375;    4,372;   -3,500
192,761;  175,706;    4,010;   -3,227
193,361;  110,035;    1,556;   -3,773
193,962;  163,722;    2,010;   -2,682
194,562;   82,827;    1,189;   -3,955
195,162;  125,905;   -2,448;   -2,227
195,762;  303,778;   -3,176;   -0,045
196,362;  247,184;    1,370;   -2,500
196,963;   89,456;    2,006;   -0,864
197,563;  173,693;    1,551;   -0,955
198,163;  113,301;    0,096;   -0,682
198,763;  136,546;    1,733;   -0,500
199,363;  253,707;    3,096;   -0,500
199,963;  213,727;    0,369;    0,409
200,563;  178,259;    2,823;   -1,409
201,163;  155,255;    3,277;   -0,227
201,763;  251,328;    3,732;    0,318
202,363;  186,783;    1,459;    1,500
202,963;  308,356;    1,459;    1,045
203,563;  428,895;    0,277;    0,500
204,162;  263,636;    2,096;   -1,864
204,762;  243,695;    0,550;    0,591
205,362;  211,422;    3,004;    1,955
205,962;  326,706;    3,096;    1,955
206,562;  318,877;    1,823;    2,318
207,161;  285,701;   -0,087;    0,318
207,761;  450,363;    1,277;    2,409
208,361;  310,279;   -0,268;    1,409
208,960;  425,013;    0,459;    1,500
209,560;  499,523;    1,277;    1,591
210,160;  478,293;    0,550;    1,864
210,759;  446,471;    4,186;    1,227
211,359;  454,848;    1,459;    1,045
211,958;  732,667;    1,277;    2,045
212,558;  822,100;    1,732;    1,864
213,157;  663,509;    1,822;    1,500
213,757; 1120,051;    3,822;   -0,227
214,356;  804,845;    1,277;   -0,409
214,956; 1139,349;    3,095;    0,409
215,555;  750,705;    2,095;    2,136
216,154;  682,463;   -2,723;   -0,591
216,754;  699,002;    0,277;    0,773
217,353;  833,352;   -0,268;   -1,045
217,952;  673,383;   -0,178;    0,318
218,552;  936,659;    1,368;   -0,773
219,151;  829,550;    0,277;    0,955
219,750;  824,497;    0,004;   -0,227
220,349;  962,281;   -0,451;    1,045
220,948; 1034,784;   -1,360;    1,136
221,548; 1060,911;    0,913;    1,227
222,147; 1184,561;   -0,087;   -0,409
222,746; 1483,683;   -0,451;   -0,955
223,345; 1361,246;    0,731;    0,500
223,944; 1359,330;   -0,451;    0,773
224,543; 1537,285;    1,004;   -1,409
225,142; 1669,920;    0,094;    0,136
225,741; 1577,141;   -0,814;    1,045
226,340; 1598,826;   -0,451;   -0,955
226,939; 2065,281;   -0,996;   -0,136
227,538; 2032,889;   -0,360;   -0,773
228,137; 2203,767;   -0,814;    0,864
228,735; 2355,400;   -0,541;    1,227
229,334; 2098,575;   -0,905;   -0,227
229,933; 2484,463;    0,459;    0,591
230,532; 2587,967;    1,186;   -0,409
231,131; 2645,880;    1,732;    0,318
231,729; 2835,446;   -2,450;   -2,318
232,328; 2970,222;   -0,723;   -1,500
232,927; 3046,736;    1,004;   -0,500
233,525; 3180,005;    3,640;    0,045
234,124; 3405,208;    2,368;   -1,591
234,723; 3422,782;    0,913;   -1,045
235,321; 3579,079;    2,277;    0,136
235,920; 3834,995;    1,186;   -1,227
236,518; 4089,474;    3,459;    0,318
237,117; 4294,974;    0,004;   -0,227
237,715; 4472,184;    0,640;   -0,500
238,314; 4512,796;   -0,087;   -2,318
238,912; 4616,736;   -0,723;   -1,409
239,510; 4665,904;    0,459;   -1,227
240,109; 4839,649;    0,004;    3,773
240,707; 4875,271;   -0,996;    1,227
241,305; 5280,600;    0,550;    0,136
241,904; 5502,055;   -0,178;   -2,045
242,502; 5458,974;   -0,632;   -0,227
243,100; 5409,995;   -0,087;   -0,955
243,698; 5620,750;    0,732;    1,682
244,297; 5824,215;   -0,632;    0,682
244,895; 5664,890;   -0,269;   -2,318
245,493; 6045,257;    2,186;   -0,591
246,091; 6075,575;    1,368;   -1,318
246,689; 6068,571;    1,004;    0,591
247,287; 6219,264;    0,822;   -1,136
247,885; 6508,606;   -1,451;    1,227
248,483; 6618,865;    1,822;   -0,500
249,081; 6741,550;    0,185;    1,591
249,679; 6925,204;   -0,178;    1,682
250,277; 7213,491;   -1,723;    0,864
250,875; 7213,271;   -1,087;   -1,045
251,473; 7224,190;   -1,178;    0,500
252,071; 7422,956;    1,459;    1,045
252,669; 7578,330;   -1,814;    0,318
253,267; 7826,448;   -0,087;    0,773
253,864; 7834,991;   -0,360;    0,682
254,462; 7657,778;    1,640;    1,591
255,060; 7633,033;   -0,269;    1,318
255,658; 7980,330;    0,822;   -0,136
256,255; 8415,806;    0,186;   -2,045
256,853; 8253,515;   -0,269;    1,409
257,451; 8242,886;    0,822;    1,864
258,048; 8534,778;    1,822;    1,864
258,646; 8292,319;    1,731;   -1,045
259,243; 8517,879;   -0,087;    2,227
259,841; 8560,938;   -0,814;    0,318
260,438; 8408,396;   -0,087;    0,864
261,036; 9176,341;   -1,905;    1,409
261,633; 9049,428;   -0,087;    2,227
262,231; 8767,806;    2,731;   -0,045
262,828; 8846,680;   -0,905;    1,136
263,425; 8925,407;    0,913;   -0,591
264,023; 9210,306;    0,186;    0,045
264,620; 8771,494;   -0,360;   -0,318
265,217; 9123,334;   -2,087;    3,136
265,815; 9190,725;   -1,905;    2,136
266,412; 8968,431;    0,731;    0,136
267,009; 9038,064;   -1,451;    0,773
267,606; 8941,683;    0,822;   -0,955
268,203; 8898,205;   -0,269;   -0,591
268,801; 9174,267;    1,731;    0,591
269,398; 9480,557;   -0,360;    2,500
269,995; 9459,862;    0,277;    1,591
270,592; 9261,425;   -0,632;   -0,500
271,189; 9463,225;    0,186;    0,409
271,786; 9569,351;   -0,632;    1,227
272,383; 9369,984;   -1,087;    0,227
272,980; 9580,494;    0,277;    0,318
273,577;10095,565;    0,004;    1,227
274,174; 9652,519;    0,822;    2,591
274,771; 9638,603;   -0,814;   -0,773
275,367; 9798,107;    2,277;    1,409
275,964; 9761,666;    0,731;   -0,500
276,561; 9844,886;    1,549;   -1,045
277,158;10041,295;    0,095;   -1,773
277,755;10195,732;    2,185;    0,409
278,351; 9587,680;   -0,451;   -1,500
278,948; 9911,242;   -0,815;    0,045
279,545; 9898,141;   -1,360;    2,318
280,141;10561,963;   -1,723;   -2,045
280,738;10454,323;   -0,451;   -0,136
281,334;10663,921;   -1,633;    0,591
281,931;10060,459;   -0,087;   -1,318
282,528;10145,746;    0,822;   -0,500
283,124;10879,505;   -1,087;   -0,500
283,721;10767,081;   -0,451;    1,409
284,317;10615,252;    0,185;    2,500
284,913;11160,148;   -1,360;    0,591
285,510;11353,966;    0,640;   -0,318
286,106;11364,344;   -2,269;   -0,955
286,703;10965,928;   -0,360;    1,955
287,299;11145,666;   -1,451;   -0,591
287,895;11377,889;    0,822;   -1,045
288,491;11923,921;    0,186;    2,136
289,088;11646,466;   -2,360;    2,409
289,684;11726,603;   -1,723;    1,500
290,280;11751,225;    0,368;    0,682
290,876;11848,550;    1,822;    5,500
291,472;11724,417;    1,276;    2,227
292,068;11847,078;    1,367;    0,227
292,665;11540,211;    2,095;    0,773
293,261;11123,868;    0,276;    2,136
293,857;11532,764;    2,913;    2,136
294,453;11457,278;    3,550;    0,955
295,049;11336,513;   -0,268;    1,955
295,644;11363,670;    0,095;    0,136
296,240;11271,034;   -0,905;   -0,136
296,836;11314,048;   -0,995;    0,318
297,432;11597,472;    1,096;   -0,500
298,028;11667,353;    0,732;    0,773
298,624;12059,968;    1,459;    1,864
299,220;12322,451;    2,368;    0,591
299,815;12014,919;    1,005;   -0,409
300,411;11774,422;    0,914;    1,773
301,007;11783,251;    1,368;    0,227
301,602;11834,478;   -0,541;   -2,318
302,198;11975,308;    0,732;   -0,773
302,794;12315,318;    1,187;   -0,500
303,389;12460,237;   -1,177;    1,045
303,985;12538,398;    0,550;    1,409
304,580;12505,041;    1,459;    1,591
305,176;12465,664;   -3,086;    0,136
305,771;12400,544;   -1,268;   -1,227
306,367;12269,901;    4,095;    0,136
306,962;12601,569;    0,641;    1,500
307,558;12289,143;   -0,450;    0,136
308,153;12224,576;    1,095;   -1,136
308,748;12471,069;   -0,814;    1,682
309,344;12441,114;   -0,632;   -1,318
309,939;12534,569;   -1,905;   -1,318
310,534;12793,887;   -0,086;   -1,682
311,130;12731,681;    0,459;   -2,500
311,725;12455,891;    1,004;   -0,500
312,320;12800,817;    2,459;    0,045
312,915;12604,436;    1,459;   -1,045
313,510;12715,562;    1,550;   -0,500
314,105;13194,084;    1,096;    1,409
314,700;12585,020;   -3,086;   -1,045
315,295;12191,223;   -0,904;    0,045
315,890;11786,471;    1,277;    0,864
316,485;12174,716;   -0,359;   -0,318
317,080;12256,031;   -3,086;    1,591
317,675;12861,912;    2,005;   -0,682
318,270;12286,052;    5,550;    3,318
318,865;12242,594;    3,278;    3,045
319,460;12090,720;   -0,904;    0,591
320,055;12297,986;   -0,541;   -1,227
320,650;11975,028;   -1,995;   -0,591
321,244;11982,276;   -0,177;   -1,409
321,839;12982,304;   -1,541;   -0,227
322,434;12868,090;   -1,086;   -1,591
323,029;12474,374;    1,732;    1,591
323,623;12263,524;    1,550;    0,773
324,218;12031,713;    2,368;    1,409
324,812;11933,685;    1,096;    1,591
325,407;11743,447;   -0,814;    2,045
326,002;11645,786;    0,277;   -0,409
326,596;11953,737;    0,914;    1,318
327,191;12144,769;    0,823;   -1,045
327,785;11700,283;   -0,813;   -0,227
328,379;11946,527;    1,368;    0,136
328,974;11725,922;    0,914;   -3,955
329,568;11982,083;    0,186;   -2,409
330,163;11783,867;    2,096;    1,045
330,757;12122,058;    2,459;    1,591
331,351;11448,506;    0,459;    0,682
331,945;11738,405;    0,914;    1,409
332,540;11345,873;   -1,723;   -0,591
333,134;11503,125;   -1,086;    0,773
333,728;11763,387;    0,005;    0,318
334,322;12080,006;   -1,177;   -0,864
334,916;11387,586;    0,277;    0,955
335,510;11703,440;   -0,450;   -0,136
336,105;11940,678;   -1,086;    1,591
336,699;11624,975;   -1,086;    0,591
337,293;11557,639;   -1,723;    0,318
337,887;11731,940;   -2,723;    1,955
338,481;11852,083;    0,459;    0,591
339,074;12005,674;   -0,359;    2,682
339,668;11819,898;   -1,632;    1,227
340,262;12101,614;    1,732;    3,227
340,856;11566,680;    1,822;   -0,682
341,450;10922,044;    1,004;    1,864
342,044;11825,184;    1,459;    0,136
342,637;11606,195;    0,913;   -2,136
343,231;11460,858;   -2,360;    0,682
343,825;11414,517;   -1,086;   -0,591
344,419;11373,426;   -1,995;    0,500
345,012;11159,062;    2,459;    4,045
345,606;11222,192;    4,641;    1,591
346,199;11009,996;   -1,813;   -0,227
346,793;10545,311;    1,914;    2,045
347,386;10725,013;   -0,813;   -1,136
347,980;10736,846;   -0,268;   -0,045
348,573;10498,396;    2,278;    0,409
349,167;10212,392;    5,278;    4,773
349,760;10526,976;    2,914;    2,682
350,354;10513,753;   -0,813;    1,136
350,947;10277,858;    1,096;    1,682
351,540; 9918,428;   -0,358;   -1,409
352,134; 9821,553;    1,096;    1,136
352,727; 9926,283;   -0,086;    1,136
353,320; 9702,147;    0,005;    0,591
353,913; 9548,291;   -1,995;    1,864
354,507; 9774,399;    0,823;   -1,227
355,100; 9727,287;    0,460;    0,864
355,693; 9011,340;    2,005;    2,409
356,286; 9062,550;    0,823;    2,773
356,879; 9370,165;   -0,722;    1,227
357,472; 8964,207;   -0,904;    1,500
358,065; 9180,938;   -0,722;    2,500
358,658; 9084,889;   -0,540;    2,318
359,251; 8742,896;   -1,631;   -0,591
359,844; 8232,382;   -1,904;   -1,136
360,437; 8435,263;   -2,995;    0,045
361,030; 8660,046;    1,369;   -0,682
361,623; 8264,165;    2,824;    0,318
362,215; 8314,959;   -0,086;    2,045
362,808; 8160,071;   -2,358;   -1,682
363,401; 8349,379;   -2,449;    0,136
363,994; 8085,680;   -0,631;   -1,500
364,586; 8005,610;    0,824;   -1,500
365,179; 8236,488;   -0,449;   -1,136
365,772; 7711,511;   -1,995;    2,045
366,364; 8020,554;    1,915;   -3,227
366,957; 8209,122;    2,279;   -0,045
367,549; 8225,202;    2,188;   -0,864
368,142; 7874,570;    1,825;   -1,500
368,734; 8070,336;    0,734;   -2,136
369,327; 8014,361;    1,643;   -0,500
369,919; 7928,669;   -1,538;    0,409
370,512; 7752,261;   -1,083;   -0,500
371,104; 7508,566;   -0,901;    1,591
371,696; 7686,607;    1,191;   -0,955
372,289; 7797,265;    0,373;    1,136
372,881; 7929,840;   -2,080;    1,318
373,473; 7842,244;   -2,170;    1,136
374,066; 7647,547;   -0,169;    0,500
374,658; 7479,026;    0,378;    1,136
375,250; 7823,544;    0,653;   -1,409
375,842; 7695,779;    0,473;   -0,045
376,434; 7582,072;   -0,435;   -0,409
377,026; 8144,782;    0,204;   -2,500
377,618; 8046,381;   -0,158;   -0,682
378,210; 7884,444;   -0,338;   -1,955
378,802; 7733,132;    0,754;   -0,591
379,394; 7723,162;    1,846;    0,682
379,986; 8287,698;    1,393;   -0,955
380,578; 8367,024;   -0,153;    0,773
381,170; 7706,302;   -0,972;    0,045
381,762; 7710,660;    0,755;    1,409
382,354; 7916,657;   -0,065;   -1,318
382,945; 8007,333;   -2,976;    0,318
383,537; 8120,864;   -2,705;   -1,955
384,129; 8151,792;   -2,160;   -1,136
384,721; 8347,050;   -0,252;    0,955
385,312; 8270,853;   -0,161;   -0,955
385,904; 8354,081;   -2,706;    1,591
386,496; 7725,054;   -0,979;    1,045
387,087; 7904,750;    1,022;    2,500
387,679; 7921,831;   -1,160;    0,045
388,270; 8058,388;    2,840;    2,045
388,862; 8141,384;    1,295;   -0,318
389,453; 8034,713;   -0,887;    1,045
390,045; 8353,318;   -0,705;   -2,682
390,636; 8270,647;    0,204;   -0,591
391,227; 8116,947;   -0,523;   -0,045
391,819; 8199,551;    0,204;    0,773
392,410; 8301,785;    1,022;    0,045
393,001; 8256,155;   -0,979;   -1,591
393,593; 8545,148;    1,930;   -0,045
394,184; 8360,707;    1,385;   -0,409
394,775; 8307,924;    1,839;    2,136
395,366; 8497,949;    1,385;    0,773
395,957; 8521,006;    0,113;    0,136
396,548; 8817,914;   -0,342;    2,682
397,139; 9144,866;   -2,433;    0,591
397,730; 8884,911;   -1,888;    0,955
398,321; 8895,903;   -1,252;    0,955
398,912; 8932,053;   -0,615;    0,136
399,503; 9002,260;   -3,524;   -1,409
400,094; 8424,529;    0,294;    1,682
400,685; 8285,557;   -0,433;    0,045
401,276; 8388,893;    0,930;   -0,955
401,867; 8707,959;   -0,888;    0,773
402,458; 8805,855;   -2,251;   -2,318
403,048; 8778,347;    1,112;    0,591
403,639; 8376,603;    0,840;    0,864
404,230; 8608,386;    2,476;    0,318
404,821; 8539,533;   -0,615;    0,045
405,411; 8695,990;    1,203;   -2,591
406,002; 8280,295;   -1,252;   -1,136
406,592; 8129,382;    2,294;    0,045
407,183; 8425,982;    0,566;   -1,500
407,774; 8363,542;    3,475;   -0,136
408,364; 8684,752;    0,930;    0,409
408,954; 8283,668;    0,384;    1,227
409,545; 8327,294;    1,021;    1,045
410,135; 7847,755;    1,293;    0,500
410,726; 8038,961;    1,838;    0,318
411,316; 8435,349;    0,111;    0,773
411,906; 8066,185;   -0,253;   -0,409
412,497; 7564,814;   -1,070;   -0,045
413,087; 8192,248;   -1,980;   -0,227
413,677; 8577,265;   -0,707;    3,864
414,267; 8405,038;    0,656;    1,409
414,857; 8407,877;   -2,980;    4,227
415,448; 8731,570;    0,839;    0,500
416,038; 8385,891;    0,020;   -0,591
416,628; 8372,072;   -0,889;    0,409
417,218; 7835,272;    0,565;    3,318
417,808; 8120,020;    0,202;   -0,409
418,398; 8593,509;    0,020;    2,682
418,988; 8599,222;    2,020;    0,591
419,578; 8858,709;   -0,707;    1,409
420,168; 9171,646;   -1,343;   -0,955
420,757; 8777,056;   -1,343;   -1,500
421,347; 8458,663;    0,111;   -0,227
421,937; 8638,865;    2,292;    1,409
422,527; 8565,274;    0,838;   -0,773
423,116; 8380,628;   -0,253;   -0,045
423,706; 8718,096;   -1,889;    0,318
424,296; 8662,089;    1,384;    0,682
424,885; 9127,999;   -0,071;   -3,045
425,475; 9385,233;    1,474;   -2,864
426,065; 9284,984;   -0,980;   -0,318
426,654; 8928,554;   -0,435;   -0,318
427,244; 9081,369;    0,020;    1,409
427,833; 8524,526;    1,383;   -0,500
428,423; 8980,302;   -0,526;    1,136
429,012; 9748,851;   -0,344;   -1,136
429,601; 9231,749;   -1,344;    0,136
430,191; 9472,235;    1,292;    4,318
430,780; 9146,641;   -0,344;   -0,409
431,369; 9033,752;    0,746;   -0,045
431,959; 9656,892;   -1,254;    0,500
432,548; 9453,207;   -1,163;   -0,045
433,137; 9565,703;   -1,254;   -1,318
433,726;10108,672;    0,292;    0,500
434,315; 9437,490;   -0,526;    2,409
434,905; 9539,388;   -1,254;    1,409
435,494; 9427,350;    0,746;    0,955
436,083; 9911,203;   -0,981;   -0,955
436,672; 9792,154;    0,110;    0,500
437,261; 9331,108;    0,292;   -1,955
437,850; 9452,315;    1,383;    0,682
438,439; 9423,685;    3,291;    1,955
439,027; 9294,985;    3,655;    1,773
439,616; 9642,359;    2,927;    1,227
440,205; 9479,262;    0,200;   -2,136
440,794; 9581,376;    2,109;   -0,045
441,383; 9856,341;   -1,346;   -0,591
441,971; 9702,145;   -2,436;    0,591
442,560; 9545,351;    0,563;   -1,773
443,149; 9291,728;    0,379;   -1,318
443,737; 9432,011;   -0,074;   -2,318
444,326; 9708,180;    0,018;    0,318
444,915; 9752,739;   -1,982;    0,864
445,503;10190,519;   -2,891;   -0,318
446,092; 9445,002;    0,382;    2,136
446,680; 9953,690;    0,382;    0,318
447,269;10086,054;   -0,346;   -0,318
447,857; 9847,942;    0,018;   -1,773
448,445; 9985,725;    0,563;    1,318
449,034;10220,281;   -1,528;   -1,136
449,622;10330,284;   -1,073;    3,500
450,210; 9557,525;    2,017;    2,227
450,799;10122,549;    0,290;   -0,591
451,387;10087,972;    1,381;   -0,591
451,975; 9710,025;    2,654;    0,864
452,563; 9787,658;    3,472;    2,318
453,151; 9828,213;   -0,528;   -1,227
453,739; 9760,506;   -1,347;    0,136
454,328; 9571,884;    2,381;   -2,136
454,916; 9308,244;    2,562;   -0,136
455,504; 9474,951;    1,017;    1,227
456,092; 9649,937;    0,017;   -1,591
456,679; 9661,461;    1,472;    0,682
457,267; 9605,895;    4,017;    1,045
457,855; 9734,814;    1,017;    1,409
458,443; 9492,352;   -0,165;    1,682
459,031; 9637,663;    0,108;    2,409
459,619;10103,132;   -1,801;    2,864
460,206;10219,468;    0,835;    2,045
460,794;10303,093;   -2,983;   -0,227
461,382;10550,593;   -0,529;   -0,864
461,970;10134,166;    1,198;    1,864
462,557;10113,100;   -0,711;   -0,682
463,145;10328,212;   -3,165;   -1,682
463,732;10480,323;    2,016;   -1,045
464,320;10415,347;   -0,075;   -3,045
464,907;10104,648;    2,743;   -0,773
465,495; 9946,420;    0,743;   -1,227
466,082;10126,641;   -1,984;   -0,045
466,670;10040,473;   -2,529;    1,227
467,257;10413,144;   -1,711;    2,045
467,844;10577,571;   -0,075;    0,045
468,432;10613,071;    0,834;    3,500
469,019;10079,500;    0,925;   -1,773
469,606;10533,686;    0,470;    3,682
470,193;10389,234;   -1,439;    0,227
470,780; 9970,193;   -2,075;    0,864
471,368;10304,832;   -1,257;   -0,773
471,955;10072,256;    1,379;   -0,682
472,542; 9725,650;    0,652;   -1,136
473,129; 9946,791;   -0,166;    0,136
473,716; 9678,280;    1,470;    0,591
474,303; 9887,742;    0,652;   -0,864
474,890;10183,664;   -1,439;   -0,500
475,477;10187,769;   -1,621;    0,409
476,064;10056,324;    1,106;   -1,591
476,650;10009,870;    0,288;    0,318
477,237; 9829,052;   -0,258;    0,955
477,824;10006,195;   -1,076;    0,864
478,411;10004,454;   -1,894;   -0,318
478,997;10219,170;    0,560;   -0,773
479,584;10279,425;    1,196;   -0,409
480,171;10977,838;   -0,440;   -0,773
480,757;10628,600;    2,651;    0,773
481,344;10911,177;    0,469;    0,409
481,931;10436,337;    1,105;    1,045
482,517;11495,946;   -1,258;    0,318
483,104;12073,394;    1,106;    2,864
483,690;12325,222;   -1,804;    0,045
484,276;12626,058;   -0,895;    0,227
484,863;12361,376;    2,469;    1,136
485,449;12957,575;   -0,077;    0,318
486,035;12896,257;   -1,986;   -0,136
486,622;13347,456;   -0,895;    0,045
487,208;13283,292;    1,378;    1,500
487,794;13118,116;    0,741;    0,318
488,380;13219,872;    0,105;   -1,409
488,967;13280,098;   -1,168;   -0,409
489,553;13344,529;   -1,895;   -1,409
490,139;13559,777;    1,559;    0,773
490,725;12917,612;    0,741;   -0,227
491,311;12478,473;    3,287;    3,045
491,897;11847,119;   -0,986;    1,500
492,483;11680,361;    0,105;    1,227
493,069;11541,829;    3,923;    0,864
493,655;11513,563;    1,650;    0,682
494,241;11404,151;    1,377;   -0,955
494,826;11839,616;    0,287;   -1,045
495,412;11296,738;    2,559;   -0,682
495,998;11420,370;   -0,805;   -0,318
496,584;11601,175;    0,377;    1,045
497,169;11611,909;    1,014;   -0,682
497,755;11585,639;    0,650;    1,227
498,341;12139,542;    0,559;    0,318
498,926;11768,384;    1,832;    1,955
499,512;11995,236;    1,286;    2,955
500,097;12122,663;    0,195;   -0,318
500,683;12058,985;   -0,350;    2,136
501,268;12441,023;   -0,169;   -0,955
501,854;12189,670;   -0,169;    1,227
502,439;12124,586;   -0,624;   -1,773
503,024;12362,939;    0,195;    0,500
503,610;12436,233;   -0,078;   -0,682
504,195;12430,939;    0,558;    1,955
504,780;12576,037;    2,922;    1,227
505,366;12440,562;    3,013;    2,864
505,951;12157,732;    0,740;    1,045
506,536;12184,016;   -3,260;   -3,682
507,121;12178,642;    0,285;   -0,318
507,706;12728,652;    2,376;    1,045
508,291;13156,463;    2,649;    1,136
508,876;12616,413;   -0,988;    2,591
509,461;12075,522;   -0,169;   -0,773
510,046;12537,812;    0,194;    0,318
510,631;12798,298;   -0,351;   -0,773
511,216;12442,134;    2,467;   -0,500
511,801;12829,267;   -0,442;    2,591
512,386;13108,022;    0,740;    0,500
512,971;13042,029;   -2,988;    0,955
513,555;12606,113;   -0,897;   -1,500
514,140;13449,350;   -0,442;   -3,136
514,725;13424,703;   -0,715;   -1,136
515,309;13577,500;   -0,533;    0,318
515,894;13021,556;   -0,624;   -2,227
516,479;13463,137;   -0,624;   -0,955
517,063;13312,105;    0,376;    1,227
517,648;13476,665;    1,012;   -1,136
518,232;13137,139;   -0,261;   -1,409
518,817;13472,115;   -0,079;    1,682
519,401;13719,244;    2,194;    0,591
519,985;13215,853;    1,103;    1,136
520,570;13051,856;    0,830;   -1,955
521,154;13344,237;    2,102;    0,591
521,738;13567,789;   -2,352;    2,409
522,323;14133,307;   -0,170;    1,682
522,907;13853,929;    0,466;   -0,136
523,491;13612,303;    0,557;    0,955
524,075;13578,279;    2,284;    0,591
524,659;13645,251;    1,466;    0,591
525,243;13144,842;    1,739;    0,409
525,827;13362,341;    0,648;   -0,045
526,411;14249,342;   -1,989;   -0,136
526,995;14436,345;   -0,352;    1,409
527,579;14057,656;   -0,443;   -1,045
528,163;14367,197;    0,375;   -1,500
528,747;14291,089;    2,466;   -0,773
529,331;14592,649;   -0,080;   -1,409
529,915;14791,509;    1,738;    0,955
530,499;14746,750;   -0,807;    1,227
531,082;14465,921;   -0,534;    1,591
531,666;13910,683;    1,374;    0,773
532,250;14552,883;    1,284;    2,682
532,833;14903,816;    0,920;    2,773
533,417;14748,309;   -1,807;    0,864
534,001;14750,316;    1,647;   -0,318
534,584;15444,966;    0,374;    0,500
535,168;15275,322;    0,465;    1,409
535,751;15365,445;    0,647;    0,045
536,334;14800,113;   -0,898;   -0,409
536,918;15340,407;    0,011;    1,591
537,501;15474,546;   -0,899;    1,318
538,085;15475,298;   -0,444;    1,045
538,668;15692,819;    0,829;    2,409
539,251;15988,340;    1,829;    3,773
539,834;15977,326;    0,101;    0,773
540,418;15967,182;   -1,990;    4,318
541,001;16102,214;   -0,990;    1,773
541,584;16062,709;    2,101;    2,227
542,167;15734,864;    1,374;    2,955
542,750;15888,927;    1,919;   -0,773
543,333;15495,919;    0,555;    2,136
543,916;16253,147;    0,192;    2,500
544,499;16876,786;   -1,354;    0,227
545,082;16896,856;    1,374;    3,591
545,665;17015,224;    1,919;    1,500
546,248;17360,646;    1,010;   -0,318
546,830;17031,597;   -0,445;    1,955
547,413;17436,373;    1,010;   -0,773
547,996;17948,842;    0,555;    0,500
548,579;17706,233;    0,919;    0,955
549,161;17520,394;    1,828;    2,682
549,744;17321,876;   -0,809;    0,409
550,326;17826,338;   -0,809;   -1,136
550,909;17645,355;    2,737;    0,591
551,492;18018,499;   -0,263;    0,227
552,074;17809,323;   -0,173;   -1,318
552,657;18378,477;    2,373;    0,045
553,239;18116,676;   -0,173;   -0,773
553,821;18026,425;   -1,082;    1,045
554,404;17534,624;    1,282;    1,136
554,986;17932,757;    0,464;    1,045
555,568;18525,683;    1,191;   -0,955
556,151;17731,931;    1,191;   -0,227
556,733;17924,103;   -0,264;   -0,864
557,315;18397,396;    0,100;    0,500
557,897;18200,169;    0,554;   -0,500
558,479;18343,571;   -1,991;    1,318
559,061;18428,130;   -0,719;   -0,864
559,643;18800,322;   -0,264;    0,045
560,225;19150,298;    1,645;    2,864
560,807;19200,231;    0,918;    0,318
561,389;18662,857;    0,554;    2,318
561,971;19474,262;    0,463;    2,136
562,553;19246,347;   -1,628;    1,591
563,135;19365,640;   -0,537;    1,136
563,717;18972,515;    3,372;    1,136
564,298;19710,581;    3,645;   -0,045
564,880;19458,154;    0,645;   -1,409
565,462;19591,154;    0,645;    1,318
566,043;20783,707;   -0,446;    2,318
566,625;20326,703;    1,918;    1,227
567,207;20149,402;    1,099;    1,682
567,788;21338,238;   -1,264;    1,500
568,370;22150,475;    1,917;   -0,500
568,951;22006,049;    0,190;    0,227
569,533;22864,069;   -0,628;   -0,500
570,114;23316,497;   -0,446;    0,682
570,695;23846,905;   -0,174;   -1,318
571,277;24341,310;   -0,265;   -1,682
571,858;25099,762;    2,008;   -1,136
572,439;25993,867;    1,554;   -1,045
573,021;26154,174;    2,099;   -2,773
573,602;26663,128;   -1,265;    0,318
574,183;27630,233;   -2,083;    2,227
574,764;27728,555;   -1,629;    0,409
575,345;28322,138;    0,917;   -0,136
575,926;28858,506;   -0,356;    0,136
576,507;28820,943;    1,099;   -0,227
577,088;29981,730;    3,099;    1,682
577,669;29979,764;    0,735;    1,955
578,250;30802,778;    0,644;   -1,045
578,831;31424,956;   -1,356;   -2,227
579,412;31669,558;   -0,810;    0,955
579,993;32555,537;    1,008;    0,227
580,573;32888,754;   -0,629;   -0,955
581,154;31831,890;    0,735;   -0,591
581,735;32731,820;    0,644;    0,773
582,315;32241,457;   -0,629;    2,136
582,896;32450,282;   -0,174;    1,227
583,477;31927,184;    0,189;    1,227
584,057;32104,506;    0,553;    0,955
584,638;32417,810;    2,553;    2,318
585,218;32464,499;   -0,538;    2,682
585,799;32575,684;    0,281;   -0,227
586,379;32458,184;    0,372;    1,591
586,959;31224,114;    0,735;    0,318
587,540;30494,942;   -0,629;    2,227
588,120;30124,980;    1,007;   -0,045
588,700;29127,114;    2,553;    2,136
589,281;29481,327;    0,462;   -0,955
589,861;29446,834;    0,099;   -1,682
590,441;29259,789;    2,371;   -2,682
591,021;28210,806;   -0,265;   -2,591
591,601;28432,373;   -0,537;    0,500
592,181;28416,845;   -0,719;   -0,773
592,761;27713,229;    0,007;    1,409
593,341;27596,716;   -0,901;    0,045
593,921;27634,971;   -0,265;    1,591
594,501;27567,146;   -0,538;    1,318
595,081;27368,086;    0,917;   -0,318
595,661;27722,275;   -1,447;    0,955
596,240;28221,859;   -0,537;    0,136
596,820;27947,097;    0,372;    1,955
597,400;28115,478;    2,008;    0,773
597,980;28301,863;    2,008;    1,045
598,559;28298,831;    2,735;   -0,227
599,139;28012,034;   -0,174;   -1,227
599,718;27873,307;   -0,174;   -0,409
600,298;28142,772;    0,735;    0,682
600,877;28418,237;    2,917;    1,409
601,457;28686,475;    2,281;    1,136
602,036;28621,279;    0,190;    2,045
602,616;28812,678;    0,644;    1,682
603,195;29099,562;   -0,355;    3,500
603,774;28653,279;   -0,901;    2,045
604,354;28537,800;    0,826;   -0,500
604,933;28007,908;    0,463;    1,864
605,512;28150,324;    3,554;    0,591
606,091;28237,688;   -0,537;    3,773
606,671;29040,356;    0,281;    0,773
607,250;28167,272;    1,644;    3,136
607,829;28344,101;    2,372;    3,227
608,408;28190,377;    1,190;    2,591
608,987;27173,451;    1,281;    3,409
609,566;27489,551;   -1,265;   -2,500
610,145;27631,161;   -1,082;    0,682
610,723;28065,843;    4,372;    6,864
611,302;27333,874;   -0,446;    1,682
611,881;26830,539;    5,008;   11,227
612,460;27653,518;    1,645;    3,955
613,039;28074,479;   -0,082;    2,045
613,617;26815,328;    1,736;    4,773
614,196;26988,731;    1,099;    1,227
614,775;27358,896;    1,009;    2,409
615,353;27275,099;    0,736;    0,864
615,932;27010,896;    0,100;    2,409
616,510;27588,347;    0,554;    0,591
617,089;27084,966;    7,100;   17,591
617,667;26831,536;    2,372;    6,136
618,246;26705,798;   -1,537;    1,318
618,824;26884,326;   -3,355;   -0,955
619,402;26453,420;   -2,900;   -1,773
619,981;26966,648;   -0,173;   -1,045
620,559;26742,312;    0,009;    1,682
621,137;26261,756;   -0,718;    1,864
621,715;26321,620;   -1,173;   -0,682
622,293;26291,085;   -0,537;   -0,773
622,871;26738,487;   -0,718;    0,500
623,450;26302,225;    0,373;   -0,864
624,028;26168,158;    0,191;   -0,955
624,606;25817,061;   -1,718;    1,682
625,183;26220,253;   -1,536;   -1,136
625,761;25838,250;    1,009;    1,136
626,339;26128,956;    1,373;    2,591
626,917;26496,722;   -0,172;   -0,045
627,495;26505,582;   -0,354;    1,318
628,073;25965,743;   -0,263;    2,864
628,650;25654,977;    0,100;    2,136
629,228;26084,334;    0,373;    4,409
629,806;25519,893;    2,282;    1,136
630,383;25749,075;    1,464;   -0,318
630,961;25551,379;    2,555;   -0,955
631,539;25323,946;    2,464;    0,227
632,116;24711,197;   11,373;   15,409
632,694;25250,900;    2,555;    6,500
633,271;25547,366;    0,828;    2,682
633,848;25528,415;    1,828;    2,045
634,426;25512,027;   -1,081;    1,773
635,003;24586,052;    1,101;   -0,409
635,580;24946,674;    1,192;    3,682
636,158;25506,286;    3,737;    1,227
636,735;25502,852;    0,555;   -0,500
637,312;25650,401;   -0,809;   -0,682
637,889;25769,251;   -4,354;   -0,682
638,466;25173,472;   -3,990;   -0,409
639,043;25205,220;    2,101;   -1,136
639,620;25505,367;   -2,262;   -0,955
640,197;25803,766;    1,100;    1,682
640,774;25912,365;   -0,172;    1,136
641,351;26334,419;    0,737;    1,136
641,928;25766,200;   -0,627;    1,409
642,505;25467,436;    0,828;   -0,500
643,082;25557,945;   -1,718;    1,227
643,658;24530,999;   -0,718;    1,500
644,235;25304,689;    1,191;    2,500
644,812;25623,561;    1,918;    0,773
645,388;25349,797;   -0,991;    1,409
645,965;25465,032;   -0,809;    1,682
646,542;25552,177;   -1,445;   -0,227
647,118;25565,686;    1,009;   -0,955
647,695;25810,467;   -0,263;    1,136
648,271;25705,521;   -0,536;    0,500
648,848;26051,029;    0,736;    2,227
649,424;25898,720;    0,827;    1,318
650,000;25629,592;   -0,354;   -1,045
650,577;25406,555;   -0,627;   -0,955
651,153;25881,427;   -1,809;    0,955
651,729;26944,481;    1,191;    0,864
652,305;27468,262;    0,645;    2,773
652,881;32614,770;   -0,082;    1,136
653,458;39467,552;    1,100;    0,227
654,034;42813,878;    0,282;    1,591
654,610;44053,296;    0,554;    0,773
655,186;45295,350;    0,645;    3,045
655,762;44945,131;   -0,991;    0,409
656,338;44913,548;    0,100;    0,136
656,913;45824,511;   -0,082;    0,409
657,489;44954,474;    0,827;   -0,318
658,065;44967,528;   -0,173;   -1,591
658,641;45591,855;   -0,900;   -0,864
659,217;44838,454;   -0,991;    0,409
659,792;44261,781;    0,645;   -0,409
660,368;44428,199;   -2,173;   -0,682
660,944;43844,343;   -2,082;    1,227
661,519;38647,761;   -0,628;    0,409
662,095;32758,724;   -1,719;    0,591
662,670;28638,687;    1,281;   -0,136
663,246;27756,286;    1,009;   -0,409
663,821;27176,795;    0,281;    1,682
664,396;26662,394;    0,009;    1,864
664,972;26947,357;    0,009;   -0,500
665,547;27226,866;    1,372;    0,136
666,122;27253,010;   -1,082;    0,318
666,698;27578,610;   -0,173;    0,318
667,273;26905,755;   -0,173;    0,136
667,848;27730,718;    2,372;    1,500
668,423;27512,408;    2,190;    2,318
668,998;28111,098;    2,827;   -0,682
669,573;28713,516;   -3,264;   -1,500
670,148;28541,842;   -1,446;   -0,682
670,723;28309,078;   -1,810;    0,318
671,298;28698,950;    2,372;    1,045
671,873;28818,550;   -0,082;   -0,136
672,448;28754,058;    0,645;    0,136
673,023;29079,385;   -1,992;   -0,227
673,597;29435,530;    0,827;    2,318
674,172;29193,765;   -0,355;    0,318
674,747;28660,001;    0,372;   -1,045
675,321;28484,600;   -0,628;    3,318
675,896;28057,109;    0,645;    1,045
676,471;29054,163;    2,645;    1,591
677,045;28804,944;   -1,264;    0,682
677,620;28878,725;    0,190;    1,136
678,194;29156,052;   -2,628;    1,136
678,769;28747,197;   -1,083;   -0,318
679,343;29026,160;   -0,628;    1,773
679,917;28892,304;   -1,446;    1,955
680,492;28983,177;    0,826;    3,227
681,066;29147,776;    3,372;    0,409
681,640;29182,012;    1,463;   -0,318
682,214;29995,247;    0,735;    0,500
682,788;29568,847;   -1,356;   -0,773
683,363;29492,173;   -1,810;    1,682
683,937;29187,046;   -1,719;   -0,318
684,511;29924,918;    0,463;   -0,591
685,085;29573,426;   -1,356;    0,318
685,659;29349,116;   -2,538;    0,864
686,232;29644,079;   -0,356;   -0,318
686,806;29298,042;   -0,901;    0,409
687,380;29955,187;   -0,174;    0,591
687,954;30208,150;   -1,174;    1,136
688,528;29885,113;   -0,719;    1,955
689,101;30657,804;   -3,992;    1,045
689,675;30224,403;   -0,356;   -0,136
690,249;29612,911;   -0,719;    0,409
690,822;29916,329;    0,280;    0,318
691,396;30025,565;   -0,265;    1,227
691,969;29501,982;    1,280;    0,136
692,543;29939,491;   -0,447;   -1,955
693,116;29564,726;   -0,265;   -1,409
693,690;29460,235;    0,099;    0,500
694,263;30008,743;   -1,083;    2,955
694,836;30080,797;    1,371;    3,591
695,410;28703,215;   -0,265;    1,773
695,983;29184,996;    0,189;    0,591
696,556;29137,414;   -0,447;   -1,045
697,129;29509,922;   -0,356;    1,409
697,703;29147,521;   -1,629;    1,955
698,276;29105,848;    1,462;   -0,773
698,849;28953,356;    1,280;    1,409
699,422;29327,229;   -1,083;    0,591
699,995;29037,919;    0,007;    0,136
700,568;29541,155;   -0,629;    3,045
701,140;29501,027;   -2,811;    1,682
701,713;29249,262;   -0,174;    2,409
702,286;29003,862;   -0,538;    0,864
702,859;28901,188;   -0,902;   -0,591
703,432;28086,515;    0,825;    0,682
704,004;28519,933;    0,462;    0,318
704,577;28416,987;   -0,629;    0,136
705,150;29005,313;    0,189;    2,500
705,722;28806,913;   -0,356;   -3,227
706,295;28609,876;   -0,175;   -0,591
706,867;28455,930;   -0,175;    1,955
707,440;28643,438;   -1,720;   -0,409
708,012;28956,674;    0,462;    0,591
708,584;28850,091;    2,462;    0,227
709,157;29106,327;    1,825;   -0,591
709,729;28743,926;    2,280;    2,045
710,301;29565,344;    0,734;    0,045
710,874;29597,307;   -1,447;   -0,227
711,446;28492,452;    0,371;    0,864
712,018;28364,051;    0,098;    0,500
712,590;28135,196;   -1,993;    1,682
713,162;28593,159;    0,825;    1,318
713,734;28884,577;    1,825;   -2,045
714,306;28795,812;   -1,902;   -0,409
714,878;27482,048;    0,825;    0,864
715,450;28275,375;    0,643;    0,864
716,022;28569,974;    1,552;    1,318
716,593;28628,028;    0,189;    0,591
717,165;28571,536;   -3,175;   -1,227
717,737;28295,499;    0,280;    0,409
718,309;28017,826;    0,280;   -0,045
718,880;27993,425;   -0,539;   -1,409
719,452;28198,661;   -0,175;   -1,591
720,024;27789,715;    0,734;   -0,591
720,595;28319,496;   -2,902;    0,955
721,167;27858,005;    0,370;   -2,045
721,738;27364,604;   -0,812;   -1,045
722,309;27454,294;   -0,993;   -1,227
722,881;27162,348;   -1,357;    0,773
723,452;27809,130;   -2,630;    2,864
724,023;27998,183;   -0,721;    2,682
724,595;27739,783;    0,007;    0,682
725,166;27500,382;    0,007;   -0,409
725,737;27159,982;    1,734;    0,227
726,308;27243,581;   -0,266;    0,318
726,879;27703,998;   -1,630;    1,227
727,450;27529,689;    0,552;   -0,045
728,021;27514,924;    3,097;    0,682
728,592;27258,797;    0,734;    0,500
729,163;27611,669;    0,643;   -0,136
729,734;27667,814;    0,188;   -0,227
730,305;28021,504;    1,734;    0,136
730,876;28336,012;    0,188;    2,955
731,447;28075,248;    2,188;    2,682
732,017;28196,938;    1,097;    1,864
732,588;27660,719;    0,734;    1,227
733,159;27839,501;    0,643;   -1,045
733,729;27607,100;    0,006;    0,409
734,300;26905,608;    0,915;    0,864
734,870;27339,208;    3,461;    0,591
735,441;27932,353;    0,370;   -0,591
736,011;27716,316;    0,643;   -1,591
736,582;27600,279;   -0,812;    0,045
737,152;27070,878;   -1,721;   -2,045
737,722;27473,568;   -0,267;   -0,682
738,293;27217,350;   -1,358;    1,318
738,863;27103,949;    2,461;    2,318
739,433;26875,730;    5,279;    0,318
740,003;27504,239;   -0,994;   -0,682
740,573;26933,747;    2,097;   -1,591
741,143;26900,801;   -1,085;    0,318
741,713;27691,582;    1,188;   -0,500
742,283;27431,727;    0,915;    1,591
742,853;27170,145;    1,915;    1,591
743,423;26622,653;    1,733;    0,045
743,993;26732,434;   -0,358;    1,500
744,563;26106,761;    0,097;   -0,864
745,133;26122,451;   -0,812;   -0,864
745,702;26751,596;   -0,267;    1,773
746,272;25980,559;   -0,176;    0,591
746,842;25765,431;   -1,358;   -0,591
747,411;26141,030;   -0,267;   -0,318
747,981;26293,357;    0,097;    0,500
748,551;26396,411;    2,278;   -1,045
749,120;26265,101;    0,642;   -0,227
749,690;26638,701;   -0,631;    2,409
750,259;26998,845;    1,369;    2,955
750,828;26875,172;    1,551;   -1,955
751,398;27162,499;    1,278;   -0,045
751,967;26673,280;    2,187;    0,409
752,536;26849,334;   -0,813;   -0,227
753,105;27320,661;    0,096;    0,227
753,675;27112,260;    0,096;    1,773
754,244;27036,405;   -0,904;    3,591
754,813;27047,550;    0,551;    1,227
755,382;26618,240;    0,460;    0,955
755,951;27232,839;    1,551;    3,682
756,520;26744,439;   -0,085;    1,864
757,089;27305,674;    0,278;    0,500
757,658;27462,637;    1,733;    1,227
758,227;27453,782;    1,096;    0,318
758,795;27734,382;    1,187;    1,136
759,364;27962,708;   -0,086;   -0,591
759,933;26978,671;   -1,176;   -0,045
760,501;26465,816;    0,733;   -1,318
761,070;26927,597;   -2,813;   -1,409
761,639;27616,560;   -1,904;    1,318
762,207;26987,160;    1,551;   -0,955
762,776;26965,304;    0,369;    0,864
763,344;26912,904;   -0,995;    0,591
763,913;26015,230;   -0,722;    1,409
764,481;26787,739;    1,005;   -0,136
765,049;26490,884;   -1,358;    1,409
765,618;26390,029;   -0,086;    0,318
766,186;26493,901;    0,278;    0,136
766,754;26632,045;    0,005;    1,864
767,322;25620,554;   -1,995;    0,409
767,890;25662,517;   -0,722;   -1,773
768,459;26105,934;   -2,177;   -0,318
769,027;26237,079;    1,641;    3,409
769,595;25202,406;    3,278;    2,591
770,163;25657,278;    3,823;    2,955
770,730;25430,332;    0,732;   -0,136
771,298;25229,840;    0,187;   -1,409
771,866;25312,076;   -1,541;    4,955
772,434;25627,312;   -0,631;   -1,864
773,002;25825,275;    0,005;    0,682
773,569;25494,602;    0,914;    1,682
774,137;25296,474;   -0,268;   -0,045
774,705;26062,528;    0,278;   -0,136
775,272;25589,127;    0,641;    0,682
775,840;25314,363;   -0,177;    2,682
776,407;24883,598;    0,277;    1,955
776,975;24502,289;   -0,632;    0,318
777,542;25462,888;   -1,086;   -0,045
778,110;25273,669;   -1,268;   -0,045
778,677;24959,541;   -2,359;   -0,864
779,244;24763,141;    2,186;    1,045
779,812;24910,922;    1,823;    0,864
780,379;24768,067;    0,005;    1,136
780,946;24992,939;    1,005;   -0,773
781,513;25330,266;   -1,450;    0,318
782,080;24743,047;   -0,086;    2,864
782,647;25451,192;   -0,268;    3,045
783,214;25085,791;   -0,177;    3,864
783,781;24685,027;   -0,723;   -0,682
784,348;24531,899;   -0,632;    1,500
784,915;24955,498;   -3,177;    0,318
785,482;24718,279;    1,368;    2,591
786,049;25133,151;    0,186;   -0,591
786,615;25309,296;    0,277;   -0,955
787,182;25033,168;    0,186;   -0,682
787,749;24698,040;   -2,814;    1,409
788,315;24017,822;   -1,632;   -0,409
788,882;24314,057;    1,550;   -1,227
789,448;25022,929;    1,732;   -0,955
790,015;24993,802;    1,095;    3,227
790,581;24556,037;    1,459;    0,227
791,148;24493,364;    0,641;    1,045
791,714;24680,145;   -0,541;    3,136
792,280;24349,926;    0,186;    1,591
792,847;23886,980;    0,550;    2,500
793,413;24512,125;   -0,269;   -0,318
793,979;24049,088;    3,459;   -1,318
794,545;24166,869;    4,459;    2,682
795,111;23558,650;    2,186;    1,318
795,678;23770,704;    0,731;   -1,682
796,244;23392,122;    3,368;    0,136
796,810;23937,903;    1,731;    0,773
797,375;23648,139;    0,549;   -2,136
797,941;23682,193;   -0,541;    0,591
798,507;23797,065;   -0,451;   -0,955
799,073;23330,119;   -0,360;    0,591
799,639;23391,627;   -2,632;    3,136
800,205;23380,499;    0,095;    2,682
800,770;22980,462;    0,640;    1,773
801,336;23061,062;    1,368;   -0,955
801,901;22786,297;    4,549;    3,136
802,467;23322,170;   -0,542;    2,045
803,033;22667,314;   -0,087;    0,864
803,598;22851,368;    1,913;   -1,045
804,163;22876,513;    1,095;   -0,318
804,729;22829,022;   -0,178;    1,136
805,294;23230,257;    0,822;    2,227
805,859;23060,311;    0,731;   -0,409
806,425;22539,638;    1,186;    2,682
806,990;22148,692;    2,186;    4,318
807,555;22652,200;   -1,451;    2,591
808,120;22582,163;    0,822;   -0,409
808,685;22607,581;    0,185;   -2,500
809,250;22119,907;    0,004;   -0,500
809,815;22376,780;    1,913;    0,682
810,380;22937,470;   -0,269;    1,591
810,945;23527,069;   -1,087;    2,045
811,510;22704,214;    2,094;    1,591
812,075;22394,995;   -0,633;   -1,409
812,640;22409,686;    2,003;    1,409
813,204;22469,739;    0,822;   -0,227
813,769;22950,612;    2,094;   -0,045
814,334;22385,029;    0,458;    0,864
814,898;22435,901;    0,367;    0,591
815,463;22294,864;    1,276;   -0,773
816,027;22249,100;   -0,724;   -2,318
816,592;22322,608;    0,640;   -2,045
817,156;21864,390;    2,094;    1,136
817,721;21729,534;    4,276;    2,318
818,285;21693,952;    2,912;    1,500
818,849;22319,824;   -1,451;    1,682
819,414;22181,060;   -0,269;    2,955
819,978;21766,841;   -1,269;    1,773
820,542;22389,349;    2,003;    0,500
821,106;22059,222;   -0,815;    0,682
821,670;22189,730;   -0,815;    2,591
822,234;21909,784;   -0,270;    1,409
822,798;21246,656;    0,003;    0,500
823,362;21225,255;   -0,633;    4,227
823,926;20567,218;    0,094;    1,136
824,490;20807,727;   -0,997;   -0,682
825,054;21259,963;   -0,088;   -1,136
825,618;20897,471;   -1,542;   -1,500
826,181;20860,252;    0,458;   -1,318
826,745;20781,943;    1,367;   -1,045
827,309;21100,360;    1,185;    1,318
827,872;20467,596;    1,367;    0,955
828,436;21424,286;    1,185;   -0,773
828,999;21482,067;   -0,997;    1,227
829,563;20264,030;   -0,179;    1,136
830,126;20130,084;   -0,179;   -0,591
830,690;20215,775;   -1,997;    2,864
831,253;19663,465;   -0,543;    2,227
831,816;19738,246;   -1,906;    0,500
832,380;19694,936;    0,185;    0,864
832,943;19915,990;   -1,361;   -0,500
833,506;19432,953;    2,639;   -1,227
834,069;20230,462;    3,912;   -0,955
834,632;20272,788;    1,730;    1,318
835,195;20136,388;    1,003;    0,955
835,758;19357,078;   -0,997;    1,955
836,321;19221,041;    0,730;   -1,045
836,884;19329,822;   -0,725;   -0,955
837,447;19355,967;   -2,816;    1,773
838,010;19607,839;    0,366;    3,227
838,573;19915,620;   -1,179;    0,773
839,135;19880,583;   -1,361;   -0,955
839,698;19344,819;    1,275;    0,409
840,261;18853,873;    1,003;   -0,227
840,823;18685,654;   -0,543;    0,864
841,386;18972,072;   -0,452;   -2,409
841,948;18891,762;   -1,361;    1,773
842,511;18587,270;    0,912;    1,682
843,073;18730,052;    1,912;    0,227
843,636;18555,015;   -0,361;   -0,227
844,198;18501,341;    0,911;    0,591
844,760;18634,486;    1,093;    1,955
845,322;18238,358;    0,548;    1,136
845,885;18669,503;    0,730;    0,591
846,447;19130,466;   -1,998;    0,227
847,009;18719,884;    1,911;   -0,682
847,571;18985,210;    0,820;   -2,045
848,133;19070,537;   -1,089;   -1,864
848,695;18889,500;   -0,543;    1,409
849,257;18480,372;   -1,089;   -1,682
849,819;18679,062;   -0,998;   -0,409
850,381;18715,116;   -0,725;   -0,864
850,942;19073,261;    1,093;   -0,591
851,504;19020,133;    1,184;    0,227
852,066;19040,005;    1,275;   -1,591
852,628;18612,150;   -0,180;    1,955
853,189;18153,204;    1,638;    2,682
853,751;18234,258;   -0,907;    1,409
854,312;18046,494;   -0,453;   -1,682
854,874;18559,911;   -2,089;   -0,773
855,435;19092,602;   -0,907;   -1,682
855,997;19245,928;   -1,816;   -0,136
856,558;18540,618;    0,366;    1,773
857,119;18677,309;    0,820;    2,864
857,681;18321,454;    0,002;    0,318
858,242;18360,507;    1,911;   -2,136
858,803;18826,016;    0,456;   -0,773
859,364;19394,252;    0,184;   -4,773
859,925;18697,124;   -2,453;   -0,955
860,486;18579,178;   -0,453;   -0,955
861,047;18285,595;   -0,544;   -1,227
861,608;18113,649;   -1,089;   -0,773
862,169;18223,794;    0,638;   -0,045
862,730;18012,212;    0,456;    1,409
863,291;18259,629;   -0,635;   -0,500
863,852;18631,865;   -0,635;    1,955
864,412;18106,646;   -0,271;   -0,864
864,973;16722,064;   -0,089;    0,500
865,534;16566,936;   -1,726;    0,227
866,094;18098,717;    1,820;    0,227
866,655;17723,134;    1,274;    3,318
867,215;17994,916;    0,274;    0,136
867,776;17832,333;    0,547;   -0,136
868,336;17952,205;   -1,453;    0,136
868,897;17439,077;    2,638;    1,682
869,457;17165,404;    1,365;    0,318
870,017;17396,731;    0,547;   -1,227
870,578;17915,239;   -0,817;    0,773
871,138;17590,202;   -2,089;   -0,955
871,698;17139,983;   -0,817;   -1,318
872,258;17004,219;   -0,453;   -2,864
872,818;17369,455;    2,729;    0,045
873,378;17387,054;    0,638;    1,045
873,938;16897,563;    0,547;    0,500
874,498;17218,435;    0,274;   -1,955
875,058;17127,761;    2,183;    1,773
875,618;16958,088;    1,910;   -2,682
876,177;16873,051;    1,274;    0,136
876,737;16539,832;   -0,090;    1,955
877,297;16593,886;    0,183;    1,955
877,856;16535,031;   -0,362;    0,318
878,416;16494,812;    1,183;   -0,136
878,976;16716,502;   -1,817;    0,409
879,535;16893,465;    0,092;    3,136
880,095;16604,883;   -0,544;    0,045
880,654;16723,482;   -1,090;    1,318
881,213;16888,991;    2,456;    1,500
881,773;16512,317;    2,637;    2,682
882,332;16883,371;    3,365;    5,136
882,891;16696,789;    3,092;    2,136
883,451;17171,570;   -1,272;    1,682
884,010;16580,079;   -2,908;   -0,409
884,569;16685,314;   -0,999;   -0,045
885,128;16839,459;    2,819;   -1,864
885,687;16958,422;    4,455;    0,682
886,246;16641,931;    1,455;    2,136
886,805;16407,985;    2,455;    2,045
887,364;16693,038;   -0,999;   -0,500
887,922;17035,638;   -1,181;    0,045
888,481;16512,419;   -1,545;    0,591
889,040;16858,927;    1,183;    2,136
889,599;17556,254;    2,455;    1,409
890,157;17582,035;    1,455;    2,409
890,716;17252,271;   -0,090;    0,227
891,274;17042,052;    0,092;   -1,136
891,833;17464,470;    1,546;    0,864
892,391;17370,796;   -0,454;    0,500
892,950;17442,305;    1,819;   -0,773
893,508;17850,177;    0,455;   -0,409
894,067;17150,322;    0,637;    0,136
894,625;17019,194;   -0,636;   -1,500
895,183;17240,157;   -0,363;   -0,682
895,741;17178,575;    1,728;   -1,773
896,299;16984,810;   -0,545;   -2,409
896,858;17201,591;    0,819;   -1,591
897,416;17304,100;    2,728;   -1,318
897,974;17007,790;    1,819;    0,318
898,532;17199,480;    6,091;    2,682
899,089;17133,534;    2,091;   -0,682
899,647;17159,497;   -1,454;    1,318
900,205;16906,279;    1,182;    1,045
900,763;17059,333;   -0,454;    0,227
901,321;17078,932;    2,364;   -1,409
901,878;16505,895;   -1,000;   -0,773
902,436;16362,403;   -1,363;    1,318
902,994;16787,912;    4,728;    3,682
903,551;16172,148;    0,728;    0,409
904,109;16584,383;    0,182;   -1,409
904,666;16151,346;    2,455;    1,045
905,224;16007,855;    0,182;   -0,409
905,781;15761,181;    0,727;   -0,318
906,338;15822,508;   -1,363;    1,045
906,895;15765,289;    0,637;    2,045
907,453;15700,980;    1,727;    1,136
908,010;15726,761;   -0,909;    0,409
908,567;15386,542;    1,273;    0,591
909,124;14877,323;    0,364;   -1,500
909,681;14966,650;   -2,909;    0,682
910,238;15058,613;    0,636;   -1,318
910,795;15379,576;   -0,273;   -1,136
911,352;14992,485;   -2,909;   -2,682
911,909;14440,485;   -1,364;   -0,864
912,466;14965,939;   -3,182;    1,500
913,022;14495,394;   -1,636;    0,500
913,579;14827,667;   -0,909;    2,045
914,136;14525,939;    1,636;    0,955
914,692;14863,485;    0,091;   -1,227
915,249;14477,848;    1,455;    0,409
915,806;14730,303;    0,182;    1,955
916,362;14464,939;    1,909;    1,864
916,918;14033,848;    2,000;    1,045
917,475;14034,576;   -1,182;    0,955
918,031;14088,576;    3,364;   -0,045
918,587;13527,848;   -0,909;   -0,318
919,144;13767,212;   -2,273;    0,227
919,700;14052,030;    1,727;    0,773
920,256;13615,667;    0,727;    0,045
920,812;13235,758;   -0,727;   -1,045
921,368;13257,121;   -1,727;   -1,045
921,924;12858,848;    0,182;   -0,136
922,480;12466,939;   -0,545;    1,227
923,036;13083,303;    1,273;    1,955
923,592;13006,758;    0,455;    0,318
924,148;12930,394;    0,455;   -0,955
924,704;12267,848;   -1,364;   -0,409
925,259;12538,939;   -0,273;    0,591
925,815;12298,212;    1,455;    0,500
926,371;11783,576;    2,909;    1,409
926,926;11686,939;    2,091;    0,591
927,482;11330,485;   -1,364;    0,773
928,037;11200,758;    0,909;    2,045
928,593;11519,667;    1,636;    1,045
929,148;11334,303;   -1,818;   -1,500
929,704;10806,667;   -1,455;   -0,500
930,259;11019,303;    0,091;   -0,136
930,814;10116,121;   -0,818;    1,955
931,369; 9796,667;    1,091;   -0,773
931,925; 9682,394;   -0,091;    0,136
932,480; 9588,939;   -2,818;   -2,591
933,035; 9476,848;    0,545;   -0,318
933,590; 9247,758;    0,364;   -1,773
934,145; 8883,758;   -1,364;   -0,318
934,700; 9185,030;    0,455;   -0,591
935,255; 9012,303;   -0,091;    0,045
935,809; 8340,394;    3,182;    0,864
936,364; 7443,212;   -0,455;   -0,136
936,919; 7431,121;    0,455;   -1,773
937,474; 7306,576;    1,455;    0,136
938,028; 7041,121;   -1,636;    1,136
938,583; 6536,576;    1,818;    4,682
939,138; 6798,030;    2,091;    2,136
939,692; 6227,667;    1,636;   -1,136
940,247; 5933,939;   -0,727;   -1,045
940,801; 5502,576;   -0,636;    0,227
941,355; 5399,212;   -0,364;    2,591
941,910; 5043,394;   -0,273;   -2,136
942,464; 5143,121;   -0,818;   -0,318
943,018; 4954,848;    1,000;   -0,227
943,572; 4906,939;    2,545;   -0,682
944,126; 4339,939;    0,091;   -0,409
944,681; 4233,030;    3,091;    0,227
945,235; 4221,576;    1,000;   -0,591
945,789; 4161,848;    0,364;   -1,864
946,342; 4268,121;    0,455;   -0,591
946,896; 4067,121;   -2,273;    0,955
947,450; 3812,394;    1,545;   -0,227
948,004; 3999,848;    1,727;   -0,045
948,558; 3998,485;    0,273;   -0,864
949,111; 3943,576;   -0,273;   -0,318
949,665; 3968,212;    1,636;   -0,682
950,219; 3862,848;   -0,091;   -1,045
950,772; 3926,121;   -1,909;    1,864
951,326; 3816,576;    0,545;   -0,955
951,879; 3933,939;    0,727;   -2,318
952,433; 3971,030;    0,000;    2,227
952,986; 3796,758;    2,909;    0,682
953,539; 3761,030;   -0,273;    0,591
954,093; 3669,667;    0,545;   -1,318
954,646; 3802,485;    0,909;    1,318
955,199; 3635,485;    0,000;   -0,500
955,752; 3518,121;   -0,455;    1,773
956,305; 3480,394;   -0,091;    2,955
956,858; 3635,212;    0,818;   -0,318
957,411; 3799,030;   -0,545;    2,136
957,964; 3641,939;    1,364;    2,136
958,517; 3627,030;   -1,545;    3,136
959,070; 3466,485;   -0,455;    1,955
959,623; 3549,939;    1,091;    1,500
960,176; 3316,303;    1,727;    2,045
960,728; 3298,303;   -2,727;    0,773
961,281; 3333,939;    0,545;    0,500
961,834; 3402,939;   -0,909;    0,864
962,386; 3303,848;    1,727;    1,045
962,939; 3223,758;    0,364;   -0,318
963,491; 3387,667;    0,455;    1,136
964,043; 3246,485;    1,182;    2,409
964,596; 3370,576;   -1,000;    2,227
965,148; 3219,212;   -1,000;    1,773
965,700; 3123,394;    1,091;   -0,227
966,253; 3278,939;   -0,636;    0,318
966,805; 3097,212;   -2,273;    0,773
967,357; 3160,576;    1,091;   -1,500
967,909; 3124,848;    0,455;   -1,227
968,461; 3230,667;    0,545;    3,136
969,013; 3162,758;   -0,182;   -0,864
969,565; 3255,303;   -0,455;   -1,136
970,117; 3313,576;   -0,364;    1,045
970,669; 3130,939;    0,182;   -0,136
971,220; 2995,848;   -0,455;   -1,500
971,772; 2933,576;   -0,636;   -0,318
972,324; 3061,576;    0,091;   -0,500
972,876; 2989,303;    0,818;   -0,045
973,427; 3153,939;    1,909;   -1,045
973,979; 3107,212;   -0,727;   -2,500
974,530; 3134,485;    1,818;    1,318
975,082; 3131,303;   -0,545;    1,682
975,633; 3031,394;    1,091;    1,682
976,184; 3169,212;    0,909;    0,773
976,736; 2955,848;    0,091;    0,227
977,287; 2774,303;   -0,909;   -0,500
977,838; 2955,848;    0,909;   -0,318
978,389; 3017,394;   -1,000;   -0,500
978,940; 2862,485;    0,545;   -0,409
979,491; 2899,758;    0,091;   -0,500
980,042; 2861,758;    0,182;    3,045
980,593; 2911,576;   -2,545;    0,227
981,144; 2968,576;    2,545;   -0,500
981,695; 2938,485;    1,455;    1,500
982,246; 2900,303;   -0,273;    1,045
982,797; 3067,758;   -1,727;    0,682
983,347; 3176,121;    0,364;    0,591
983,898; 3339,576;    3,091;    0,409
984,449; 3163,485;    2,182;    0,773
984,999; 3060,667;    1,455;   -1,136
985,550; 2825,758;    0,182;   -0,318
986,100; 2856,030;   -0,455;   -0,318
986,651; 2874,030;   -0,818;    0,045
987,201; 2883,121;   -1,000;   -0,591
987,751; 2972,212;    0,818;    2,864
988,302; 2955,303;    2,636;    1,500
988,852; 2976,848;    0,455;   -1,136
989,402; 3018,667;    0,091;    0,682
989,952; 2936,303;   -2,182;    0,864
990,502; 3030,576;   -0,091;    0,682
991,052; 2982,394;   -0,727;    0,045
991,602; 2852,394;   -2,909;    1,318
992,152; 2861,939;    0,455;    0,682
992,702; 2846,939;    1,364;   -0,045
993,252; 2766,121;   -3,000;   -0,500
993,802; 2862,576;   -0,273;    1,318
994,352; 3099,758;   -1,545;    1,136
994,901; 3164,303;   -0,182;    3,227
995,451; 3082,394;   -0,182;    0,318
996,000; 3181,303;    1,636;    0,318
996,550; 2891,848;    2,273;    0,227
997,100; 2889,758;    1,273;   -0,045
997,649; 3160,667;    2,182;    0,955
998,198; 2797,939;    1,727;   -1,500
998,748; 3009,303;    1,091;   -2,318
999,297; 2917,848;   -0,818;   -0,409
999,846; 2956,939;    1,000;   -0,773
1000,395; 2993,212;   -0,818;    0,500
1000,945; 2959,576;    1,818;   -0,773
1001,494; 3055,485;    2,364;    0,682
1002,043; 3029,758;    4,636;    0,864
1002,592; 2872,030;   -1,091;    1,955
1003,141; 3047,939;   -0,455;   -0,682
1003,690; 2898,667;    1,727;    0,500
1004,238; 2978,667;    1,455;   -0,045
1004,787; 2611,212;    1,364;    1,227
1005,336; 2843,485;    0,364;    0,682
1005,885; 2992,394;    1,364;   -2,773
1006,433; 3122,303;    0,545;    0,955
1006,982; 3180,030;    0,455;    1,682
1007,531; 3086,212;   -1,818;   -0,227
1008,079; 3057,303;   -2,273;    0,500
1008,627; 3185,030;   -1,455;    0,409
1009,176; 2906,939;    0,000;   -1,955
1009,724; 2962,939;    1,091;    0,864
1010,273; 3052,667;    1,273;    0,500
1010,821; 3119,576;    0,091;    1,409
1011,369; 2865,576;   -1,364;    1,318
1011,917; 2839,394;   -1,364;   -0,591
1012,465; 3124,121;    1,273;   -1,591
1013,013; 3228,030;    2,091;   -1,682
1013,561; 3120,758;    0,455;   -0,773
1014,109; 3168,576;   -1,909;    1,682
1014,657; 3051,576;    0,364;    0,591
1015,205; 3164,758;    1,636;   -0,955
1015,753; 3197,394;   -0,545;   -1,409
1016,301; 3227,121;   -2,636;    3,045
1016,848; 3229,939;   -1,273;    0,409
1017,396; 3286,394;    2,545;    0,045
1017,944; 3411,576;    1,182;    1,864
1018,491; 3150,667;    0,273;    1,409
1019,039; 3322,939;    0,455;    0,591
1019,586; 3221,030;   -1,364;    1,682
1020,134; 3320,394;    0,455;    1,500
1020,681; 3348,848;    0,182;   -1,136
1021,228; 3343,576;    2,909;   -2,227
1021,776; 3161,939;    1,182;   -1,136
1022,323; 3397,848;    0,455;    0,773
1022,870; 3318,394;   -1,000;   -0,045
1023,417; 3210,121;    2,636;    1,864
1023,964; 3360,212;    2,636;    1,227
1024,511; 3201,848;    1,000;    0,773
1025,058; 3000,485;    3,182;   -0,045
1025,605; 3049,212;   -2,273;    3,136
1026,152; 3304,848;    1,727;   -0,591
1026,699; 3014,394;    1,818;    1,318
1027,245; 3165,030;   -0,091;    0,318
1027,792; 3364,848;   -1,000;    1,409
1028,339; 3266,121;    2,364;   -0,045
1028,885; 3112,121;    1,000;   -0,227
1029,432; 3040,485;   -0,091;    0,227
1029,978; 3136,394;   -1,000;   -1,591
1030,525; 3028,667;    1,000;    0,409
1031,071; 3260,667;   -1,364;    1,136
1031,618; 3360,212;    0,364;    1,682
1032,164; 3135,303;   -0,091;    3,045
1032,710; 3183,030;    1,636;   -1,500
1033,256; 3123,030;   -0,636;   -0,136
1033,803; 3091,212;   -0,545;    1,500
1034,349; 2795,758;   -1,364;    0,136
1034,895; 2952,848;    0,000;   -0,318
1035,441; 2941,758;   -0,818;    0,318
1035,987; 2942,394;   -2,364;   -0,682
1036,533; 2934,758;   -1,455;   -0,955
1037,078; 3153,394;    1,455;    1,682
1037,624; 2958,848;    2,455;   -0,955
1038,170; 2996,848;    0,455;   -0,318
1038,716; 2913,303;    1,636;   -0,409
1039,261; 2814,939;   -2,273;   -0,773
1039,807; 2727,667;   -0,091;    3,409
1040,352; 2818,212;   -1,909;   -0,318
1040,898; 2864,848;   -1,545;   -0,682
1041,443; 2769,667;   -1,455;   -2,591
1041,989; 2804,848;    1,091;    1,591
1042,534; 2675,939;   -0,364;    2,591
1043,079; 2765,212;    2,909;    0,955
1043,625; 2568,758;    1,818;    0,500
1044,170; 2622,576;   -1,364;    1,045
1044,715; 2882,576;    2,455;    0,955
1045,260; 2708,485;    2,182;   -0,955
1045,805; 2744,394;    1,182;   -0,591
1046,350; 2660,394;    1,364;   -0,409
1046,895; 2637,303;    2,909;    1,591
1047,440; 2596,121;    5,364;    0,409
1047,985; 2494,394;    2,818;   -0,955
1048,530; 2413,485;    1,545;    1,227
1049,074; 2488,394;    0,000;    0,318
1049,619; 2428,030;   -1,364;    1,955
1050,164; 2241,848;    0,455;    0,227
1050,708; 2286,667;   -0,455;    0,045
1051,253; 2672,394;    1,273;   -2,227
1051,797; 2364,121;    0,818;   -1,318
1052,342; 2370,303;   -1,182;    1,045
1052,886; 2377,485;    0,364;   -1,409
1053,430; 2235,212;   -1,364;    0,136
1053,975; 2260,394;   -0,818;   -0,318
1054,519; 2255,576;   -0,727;    3,227
1055,063; 2272,758;    0,909;    1,318
1055,607; 2165,485;   -0,182;    0,227
1056,151; 2176,667;    2,909;    1,682
1056,695; 2091,121;    2,273;   -1,136
1057,239; 2159,030;   -1,727;   -0,682
1057,783; 2152,030;    0,818;   -1,500
1058,327; 2115,394;    0,000;    1,409
1058,871; 2343,030;   -0,545;    1,318
1059,415; 2057,758;   -0,818;   -0,045
1059,958; 2324,848;    1,455;    2,591
1060,502; 2040,939;   -1,000;   -0,773
1061,046; 1921,667;    0,364;   -0,955
1061,589; 1907,030;   -3,000;   -1,136
1062,133; 1798,848;   -1,273;    1,864
1062,676; 1751,212;    1,182;    0,864
1063,220; 1763,121;    1,091;    0,500
1063,763; 1794,576;    0,909;    1,136
1064,306; 1863,758;   -0,909;    1,864
1064,849; 1747,485;   -0,909;    0,591
1065,393; 1751,485;    2,000;   -1,500
1065,936; 1870,667;    0,182;   -0,409
1066,479; 1746,848;   -1,455;    1,318
1067,022; 1768,667;   -0,273;   -0,227
1067,565; 1673,394;   -0,091;   -1,318
1068,108; 1696,667;    0,727;   -0,591
1068,651; 1657,667;   -0,636;    1,409
1069,194; 1595,939;   -0,455;   -1,682
1069,736; 1600,848;   -1,273;    0,955
1070,279; 1573,030;   -1,364;   -0,500
1070,822; 1629,394;   -2,000;   -0,318
1071,364; 1738,394;   -0,364;    1,318
1071,907; 1546,667;   -0,727;    3,227
1072,450; 1427,576;    0,000;   -0,045
1072,992; 1440,848;   -0,273;    3,136
1073,535; 1583,758;    2,091;    2,136
1074,077; 1373,394;   -0,727;    2,045
1074,619; 1326,758;   -1,364;    0,591
1075,161; 1382,939;   -1,091;    1,500
1075,704; 1570,030;    1,545;    1,227
1076,246; 1357,212;   -0,182;    0,682
1076,788; 1282,848;   -0,364;    1,773
1077,330; 1357,303;    1,273;    2,136
1077,872; 1315,212;    0,909;    0,955
1078,414; 1553,121;    2,727;    0,773
1078,956; 1285,848;    1,273;   -0,227
1079,498; 1557,758;    1,636;    0,318
1080,040; 1263,667;    1,909;   -1,318
1080,581; 1197,848;    1,636;   -0,318
1081,123; 1114,212;    0,091;   -0,773
1081,665; 1156,394;   -1,182;   -0,955
1082,206; 1468,848;    1,364;   -0,500
1082,748; 1333,030;    0,727;    2,045
1083,289; 1200,848;   -2,000;    1,318
1083,831; 1107,394;   -0,545;    0,227
1084,372; 1152,667;    0,000;    0,591
1084,913; 1151,394;    1,091;    0,864
1085,455; 1121,485;   -1,909;   -2,045
1085,996; 1092,030;   -2,273;    0,136
1086,537; 1112,303;   -0,091;    0,864
1087,078; 1144,667;   -0,909;   -2,136
1087,619; 1190,121;   -1,273;    0,227
1088,160; 1094,394;    0,000;    1,318
1088,701; 1080,848;   -1,091;    0,682
1089,242; 1017,394;    1,364;   -2,227
1089,783; 1127,212;   -0,273;    1,409
1090,324; 1086,394;    0,455;    0,682
1090,865;  967,303;    2,727;   -0,409
1091,405;  925,758;    0,727;    2,227
1091,946;  955,212;    0,182;   -0,955
1092,487;  883,848;    0,818;   -1,409
1093,027; 1069,394;   -1,364;   -1,500
1093,568;  905,667;   -0,364;    1,227
1094,108; 1013,212;    0,273;    1,773
1094,649;  943,485;   -1,182;    0,136
1095,189;  880,848;   -0,636;   -0,682
1095,729;  837,303;   -0,091;    0,955
1096,269;  833,758;    0,727;   -0,955
1096,810; 1165,121;   -1,364;    0,500
1097,350;  996,394;    1,364;   -0,773
1097,890;  885,939;    0,364;    1,227
1098,430; 1142,212;    2,364;    2,864
1098,970; 1023,303;    2,182;    1,682
1099,510;  868,303;    0,545;   -2,318
1100,050;  791,303;    1,000;   -1,591
1100,589;  772,939;   -0,727;   -0,318
1101,129;  893,939;    0,818;   -0,955
1101,669; 1061,030;    1,727;    2,136
1102,209;  867,848;   -0,091;    2,227
1102,748;  828,667;    0,000;    0,955
1103,288;  820,576;    1,273;   -1,227
1103,827;  855,576;    3,091;   -2,227
1104,367;  722,303;   -0,091;   -2,409
1104,906;  689,303;    1,364;   -1,136
1105,445;  764,667;    0,636;   -1,136
1105,985;  708,394;   -0,727;    1,500
1106,524;  762,030;   -1,727;   -0,682
1107,063;  729,485;   -2,727;    1,409
1107,602;  701,394;   -1,909;   -1,500
1108,141;  626,030;   -1,909;    1,500
1108,680;  741,394;   -3,455;   -0,591
1109,219;  666,212;   -0,909;   -0,500
1109,758;  664,121;    0,455;    0,682
1110,297;  644,394;    1,000;   -0,682
1110,836;  572,576;   -0,727;    0,955
1111,375;  744,030;   -2,545;    0,409
1111,913;  762,121;   -1,000;    0,773
1112,452;  700,212;   -0,273;    0,136
1112,991;  575,303;    1,091;    1,955
1113,529;  530,212;   -0,818;   -0,045
1114,068;  599,030;   -0,273;    2,955
1114,606;  505,394;   -0,364;   -0,955
1115,144;  682,030;   -1,273;    1,045
1115,683;  615,212;   -0,727;    0,318
1116,221;  657,030;   -0,455;   -0,864
1116,759;  565,212;    0,636;   -0,864
1117,297;  781,121;    0,000;    1,864
1117,836;  579,121;   -2,182;   -1,227
1118,374;  594,939;    0,182;   -0,682
1118,912;  527,848;    0,909;    2,682
1119,450;  511,485;    1,000;    0,864
1119,988;  569,576;    1,545;    2,136
1120,525; 1023,848;    5,091;    3,318
1121,063;  724,394;    1,182;    1,864
1121,601;  523,030;   -0,909;   -1,227
1122,139;  477,394;   -0,727;   -2,045
1122,676;  679,939;   -0,727;    2,773
1123,214;  619,758;   -1,182;    4,409
1123,751;  423,485;    1,727;    2,227
1124,289;  557,394;   -0,091;   -0,409
1124,826;  418,758;    1,727;    0,227
1125,364;  341,848;    1,727;   -0,955
1125,901;  537,394;    1,182;    1,227
1126,438;  667,485;    0,818;    0,955
1126,975;  377,030;   -0,727;   -0,773
1127,513;  446,212;    0,273;    2,136
1128,050;  354,030;    1,636;   -0,682
1128,587;  450,212;    2,000;   -0,227
1129,124;  498,212;    0,091;    1,318
1129,661;  358,212;    0,273;    0,227
1130,198;  525,848;    1,636;    0,773
1130,734;  467,121;    0,182;    1,409
1131,271;  325,576;   -0,909;    0,864
1131,808;  505,848;    2,909;    3,045
1132,345;  376,485;    1,545;    0,318
1132,881;  235,121;   -1,545;   -1,864
1133,418;  384,758;    0,727;   -1,136
1133,954;  319,303;    2,455;   -2,682
1134,491;  396,848;    1,364;   -0,773
1135,027;  288,303;    2,364;    0,864
1135,564;  389,394;    0,273;    2,955
1136,100;  378,576;    0,364;    2,136
1136,636;  261,394;   -1,273;   -1,045
1137,172;  364,576;    0,000;   -1,045
1137,708;  278,303;   -1,364;   -1,045
1138,245;  279,848;    1,273;   -1,227
1138,781;  232,848;    1,091;   -3,318
1139,317;  312,394;    1,273;   -1,409
1139,852;  289,576;    3,091;    0,136
1140,388;  419,121;   -1,182;   -0,409
1140,924;  290,212;   -1,091;   -2,227
1141,460;  225,848;   -1,636;    0,136
1141,996;  156,121;   -1,364;    2,682
1142,531;  215,758;    1,364;    3,318
1143,067;  442,576;    1,182;    1,045
1143,602;  497,394;   -0,091;   -0,318
1144,138;  338,303;   -2,636;    1,045
1144,673;  199,212;   -1,455;    1,409
1145,209;  266,394;   -1,909;   -0,318
1145,744;  179,576;   -0,727;    0,864
1146,279;  329,030;    1,818;   -0,136
1146,815;  236,394;    1,545;   -2,682
1147,350;  279,030;   -1,364;    0,045
1147,885;  188,848;   -0,818;   -1,318
1148,420;  188,212;   -2,273;    0,773
1148,955;  171,030;   -1,727;    1,864
1149,490;  191,121;   -0,909;   -1,591
1150,025;  179,303;    0,455;   -1,773
1150,560;  302,303;    1,091;   -0,955
1151,094;  264,485;    1,455;   -0,591
1151,629;  271,758;    1,636;    0,864
1152,164;  186,394;    1,364;    1,318
1152,698;  146,848;   -0,182;   -0,136
1153,233;  104,030;    0,091;   -0,682
1153,767;  155,121;   -3,000;   -2,318
1154,302;  205,303;   -1,455;    1,773
1154,836;  206,394;   -0,455;   -2,136
1155,371;  261,485;   -1,364;    3,682
1155,905;  210,485;   -0,636;    1,682
1156,439;  185,030;   -0,636;   -0,500
1156,973;  211,394;    0,364;    0,318
1157,507;  139,758;   -0,364;    0,682
1158,042;  167,667;   -0,727;    1,045
1158,576;  219,121;    0,182;    1,773
1159,110;  221,667;   -0,818;    2,409
1159,643;  189,212;    0,636;   -0,045
1160,177;  110,576;   -1,545;    1,500

