
Integration time [ms]:   0,040
Averaging Nr. [scans]: 11
Smoothing Nr. [pixels]: 0
Data measured with spectrometer [name]: 7318044SP
Wave   ;Sample   ;Dark     ;Reference
[nm]   ;[counts] ;[counts] ;[counts] 

186,757;   13,728;   31,551;    1,318
187,357;   48,226;   22,551;    0,955
187,958;   26,024;   15,460;   -1,591
188,558;   63,358;    8,915;   -1,227
189,159;   30,053;    6,733;   -4,500
189,759;    2,473;    7,278;   -3,591
190,360;   -1,320;    2,824;   -2,136
190,960;   36,185;    2,915;   -4,136
191,560;   58,567;    3,189;   -6,591
192,161;  288,277;    4,372;   -3,500
192,761;  132,899;    4,010;   -3,227
193,361;   65,875;    1,556;   -3,773
193,962;  113,682;    2,010;   -2,682
194,562;   39,913;    1,189;   -3,955
195,162;   60,647;   -2,448;   -2,227
195,762;  195,214;   -3,176;   -0,045
196,362;  145,249;    1,370;   -2,500
196,963;   31,875;    2,006;   -0,864
197,563;   87,179;    1,551;   -0,955
198,163;   35,313;    0,096;   -0,682
198,763;   44,113;    1,733;   -0,500
199,363;  121,908;    3,096;   -0,500
199,963;   84,365;    0,369;    0,409
200,563;   65,525;    2,823;   -1,409
201,163;   36,967;    3,277;   -0,227
201,763;  100,407;    3,732;    0,318
202,363;   62,129;    1,459;    1,500
202,963;  123,511;    1,459;    1,045
203,563;  202,237;    0,277;    0,500
204,162;   91,249;    2,096;   -1,864
204,762;   79,920;    0,550;    0,591
205,362;   44,293;    3,004;    1,955
205,962;  109,691;    3,096;    1,955
206,562;  106,662;    1,823;    2,318
207,161;   84,193;   -0,087;    0,318
207,761;  216,784;    1,277;    2,409
208,361;  112,255;   -0,268;    1,409
208,960;  172,892;    0,459;    1,500
209,560;  200,928;    1,277;    1,591
210,160;  211,706;    0,550;    1,864
210,759;  165,526;    4,186;    1,227
211,359;  164,609;    1,459;    1,045
211,958;  375,260;    1,277;    2,045
212,558;  432,061;    1,732;    1,864
213,157;  295,735;    1,822;    1,500
213,757;  625,353;    3,822;   -0,227
214,356;  374,065;    1,277;   -0,409
214,956;  621,859;    3,095;    0,409
215,555;  326,641;    2,095;    2,136
216,154;  281,217;   -2,723;   -0,591
216,754;  273,575;    0,277;    0,773
217,353;  363,119;   -0,268;   -1,045
217,952;  221,761;   -0,178;    0,318
218,552;  428,673;    1,368;   -0,773
219,151;  333,740;    0,277;    0,955
219,750;  315,858;    0,004;   -0,227
220,349;  317,566;   -0,451;    1,045
220,948;  460,516;   -1,360;    1,136
221,548;  367,020;    0,913;    1,227
222,147;  458,400;   -0,087;   -0,409
222,746;  702,325;   -0,451;   -0,955
223,345;  540,703;    0,731;    0,500
223,944;  536,435;   -0,451;    0,773
224,543;  598,488;    1,004;   -1,409
225,142;  677,730;    0,094;    0,136
225,741;  594,333;   -0,814;    1,045
226,340;  578,106;   -0,451;   -0,955
226,939;  850,758;   -0,996;   -0,136
227,538;  611,083;   -0,360;   -0,773
228,137;  833,430;   -0,814;    0,864
228,735;  760,882;   -0,541;    1,227
229,334;  574,240;   -0,905;   -0,227
229,933;  887,399;    0,459;    0,591
230,532;  939,728;    1,186;   -0,409
231,131; 1023,008;    1,732;    0,318
231,729;  859,930;   -2,450;   -2,318
232,328;  753,345;   -0,723;   -1,500
232,927;  734,142;    1,004;   -0,500
233,525;  694,841;    3,640;    0,045
234,124;  814,333;    2,368;   -1,591
234,723;  690,902;    0,913;   -1,045
235,321;  695,281;    2,277;    0,136
235,920;  770,115;    1,186;   -1,227
236,518; 1009,221;    3,459;    0,318
237,117;  794,082;    0,004;   -0,227
237,715;  797,393;    0,640;   -0,500
238,314;  886,918;   -0,087;   -2,318
238,912; 1099,041;   -0,723;   -1,409
239,510;  918,211;    0,459;   -1,227
240,109; 1129,422;    0,004;    3,773
240,707; 1077,951;   -0,996;    1,227
241,305;  937,912;    0,550;    0,136
241,904; 1152,548;   -0,178;   -2,045
242,502; 1279,284;   -0,632;   -0,227
243,100; 1168,115;   -0,087;   -0,955
243,698; 1229,426;    0,732;    1,682
244,297; 1321,061;   -0,632;    0,682
244,895; 1375,729;   -0,269;   -2,318
245,493; 1695,273;    2,186;   -0,591
246,091; 1678,139;    1,368;   -1,318
246,689; 1661,590;    1,004;    0,591
247,287; 1721,829;    0,822;   -1,136
247,885; 1865,342;   -1,451;    1,227
248,483; 1950,158;    1,822;   -0,500
249,081; 2071,366;    0,185;    1,591
249,679; 2244,113;   -0,178;    1,682
250,277; 2357,231;   -1,723;    0,864
250,875; 2457,845;   -1,087;   -1,045
251,473; 2514,480;   -1,178;    0,500
252,071; 2705,795;    1,459;    1,045
252,669; 2790,435;   -1,814;    0,318
253,267; 2933,079;   -0,087;    0,773
253,864; 2886,465;   -0,360;    0,682
254,462; 3054,969;    1,640;    1,591
255,060; 2941,955;   -0,269;    1,318
255,658; 3132,980;    0,822;   -0,136
256,255; 3489,008;    0,186;   -2,045
256,853; 3455,615;   -0,269;    1,409
257,451; 3459,540;    0,822;    1,864
258,048; 3916,798;    1,822;    1,864
258,646; 3592,330;    1,731;   -1,045
259,243; 3754,069;   -0,087;    2,227
259,841; 3768,316;   -0,814;    0,318
260,438; 3741,677;   -0,087;    0,864
261,036; 4191,459;   -1,905;    1,409
261,633; 4185,986;   -0,087;    2,227
262,231; 4071,003;    2,731;   -0,045
262,828; 4163,166;   -0,905;    1,136
263,425; 4222,701;    0,913;   -0,591
264,023; 4467,319;    0,186;    0,045
264,620; 4195,233;   -0,360;   -0,318
265,217; 4523,620;   -2,087;    3,136
265,815; 4576,178;   -1,905;    2,136
266,412; 4545,353;    0,731;    0,136
267,009; 4582,628;   -1,451;    0,773
267,606; 4609,876;    0,822;   -0,955
268,203; 4530,684;   -0,269;   -0,591
268,801; 4776,281;    1,731;    0,591
269,398; 4975,109;   -0,360;    2,500
269,995; 5005,711;    0,277;    1,591
270,592; 4864,635;   -0,632;   -0,500
271,189; 4970,049;    0,186;    0,409
271,786; 5081,553;   -0,632;    1,227
272,383; 5092,374;   -1,087;    0,227
272,980; 5114,875;    0,277;    0,318
273,577; 5422,963;    0,004;    1,227
274,174; 5033,643;    0,822;    2,591
274,771; 5020,526;   -0,814;   -0,773
275,367; 5259,051;    2,277;    1,409
275,964; 5212,240;    0,731;   -0,500
276,561; 5215,171;    1,549;   -1,045
277,158; 5317,658;    0,095;   -1,773
277,755; 5477,184;    2,185;    0,409
278,351; 4985,964;   -0,451;   -1,500
278,948; 5221,150;   -0,815;    0,045
279,545; 5172,237;   -1,360;    2,318
280,141; 5736,437;   -1,723;   -2,045
280,738; 5565,974;   -0,451;   -0,136
281,334; 5600,109;   -1,633;    0,591
281,931; 5170,901;   -0,087;   -1,318
282,528; 5290,282;    0,822;   -0,500
283,124; 5815,333;   -1,087;   -0,500
283,721; 5695,981;   -0,451;    1,409
284,317; 5555,239;    0,185;    2,500
284,913; 6047,410;   -1,360;    0,591
285,510; 6284,682;    0,640;   -0,318
286,106; 6269,431;   -2,269;   -0,955
286,703; 5854,837;   -0,360;    1,955
287,299; 6082,497;   -1,451;   -0,591
287,895; 6256,901;    0,822;   -1,045
288,491; 6731,836;    0,186;    2,136
289,088; 6615,468;   -2,360;    2,409
289,684; 6741,253;   -1,723;    1,500
290,280; 6821,883;    0,368;    0,682
290,876; 6960,290;    1,822;    5,500
291,472; 6956,690;    1,276;    2,227
292,068; 7109,619;    1,367;    0,227
292,665; 6882,861;    2,095;    0,773
293,261; 6712,601;    0,276;    2,136
293,857; 7118,059;    2,913;    2,136
294,453; 7137,669;    3,550;    0,955
295,049; 7129,480;   -0,268;    1,955
295,644; 7270,985;    0,095;    0,136
296,240; 7256,813;   -0,905;   -0,136
296,836; 7386,477;   -0,995;    0,318
297,432; 7727,728;    1,096;   -0,500
298,028; 7890,518;    0,732;    0,773
298,624; 8257,304;    1,459;    1,864
299,220; 8547,973;    2,368;    0,591
299,815; 8297,525;    1,005;   -0,409
300,411; 8232,480;    0,914;    1,773
301,007; 8295,146;    1,368;    0,227
301,602; 8331,724;   -0,541;   -2,318
302,198; 8539,844;    0,732;   -0,773
302,794; 8915,388;    1,187;   -0,500
303,389; 9010,215;   -1,177;    1,045
303,985; 9153,374;    0,550;    1,409
304,580; 9183,839;    1,459;    1,591
305,176; 9163,267;   -3,086;    0,136
305,771; 9099,870;   -1,268;   -1,227
306,367; 9084,223;    4,095;    0,136
306,962; 9332,633;    0,641;    1,500
307,558; 9060,934;   -0,450;    0,136
308,153; 9001,816;    1,095;   -1,136
308,748; 9182,494;   -0,814;    1,682
309,344; 9164,436;   -0,632;   -1,318
309,939; 9282,714;   -1,905;   -1,318
310,534; 9425,211;   -0,086;   -1,682
311,130; 9325,469;    0,459;   -2,500
311,725; 9052,219;    1,004;   -0,500
312,320; 9334,971;    2,459;    0,045
312,915; 9197,760;    1,459;   -1,045
313,510; 9242,435;    1,550;   -0,500
314,105; 9598,521;    1,096;    1,409
314,700; 8982,999;   -3,086;   -1,045
315,295; 8693,658;   -0,904;    0,045
315,890; 8270,718;    1,277;    0,864
316,485; 8523,771;   -0,359;   -0,318
317,080; 8578,912;   -3,086;    1,591
317,675; 9035,883;    2,005;   -0,682
318,270; 8572,858;    5,550;    3,318
318,865; 8513,583;    3,278;    3,045
319,460; 8297,965;   -0,904;    0,591
320,055; 8424,525;   -0,541;   -1,227
320,650; 8119,479;   -1,995;   -0,591
321,244; 8146,176;   -0,177;   -1,409
321,839; 8912,371;   -1,541;   -0,227
322,434; 8757,244;   -1,086;   -1,591
323,029; 8474,177;    1,732;    1,591
323,623; 8303,130;    1,550;    0,773
324,218; 8135,975;    2,368;    1,409
324,812; 8055,754;    1,096;    1,591
325,407; 7906,420;   -0,814;    2,045
326,002; 7873,122;    0,277;   -0,409
326,596; 8173,354;    0,914;    1,318
327,191; 8314,380;    0,823;   -1,045
327,785; 8015,445;   -0,813;   -0,227
328,379; 8286,411;    1,368;    0,136
328,974; 8103,352;    0,914;   -3,955
329,568; 8354,243;    0,186;   -2,409
330,163; 8272,759;    2,096;    1,045
330,757; 8598,657;    2,459;    1,591
331,351; 8040,747;    0,459;    0,682
331,945; 8416,021;    0,914;    1,409
332,540; 8183,386;   -1,723;   -0,591
333,134; 8340,177;   -1,086;    0,773
333,728; 8616,992;    0,005;    0,318
334,322; 8952,164;   -1,177;   -0,864
334,916; 8349,905;    0,277;    0,955
335,510; 8748,682;   -0,450;   -0,136
336,105; 9058,834;   -1,086;    1,591
336,699; 8848,395;   -1,086;    0,591
337,293; 8855,777;   -1,723;    0,318
337,887; 9046,548;   -2,723;    1,955
338,481; 9244,506;    0,459;    0,591
339,074; 9480,539;   -0,359;    2,682
339,668; 9376,856;   -1,632;    1,227
340,262; 9736,848;    1,732;    3,227
340,856; 9274,539;    1,822;   -0,682
341,450; 8751,534;    1,004;    1,864
342,044; 9638,868;    1,459;    0,136
342,637; 9485,604;    0,913;   -2,136
343,231; 9423,057;   -2,360;    0,682
343,825; 9428,029;   -1,086;   -0,591
344,419; 9467,857;   -1,995;    0,500
345,012; 9394,317;    2,459;    4,045
345,606; 9418,904;    4,641;    1,591
346,199; 9274,988;   -1,813;   -0,227
346,793; 8930,670;    1,914;    2,045
347,386; 9145,811;   -0,813;   -1,136
347,980; 9181,212;   -0,268;   -0,045
348,573; 9021,225;    2,278;    0,409
349,167; 8803,595;    5,278;    4,773
349,760; 9165,996;    2,914;    2,682
350,354; 9150,618;   -0,813;    1,136
350,947; 8914,528;    1,096;    1,682
351,540; 8618,645;   -0,358;   -1,409
352,134; 8562,300;    1,096;    1,136
352,727; 8683,379;   -0,086;    1,136
353,320; 8516,982;    0,005;    0,591
353,913; 8355,395;   -1,995;    1,864
354,507; 8588,773;    0,823;   -1,227
355,100; 8586,846;    0,460;    0,864
355,693; 7944,284;    2,005;    2,409
356,286; 7924,206;    0,823;    2,773
356,879; 8274,093;   -0,722;    1,227
357,472; 7869,678;   -0,904;    1,500
358,065; 8085,964;   -0,722;    2,500
358,658; 8008,726;   -0,540;    2,318
359,251; 7656,369;   -1,631;   -0,591
359,844; 7194,228;   -1,904;   -1,136
360,437; 7387,276;   -2,995;    0,045
361,030; 7610,519;    1,369;   -0,682
361,623; 7218,108;    2,824;    0,318
362,215; 7282,169;   -0,086;    2,045
362,808; 7121,913;   -2,358;   -1,682
363,401; 7312,872;   -2,449;    0,136
363,994; 7068,360;   -0,631;   -1,500
364,586; 6961,397;    0,824;   -1,500
365,179; 7170,103;   -0,449;   -1,136
365,772; 6663,270;   -1,995;    2,045
366,364; 6944,982;    1,915;   -3,227
366,957; 7126,303;    2,279;   -0,045
367,549; 7116,390;    2,188;   -0,864
368,142; 6809,953;    1,825;   -1,500
368,734; 6959,021;    0,734;   -2,136
369,327; 6925,056;    1,643;   -0,500
369,919; 6850,838;   -1,538;    0,409
370,512; 6687,638;   -1,083;   -0,500
371,104; 6470,084;   -0,901;    1,591
371,696; 6615,091;    1,191;   -0,955
372,289; 6666,785;    0,373;    1,136
372,881; 6788,606;   -2,080;    1,318
373,473; 6696,244;   -2,170;    1,136
374,066; 6551,919;   -0,169;    0,500
374,658; 6415,982;    0,378;    1,136
375,250; 6699,713;    0,653;   -1,409
375,842; 6552,996;    0,473;   -0,045
376,434; 6427,491;   -0,435;   -0,409
377,026; 6947,170;    0,204;   -2,500
377,618; 6849,368;   -0,158;   -0,682
378,210; 6685,922;   -0,338;   -1,955
378,802; 6520,609;    0,754;   -0,591
379,394; 6566,077;    1,846;    0,682
379,986; 7093,033;    1,393;   -0,955
380,578; 7161,647;   -0,153;    0,773
381,170; 6561,598;   -0,972;    0,045
381,762; 6494,792;    0,755;    1,409
382,354; 6678,686;   -0,065;   -1,318
382,945; 6768,347;   -2,976;    0,318
383,537; 6904,126;   -2,705;   -1,955
384,129; 6944,689;   -2,160;   -1,136
384,721; 7104,187;   -0,252;    0,955
385,312; 7028,787;   -0,161;   -0,955
385,904; 7121,668;   -2,706;    1,591
386,496; 6508,024;   -0,979;    1,045
387,087; 6659,028;    1,022;    2,500
387,679; 6701,943;   -1,160;    0,045
388,270; 6844,785;    2,840;    2,045
388,862; 6944,409;    1,295;   -0,318
389,453; 6803,289;   -0,887;    1,045
390,045; 7047,985;   -0,705;   -2,682
390,636; 7001,147;    0,204;   -0,591
391,227; 6861,883;   -0,523;   -0,045
391,819; 6988,932;    0,204;    0,773
392,410; 7031,789;    1,022;    0,045
393,001; 6949,664;   -0,979;   -1,591
393,593; 7229,648;    1,930;   -0,045
394,184; 7081,942;    1,385;   -0,409
394,775; 7006,977;    1,839;    2,136
395,366; 7201,931;    1,385;    0,773
395,957; 7190,554;    0,113;    0,136
396,548; 7438,448;   -0,342;    2,682
397,139; 7769,331;   -2,433;    0,591
397,730; 7485,985;   -1,888;    0,955
398,321; 7534,055;   -1,252;    0,955
398,912; 7567,291;   -0,615;    0,136
399,503; 7639,953;   -3,524;   -1,409
400,094; 7126,758;    0,294;    1,682
400,685; 6974,529;   -0,433;    0,045
401,276; 7044,960;    0,930;   -0,955
401,867; 7347,834;   -0,888;    0,773
402,458; 7408,014;   -2,251;   -2,318
403,048; 7379,309;    1,112;    0,591
403,639; 7011,946;    0,840;    0,864
404,230; 7281,891;    2,476;    0,318
404,821; 7197,044;   -0,615;    0,045
405,411; 7296,764;    1,203;   -2,591
406,002; 6910,619;   -1,252;   -1,136
406,592; 6792,692;    2,294;    0,045
407,183; 7053,819;    0,566;   -1,500
407,774; 6940,568;    3,475;   -0,136
408,364; 7238,056;    0,930;    0,409
408,954; 6860,602;    0,384;    1,227
409,545; 6902,684;    1,021;    1,045
410,135; 6423,948;    1,293;    0,500
410,726; 6573,670;    1,838;    0,318
411,316; 6908,534;    0,111;    0,773
411,906; 6566,539;   -0,253;   -0,409
412,497; 6082,098;   -1,070;   -0,045
413,087; 6591,894;   -1,980;   -0,227
413,677; 6918,338;   -0,707;    3,864
414,267; 6760,568;    0,656;    1,409
414,857; 6704,222;   -2,980;    4,227
415,448; 6919,667;    0,839;    0,500
416,038; 6640,895;    0,020;   -0,591
416,628; 6547,056;   -0,889;    0,409
417,218; 6059,248;    0,565;    3,318
417,808; 6285,720;    0,202;   -0,409
418,398; 6591,027;    0,020;    2,682
418,988; 6541,101;    2,020;    0,591
419,578; 6723,051;   -0,707;    1,409
420,168; 6984,453;   -1,343;   -0,955
420,757; 6584,062;   -1,343;   -1,500
421,347; 6216,710;    0,111;   -0,227
421,937; 6317,733;    2,292;    1,409
422,527; 6286,498;    0,838;   -0,773
423,116; 6078,237;   -0,253;   -0,045
423,706; 6229,243;   -1,889;    0,318
424,296; 6122,056;    1,384;    0,682
424,885; 6487,783;   -0,071;   -3,045
425,475; 6677,554;    1,474;   -2,864
426,065; 6498,125;   -0,980;   -0,318
426,654; 6137,671;   -0,435;   -0,318
427,244; 6264,233;    0,020;    1,409
427,833; 5739,668;    1,383;   -0,500
428,423; 6009,607;   -0,526;    1,136
429,012; 6580,959;   -0,344;   -1,136
429,601; 6100,122;   -1,344;    0,136
430,191; 6230,804;    1,292;    4,318
430,780; 5863,945;   -0,344;   -0,409
431,369; 5807,397;    0,746;   -0,045
431,959; 6185,261;   -1,254;    0,500
432,548; 5917,938;   -1,163;   -0,045
433,137; 5926,882;   -1,254;   -1,318
433,726; 6318,219;    0,292;    0,500
434,315; 5769,214;   -0,526;    2,409
434,905; 5790,907;   -1,254;    1,409
435,494; 5699,244;    0,746;    0,955
436,083; 5915,475;   -0,981;   -0,955
436,672; 5726,237;    0,110;    0,500
437,261; 5377,998;    0,292;   -1,955
437,850; 5465,119;    1,383;    0,682
438,439; 5360,832;    3,291;    1,955
439,027; 5227,673;    3,655;    1,773
439,616; 5333,036;    2,927;    1,227
440,205; 5038,313;    0,200;   -2,136
440,794; 4931,232;    2,109;   -0,045
441,383; 4999,274;   -1,346;   -0,591
441,971; 4812,262;   -2,436;    0,591
442,560; 4604,545;    0,563;   -1,773
443,149; 4283,671;    0,379;   -1,318
443,737; 4345,252;   -0,074;   -2,318
444,326; 4430,099;    0,018;    0,318
444,915; 4350,116;   -1,982;    0,864
445,503; 4466,447;   -2,891;   -0,318
446,092; 4092,289;    0,382;    2,136
446,680; 4306,424;    0,382;    0,318
447,269; 4241,328;   -0,346;   -0,318
447,857; 3984,022;    0,018;   -1,773
448,445; 3951,619;    0,563;    1,318
449,034; 3955,451;   -1,528;   -1,136
449,622; 3870,818;   -1,073;    3,500
450,210; 3691,761;    2,017;    2,227
450,799; 3815,509;    0,290;   -0,591
451,387; 3564,200;    1,381;   -0,591
451,975; 3346,986;    2,654;    0,864
452,563; 3430,539;    3,472;    2,318
453,151; 3195,441;   -0,528;   -1,227
453,739; 3068,893;   -1,347;    0,136
454,328; 3078,642;    2,381;   -2,136
454,916; 2839,266;    2,562;   -0,136
455,504; 2813,162;    1,017;    1,227
456,092; 2780,247;    0,017;   -1,591
456,679; 2630,224;    1,472;    0,682
457,267; 3068,101;    4,017;    1,045
457,855; 2684,195;    1,017;    1,409
458,443; 2300,174;   -0,165;    1,682
459,031; 2616,403;    0,108;    2,409
459,619; 2601,698;   -1,801;    2,864
460,206; 2418,301;    0,835;    2,045
460,794; 2445,282;   -2,983;   -0,227
461,382; 2507,037;   -0,529;   -0,864
461,970; 2268,156;    1,198;    1,864
462,557; 2227,636;   -0,711;   -0,682
463,145; 2384,209;   -3,165;   -1,682
463,732; 2564,211;    2,016;   -1,045
464,320; 2267,858;   -0,075;   -3,045
464,907; 2330,710;    2,743;   -0,773
465,495; 2141,636;    0,743;   -1,227
466,082; 2015,244;   -1,984;   -0,045
466,670; 1893,256;   -2,529;    1,227
467,257; 1931,921;   -1,711;    2,045
467,844; 2067,979;   -0,075;    0,045
468,432; 2037,931;    0,834;    3,500
469,019; 1825,436;    0,925;   -1,773
469,606; 1904,085;    0,470;    3,682
470,193; 1902,432;   -1,439;    0,227
470,780; 1800,407;   -2,075;    0,864
471,368; 1693,854;   -1,257;   -0,773
471,955; 1741,373;    1,379;   -0,682
472,542; 1569,208;    0,652;   -1,136
473,129; 1382,723;   -0,166;    0,136
473,716; 1285,853;    1,470;    0,591
474,303; 1303,768;    0,652;   -0,864
474,890; 1305,936;   -1,439;   -0,500
475,477; 1428,852;   -1,621;    0,409
476,064; 1224,028;    1,106;   -1,591
476,650; 1311,679;    0,288;    0,318
477,237; 1141,952;   -0,258;    0,955
477,824; 1076,728;   -1,076;    0,864
478,411;  874,171;   -1,894;   -0,318
478,997;  833,329;    0,560;   -0,773
479,584;  677,839;    1,196;   -0,409
480,171; 1049,532;   -0,440;   -0,773
480,757; 1144,187;    2,651;    0,773
481,344;  875,143;    0,469;    0,409
481,931;  612,075;    1,105;    1,045
482,517;  896,157;   -1,258;    0,318
483,104; 1009,717;    1,106;    2,864
483,690;  781,271;   -1,804;    0,045
484,276;  696,821;   -0,895;    0,227
484,863; 1050,874;    2,469;    1,136
485,449;  745,783;   -0,077;    0,318
486,035;  627,735;   -1,986;   -0,136
486,622;  813,401;   -0,895;    0,045
487,208;  641,774;    1,378;    1,500
487,794;  479,224;    0,741;    0,318
488,380;  460,429;    0,105;   -1,409
488,967;  475,089;   -1,168;   -0,409
489,553;  492,437;   -1,895;   -1,409
490,139;  651,957;    1,559;    0,773
490,725;  453,971;    0,741;   -0,227
491,311;  542,016;    3,287;    3,045
491,897;  446,480;   -0,986;    1,500
492,483;  460,171;    0,105;    1,227
493,069; 1249,006;    3,923;    0,864
493,655;  771,910;    1,650;    0,682
494,241;  570,046;    1,377;   -0,955
494,826;  660,525;    0,287;   -1,045
495,412;  789,829;    2,559;   -0,682
495,998;  662,523;   -0,805;   -0,318
496,584;  804,153;    0,377;    1,045
497,169;  808,426;    1,014;   -0,682
497,755;  711,773;    0,650;    1,227
498,341; 1161,787;    0,559;    0,318
498,926; 1405,711;    1,832;    1,955
499,512; 1057,427;    1,286;    2,955
500,097; 1062,419;    0,195;   -0,318
500,683; 1199,930;   -0,350;    2,136
501,268; 1296,876;   -0,169;   -0,955
501,854; 1466,243;   -0,169;    1,227
502,439; 1534,597;   -0,624;   -1,773
503,024; 1792,962;    0,195;    0,500
503,610; 2038,712;   -0,078;   -0,682
504,195; 2066,685;    0,558;    1,955
504,780; 2451,433;    2,922;    1,227
505,366; 2790,143;    3,013;    2,864
505,951; 2847,912;    0,740;    1,045
506,536; 3119,926;   -3,260;   -3,682
507,121; 3371,467;    0,285;   -0,318
507,706; 3929,749;    2,376;    1,045
508,291; 4376,460;    2,649;    1,136
508,876; 4386,015;   -0,988;    2,591
509,461; 4451,772;   -0,169;   -0,773
510,046; 5120,156;    0,194;    0,318
510,631; 5644,288;   -0,351;   -0,773
511,216; 5748,388;    2,467;   -0,500
511,801; 6432,630;   -0,442;    2,591
512,386; 6971,098;    0,740;    0,500
512,971; 7290,634;   -2,988;    0,955
513,555; 7311,820;   -0,897;   -1,500
514,140; 8270,054;   -0,442;   -3,136
514,725; 8562,298;   -0,715;   -1,136
515,309; 9002,371;   -0,533;    0,318
515,894; 8908,064;   -0,624;   -2,227
516,479; 9588,548;   -0,624;   -0,955
517,063; 9674,703;    0,376;    1,227
517,648;10077,261;    1,012;   -1,136
518,232;10002,435;   -0,261;   -1,409
518,817;10586,591;   -0,079;    1,682
519,401;11022,997;    2,194;    0,591
519,985;10741,064;    1,103;    1,136
520,570;10844,148;    0,830;   -1,955
521,154;11280,067;    2,102;    0,591
521,738;11610,603;   -2,352;    2,409
522,323;12313,413;   -0,170;    1,682
522,907;12167,835;    0,466;   -0,136
523,491;12040,299;    0,557;    0,955
524,075;12130,910;    2,284;    0,591
524,659;12373,710;    1,466;    0,591
525,243;11968,207;    1,739;    0,409
525,827;12282,518;    0,648;   -0,045
526,411;13177,801;   -1,989;   -0,136
526,995;13485,435;   -0,352;    1,409
527,579;13152,088;   -0,443;   -1,045
528,163;13543,257;    0,375;   -1,500
528,747;13491,970;    2,466;   -0,773
529,331;13883,350;   -0,080;   -1,409
529,915;14091,385;    1,738;    0,955
530,499;14110,626;   -0,807;    1,227
531,082;13905,082;   -0,534;    1,591
531,666;13331,091;    1,374;    0,773
532,250;14015,580;    1,284;    2,682
532,833;14426,954;    0,920;    2,773
533,417;14295,355;   -1,807;    0,864
534,001;14317,442;    1,647;   -0,318
534,584;15045,898;    0,374;    0,500
535,168;14885,710;    0,465;    1,409
535,751;14957,398;    0,647;    0,045
536,334;14396,242;   -0,898;   -0,409
536,918;15009,174;    0,011;    1,591
537,501;15139,851;   -0,899;    1,318
538,085;15156,599;   -0,444;    1,045
538,668;15359,210;    0,829;    2,409
539,251;15677,003;    1,829;    3,773
539,834;15664,627;    0,101;    0,773
540,418;15623,649;   -1,990;    4,318
541,001;15761,595;   -0,990;    1,773
541,584;15752,609;    2,101;    2,227
542,167;15498,783;    1,374;    2,955
542,750;15603,477;    1,919;   -0,773
543,333;15213,815;    0,555;    2,136
543,916;16033,418;    0,192;    2,500
544,499;16625,598;   -1,354;    0,227
545,082;16645,302;    1,374;    3,591
545,665;16769,583;    1,919;    1,500
546,248;17133,178;    1,010;   -0,318
546,830;16785,678;   -0,445;    1,955
547,413;17185,441;    1,010;   -0,773
547,996;17742,538;    0,555;    0,500
548,579;17559,193;    0,919;    0,955
549,161;17323,716;    1,828;    2,682
549,744;17069,189;   -0,809;    0,409
550,326;17575,831;   -0,809;   -1,136
550,909;17411,113;    2,737;    0,591
551,492;17819,722;   -0,263;    0,227
552,074;17615,168;   -0,173;   -1,318
552,657;18201,958;    2,373;    0,045
553,239;17889,063;   -0,173;   -0,773
553,821;17782,732;   -1,082;    1,045
554,404;17296,014;    1,282;    1,136
554,986;17714,322;    0,464;    1,045
555,568;18365,882;    1,191;   -0,955
556,151;17573,766;    1,191;   -0,227
556,733;17713,580;   -0,264;   -0,864
557,315;18193,037;    0,100;    0,500
557,897;18008,630;    0,554;   -0,500
558,479;18114,304;   -1,991;    1,318
559,061;18258,209;   -0,719;   -0,864
559,643;18616,046;   -0,264;    0,045
560,225;18978,405;    1,645;    2,864
560,807;19002,956;    0,918;    0,318
561,389;18451,760;    0,554;    2,318
561,971;19272,507;    0,463;    2,136
562,553;19056,516;   -1,628;    1,591
563,135;19198,630;   -0,537;    1,136
563,717;18789,323;    3,372;    1,136
564,298;19535,929;    3,645;   -0,045
564,880;19296,205;    0,645;   -1,409
565,462;19447,205;    0,645;    1,318
566,043;20616,958;   -0,446;    2,318
566,625;20121,410;    1,918;    1,227
567,207;19991,189;    1,099;    1,682
567,788;21111,204;   -1,264;    1,500
568,370;21949,791;    1,917;   -0,500
568,951;21836,102;    0,190;    0,227
569,533;22668,377;   -0,628;   -0,500
570,114;23126,834;   -0,446;    0,682
570,695;23692,584;   -0,174;   -1,318
571,277;24157,800;   -0,265;   -1,682
571,858;24899,257;    2,008;   -1,136
572,439;25806,006;    1,554;   -1,045
573,021;25942,465;    2,099;   -2,773
573,602;26452,790;   -1,265;    0,318
574,183;27410,524;   -2,083;    2,227
574,764;27537,121;   -1,629;    0,409
575,345;28166,698;    0,917;   -0,136
575,926;28685,716;   -0,356;    0,136
576,507;28613,878;    1,099;   -0,227
577,088;29728,574;    3,099;    1,682
577,669;29757,871;    0,735;    1,955
578,250;30630,070;    0,644;   -1,045
578,831;31237,501;   -1,356;   -2,227
579,412;31462,573;   -0,810;    0,955
579,993;32319,459;    1,008;    0,227
580,573;32556,494;   -0,629;   -0,955
581,154;31582,723;    0,735;   -0,591
581,735;32508,746;    0,644;    0,773
582,315;32036,746;   -0,629;    2,136
582,896;32247,484;   -0,174;    1,227
583,477;31634,736;    0,189;    1,227
584,057;31827,883;    0,553;    0,955
584,638;32153,459;    2,553;    2,318
585,218;32211,695;   -0,538;    2,682
585,799;32339,612;    0,281;   -0,227
586,379;32248,302;    0,372;    1,591
586,959;30989,678;    0,735;    0,318
587,540;30292,489;   -0,629;    2,227
588,120;29890,057;    1,007;   -0,045
588,700;28919,385;    2,553;    2,136
589,281;29284,249;    0,462;   -0,955
589,861;29211,480;    0,099;   -1,682
590,441;28988,073;    2,371;   -2,682
591,021;27972,638;   -0,265;   -2,591
591,601;28189,494;   -0,537;    0,500
592,181;28153,787;   -0,719;   -0,773
592,761;27484,769;    0,007;    1,409
593,341;27380,916;   -0,901;    0,045
593,921;27393,270;   -0,265;    1,591
594,501;27327,709;   -0,538;    1,318
595,081;27112,568;    0,917;   -0,318
595,661;27520,387;   -1,447;    0,955
596,240;28082,435;   -0,537;    0,136
596,820;27765,138;    0,372;    1,955
597,400;27905,410;    2,008;    0,773
597,980;28073,533;    2,008;    1,045
598,559;28103,947;    2,735;   -0,227
599,139;27837,691;   -0,174;   -1,227
599,718;27720,691;   -0,174;   -0,409
600,298;27980,069;    0,735;    0,682
600,877;28234,724;    2,917;    1,409
601,457;28498,882;    2,281;    1,136
602,036;28365,946;    0,190;    2,045
602,616;28610,621;    0,644;    1,682
603,195;28957,606;   -0,355;    3,500
603,774;28478,411;   -0,901;    2,045
604,354;28354,840;    0,826;   -0,500
604,933;27847,304;    0,463;    1,864
605,512;27975,544;    3,554;    0,591
606,091;27981,554;   -0,537;    3,773
606,671;28803,308;    0,281;    0,773
607,250;28009,950;    1,644;    3,136
607,829;28213,065;    2,372;    3,227
608,408;28022,154;    1,190;    2,591
608,987;27016,882;    1,281;    3,409
609,566;27347,027;   -1,265;   -2,500
610,145;27452,953;   -1,082;    0,682
610,723;27856,996;    4,372;    6,864
611,302;27158,583;   -0,446;    1,682
611,881;26635,333;    5,008;   11,227
612,460;27425,129;    1,645;    3,955
613,039;27834,556;   -0,082;    2,045
613,617;26605,653;    1,736;    4,773
614,196;26759,887;    1,099;    1,227
614,775;27194,610;    1,009;    2,409
615,353;27096,911;    0,736;    0,864
615,932;26841,706;    0,100;    2,409
616,510;27405,607;    0,554;    0,591
617,089;26943,229;    7,100;   17,591
617,667;26683,982;    2,372;    6,136
618,246;26545,160;   -1,537;    1,318
618,824;26704,868;   -3,355;   -0,955
619,402;26238,234;   -2,900;   -1,773
619,981;26796,560;   -0,173;   -1,045
620,559;26572,411;    0,009;    1,682
621,137;26096,943;   -0,718;    1,864
621,715;26152,168;   -1,173;   -0,682
622,293;26069,909;   -0,537;   -0,773
622,871;26512,673;   -0,718;    0,500
623,450;26093,334;    0,373;   -0,864
624,028;26008,531;    0,191;   -0,955
624,606;25645,621;   -1,718;    1,682
625,183;26013,822;   -1,536;   -1,136
625,761;25649,728;    1,009;    1,136
626,339;25996,422;    1,373;    2,591
626,917;26365,030;   -0,172;   -0,045
627,495;26396,161;   -0,354;    1,318
628,073;25823,512;   -0,263;    2,864
628,650;25497,915;    0,100;    2,136
629,228;25928,990;    0,373;    4,409
629,806;25334,011;    2,282;    1,136
630,383;25595,112;    1,464;   -0,318
630,961;25391,679;    2,555;   -0,955
631,539;25153,166;    2,464;    0,227
632,116;24540,315;   11,373;   15,409
632,694;25028,664;    2,555;    6,500
633,271;25383,420;    0,828;    2,682
633,848;25335,461;    1,828;    2,045
634,426;25317,632;   -1,081;    1,773
635,003;24402,860;    1,101;   -0,409
635,580;24795,484;    1,192;    3,682
636,158;25357,262;    3,737;    1,227
636,735;25352,542;    0,555;   -0,500
637,312;25494,626;   -0,809;   -0,682
637,889;25580,223;   -4,354;   -0,682
638,466;24999,285;   -3,990;   -0,409
639,043;24994,868;    2,101;   -1,136
639,620;25293,198;   -2,262;   -0,955
640,197;25646,451;    1,100;    1,682
640,774;25788,413;   -0,172;    1,136
641,351;26163,829;    0,737;    1,136
641,928;25606,972;   -0,627;    1,409
642,505;25241,570;    0,828;   -0,500
643,082;25330,259;   -1,718;    1,227
643,658;24379,402;   -0,718;    1,500
644,235;25152,000;    1,191;    2,500
644,812;25481,144;    1,918;    0,773
645,388;25185,560;   -0,991;    1,409
645,965;25289,067;   -0,809;    1,682
646,542;25358,847;   -1,445;   -0,227
647,118;25352,081;    1,009;   -0,955
647,695;25672,043;   -0,263;    1,136
648,271;25585,186;   -0,536;    0,500
648,848;25911,511;    0,736;    2,227
649,424;25750,655;    0,827;    1,318
650,000;25517,889;   -0,354;   -1,045
650,577;25302,214;   -0,627;   -0,955
651,153;25764,903;   -1,809;    0,955
651,729;26793,410;    1,191;    0,864
652,305;27277,008;    0,645;    2,773
652,881;32498,242;   -0,082;    1,136
653,458;39365,840;    1,100;    0,227
654,034;42591,438;    0,282;    1,591
654,610;43777,218;    0,554;    0,773
655,186;45048,089;    0,645;    3,045
655,762;44668,232;   -0,991;    0,409
656,338;44626,830;    0,100;    0,136
656,913;45560,883;   -0,082;    0,409
657,489;44834,662;    0,827;   -0,318
658,065;44681,533;   -0,173;   -1,591
658,641;45343,404;   -0,900;   -0,864
659,217;44641,456;   -0,991;    0,409
659,792;44072,872;    0,645;   -0,409
660,368;44208,380;   -2,173;   -0,682
660,944;43621,705;   -2,082;    1,227
661,519;38406,848;   -0,628;    0,409
662,095;32540,901;   -1,719;    0,591
662,670;28494,862;    1,281;   -0,136
663,246;27564,369;    1,009;   -0,409
663,821;26999,331;    0,281;    1,682
664,396;26484,838;    0,009;    1,864
664,972;26757,709;    0,009;   -0,500
665,547;27120,852;    1,372;    0,136
666,122;27194,814;   -1,082;    0,318
666,698;27426,866;   -0,173;    0,318
667,273;26762,646;   -0,173;    0,136
667,848;27591,517;    2,372;    1,500
668,423;27405,751;    2,190;    2,318
668,998;27954,713;    2,827;   -0,682
669,573;28530,038;   -3,264;   -1,500
670,148;28333,272;   -1,446;   -0,682
670,723;28115,506;   -1,810;    0,318
671,298;28500,013;    2,372;    1,045
671,873;28650,793;   -0,082;   -0,136
672,448;28568,937;    0,645;    0,136
673,023;28873,262;   -1,992;   -0,227
673,597;29301,223;    0,827;    2,318
674,172;29027,549;   -0,355;    0,318
674,747;28488,874;    0,372;   -1,045
675,321;28320,745;   -0,628;    3,318
675,896;27919,615;    0,645;    1,045
676,471;28897,577;    2,645;    1,591
677,045;28666,357;   -1,264;    0,682
677,620;28753,864;    0,190;    1,136
678,194;28989,371;   -2,628;    1,136
678,769;28598,514;   -1,083;   -0,318
679,343;28930,930;   -0,628;    1,773
679,917;28755,801;   -1,446;    1,955
680,492;28855,035;    0,826;    3,227
681,066;28914,906;    3,372;    0,409
681,640;29012,322;    1,463;   -0,318
682,214;29871,011;    0,735;    0,500
682,788;29350,882;   -1,356;   -0,773
683,363;29313,661;   -1,810;    1,682
683,937;29019,714;   -1,719;   -0,318
684,511;29756,585;    0,463;   -0,591
685,085;29463,546;   -1,356;    0,318
685,659;29221,871;   -2,538;    0,864
686,232;29509,106;   -0,356;   -0,318
686,806;29178,249;   -0,901;    0,409
687,380;29825,938;   -0,174;    0,591
687,954;30013,172;   -1,174;    1,136
688,528;29687,407;   -0,719;    1,955
689,101;30450,732;   -3,992;    1,045
689,675;30078,875;   -0,356;   -0,136
690,249;29453,019;   -0,719;    0,409
690,822;29756,980;    0,280;    0,318
691,396;29878,669;   -0,265;    1,227
691,969;29376,904;    1,280;    0,136
692,543;29744,683;   -0,447;   -1,955
693,116;29388,827;   -0,265;   -1,409
693,690;29289,152;    0,099;    0,500
694,263;29820,477;   -1,083;    2,955
694,836;29900,893;    1,371;    3,591
695,410;28573,037;   -0,265;    1,773
695,983;29045,362;    0,189;    0,591
696,556;29006,142;   -0,447;   -1,045
697,129;29331,831;   -0,356;    1,409
697,703;29015,701;   -1,629;    1,955
698,276;29007,936;    1,462;   -0,773
698,849;28822,897;    1,280;    1,409
699,422;29123,768;   -1,083;    0,591
699,995;28835,730;    0,007;    0,136
700,568;29338,237;   -0,629;    3,045
701,140;29375,380;   -2,811;    1,682
701,713;29089,160;   -0,174;    2,409
702,286;28874,212;   -0,538;    0,864
702,859;28746,447;   -0,902;   -0,591
703,432;27853,863;    0,825;    0,682
704,004;28359,279;    0,462;    0,318
704,577;28278,877;   -0,629;    0,136
705,150;28838,475;    0,189;    2,500
705,722;28604,255;   -0,356;   -3,227
706,295;28415,125;   -0,175;   -0,591
706,867;28306,269;   -0,175;    1,955
707,440;28478,867;   -1,720;   -0,409
708,012;28769,555;    0,462;    0,591
708,584;28671,335;    2,462;    0,227
709,157;28928,751;    1,825;   -0,591
709,729;28618,622;    2,280;    2,045
710,301;29444,675;    0,734;    0,045
710,874;29438,273;   -1,447;   -0,227
711,446;28314,052;    0,371;    0,864
712,018;28191,378;    0,098;    0,500
712,590;27927,157;   -1,993;    1,682
713,162;28442,301;    0,825;    1,318
713,734;28681,262;    1,825;   -2,045
714,306;28609,588;   -1,902;   -0,409
714,878;27274,913;    0,825;    0,864
715,450;28085,693;    0,643;    0,864
716,022;28378,018;    1,552;    1,318
716,593;28509,434;    0,189;    0,591
717,165;28415,396;   -3,175;   -1,227
717,737;28203,357;    0,280;    0,409
718,309;27863,864;    0,280;   -0,045
718,880;27792,280;   -0,539;   -1,409
719,452;28024,878;   -0,175;   -1,591
720,024;27562,749;    0,734;   -0,591
720,595;28085,256;   -2,902;    0,955
721,167;27705,218;    0,370;   -2,045
721,738;27198,361;   -0,812;   -1,045
722,309;27202,686;   -0,993;   -1,227
722,881;26986,375;   -1,357;    0,773
723,452;27659,246;   -2,630;    2,864
724,023;27829,207;   -0,721;    2,682
724,595;27575,260;    0,007;    0,682
725,166;27274,403;    0,007;   -0,409
725,737;26982,092;    1,734;    0,227
726,308;27077,963;   -0,266;    0,318
726,879;27548,379;   -1,630;    1,227
727,450;27379,068;    0,552;   -0,045
728,021;27336,302;    3,097;    0,682
728,592;27130,446;    0,734;    0,500
729,163;27478,498;    0,643;   -0,136
729,734;27484,914;    0,188;   -0,227
730,305;27831,330;    1,734;    0,136
730,876;28197,019;    0,188;    2,955
731,447;27923,163;    2,188;    2,682
732,017;28010,397;    1,097;    1,864
732,588;27459,631;    0,734;    1,227
733,159;27624,047;    0,643;   -1,045
733,729;27452,827;    0,006;    0,409
734,300;26747,334;    0,915;    0,864
734,870;27147,932;    3,461;    0,591
735,441;27736,257;    0,370;   -0,591
736,011;27514,583;    0,643;   -1,591
736,582;27453,999;   -0,812;    0,045
737,152;26952,142;   -1,721;   -2,045
737,722;27400,377;   -0,267;   -0,682
738,293;27055,065;   -1,358;    1,318
738,863;26934,845;    2,461;    2,318
739,433;26747,716;    5,279;    0,318
740,003;27348,223;   -0,994;   -0,682
740,573;26760,184;    2,097;   -1,591
741,143;26730,237;   -1,085;    0,318
741,713;27533,926;    1,188;   -0,500
742,283;27232,524;    0,915;    1,591
742,853;26970,576;    1,915;    1,591
743,423;26447,356;    1,733;    0,045
743,993;26630,590;   -0,358;    1,500
744,563;25982,916;    0,097;   -0,864
745,133;25941,695;   -0,812;   -0,864
745,702;26613,566;   -0,267;    1,773
746,272;25804,164;   -0,176;    0,591
746,842;25555,580;   -1,358;   -0,591
747,411;25988,451;   -0,267;   -0,318
747,981;26202,503;    0,097;    0,500
748,551;26223,283;    2,278;   -1,045
749,120;26083,063;    0,642;   -0,227
749,690;26521,479;   -0,631;    2,409
750,259;26790,532;    1,369;    2,955
750,828;26718,311;    1,551;   -1,955
751,398;26993,728;    1,278;   -0,045
751,967;26528,871;    2,187;    0,409
752,536;26674,196;   -0,813;   -0,227
753,105;27127,340;    0,096;    0,227
753,675;26927,483;    0,096;    1,773
754,244;26865,535;   -0,904;    3,591
754,813;26869,497;    0,551;    1,227
755,382;26411,277;    0,460;    0,955
755,951;27024,511;    1,551;    3,682
756,520;26581,927;   -0,085;    1,864
757,089;27170,616;    0,278;    0,500
757,658;27324,578;    1,733;    1,227
758,227;27308,085;    1,096;    0,318
758,795;27550,319;    1,187;    1,136
759,364;27786,735;   -0,086;   -0,591
759,933;26762,242;   -1,176;   -0,045
760,501;26243,204;    0,733;   -1,318
761,070;26769,893;   -2,813;   -1,409
761,639;27511,945;   -1,904;    1,318
762,207;26884,089;    1,551;   -0,955
762,776;26776,050;    0,369;    0,864
763,344;26750,012;   -0,995;    0,591
763,913;25782,337;   -0,722;    1,409
764,481;26552,571;    1,005;   -0,136
765,049;26341,533;   -1,358;    1,409
765,618;26216,586;   -0,086;    0,318
766,186;26341,911;    0,278;    0,136
766,754;26539,509;    0,005;    1,864
767,322;25484,379;   -1,995;    0,409
767,890;25544,341;   -0,722;   -1,773
768,459;25969,030;   -2,177;   -0,318
769,027;26152,719;    1,641;    3,409
769,595;25109,499;    3,278;    2,591
770,163;25532,642;    3,823;    2,955
770,730;25314,694;    0,732;   -0,136
771,298;25118,565;    0,187;   -1,409
771,866;25181,527;   -1,541;    4,955
772,434;25568,943;   -0,631;   -1,864
773,002;25714,995;    0,005;    0,682
773,569;25386,321;    0,914;    1,682
774,137;25177,373;   -0,268;   -0,045
774,705;25940,607;    0,278;   -0,136
775,272;25447,933;    0,641;    0,682
775,840;25226,894;   -0,177;    2,682
776,407;24737,401;    0,277;    1,955
776,975;24313,727;   -0,632;    0,318
777,542;25320,961;   -1,086;   -0,045
778,110;25174,922;   -1,268;   -0,045
778,677;24888,520;   -2,359;   -0,864
779,244;24628,118;    2,186;    1,045
779,812;24775,716;    1,823;    0,864
780,379;24632,860;    0,005;    1,136
780,946;24845,367;    1,005;   -0,773
781,513;25174,874;   -1,450;    0,318
782,080;24569,835;   -0,086;    2,864
782,647;25276,252;   -0,268;    3,045
783,214;24892,122;   -0,177;    3,864
783,781;24467,447;   -0,723;   -0,682
784,348;24371,500;   -0,632;    1,500
784,915;24800,189;   -3,177;    0,318
785,482;24571,332;    1,368;    2,591
786,049;24983,930;    0,186;   -0,591
786,615;25102,619;    0,277;   -0,955
787,182;24809,581;    0,186;   -0,682
787,749;24508,633;   -2,814;    1,409
788,315;23852,049;   -1,632;   -0,409
788,882;24182,284;    1,550;   -1,227
789,448;24928,427;    1,732;   -0,955
790,015;24881,298;    1,095;    3,227
790,581;24449,987;    1,459;    0,227
791,148;24367,312;    0,641;    1,045
791,714;24580,910;   -0,541;    3,136
792,280;24252,235;    0,186;    1,591
792,847;23773,742;    0,550;    2,500
793,413;24328,613;   -0,269;   -0,318
793,979;23908,393;    3,459;   -1,318
794,545;23997,900;    4,459;    2,682
795,111;23385,225;    2,186;    1,318
795,678;23550,186;    0,731;   -1,682
796,244;23211,966;    3,368;    0,136
796,810;23751,110;    1,731;    0,773
797,375;23463,344;    0,549;   -2,136
797,941;23530,215;   -0,541;    0,591
798,507;23671,267;   -0,451;   -0,955
799,073;23195,138;   -0,360;    0,591
799,639;23254,008;   -2,632;    3,136
800,205;23286,879;    0,095;    2,682
800,770;22828,841;    0,640;    1,773
801,336;22911,348;    1,368;   -0,955
801,901;22675,309;    4,549;    3,136
802,467;23183,907;   -0,542;    2,045
803,033;22480,960;   -0,087;    0,864
803,598;22733,649;    1,913;   -1,045
804,163;22756,247;    1,095;   -0,318
804,729;22749,117;   -0,178;    1,136
805,294;23145,988;    0,822;    2,227
805,859;22930,768;    0,731;   -0,409
806,425;22372,275;    1,186;    2,682
806,990;22003,236;    2,186;    4,318
807,555;22516,016;   -1,451;    2,591
808,120;22426,523;    0,822;   -0,409
808,685;22437,848;    0,185;   -2,500
809,250;21985,083;    0,004;   -0,500
809,815;22286,499;    1,913;    0,682
810,380;22815,551;   -0,269;    1,591
810,945;23410,513;   -1,087;    2,045
811,510;22570,384;    2,094;    1,591
812,075;22250,891;   -0,633;   -1,409
812,640;22270,398;    2,003;    1,409
813,204;22326,087;    0,822;   -0,227
813,769;22811,776;    2,094;   -0,045
814,334;22246,101;    0,458;    0,864
814,898;22307,971;    0,367;    0,591
815,463;22116,751;    1,276;   -0,773
816,027;22133,986;   -0,724;   -2,318
816,592;22185,765;    0,640;   -2,045
817,156;21729,454;    2,094;    1,136
817,721;21604,779;    4,276;    2,318
818,285;21575,014;    2,912;    1,500
818,849;22234,339;   -1,451;    1,682
819,414;22106,664;   -0,269;    2,955
819,978;21644,899;   -1,269;    1,773
820,542;22264,497;    2,003;    0,500
821,106;21922,367;   -0,815;    0,682
821,670;22054,056;   -0,815;    2,591
822,234;21739,109;   -0,270;    1,409
822,798;21173,979;    0,003;    0,500
823,362;21133,214;   -0,633;    4,227
823,926;20448,812;    0,094;    1,136
824,490;20694,046;   -0,997;   -0,682
825,054;21106,371;   -0,088;   -1,136
825,618;20776,242;   -1,542;   -1,500
826,181;20706,931;    0,458;   -1,318
826,745;20633,710;    1,367;   -1,045
827,309;21012,581;    1,185;    1,318
827,872;20361,452;    1,367;    0,955
828,436;21360,686;    1,185;   -0,773
828,999;21325,102;   -0,997;    1,227
829,563;20175,609;   -0,179;    1,136
830,126;20014,025;   -0,179;   -0,591
830,690;20021,896;   -1,997;    2,864
831,253;19576,403;   -0,543;    2,227
831,816;19687,728;   -1,906;    0,500
832,380;19626,599;    0,185;    0,864
832,943;19864,015;   -1,361;   -0,500
833,506;19285,522;    2,639;   -1,227
834,069;20098,847;    3,912;   -0,955
834,632;20176,173;    1,730;    1,318
835,195;20065,316;    1,003;    0,955
835,758;19269,278;   -0,997;    1,955
836,321;19130,239;    0,730;   -1,045
836,884;19225,655;   -0,725;   -0,955
837,447;19228,890;   -2,816;    1,773
838,010;19531,760;    0,366;    3,227
838,573;19830,177;   -1,179;    0,773
839,135;19778,502;   -1,361;   -0,955
839,698;19243,282;    1,275;    0,409
840,261;18687,698;    1,003;   -0,227
840,823;18533,114;   -0,543;    0,864
841,386;18809,530;   -0,452;   -2,409
841,948;18724,401;   -1,361;    1,773
842,511;18516,635;    0,912;    1,682
843,073;18655,688;    1,912;    0,227
843,636;18439,376;   -0,361;   -0,227
844,198;18432,156;    0,911;    0,591
844,760;18510,754;    1,093;    1,955
845,322;18158,261;    0,548;    1,136
845,885;18606,132;    0,730;    0,591
846,447;19039,275;   -1,998;    0,227
847,009;18663,146;    1,911;   -0,682
847,571;18940,744;    0,820;   -2,045
848,133;19010,524;   -1,089;   -1,864
848,695;18820,576;   -0,543;    1,409
849,257;18398,083;   -1,089;   -1,682
849,819;18611,863;   -0,998;   -0,409
850,381;18644,188;   -0,725;   -0,864
850,942;19013,241;    1,093;   -0,591
851,504;18961,021;    1,184;    0,227
852,066;18962,437;    1,275;   -1,591
852,628;18495,398;   -0,180;    1,955
853,189;18055,178;    1,638;    2,682
853,751;18192,049;   -0,907;    1,409
854,312;17923,101;   -0,453;   -1,682
854,874;18456,790;   -2,089;   -0,773
855,435;18959,570;   -0,907;   -1,682
855,997;19166,168;   -1,816;   -0,136
856,558;18446,675;    0,366;    1,773
857,119;18537,182;    0,820;    2,864
857,681;18232,962;    0,002;    0,318
858,242;18292,378;    1,911;   -2,136
858,803;18725,067;    0,456;   -0,773
859,364;19287,483;    0,184;   -4,773
859,925;18607,172;   -2,453;   -0,955
860,486;18490,951;   -0,453;   -0,955
861,047;18199,277;   -0,544;   -1,227
861,608;18076,693;   -1,089;   -0,773
862,169;18174,927;    0,638;   -0,045
862,730;17931,343;    0,456;    1,409
863,291;18189,396;   -0,635;   -0,500
863,852;18584,721;   -0,635;    1,955
864,412;18033,410;   -0,271;   -0,864
864,973;16628,826;   -0,089;    0,500
865,534;16476,333;   -1,726;    0,227
866,094;17969,567;    1,820;    0,227
866,655;17624,438;    1,274;    3,318
867,215;17903,491;    0,274;    0,136
867,776;17766,179;    0,547;   -0,136
868,336;17850,414;   -1,453;    0,136
868,897;17337,739;    2,638;    1,682
869,457;17058,155;    1,365;    0,318
870,017;17270,026;    0,547;   -1,227
870,578;17801,078;   -0,817;    0,773
871,138;17507,858;   -2,089;   -0,955
871,698;17030,365;   -0,817;   -1,318
872,258;16904,418;   -0,453;   -2,864
872,818;17331,379;    2,729;    0,045
873,378;17238,795;    0,638;    1,045
873,938;16767,848;    0,547;    0,500
874,498;17073,628;    0,274;   -1,955
875,058;17017,862;    2,183;    1,773
875,618;16883,005;    1,910;   -2,682
876,177;16794,785;    1,274;    0,136
876,737;16403,020;   -0,090;    1,955
877,297;16433,617;    0,183;    1,955
877,856;16461,670;   -0,362;    0,318
878,416;16396,904;    1,183;   -0,136
878,976;16610,957;   -1,817;    0,409
879,535;16793,373;    0,092;    3,136
880,095;16540,153;   -0,544;    0,045
880,654;16650,660;   -1,090;    1,318
881,213;16804,530;    2,456;    1,500
881,773;16396,128;    2,637;    2,682
882,332;16815,545;    3,365;    5,136
882,891;16628,324;    3,092;    2,136
883,451;17071,377;   -1,272;    1,682
884,010;16469,429;   -2,908;   -0,409
884,569;16576,664;   -0,999;   -0,045
885,128;16742,534;    2,819;   -1,864
885,687;16795,678;    4,455;    0,682
886,246;16537,639;    1,455;    2,136
886,805;16294,601;    2,455;    2,045
887,364;16530,835;   -0,999;   -0,500
887,922;16908,615;   -1,181;    0,045
888,481;16430,758;   -1,545;    0,591
889,040;16724,175;    1,183;    2,136
889,599;17348,591;    2,455;    1,409
890,157;17460,825;    1,455;    2,409
890,716;17154,878;   -0,090;    0,227
891,274;16967,930;    0,092;   -1,136
891,833;17380,164;    1,546;    0,864
892,391;17245,762;   -0,454;    0,500
892,950;17287,088;    1,819;   -0,773
893,508;17686,049;    0,455;   -0,409
894,067;17026,102;    0,637;    0,136
894,625;16938,972;   -0,636;   -1,500
895,183;17151,843;   -0,363;   -0,682
895,741;17066,532;    1,728;   -1,773
896,299;16874,403;   -0,545;   -2,409
896,858;17066,637;    0,819;   -1,591
897,416;17215,508;    2,728;   -1,318
897,974;16968,469;    1,819;    0,318
898,532;17139,613;    6,091;    2,682
899,089;17036,938;    2,091;   -0,682
899,647;17069,627;   -1,454;    1,318
900,205;16754,134;    1,182;    1,045
900,763;16939,732;   -0,454;    0,227
901,321;16953,784;    2,364;   -1,409
901,878;16381,019;   -1,000;   -0,773
902,436;16250,889;   -1,363;    1,318
902,994;16663,942;    4,728;    3,682
903,551;16101,722;    0,728;    0,409
904,109;16470,683;    0,182;   -1,409
904,666;16081,099;    2,455;    1,045
905,224;15916,970;    0,182;   -0,409
905,781;15659,477;    0,727;   -0,318
906,338;15720,166;   -1,363;    1,045
906,895;15650,309;    0,637;    2,045
907,453;15578,089;    1,727;    1,136
908,010;15601,232;   -0,909;    0,409
908,567;15284,558;    1,273;    0,591
909,124;14779,974;    0,364;   -1,500
909,681;14881,208;   -2,909;    0,682
910,238;15033,715;    0,636;   -1,318
910,795;15292,040;   -0,273;   -1,136
911,352;14905,404;   -2,909;   -2,682
911,909;14364,768;   -1,364;   -0,864
912,466;14877,404;   -3,182;    1,500
913,022;14373,131;   -1,636;    0,500
913,579;14741,586;   -0,909;    2,045
914,136;14440,949;    1,636;    0,955
914,692;14796,313;    0,091;   -1,227
915,249;14408,949;    1,455;    0,409
915,806;14642,495;    0,182;    1,955
916,362;14408,495;    1,909;    1,864
916,918;13952,040;    2,000;    1,045
917,475;13952,859;   -1,182;    0,955
918,031;13986,768;    3,364;   -0,045
918,587;13451,949;   -0,909;   -0,318
919,144;13652,131;   -2,273;    0,227
919,700;13987,495;    1,727;    0,773
920,256;13536,495;    0,727;    0,045
920,812;13166,768;   -0,727;   -1,045
921,368;13209,949;   -1,727;   -1,045
921,924;12811,313;    0,182;   -0,136
922,480;12432,586;   -0,545;    1,227
923,036;13040,586;    1,273;    1,955
923,592;12947,040;    0,455;    0,318
924,148;12895,768;    0,455;   -0,955
924,704;12230,586;   -1,364;   -0,409
925,259;12447,586;   -0,273;    0,591
925,815;12215,859;    1,455;    0,500
926,371;11737,586;    2,909;    1,409
926,926;11642,677;    2,091;    0,591
927,482;11266,586;   -1,364;    0,773
928,037;11160,404;    0,909;    2,045
928,593;11466,495;    1,636;    1,045
929,148;11277,677;   -1,818;   -1,500
929,704;10759,222;   -1,455;   -0,500
930,259;10982,859;    0,091;   -0,136
930,814;10037,040;   -0,818;    1,955
931,369; 9719,586;    1,091;   -0,773
931,925; 9570,131;   -0,091;    0,136
932,480; 9500,859;   -2,818;   -2,591
933,035; 9407,768;    0,545;   -0,318
933,590; 9200,313;    0,364;   -1,773
934,145; 8803,768;   -1,364;   -0,318
934,700; 9126,586;    0,455;   -0,591
935,255; 8962,677;   -0,091;    0,045
935,809; 8245,677;    3,182;    0,864
936,364; 7345,859;   -0,455;   -0,136
936,919; 7334,677;    0,455;   -1,773
937,474; 7224,404;    1,455;    0,136
938,028; 7005,313;   -1,636;    1,136
938,583; 6501,949;    1,818;    4,682
939,138; 6770,495;    2,091;    2,136
939,692; 6181,859;    1,636;   -1,136
940,247; 5916,677;   -0,727;   -1,045
940,801; 5485,131;   -0,636;    0,227
941,355; 5362,768;   -0,364;    2,591
941,910; 5012,586;   -0,273;   -2,136
942,464; 5123,949;   -0,818;   -0,318
943,018; 4928,222;    1,000;   -0,227
943,572; 4848,859;    2,545;   -0,682
944,126; 4305,404;    0,091;   -0,409
944,681; 4226,222;    3,091;    0,227
945,235; 4184,768;    1,000;   -0,591
945,789; 4111,495;    0,364;   -1,864
946,342; 4218,040;    0,455;   -0,591
946,896; 4021,040;   -2,273;    0,955
947,450; 3784,040;    1,545;   -0,227
948,004; 3991,131;    1,727;   -0,045
948,558; 3984,313;    0,273;   -0,864
949,111; 3926,404;   -0,273;   -0,318
949,665; 3956,677;    1,636;   -0,682
950,219; 3819,859;   -0,091;   -1,045
950,772; 3911,586;   -1,909;    1,864
951,326; 3794,040;    0,545;   -0,955
951,879; 3900,768;    0,727;   -2,318
952,433; 3946,040;    0,000;    2,227
952,986; 3755,040;    2,909;    0,682
953,539; 3709,768;   -0,273;    0,591
954,093; 3638,949;    0,545;   -1,318
954,646; 3775,586;    0,909;    1,318
955,199; 3600,222;    0,000;   -0,500
955,752; 3510,404;   -0,455;    1,773
956,305; 3438,768;   -0,091;    2,955
956,858; 3616,949;    0,818;   -0,318
957,411; 3790,586;   -0,545;    2,136
957,964; 3610,495;    1,364;    2,136
958,517; 3599,768;   -1,545;    3,136
959,070; 3425,222;   -0,455;    1,955
959,623; 3514,677;    1,091;    1,500
960,176; 3289,495;    1,727;    2,045
960,728; 3264,040;   -2,727;    0,773
961,281; 3337,040;    0,545;    0,500
961,834; 3372,495;   -0,909;    0,864
962,386; 3272,313;    1,727;    1,045
962,939; 3191,859;    0,364;   -0,318
963,491; 3339,222;    0,455;    1,136
964,043; 3211,131;    1,182;    2,409
964,596; 3342,768;   -1,000;    2,227
965,148; 3191,677;   -1,000;    1,773
965,700; 3099,768;    1,091;   -0,227
966,253; 3255,495;   -0,636;    0,318
966,805; 3083,040;   -2,273;    0,773
967,357; 3126,768;    1,091;   -1,500
967,909; 3100,949;    0,455;   -1,227
968,461; 3182,222;    0,545;    3,136
969,013; 3117,313;   -0,182;   -0,864
969,565; 3219,677;   -0,455;   -1,136
970,117; 3298,131;   -0,364;    1,045
970,669; 3109,949;    0,182;   -0,136
971,220; 2959,313;   -0,455;   -1,500
971,772; 2909,131;   -0,636;   -0,318
972,324; 3034,677;    0,091;   -0,500
972,876; 2970,949;    0,818;   -0,045
973,427; 3121,313;    1,909;   -1,045
973,979; 3066,768;   -0,727;   -2,500
974,530; 3114,768;    1,818;    1,318
975,082; 3110,768;   -0,545;    1,682
975,633; 3009,131;    1,091;    1,682
976,184; 3164,222;    0,909;    0,773
976,736; 2961,859;    0,091;    0,227
977,287; 2762,131;   -0,909;   -0,500
977,838; 2939,131;    0,909;   -0,318
978,389; 3000,677;   -1,000;   -0,500
978,940; 2872,859;    0,545;   -0,409
979,491; 2889,404;    0,091;   -0,500
980,042; 2861,040;    0,182;    3,045
980,593; 2907,313;   -2,545;    0,227
981,144; 2945,222;    2,545;   -0,500
981,695; 2924,131;    1,455;    1,500
982,246; 2879,040;   -0,273;    1,045
982,797; 3038,677;   -1,727;    0,682
983,347; 3134,768;    0,364;    0,591
983,898; 3319,131;    3,091;    0,409
984,449; 3146,131;    2,182;    0,773
984,999; 3035,949;    1,455;   -1,136
985,550; 2816,949;    0,182;   -0,318
986,100; 2837,040;   -0,455;   -0,318
986,651; 2872,222;   -0,818;    0,045
987,201; 2851,586;   -1,000;   -0,591
987,751; 2927,768;    0,818;    2,864
988,302; 2919,768;    2,636;    1,500
988,852; 2944,949;    0,455;   -1,136
989,402; 3011,677;    0,091;    0,682
989,952; 2916,313;   -2,182;    0,864
990,502; 3022,859;   -0,091;    0,682
991,052; 2969,677;   -0,727;    0,045
991,602; 2842,404;   -2,909;    1,318
992,152; 2848,495;    0,455;    0,682
992,702; 2823,404;    1,364;   -0,045
993,252; 2744,404;   -3,000;   -0,500
993,802; 2831,131;   -0,273;    1,318
994,352; 3058,768;   -1,545;    1,136
994,901; 3150,131;   -0,182;    3,227
995,451; 3059,859;   -0,182;    0,318
996,000; 3145,495;    1,636;    0,318
996,550; 2867,768;    2,273;    0,227
997,100; 2843,586;    1,273;   -0,045
997,649; 3137,768;    2,182;    0,955
998,198; 2769,586;    1,727;   -1,500
998,748; 2989,222;    1,091;   -2,318
999,297; 2888,404;   -0,818;   -0,409
999,846; 2946,859;    1,000;   -0,773
1000,395; 2987,222;   -0,818;    0,500
1000,945; 2951,768;    1,818;   -0,773
1001,494; 3061,859;    2,364;    0,682
1002,043; 3026,222;    4,636;    0,864
1002,592; 2847,404;   -1,091;    1,955
1003,141; 3009,677;   -0,455;   -0,682
1003,690; 2883,949;    1,727;    0,500
1004,238; 2946,222;    1,455;   -0,045
1004,787; 2586,677;    1,364;    1,227
1005,336; 2847,859;    0,364;    0,682
1005,885; 2996,677;    1,364;   -2,773
1006,433; 3110,586;    0,545;    0,955
1006,982; 3198,404;    0,455;    1,682
1007,531; 3073,131;   -1,818;   -0,227
1008,079; 3013,768;   -2,273;    0,500
1008,627; 3141,222;   -1,455;    0,409
1009,176; 2898,586;    0,000;   -1,955
1009,724; 2942,040;    1,091;    0,864
1010,273; 2992,859;    1,273;    0,500
1010,821; 3078,040;    0,091;    1,409
1011,369; 2838,404;   -1,364;    1,318
1011,917; 2824,131;   -1,364;   -0,591
1012,465; 3096,586;    1,273;   -1,591
1013,013; 3212,495;    2,091;   -1,682
1013,561; 3110,131;    0,455;   -0,773
1014,109; 3158,949;   -1,909;    1,682
1014,657; 3018,586;    0,364;    0,591
1015,205; 3142,404;    1,636;   -0,955
1015,753; 3162,949;   -0,545;   -1,409
1016,301; 3203,949;   -2,636;    3,045
1016,848; 3212,404;   -1,273;    0,409
1017,396; 3250,040;    2,545;    0,045
1017,944; 3372,677;    1,182;    1,864
1018,491; 3128,768;    0,273;    1,409
1019,039; 3295,040;    0,455;    0,591
1019,586; 3187,677;   -1,364;    1,682
1020,134; 3294,586;    0,455;    1,500
1020,681; 3321,495;    0,182;   -1,136
1021,228; 3321,313;    2,909;   -2,227
1021,776; 3148,677;    1,182;   -1,136
1022,323; 3383,768;    0,455;    0,773
1022,870; 3305,949;   -1,000;   -0,045
1023,417; 3198,404;    2,636;    1,864
1023,964; 3326,495;    2,636;    1,227
1024,511; 3182,404;    1,000;    0,773
1025,058; 2992,677;    3,182;   -0,045
1025,605; 3026,949;   -2,273;    3,136
1026,152; 3263,222;    1,727;   -0,591
1026,699; 2980,313;    1,818;    1,318
1027,245; 3136,677;   -0,091;    0,318
1027,792; 3350,040;   -1,000;    1,409
1028,339; 3236,495;    2,364;   -0,045
1028,885; 3090,131;    1,000;   -0,227
1029,432; 3038,040;   -0,091;    0,227
1029,978; 3097,222;   -1,000;   -1,591
1030,525; 3018,131;    1,000;    0,409
1031,071; 3224,131;   -1,364;    1,136
1031,618; 3345,677;    0,364;    1,682
1032,164; 3120,404;   -0,091;    3,045
1032,710; 3173,131;    1,636;   -1,500
1033,256; 3083,131;   -0,636;   -0,136
1033,803; 3084,313;   -0,545;    1,500
1034,349; 2786,313;   -1,364;    0,136
1034,895; 2932,859;    0,000;   -0,318
1035,441; 2933,495;   -0,818;    0,318
1035,987; 2935,949;   -2,364;   -0,682
1036,533; 2938,222;   -1,455;   -0,955
1037,078; 3132,040;    1,455;    1,682
1037,624; 2943,131;    2,455;   -0,955
1038,170; 2969,586;    0,455;   -0,318
1038,716; 2882,313;    1,636;   -0,409
1039,261; 2786,222;   -2,273;   -0,773
1039,807; 2729,949;   -0,091;    3,409
1040,352; 2810,949;   -1,909;   -0,318
1040,898; 2840,495;   -1,545;   -0,682
1041,443; 2742,131;   -1,455;   -2,591
1041,989; 2781,586;    1,091;    1,591
1042,534; 2655,222;   -0,364;    2,591
1043,079; 2760,586;    2,909;    0,955
1043,625; 2557,677;    1,818;    0,500
1044,170; 2608,495;   -1,364;    1,045
1044,715; 2853,768;    2,455;    0,955
1045,260; 2673,768;    2,182;   -0,955
1045,805; 2707,677;    1,182;   -0,591
1046,350; 2626,495;    1,364;   -0,409
1046,895; 2612,768;    2,909;    1,591
1047,440; 2582,404;    5,364;    0,409
1047,985; 2470,131;    2,818;   -0,955
1048,530; 2387,495;    1,545;    1,227
1049,074; 2456,677;    0,000;    0,318
1049,619; 2415,949;   -1,364;    1,955
1050,164; 2231,131;    0,455;    0,227
1050,708; 2269,040;   -0,455;    0,045
1051,253; 2659,495;    1,273;   -2,227
1051,797; 2349,222;    0,818;   -1,318
1052,342; 2352,768;   -1,182;    1,045
1052,886; 2357,313;    0,364;   -1,409
1053,430; 2225,404;   -1,364;    0,136
1053,975; 2250,313;   -0,818;   -0,318
1054,519; 2240,040;   -0,727;    3,227
1055,063; 2255,404;    0,909;    1,318
1055,607; 2131,131;   -0,182;    0,227
1056,151; 2159,222;    2,909;    1,682
1056,695; 2060,677;    2,273;   -1,136
1057,239; 2131,040;   -1,727;   -0,682
1057,783; 2149,859;    0,818;   -1,500
1058,327; 2101,495;    0,000;    1,409
1058,871; 2354,768;   -0,545;    1,318
1059,415; 2055,768;   -0,818;   -0,045
1059,958; 2322,040;    1,455;    2,591
1060,502; 2035,040;   -1,000;   -0,773
1061,046; 1919,313;    0,364;   -0,955
1061,589; 1898,859;   -3,000;   -1,136
1062,133; 1792,040;   -1,273;    1,864
1062,676; 1722,222;    1,182;    0,864
1063,220; 1730,404;    1,091;    0,500
1063,763; 1761,768;    0,909;    1,136
1064,306; 1861,495;   -0,909;    1,864
1064,849; 1740,586;   -0,909;    0,591
1065,393; 1741,677;    2,000;   -1,500
1065,936; 1852,040;    0,182;   -0,409
1066,479; 1724,222;   -1,455;    1,318
1067,022; 1750,404;   -0,273;   -0,227
1067,565; 1651,313;   -0,091;   -1,318
1068,108; 1674,949;    0,727;   -0,591
1068,651; 1638,859;   -0,636;    1,409
1069,194; 1578,768;   -0,455;   -1,682
1069,736; 1591,313;   -1,273;    0,955
1070,279; 1557,949;   -1,364;   -0,500
1070,822; 1609,222;   -2,000;   -0,318
1071,364; 1716,040;   -0,364;    1,318
1071,907; 1524,222;   -0,727;    3,227
1072,450; 1402,404;    0,000;   -0,045
1072,992; 1420,949;   -0,273;    3,136
1073,535; 1583,586;    2,091;    2,136
1074,077; 1360,677;   -0,727;    2,045
1074,619; 1327,677;   -1,364;    0,591
1075,161; 1370,677;   -1,091;    1,500
1075,704; 1549,040;    1,545;    1,227
1076,246; 1336,222;   -0,182;    0,682
1076,788; 1260,222;   -0,364;    1,773
1077,330; 1335,313;    1,273;    2,136
1077,872; 1307,768;    0,909;    0,955
1078,414; 1543,677;    2,727;    0,773
1078,956; 1270,586;    1,273;   -0,227
1079,498; 1544,222;    1,636;    0,318
1080,040; 1242,586;    1,909;   -1,318
1080,581; 1192,040;    1,636;   -0,318
1081,123; 1107,677;    0,091;   -0,773
1081,665; 1142,677;   -1,182;   -0,955
1082,206; 1454,404;    1,364;   -0,500
1082,748; 1314,677;    0,727;    2,045
1083,289; 1179,495;   -2,000;    1,318
1083,831; 1101,677;   -0,545;    0,227
1084,372; 1146,313;    0,000;    0,591
1084,913; 1150,222;    1,091;    0,864
1085,455; 1091,859;   -1,909;   -2,045
1085,996; 1075,768;   -2,273;    0,136
1086,537; 1106,677;   -0,091;    0,864
1087,078; 1132,677;   -0,909;   -2,136
1087,619; 1185,404;   -1,273;    0,227
1088,160; 1082,859;    0,000;    1,318
1088,701; 1074,404;   -1,091;    0,682
1089,242; 1018,949;    1,364;   -2,227
1089,783; 1121,222;   -0,273;    1,409
1090,324; 1084,949;    0,455;    0,682
1090,865;  969,313;    2,727;   -0,409
1091,405;  919,313;    0,727;    2,227
1091,946;  953,222;    0,182;   -0,955
1092,487;  868,586;    0,818;   -1,409
1093,027; 1049,677;   -1,364;   -1,500
1093,568;  906,313;   -0,364;    1,227
1094,108; 1011,131;    0,273;    1,773
1094,649;  941,131;   -1,182;    0,136
1095,189;  871,949;   -0,636;   -0,682
1095,729;  824,404;   -0,091;    0,955
1096,269;  814,495;    0,727;   -0,955
1096,810; 1147,222;   -1,364;    0,500
1097,350;  986,131;    1,364;   -0,773
1097,890;  876,949;    0,364;    1,227
1098,430; 1142,586;    2,364;    2,864
1098,970; 1017,131;    2,182;    1,682
1099,510;  862,768;    0,545;   -2,318
1100,050;  793,222;    1,000;   -1,591
1100,589;  762,949;   -0,727;   -0,318
1101,129;  895,859;    0,818;   -0,955
1101,669; 1051,495;    1,727;    2,136
1102,209;  863,495;   -0,091;    2,227
1102,748;  815,949;    0,000;    0,955
1103,288;  806,222;    1,273;   -1,227
1103,827;  846,859;    3,091;   -2,227
1104,367;  706,677;   -0,091;   -2,409
1104,906;  674,404;    1,364;   -1,136
1105,445;  760,768;    0,636;   -1,136
1105,985;  701,949;   -0,727;    1,500
1106,524;  752,404;   -1,727;   -0,682
1107,063;  717,131;   -2,727;    1,409
1107,602;  686,495;   -1,909;   -1,500
1108,141;  613,495;   -1,909;    1,500
1108,680;  734,677;   -3,455;   -0,591
1109,219;  651,768;   -0,909;   -0,500
1109,758;  655,949;    0,455;    0,682
1110,297;  633,131;    1,000;   -0,682
1110,836;  580,313;   -0,727;    0,955
1111,375;  742,131;   -2,545;    0,409
1111,913;  756,949;   -1,000;    0,773
1112,452;  687,313;   -0,273;    0,136
1112,991;  568,677;    1,091;    1,955
1113,529;  529,495;   -0,818;   -0,045
1114,068;  601,404;   -0,273;    2,955
1114,606;  490,949;   -0,364;   -0,955
1115,144;  668,586;   -1,273;    1,045
1115,683;  602,586;   -0,727;    0,318
1116,221;  653,404;   -0,455;   -0,864
1116,759;  557,495;    0,636;   -0,864
1117,297;  763,404;    0,000;    1,864
1117,836;  568,313;   -2,182;   -1,227
1118,374;  586,677;    0,182;   -0,682
1118,912;  518,040;    0,909;    2,682
1119,450;  513,404;    1,000;    0,864
1119,988;  564,222;    1,545;    2,136
1120,525; 1020,131;    5,091;    3,318
1121,063;  721,677;    1,182;    1,864
1121,601;  526,131;   -0,909;   -1,227
1122,139;  479,586;   -0,727;   -2,045
1122,676;  677,131;   -0,727;    2,773
1123,214;  608,949;   -1,182;    4,409
1123,751;  418,768;    1,727;    2,227
1124,289;  552,040;   -0,091;   -0,409
1124,826;  413,131;    1,727;    0,227
1125,364;  334,949;    1,727;   -0,955
1125,901;  528,313;    1,182;    1,227
1126,438;  646,859;    0,818;    0,955
1126,975;  367,040;   -0,727;   -0,773
1127,513;  434,949;    0,273;    2,136
1128,050;  337,404;    1,636;   -0,682
1128,587;  444,949;    2,000;   -0,227
1129,124;  498,677;    0,091;    1,318
1129,661;  350,949;    0,273;    0,227
1130,198;  527,040;    1,636;    0,773
1130,734;  469,040;    0,182;    1,409
1131,271;  323,495;   -0,909;    0,864
1131,808;  499,495;    2,909;    3,045
1132,345;  374,859;    1,545;    0,318
1132,881;  231,859;   -1,545;   -1,864
1133,418;  381,495;    0,727;   -1,136
1133,954;  321,222;    2,455;   -2,682
1134,491;  393,404;    1,364;   -0,773
1135,027;  291,768;    2,364;    0,864
1135,564;  388,040;    0,273;    2,955
1136,100;  364,404;    0,364;    2,136
1136,636;  249,495;   -1,273;   -1,045
1137,172;  351,949;    0,000;   -1,045
1137,708;  274,768;   -1,364;   -1,045
1138,245;  280,859;    1,273;   -1,227
1138,781;  228,131;    1,091;   -3,318
1139,317;  304,768;    1,273;   -1,409
1139,852;  286,586;    3,091;    0,136
1140,388;  407,859;   -1,182;   -0,409
1140,924;  293,859;   -1,091;   -2,227
1141,460;  219,404;   -1,636;    0,136
1141,996;  151,313;   -1,364;    2,682
1142,531;  207,949;    1,364;    3,318
1143,067;  425,222;    1,182;    1,045
1143,602;  490,495;   -0,091;   -0,318
1144,138;  324,131;   -2,636;    1,045
1144,673;  180,222;   -1,455;    1,409
1145,209;  266,495;   -1,909;   -0,318
1145,744;  176,859;   -0,727;    0,864
1146,279;  319,586;    1,818;   -0,136
1146,815;  232,404;    1,545;   -2,682
1147,350;  280,495;   -1,364;    0,045
1147,885;  185,495;   -0,818;   -1,318
1148,420;  180,131;   -2,273;    0,773
1148,955;  159,495;   -1,727;    1,864
1149,490;  188,040;   -0,909;   -1,591
1150,025;  174,131;    0,455;   -1,773
1150,560;  293,222;    1,091;   -0,955
1151,094;  259,768;    1,455;   -0,591
1151,629;  260,949;    1,636;    0,864
1152,164;  185,586;    1,364;    1,318
1152,698;  147,404;   -0,182;   -0,136
1153,233;  102,677;    0,091;   -0,682
1153,767;  145,040;   -3,000;   -2,318
1154,302;  207,040;   -1,455;    1,773
1154,836;  204,222;   -0,455;   -2,136
1155,371;  263,040;   -1,364;    3,682
1155,905;  206,222;   -0,636;    1,682
1156,439;  173,677;   -0,636;   -0,500
1156,973;  202,586;    0,364;    0,318
1157,507;  137,677;   -0,364;    0,682
1158,042;  170,677;   -0,727;    1,045
1158,576;  223,495;    0,182;    1,773
1159,110;  213,677;   -0,818;    2,409
1159,643;  183,313;    0,636;   -0,045
1160,177;  107,677;   -1,545;    1,500

