
Integration time [ms]:   0,040
Averaging Nr. [scans]: 11
Smoothing Nr. [pixels]: 0
Data measured with spectrometer [name]: 7318044SP
Wave   ;Sample   ;Dark     ;Reference
[nm]   ;[counts] ;[counts] ;[counts] 

186,757;   22,547;   31,551;    1,318
187,357;   59,303;   22,551;    0,955
187,958;   43,104;   15,460;   -1,591
188,558;   84,903;    8,915;   -1,227
189,159;   46,041;    6,733;   -4,500
189,759;   20,733;    7,278;   -3,591
190,360;   24,917;    2,824;   -2,136
190,960;   68,216;    2,915;   -4,136
191,560;   80,728;    3,189;   -6,591
192,161;  338,056;    4,372;   -3,500
192,761;  165,485;    4,010;   -3,227
193,361;  113,178;    1,556;   -3,773
193,962;  170,316;    2,010;   -2,682
194,562;   86,140;    1,189;   -3,955
195,162;  128,850;   -2,448;   -2,227
195,762;  305,267;   -3,176;   -0,045
196,362;  247,945;    1,370;   -2,500
196,963;  104,035;    2,006;   -0,864
197,563;  180,361;    1,551;   -0,955
198,163;  127,877;    0,096;   -0,682
198,763;  135,305;    1,733;   -0,500
199,363;  252,465;    3,096;   -0,500
199,963;  203,212;    0,369;    0,409
200,563;  173,016;    2,823;   -1,409
201,163;  157,375;    3,277;   -0,227
201,763;  257,903;    3,732;    0,318
202,363;  196,721;    1,459;    1,500
202,963;  320,112;    1,459;    1,045
203,563;  429,742;    0,277;    0,500
204,162;  257,210;    2,096;   -1,864
204,762;  250,540;    0,550;    0,591
205,362;  218,723;    3,004;    1,955
205,962;  322,372;    3,096;    1,955
206,562;  312,723;    1,823;    2,318
207,161;  289,365;   -0,087;    0,318
207,761;  444,936;    1,277;    2,409
208,361;  322,217;   -0,268;    1,409
208,960;  429,678;    0,459;    1,500
209,560;  505,460;    1,277;    1,591
210,160;  478,775;    0,550;    1,864
210,759;  444,681;    4,186;    1,227
211,359;  459,148;    1,459;    1,045
211,958;  738,422;    1,277;    2,045
212,558;  829,128;    1,732;    1,864
213,157;  658,628;    1,822;    1,500
213,757; 1117,441;    3,822;   -0,227
214,356;  806,235;    1,277;   -0,409
214,956; 1158,740;    3,095;    0,409
215,555;  758,186;    2,095;    2,136
216,154;  695,217;   -2,723;   -0,591
216,754;  705,846;    0,277;    0,773
217,353;  860,379;   -0,268;   -1,045
217,952;  710,317;   -0,178;    0,318
218,552;  960,775;    1,368;   -0,773
219,151;  849,576;    0,277;    0,955
219,750;  840,795;    0,004;   -0,227
220,349;  991,852;   -0,451;    1,045
220,948; 1060,264;   -1,360;    1,136
221,548; 1085,937;    0,913;    1,227
222,147; 1202,496;   -0,087;   -0,409
222,746; 1497,708;   -0,451;   -0,955
223,345; 1381,635;    0,731;    0,500
223,944; 1379,810;   -0,451;    0,773
224,543; 1576,038;    1,004;   -1,409
225,142; 1698,399;    0,094;    0,136
225,741; 1600,258;   -0,814;    1,045
226,340; 1628,943;   -0,451;   -0,955
226,939; 2113,762;   -0,996;   -0,136
227,538; 2082,460;   -0,360;   -0,773
228,137; 2237,612;   -0,814;    0,864
228,735; 2425,518;   -0,541;    1,227
229,334; 2161,238;   -0,905;   -0,227
229,933; 2547,581;    0,459;    0,591
230,532; 2655,721;    1,186;   -0,409
231,131; 2708,907;    1,732;    0,318
231,729; 2894,200;   -2,450;   -2,318
232,328; 3034,067;   -0,723;   -1,500
232,927; 3131,491;    1,004;   -0,500
233,525; 3270,667;    3,640;    0,045
234,124; 3504,962;    2,368;   -1,591
234,723; 3504,717;    0,913;   -1,045
235,321; 3673,832;    2,277;    0,136
235,920; 3960,294;    1,186;   -1,227
236,518; 4221,227;    3,459;    0,318
237,117; 4423,727;    0,004;   -0,227
237,715; 4594,665;    0,640;   -0,500
238,314; 4623,550;   -0,087;   -2,318
238,912; 4744,490;   -0,723;   -1,409
239,510; 4792,658;    0,459;   -1,227
240,109; 4982,949;    0,004;    3,773
240,707; 5001,753;   -0,996;    1,227
241,305; 5403,536;    0,550;    0,136
241,904; 5662,263;   -0,178;   -2,045
242,502; 5625,092;   -0,632;   -0,227
243,100; 5535,749;   -0,087;   -0,955
243,698; 5764,141;    0,732;    1,682
244,297; 5965,605;   -0,632;    0,682
244,895; 5789,461;   -0,269;   -2,318
245,493; 6155,192;    2,186;   -0,591
246,091; 6173,692;    1,368;   -1,318
246,689; 6189,688;    1,004;    0,591
247,287; 6353,835;    0,822;   -1,136
247,885; 6641,541;   -1,451;    1,227
248,483; 6724,164;    1,822;   -0,500
249,081; 6876,666;    0,185;    1,591
249,679; 7031,956;   -0,178;    1,682
250,277; 7304,971;   -1,723;    0,864
250,875; 7301,752;   -1,087;   -1,045
251,473; 7317,943;   -1,178;    0,500
252,071; 7501,800;    1,459;    1,045
252,669; 7679,992;   -1,814;    0,318
253,267; 7942,291;   -0,087;    0,773
253,864; 7931,472;   -0,360;    0,682
254,462; 7742,803;    1,640;    1,591
255,060; 7724,331;   -0,269;    1,318
255,658; 8086,447;    0,822;   -0,136
256,255; 8513,014;    0,186;   -2,045
256,853; 8367,450;   -0,269;    1,409
257,451; 8365,367;    0,822;    1,864
258,048; 8638,349;    1,822;    1,864
258,646; 8377,254;    1,731;   -1,045
259,243; 8584,359;   -0,087;    2,227
259,841; 8629,328;   -0,814;    0,318
260,438; 8515,785;   -0,087;    0,864
261,036; 9269,095;   -1,905;    1,409
261,633; 9132,817;   -0,087;    2,227
262,231; 8855,741;    2,731;   -0,045
262,828; 8937,070;   -0,905;    1,136
263,425; 9005,979;    0,913;   -0,591
264,023; 9309,149;    0,186;    0,045
264,620; 8868,702;   -0,360;   -0,318
265,217; 9244,632;   -2,087;    3,136
265,815; 9318,295;   -1,905;    2,136
266,412; 9085,912;    0,731;    0,136
267,009; 9137,909;   -1,451;    0,773
267,606; 9021,709;    0,822;   -0,955
268,203; 8970,867;   -0,269;   -0,591
268,801; 9290,929;    1,731;    0,591
269,398; 9597,764;   -0,360;    2,500
269,995; 9567,070;    0,277;    1,591
270,592; 9300,360;   -0,632;   -0,500
271,189; 9523,705;    0,186;    0,409
271,786; 9677,286;   -0,632;    1,227
272,383; 9496,011;   -1,087;    0,227
272,980; 9719,429;    0,277;    0,318
273,577;10194,410;    0,004;    1,227
274,174; 9733,819;    0,822;    2,591
274,771; 9720,265;   -0,814;   -0,773
275,367; 9890,497;    2,277;    1,409
275,964; 9837,420;    0,731;   -0,500
276,561; 9952,639;    1,549;   -1,045
277,158;10193,683;    0,095;   -1,773
277,755;10321,666;    2,185;    0,409
278,351; 9649,069;   -0,451;   -1,500
278,948; 9989,813;   -0,815;    0,045
279,545;10005,348;   -1,360;    2,318
280,141;10690,171;   -1,723;   -2,045
280,738;10540,167;   -0,451;   -0,136
281,334;10754,219;   -1,633;    0,591
281,931;10115,665;   -0,087;   -1,318
282,528;10222,679;    0,822;   -0,500
283,124;10977,985;   -1,087;   -0,500
283,721;10876,378;   -0,451;    1,409
284,317;10654,186;    0,185;    2,500
284,913;11245,354;   -1,360;    0,591
285,510;11441,081;    0,640;   -0,318
286,106;11461,914;   -2,269;   -0,955
286,703;11057,771;   -0,360;    1,955
287,299;11269,600;   -1,451;   -0,591
287,895;11438,733;    0,822;   -1,045
288,491;12026,219;    0,186;    2,136
289,088;11753,309;   -2,360;    2,409
289,684;11846,719;   -1,723;    1,500
290,280;11830,888;    0,368;    0,682
290,876;11931,940;    1,822;    5,500
291,472;11808,624;    1,276;    2,227
292,068;11906,466;    1,367;    0,227
292,665;11595,964;    2,095;    0,773
293,261;11172,803;    0,276;    2,136
293,857;11583,608;    2,913;    2,136
294,453;11505,486;    3,550;    0,955
295,049;11404,359;   -0,268;    1,955
295,644;11461,061;    0,095;    0,136
296,240;11356,062;   -0,905;   -0,136
296,836;11380,713;   -0,995;    0,318
297,432;11654,228;    1,096;   -0,500
298,028;11706,655;    0,732;    0,773
298,624;12092,360;    1,459;    1,864
299,220;12357,207;    2,368;    0,591
299,815;12031,038;    1,005;   -0,409
300,411;11826,087;    0,914;    1,773
301,007;11865,099;    1,368;    0,227
301,602;11883,325;   -0,541;   -2,318
302,198;12067,246;    0,732;   -0,773
302,794;12405,710;    1,187;   -0,500
303,389;12503,448;   -1,177;    1,045
303,985;12568,608;    0,550;    1,409
304,580;12586,889;    1,459;    1,591
305,176;12554,146;   -3,086;    0,136
305,771;12462,391;   -1,268;   -1,227
306,367;12300,838;    4,095;    0,136
306,962;12623,780;    0,641;    1,500
307,558;12343,626;   -0,450;    0,136
308,153;12320,331;    1,095;   -1,136
308,748;12526,279;   -0,814;    1,682
309,344;12486,687;   -0,632;   -1,318
309,939;12592,415;   -1,905;   -1,318
310,534;12864,824;   -0,086;   -1,682
311,130;12791,255;    0,459;   -2,500
311,725;12513,828;    1,004;   -0,500
312,320;12817,846;    2,459;    0,045
312,915;12668,827;    1,459;   -1,045
313,510;12770,045;    1,550;   -0,500
314,105;13260,658;    1,096;    1,409
314,700;12617,867;   -3,086;   -1,045
315,295;12264,434;   -0,904;    0,045
315,890;11818,773;    1,277;    0,864
316,485;12227,380;   -0,359;   -0,318
317,080;12324,696;   -3,086;    1,591
317,675;12918,395;    2,005;   -0,682
318,270;12311,082;    5,550;    3,318
318,865;12297,442;    3,278;    3,045
319,460;12118,657;   -0,904;    0,591
320,055;12349,107;   -0,541;   -1,227
320,650;11996,149;   -1,995;   -0,591
321,244;12060,851;   -0,177;   -1,409
321,839;13016,696;   -1,541;   -0,227
322,434;12926,846;   -1,086;   -1,591
323,029;12534,039;    1,732;    1,591
323,623;12363,098;    1,550;    0,773
324,218;12116,924;    2,368;    1,409
324,812;12008,805;    1,096;    1,591
325,407;11814,294;   -0,814;    2,045
326,002;11735,905;    0,277;   -0,409
326,596;12023,493;    0,914;    1,318
327,191;12250,434;    0,823;   -1,045
327,785;11801,675;   -0,813;   -0,227
328,379;12014,738;    1,368;    0,136
328,974;11832,769;    0,914;   -3,955
329,568;12009,294;    0,186;   -2,409
330,163;11796,169;    2,096;    1,045
330,757;12167,541;    2,459;    1,591
331,351;11514,989;    0,459;    0,682
331,945;11802,070;    0,914;    1,409
332,540;11405,356;   -1,723;   -0,591
333,134;11554,971;   -1,086;    0,773
333,728;11829,961;    0,005;    0,318
334,322;12120,308;   -1,177;   -0,864
334,916;11382,341;    0,277;    0,955
335,510;11733,014;   -0,450;   -0,136
336,105;11965,070;   -1,086;    1,591
336,699;11688,548;   -1,086;    0,591
337,293;11617,303;   -1,723;    0,318
337,887;11797,968;   -2,723;    1,955
338,481;11892,566;    0,459;    0,591
339,074;12033,428;   -0,359;    2,682
339,668;11860,834;   -1,632;    1,227
340,262;12137,006;    1,732;    3,227
340,856;11640,071;    1,822;   -0,682
341,450;10984,344;    1,004;    1,864
342,044;11846,030;    1,459;    0,136
342,637;11632,222;    0,913;   -2,136
343,231;11475,520;   -2,360;    0,682
343,825;11432,817;   -1,086;   -0,591
344,419;11390,727;   -1,995;    0,500
345,012;11228,364;    2,459;    4,045
345,606;11226,039;    4,641;    1,591
346,199;11030,208;   -1,813;   -0,227
346,793;10557,523;    1,914;    2,045
347,386;10743,042;   -0,813;   -1,136
347,980;10739,695;   -0,268;   -0,045
348,573;10528,972;    2,278;    0,409
349,167;10206,605;    5,278;    4,773
349,760;10558,916;    2,914;    2,682
350,354;10525,240;   -0,813;    1,136
350,947;10289,799;    1,096;    1,682
351,540; 9941,096;   -0,358;   -1,409
352,134; 9853,039;    1,096;    1,136
352,727; 9929,405;   -0,086;    1,136
353,320; 9715,997;    0,005;    0,591
353,913; 9565,412;   -1,995;    1,864
354,507; 9776,248;    0,823;   -1,227
355,100; 9766,409;    0,460;    0,864
355,693; 9021,281;    2,005;    2,409
356,286; 9063,854;    0,823;    2,773
356,879; 9438,832;   -0,722;    1,227
357,472; 9022,783;   -0,904;    1,500
358,065; 9228,151;   -0,722;    2,500
358,658; 9113,193;   -0,540;    2,318
359,251; 8763,745;   -1,631;   -0,591
359,844; 8240,505;   -1,904;   -1,136
360,437; 8450,475;   -2,995;    0,045
361,030; 8704,259;    1,369;   -0,682
361,623; 8284,197;    2,824;    0,318
362,215; 8347,354;   -0,086;    2,045
362,808; 8192,284;   -2,358;   -1,682
363,401; 8367,047;   -2,449;    0,136
363,994; 8093,530;   -0,631;   -1,500
364,586; 8002,371;    0,824;   -1,500
365,179; 8250,431;   -0,449;   -1,136
365,772; 7734,543;   -1,995;    2,045
366,364; 8026,133;    1,915;   -3,227
366,957; 8187,793;    2,279;   -0,045
367,549; 8238,601;    2,188;   -0,864
368,142; 7910,151;    1,825;   -1,500
368,734; 8099,010;    0,734;   -2,136
369,327; 8040,672;    1,643;   -0,500
369,919; 7953,981;   -1,538;    0,409
370,512; 7746,666;   -1,083;   -0,500
371,104; 7494,247;   -0,901;    1,591
371,696; 7698,744;    1,191;   -0,955
372,289; 7778,859;    0,373;    1,136
372,881; 7940,256;   -2,080;    1,318
373,473; 7884,572;   -2,170;    1,136
374,066; 7678,608;   -0,169;    0,500
374,658; 7501,186;    0,378;    1,136
375,250; 7862,165;    0,653;   -1,409
375,842; 7693,225;    0,473;   -0,045
376,434; 7618,343;   -0,435;   -0,409
377,026; 8180,153;    0,204;   -2,500
377,618; 8078,760;   -0,158;   -0,682
378,210; 7909,648;   -0,338;   -1,955
378,802; 7755,159;    0,754;   -0,591
379,394; 7740,466;    1,846;    0,682
379,986; 8300,461;    1,393;   -0,955
380,578; 8414,332;   -0,153;    0,773
381,170; 7746,426;   -0,972;    0,045
381,762; 7700,234;    0,755;    1,409
382,354; 7913,407;   -0,065;   -1,318
382,945; 8018,713;   -2,976;    0,318
383,537; 8164,056;   -2,705;   -1,955
384,129; 8159,161;   -2,160;   -1,136
384,721; 8355,235;   -0,252;    0,955
385,312; 8293,401;   -0,161;   -0,955
385,904; 8394,175;   -2,706;    1,591
386,496; 7754,330;   -0,979;    1,045
387,087; 7911,120;    1,022;    2,500
387,679; 7948,384;   -1,160;    0,045
388,270; 8085,213;    2,840;    2,045
388,862; 8207,391;    1,295;   -0,318
389,453; 8088,447;   -0,887;    1,045
390,045; 8360,689;   -0,705;   -2,682
390,636; 8281,473;    0,204;   -0,591
391,227; 8151,499;   -0,523;   -0,045
391,819; 8240,194;    0,204;    0,773
392,410; 8341,791;    1,022;    0,045
393,001; 8285,613;   -0,979;   -1,591
393,593; 8561,605;    1,930;   -0,045
394,184; 8427,256;    1,385;   -0,409
394,775; 8350,746;    1,839;    2,136
395,366; 8520,590;    1,385;    0,773
395,957; 8524,466;    0,113;    0,136
396,548; 8873,465;   -0,342;    2,682
397,139; 9182,509;   -2,433;    0,591
397,730; 8883,915;   -1,888;    0,955
398,321; 8929,907;   -1,252;    0,955
398,912; 9001,784;   -0,615;    0,136
399,503; 9021,809;   -3,524;   -1,409
400,094; 8446,259;    0,294;    1,682
400,685; 8312,107;   -0,433;    0,045
401,276; 8388,443;    0,930;   -0,955
401,867; 8690,508;   -0,888;    0,773
402,458; 8796,950;   -2,251;   -2,318
403,048; 8795,805;    1,112;    0,591
403,639; 8410,607;    0,840;    0,864
404,230; 8639,571;    2,476;    0,318
404,821; 8587,264;   -0,615;    0,045
405,411; 8717,721;    1,203;   -2,591
406,002; 8322,116;   -1,252;   -1,136
406,592; 8181,384;    2,294;    0,045
407,183; 8464,620;    0,566;   -1,500
407,774; 8388,544;    3,475;   -0,136
408,364; 8723,027;    0,930;    0,409
408,954; 8321,397;    0,384;    1,227
409,545; 8371,023;    1,021;    1,045
410,135; 7882,302;    1,293;    0,500
410,726; 8054,415;    1,838;    0,318
411,316; 8476,441;    0,111;    0,773
411,906; 8135,730;   -0,253;   -0,409
412,497; 7605,634;   -1,070;   -0,045
413,087; 8222,885;   -1,980;   -0,227
413,677; 8608,810;   -0,707;    3,864
414,267; 8442,037;    0,656;    1,409
414,857; 8456,058;   -2,980;    4,227
415,448; 8775,207;    0,839;    0,500
416,038; 8459,437;    0,020;   -0,591
416,628; 8392,163;   -0,889;    0,409
417,218; 7869,907;    0,565;    3,318
417,808; 8180,564;    0,202;   -0,409
418,398; 8637,690;    0,020;    2,682
418,988; 8638,949;    2,020;    0,591
419,578; 8931,072;   -0,707;    1,409
420,168; 9245,282;   -1,343;   -0,955
420,757; 8845,875;   -1,343;   -1,500
421,347; 8501,388;    0,111;   -0,227
421,937; 8658,500;    2,292;    1,409
422,527; 8652,272;    0,838;   -0,773
423,116; 8452,991;   -0,253;   -0,045
423,706; 8758,277;   -1,889;    0,318
424,296; 8751,906;    1,384;    0,682
424,885; 9184,997;   -0,071;   -3,045
425,475; 9470,685;    1,474;   -2,864
426,065; 9377,346;   -0,980;   -0,318
426,654; 9017,369;   -0,435;   -0,318
427,244; 9146,912;    0,020;    1,409
427,833; 8616,615;    1,383;   -0,500
428,423; 9057,754;   -0,526;    1,136
429,012; 9851,392;   -0,344;   -1,136
429,601; 9328,836;   -1,344;    0,136
430,191; 9584,868;    1,292;    4,318
430,780; 9207,638;   -0,344;   -0,409
431,369; 9151,930;    0,746;   -0,045
431,959; 9749,070;   -1,254;    0,500
432,548; 9547,930;   -1,163;   -0,045
433,137; 9672,426;   -1,254;   -1,318
433,726;10218,576;    0,292;    0,500
434,315; 9520,667;   -0,526;    2,409
434,905; 9622,382;   -1,254;    1,409
435,494; 9542,435;    0,746;    0,955
436,083;10019,108;   -0,981;   -0,955
436,672; 9902,331;    0,110;    0,500
437,261; 9444,103;    0,292;   -1,955
437,850; 9594,764;    1,383;    0,682
438,439; 9600,678;    3,291;    1,955
439,027; 9453,251;    3,655;    1,773
439,616; 9785,534;    2,927;    1,227
440,205; 9636,346;    0,200;   -2,136
440,794; 9762,551;    2,109;   -0,045
441,383;10015,878;   -1,346;   -0,591
441,971; 9849,955;   -2,436;    0,591
442,560; 9720,797;    0,563;   -1,773
443,149; 9471,437;    0,379;   -1,318
443,737; 9598,454;   -0,074;   -2,318
444,326; 9849,989;    0,018;    0,318
444,915; 9943,003;   -1,982;    0,864
445,503;10355,420;   -2,891;   -0,318
446,092; 9563,084;    0,382;    2,136
446,680;10146,863;    0,382;    0,318
447,269;10298,681;   -0,346;   -0,318
447,857;10058,113;    0,018;   -1,773
448,445;10163,169;    0,563;    1,318
449,034;10409,089;   -1,528;   -1,136
449,622;10546,456;   -1,073;    3,500
450,210; 9741,604;    2,017;    2,227
450,799;10318,992;    0,290;   -0,591
451,387;10300,324;    1,381;   -0,591
451,975; 9927,740;    2,654;    0,864
452,563; 9989,465;    3,472;    2,318
453,151;10037,292;   -0,528;   -1,227
453,739; 9971,947;   -1,347;    0,136
454,328; 9825,871;    2,381;   -2,136
454,916; 9526,412;    2,562;   -0,136
455,504; 9712,574;    1,017;    1,227
456,092; 9893,015;    0,017;   -1,591
456,679; 9893,994;    1,472;    0,682
457,267; 9826,427;    4,017;    1,045
457,855; 9970,436;    1,017;    1,409
458,443; 9729,519;   -0,165;    1,682
459,031; 9867,922;    0,108;    2,409
459,619;10343,209;   -1,801;    2,864
460,206;10469,908;    0,835;    2,045
460,794;10513,988;   -2,983;   -0,227
461,382;10802,214;   -0,529;   -0,864
461,970;10357,151;    1,198;    1,864
462,557;10361,539;   -0,711;   -0,682
463,145;10603,924;   -3,165;   -1,682
463,732;10760,398;    2,016;   -1,045
464,320;10689,058;   -0,075;   -3,045
464,907;10345,905;    2,743;   -0,773
465,495;10229,675;    0,743;   -1,227
466,082;10365,261;   -1,984;   -0,045
466,670;10294,456;   -2,529;    1,227
467,257;10670,036;   -1,711;    2,045
467,844;10863,644;   -0,075;    0,045
468,432;10893,781;    0,834;    3,500
469,019;10339,209;    0,925;   -1,773
469,606;10843,123;    0,470;    3,682
470,193;10654,124;   -1,439;    0,227
470,780;10245,629;   -2,075;    0,864
471,368;10605,996;   -1,257;   -0,773
471,955;10376,237;    1,379;   -0,682
472,542;10025,540;    0,652;   -1,136
473,129;10259,136;   -0,166;    0,136
473,716; 9973,171;    1,470;    0,591
474,303;10190,451;    0,652;   -0,864
474,890;10497,735;   -1,439;   -0,500
475,477;10535,930;   -1,621;    0,409
476,064;10438,576;    1,106;   -1,591
476,650;10381,850;    0,288;    0,318
477,237;10210,941;   -0,258;    0,955
477,824;10373,720;   -1,076;    0,864
478,411;10365,524;   -1,894;   -0,318
478,997;10553,513;    0,560;   -0,773
479,584;10620,039;    1,196;   -0,409
480,171;11395,816;   -0,440;   -0,773
480,757;11050,759;    2,651;    0,773
481,344;11353,701;    0,469;    0,409
481,931;10854,585;    1,105;    1,045
482,517;11926,468;   -1,258;    0,318
483,104;12524,281;    1,106;    2,864
483,690;12808,836;   -1,804;    0,045
484,276;13148,580;   -0,895;    0,227
484,863;12868,717;    2,469;    1,136
485,449;13478,551;   -0,077;    0,318
486,035;13471,596;   -1,986;   -0,136
486,622;13872,797;   -0,895;    0,045
487,208;13802,995;    1,378;    1,500
487,794;13682,274;    0,741;    0,318
488,380;13799,029;    0,105;   -1,409
488,967;13829,436;   -1,168;   -0,409
489,553;13889,776;   -1,895;   -1,409
490,139;14108,933;    1,559;    0,773
490,725;13515,860;    0,741;   -0,227
491,311;13030,902;    3,287;    3,045
491,897;12350,731;   -0,986;    1,500
492,483;12152,244;    0,105;    1,227
493,069;11991,804;    3,923;    0,864
493,655;11988,446;    1,650;    0,682
494,241;11867,307;    1,377;   -0,955
494,826;12281,955;    0,287;   -1,045
495,412;11741,986;    2,559;   -0,682
495,998;11874,616;   -0,805;   -0,318
496,584;12007,694;    0,377;    1,045
497,169;12064,882;    1,014;   -0,682
497,755;11983,339;    0,650;    1,227
498,341;12576,152;    0,559;    0,318
498,926;12123,266;    1,832;    1,955
499,512;12332,934;    1,286;    2,955
500,097;12464,635;    0,195;   -0,318
500,683;12389,321;   -0,350;    2,136
501,268;12771,177;   -0,169;   -0,955
501,854;12498,732;   -0,169;    1,227
502,439;12391,102;   -0,624;   -1,773
503,024;12620,183;    0,195;    0,500
503,610;12701,477;   -0,078;   -0,682
504,195;12688,910;    0,558;    1,955
504,780;12825,100;    2,922;    1,227
505,366;12649,625;    3,013;    2,864
505,951;12342,793;    0,740;    1,045
506,536;12375,076;   -3,260;   -3,682
507,121;12363,885;    0,285;   -0,318
507,706;12887,986;    2,376;    1,045
508,291;13280,251;    2,649;    1,136
508,876;12765,199;   -0,988;    2,591
509,461;12216,218;   -0,169;   -0,773
510,046;12629,508;    0,194;    0,318
510,631;12881,722;   -0,351;   -0,773
511,216;12515,285;    2,467;   -0,500
511,801;12921,055;   -0,442;    2,591
512,386;13247,627;    0,740;    0,500
512,971;13151,815;   -2,988;    0,955
513,555;12690,809;   -0,897;   -1,500
514,140;13495,046;   -0,442;   -3,136
514,725;13483,852;   -0,715;   -1,136
515,309;13624,286;   -0,533;    0,318
515,894;13076,160;   -0,624;   -2,227
516,479;13541,922;   -0,624;   -0,955
517,063;13397,618;    0,376;    1,227
517,648;13519,905;    1,012;   -1,136
518,232;13179,287;   -0,261;   -1,409
518,817;13516,445;   -0,079;    1,682
519,401;13737,938;    2,194;    0,591
519,985;13237,819;    1,103;    1,136
520,570;13096,367;    0,830;   -1,955
521,154;13385,657;    2,102;    0,591
521,738;13563,117;   -2,352;    2,409
522,323;14120,818;   -0,170;    1,682
522,907;13862,439;    0,466;   -0,136
523,491;13596,177;    0,557;    0,955
524,075;13578,697;    2,284;    0,591
524,659;13673,307;    1,466;    0,591
525,243;13158,352;    1,739;    0,409
525,827;13374,579;    0,648;   -0,045
526,411;14263,216;   -1,989;   -0,136
526,995;14498,401;   -0,352;    1,409
527,579;14080,256;   -0,443;   -1,045
528,163;14376,706;    0,375;   -1,500
528,747;14294,779;    2,466;   -0,773
529,331;14619,248;   -0,080;   -1,409
529,915;14794,199;    1,738;    0,955
530,499;14753,258;   -0,807;    1,227
531,082;14425,521;   -0,534;    1,591
531,666;13896,463;    1,374;    0,773
532,250;14560,119;    1,284;    2,682
532,833;14921,324;    0,920;    2,773
533,417;14753,362;   -1,807;    0,864
534,001;14756,186;    1,647;   -0,318
534,584;15439,654;    0,374;    0,500
535,168;15312,738;    0,465;    1,409
535,751;15373,589;    0,647;    0,045
536,334;14812,711;   -0,898;   -0,409
536,918;15360,005;    0,011;    1,591
537,501;15467,962;   -0,899;    1,318
538,085;15468,441;   -0,444;    1,045
538,668;15671,962;    0,829;    2,409
539,251;16001,664;    1,829;    3,773
539,834;15983,833;    0,101;    0,773
540,418;15941,870;   -1,990;    4,318
541,001;16062,356;   -0,990;    1,773
541,584;16060,487;    2,101;    2,227
542,167;15733,915;    1,374;    2,955
542,750;15905,432;    1,919;   -0,773
543,333;15483,332;    0,555;    2,136
543,916;16263,833;    0,192;    2,500
544,499;16844,473;   -1,354;    0,227
545,082;16869,270;    1,374;    3,591
545,665;17064,365;    1,919;    1,500
546,248;17376,060;    1,010;   -0,318
546,830;17042,829;   -0,445;    1,955
547,413;17429,059;    1,010;   -0,773
547,996;17950,800;    0,555;    0,500
548,579;17734,645;    0,919;    0,955
549,161;17558,260;    1,828;    2,682
549,744;17302,378;   -0,809;    0,409
550,326;17800,294;   -0,809;   -1,136
550,909;17595,947;    2,737;    0,591
551,492;18005,364;   -0,263;    0,227
552,074;17823,916;   -0,173;   -1,318
552,657;18348,524;    2,373;    0,045
553,239;18078,450;   -0,173;   -0,773
553,821;17976,472;   -1,082;    1,045
554,404;17513,489;    1,282;    1,136
554,986;17915,530;    0,464;    1,045
555,568;18490,184;    1,191;   -0,955
556,151;17731,069;    1,191;   -0,227
556,733;17932,150;   -0,264;   -0,864
557,315;18399,805;    0,100;    0,500
557,897;18193,396;    0,554;   -0,500
558,479;18305,617;   -1,991;    1,318
559,061;18460,447;   -0,719;   -0,864
559,643;18798,004;   -0,264;    0,045
560,225;19185,345;    1,645;    2,864
560,807;19178,186;    0,918;    0,318
561,389;18650,357;    0,554;    2,318
561,971;19422,579;    0,463;    2,136
562,553;19222,937;   -1,628;    1,591
563,135;19394,322;   -0,537;    1,136
563,717;18960,014;    3,372;    1,136
564,298;19673,353;    3,645;   -0,045
564,880;19441,197;    0,645;   -1,409
565,462;19601,378;    0,645;    1,318
566,043;20747,842;   -0,446;    2,318
566,625;20341,384;    1,918;    1,227
567,207;20178,718;    1,099;    1,682
567,788;21302,190;   -1,264;    1,500
568,370;22130,245;    1,917;   -0,500
568,951;21978,001;    0,190;    0,227
569,533;22839,293;   -0,628;   -0,500
570,114;23313,450;   -0,446;    0,682
570,695;23814,311;   -0,174;   -1,318
571,277;24335,534;   -0,265;   -1,682
571,858;25090,895;    2,008;   -1,136
572,439;25978,364;    1,554;   -1,045
573,021;26123,397;    2,099;   -2,773
573,602;26639,988;   -1,265;    0,318
574,183;27596,002;   -2,083;    2,227
574,764;27714,323;   -1,629;    0,409
575,345;28290,089;    0,917;   -0,136
575,926;28875,457;   -0,356;    0,136
576,507;28823,621;    1,099;   -0,227
577,088;29970,317;    3,099;    1,682
577,669;29974,351;    0,735;    1,955
578,250;30787,638;    0,644;   -1,045
578,831;31443,542;   -1,356;   -2,227
579,412;31696,508;   -0,810;    0,955
579,993;32556,578;    1,008;    0,227
580,573;32838,522;   -0,629;   -0,955
581,154;31818,931;    0,735;   -0,591
581,735;32744,043;    0,644;    0,773
582,315;32252,498;   -0,629;    2,136
582,896;32501,869;   -0,174;    1,227
583,477;31855,497;    0,189;    1,227
584,057;32095,001;    0,553;    0,955
584,638;32424,487;    2,553;    2,318
585,218;32414,176;   -0,538;    2,682
585,799;32524,453;    0,281;   -0,227
586,379;32492,953;    0,372;    1,591
586,959;31232,974;    0,735;    0,318
587,540;30521,074;   -0,629;    2,227
588,120;30087,202;    1,007;   -0,045
588,700;29124,881;    2,553;    2,136
589,281;29466,096;    0,462;   -0,955
589,861;29406,511;    0,099;   -1,682
590,441;29217,648;    2,371;   -2,682
591,021;28141,938;   -0,265;   -2,591
591,601;28340,597;   -0,537;    0,500
592,181;28417,342;   -0,719;   -0,773
592,761;27673,451;    0,007;    1,409
593,341;27597,211;   -0,901;    0,045
593,921;27638,740;   -0,265;    1,591
594,501;27558,551;   -0,538;    1,318
595,081;27309,310;    0,917;   -0,318
595,661;27679,226;   -1,447;    0,955
596,240;28205,992;   -0,537;    0,136
596,820;27917,503;    0,372;    1,955
597,400;28097,974;    2,008;    0,773
597,980;28265,905;    2,008;    1,045
598,559;28253,782;    2,735;   -0,227
599,139;27919,621;   -0,174;   -1,227
599,718;27834,530;   -0,174;   -0,409
600,298;28128,450;    0,735;    0,682
600,877;28384,461;    2,917;    1,409
601,457;28701,699;    2,281;    1,136
602,036;28546,866;    0,190;    2,045
602,616;28805,538;    0,644;    1,682
603,195;29188,696;   -0,355;    3,500
603,774;28722,594;   -0,901;    2,045
604,354;28510,388;    0,826;   -0,500
604,933;28060,041;    0,463;    1,864
605,512;28186,731;    3,554;    0,591
606,091;28232,277;   -0,537;    3,773
606,671;29035,126;    0,281;    0,773
607,250;28136,497;    1,644;    3,136
607,829;28374,235;    2,372;    3,227
608,408;28210,875;    1,190;    2,591
608,987;27205,495;    1,281;    3,409
609,566;27539,320;   -1,265;   -2,500
610,145;27657,205;   -1,082;    0,682
610,723;28018,068;    4,372;    6,864
611,302;27302,828;   -0,446;    1,682
611,881;26833,764;    5,008;   11,227
612,460;27688,380;    1,645;    3,955
613,039;28089,433;   -0,082;    2,045
613,617;26791,644;    1,736;    4,773
614,196;27018,138;    1,099;    1,227
614,775;27360,213;    1,009;    2,409
615,353;27244,962;    0,736;    0,864
615,932;27013,395;    0,100;    2,409
616,510;27623,937;    0,554;    0,591
617,089;27128,465;    7,100;   17,591
617,667;26841,671;    2,372;    6,136
618,246;26668,934;   -1,537;    1,318
618,824;26870,644;   -3,355;   -0,955
619,402;26466,556;   -2,900;   -1,773
619,981;26961,330;   -0,173;   -1,045
620,559;26765,449;    0,009;    1,682
621,137;26274,802;   -0,718;    1,864
621,715;26341,120;   -1,173;   -0,682
622,293;26243,494;   -0,537;   -0,773
622,871;26691,805;   -0,718;    0,500
623,450;26250,271;    0,373;   -0,864
624,028;26141,204;    0,191;   -0,955
624,606;25806,107;   -1,718;    1,682
625,183;26217,209;   -1,536;   -1,136
625,761;25790,660;    1,009;    1,136
626,339;26145,456;    1,373;    2,591
626,917;26488,588;   -0,172;   -0,045
627,495;26536,448;   -0,354;    1,318
628,073;25996,155;   -0,263;    2,864
628,650;25668,206;    0,100;    2,136
629,228;26097,471;    0,373;    4,409
629,806;25494,122;    2,282;    1,136
630,383;25729,850;    1,464;   -0,318
630,961;25535,426;    2,555;   -0,955
631,539;25328,084;    2,464;    0,227
632,116;24672,699;   11,373;   15,409
632,694;25232,675;    2,555;    6,500
633,271;25586,505;    0,828;    2,682
633,848;25510,099;    1,828;    2,045
634,426;25486,076;   -1,081;    1,773
635,003;24649,829;    1,101;   -0,409
635,580;24928,906;    1,192;    3,682
636,158;25482,153;    3,737;    1,227
636,735;25490,264;    0,555;   -0,500
637,312;25613,448;   -0,809;   -0,682
637,889;25716,300;   -4,354;   -0,682
638,466;25232,431;   -3,990;   -0,409
639,043;25171,090;    2,101;   -1,136
639,620;25495,237;   -2,262;   -0,955
640,197;25809,632;    1,100;    1,682
640,774;25914,413;   -0,172;    1,136
641,351;26320,922;    0,737;    1,136
641,928;25739,248;   -0,627;    1,409
642,505;25430,666;    0,828;   -0,500
643,082;25531,356;   -1,718;    1,227
643,658;24572,955;   -0,718;    1,500
644,235;25300,555;    1,191;    2,500
644,812;25648,336;    1,918;    0,773
645,388;25366,026;   -0,991;    1,409
645,965;25444,171;   -0,809;    1,682
646,542;25518,134;   -1,445;   -0,227
647,118;25473,187;    1,009;   -0,955
647,695;25769,787;   -0,263;    1,136
648,271;25672,659;   -0,536;    0,500
648,848;26022,622;    0,736;    2,227
649,424;25898,312;    0,827;    1,318
650,000;25662,638;   -0,354;   -1,045
650,577;25415,601;   -0,627;   -0,955
651,153;25892,837;   -1,809;    0,955
651,729;26910,164;    1,191;    0,864
652,305;27449,308;    0,645;    2,773
652,881;32587,180;   -0,082;    1,136
653,458;39432,325;    1,100;    0,227
654,034;42766,652;    0,282;    1,591
654,610;44003,978;    0,554;    0,773
655,186;45220,850;    0,645;    3,045
655,762;44859,359;   -0,991;    0,409
656,338;44820,776;    0,100;    0,136
656,913;45803,284;   -0,082;    0,409
657,489;44927,884;    0,827;   -0,318
658,065;44948,756;   -0,173;   -1,591
658,641;45589,628;   -0,900;   -0,864
659,217;44861,773;   -0,991;    0,409
659,792;44227,281;    0,645;   -0,409
660,368;44410,244;   -2,173;   -0,682
660,944;43838,025;   -2,082;    1,227
661,519;38669,715;   -0,628;    0,409
662,095;32826,860;   -1,719;    0,591
662,670;28666,459;    1,281;   -0,136
663,246;27736,604;    1,009;   -0,409
663,821;27124,021;    0,281;    1,682
664,396;26642,803;    0,009;    1,864
664,972;26886,947;    0,009;   -0,500
665,547;27174,910;    1,372;    0,136
666,122;27272,600;   -1,082;    0,318
666,698;27528,382;   -0,173;    0,318
667,273;26925,799;   -0,173;    0,136
667,848;27756,216;    2,372;    1,500
668,423;27548,361;    2,190;    2,318
668,998;28120,142;    2,827;   -0,682
669,573;28696,469;   -3,264;   -1,500
670,148;28512,614;   -1,446;   -0,682
670,723;28273,486;   -1,810;    0,318
671,298;28668,994;    2,372;    1,045
671,873;28823,775;   -0,082;   -0,136
672,448;28783,011;    0,645;    0,136
673,023;29088,701;   -1,992;   -0,227
673,597;29409,209;    0,827;    2,318
674,172;29193,991;   -0,355;    0,318
674,747;28629,590;    0,372;   -1,045
675,321;28408,644;   -0,628;    3,318
675,896;28014,970;    0,645;    1,045
676,471;29057,479;    2,645;    1,591
677,045;28836,442;   -1,264;    0,682
677,620;28907,223;    0,190;    1,136
678,194;29165,458;   -2,628;    1,136
678,769;28770,149;   -1,083;   -0,318
679,343;29050,384;   -0,628;    1,773
679,917;28874,438;   -1,446;    1,955
680,492;28958,219;    0,826;    3,227
681,066;29097,182;    3,372;    0,409
681,640;29133,600;    1,463;   -0,318
682,214;29966,290;    0,735;    0,500
682,788;29513,344;   -1,356;   -0,773
683,363;29476,125;   -1,810;    1,682
683,937;29156,906;   -1,719;   -0,318
684,511;29880,323;    0,463;   -0,591
685,085;29578,468;   -1,356;    0,318
685,659;29296,976;   -2,538;    0,864
686,232;29585,757;   -0,356;   -0,318
686,806;29314,902;   -0,901;    0,409
687,380;29991,502;   -0,174;    0,591
687,954;30207,464;   -1,174;    1,136
688,528;29834,973;   -0,719;    1,955
689,101;30591,027;   -3,992;    1,045
689,675;30213,990;   -0,356;   -0,136
690,249;29605,316;   -0,719;    0,409
690,822;29918,734;    0,280;    0,318
691,396;30053,151;   -0,265;    1,227
691,969;29500,205;    1,280;    0,136
692,543;29914,441;   -0,447;   -1,955
693,116;29618,949;   -0,265;   -1,409
693,690;29441,366;    0,099;    0,500
694,263;30038,602;   -1,083;    2,955
694,836;30116,292;    1,371;    3,591
695,410;28753,346;   -0,265;    1,773
695,983;29183,036;    0,189;    0,591
696,556;29145,363;   -0,447;   -1,045
697,129;29461,508;   -0,356;    1,409
697,703;29147,834;   -1,629;    1,955
698,276;29166,434;    1,462;   -0,773
698,849;28956,669;    1,280;    1,409
699,422;29336,996;   -1,083;    0,591
699,995;29030,595;    0,007;    0,136
700,568;29552,376;   -0,629;    3,045
701,140;29583,248;   -2,811;    1,682
701,713;29256,302;   -0,174;    2,409
702,286;29006,901;   -0,538;    0,864
702,859;28903,410;   -0,902;   -0,591
703,432;28012,100;    0,825;    0,682
704,004;28538,608;    0,462;    0,318
704,577;28431,935;   -0,629;    0,136
705,150;29029,080;    0,189;    2,500
705,722;28750,497;   -0,356;   -3,227
706,295;28568,278;   -0,175;   -0,591
706,867;28458,877;   -0,175;    1,955
707,440;28652,750;   -1,720;   -0,409
708,012;28964,440;    0,462;    0,591
708,584;28917,766;    2,462;    0,227
709,157;29119,093;    1,825;   -0,591
709,729;28757,147;    2,280;    2,045
710,301;29566,110;    0,734;    0,045
710,874;29600,527;   -1,447;   -0,227
711,446;28478,490;    0,371;    0,864
712,018;28373,089;    0,098;    0,500
712,590;28072,325;   -1,993;    1,682
713,162;28634,924;    0,825;    1,318
713,734;28892,705;    1,825;   -2,045
714,306;28753,214;   -1,902;   -0,409
714,878;27467,086;    0,825;    0,864
715,450;28282,412;    0,643;    0,864
716,022;28514,466;    1,552;    1,318
716,593;28676,611;    0,189;    0,591
717,165;28630,665;   -3,175;   -1,227
717,737;28331,173;    0,280;    0,409
718,309;27952,500;    0,280;   -0,045
718,880;27944,917;   -0,539;   -1,409
719,452;28129,244;   -0,175;   -1,591
720,024;27747,843;    0,734;   -0,591
720,595;28316,715;   -2,902;    0,955
721,167;27880,314;    0,370;   -2,045
721,738;27420,095;   -0,812;   -1,045
722,309;27401,422;   -0,993;   -1,227
722,881;27168,385;   -1,357;    0,773
723,452;27793,984;   -2,630;    2,864
724,023;27969,856;   -0,721;    2,682
724,595;27733,819;    0,007;    0,682
725,166;27455,146;    0,007;   -0,409
725,737;27178,291;    1,734;    0,227
726,308;27207,617;   -0,266;    0,318
726,879;27641,671;   -1,630;    1,227
727,450;27559,270;    0,552;   -0,045
728,021;27525,870;    3,097;    0,682
728,592;27298,378;    0,734;    0,500
729,163;27565,614;    0,643;   -0,136
729,734;27653,395;    0,188;   -0,227
730,305;28024,721;    1,734;    0,136
730,876;28358,593;    0,188;    2,955
731,447;28052,102;    2,188;    2,682
732,017;28208,155;    1,097;    1,864
732,588;27663,391;    0,734;    1,227
733,159;27851,263;    0,643;   -1,045
733,729;27616,044;    0,006;    0,409
734,300;26918,007;    0,915;    0,864
734,870;27327,152;    3,461;    0,591
735,441;27926,024;    0,370;   -0,591
736,011;27679,714;    0,643;   -1,591
736,582;27640,950;   -0,812;    0,045
737,152;27054,822;   -1,721;   -2,045
737,722;27511,330;   -0,267;   -0,682
738,293;27199,293;   -1,358;    1,318
738,863;27041,256;    2,461;    2,318
739,433;26941,764;    5,279;    0,318
740,003;27558,364;   -0,994;   -0,682
740,573;26977,690;    2,097;   -1,591
741,143;26930,290;   -1,085;    0,318
741,713;27657,707;    1,188;   -0,500
742,283;27405,306;    0,915;    1,591
742,853;27147,542;    1,915;    1,591
743,423;26521,778;    1,733;    0,045
743,993;26740,832;   -0,358;    1,500
744,563;26125,431;    0,097;   -0,864
745,133;26057,212;   -0,812;   -0,864
745,702;26759,720;   -0,267;    1,773
746,272;25962,774;   -0,176;    0,591
746,842;25760,192;   -1,358;   -0,591
747,411;26152,155;   -0,267;   -0,318
747,981;26346,754;    0,097;    0,500
748,551;26399,080;    2,278;   -1,045
749,120;26246,862;    0,642;   -0,227
749,690;26607,643;   -0,631;    2,409
750,259;26911,969;    1,369;    2,955
750,828;26880,205;    1,551;   -1,955
751,398;27138,713;    1,278;   -0,045
751,967;26694,222;    2,187;    0,409
752,536;26923,639;   -0,813;   -0,227
753,105;27268,784;    0,096;    0,227
753,675;27045,656;    0,096;    1,773
754,244;27011,710;   -0,904;    3,591
754,813;27005,945;    0,551;    1,227
755,382;26558,363;    0,460;    0,955
755,951;27215,508;    1,551;    3,682
756,520;26701,198;   -0,085;    1,864
757,089;27283,524;    0,278;    0,500
757,658;27423,578;    1,733;    1,227
758,227;27420,996;    1,096;    0,318
758,795;27771,686;    1,187;    1,136
759,364;28004,103;   -0,086;   -0,591
759,933;27010,248;   -1,176;   -0,045
760,501;26494,847;    0,733;   -1,318
761,070;26957,174;   -2,813;   -1,409
761,639;27673,501;   -1,904;    1,318
762,207;27035,009;    1,551;   -0,955
762,776;26952,063;    0,369;    0,864
763,344;26940,207;   -0,995;    0,591
763,913;25952,716;   -0,722;    1,409
764,481;26725,042;    1,005;   -0,136
765,049;26486,187;   -1,358;    1,409
765,618;26325,514;   -0,086;    0,318
766,186;26413,113;    0,278;    0,136
766,754;26650,440;    0,005;    1,864
767,322;25625,766;   -1,995;    0,409
767,890;25634,911;   -0,722;   -1,773
768,459;26068,510;   -2,177;   -0,318
769,027;26275,200;    1,641;    3,409
769,595;25225,254;    3,278;    2,591
770,163;25667,035;    3,823;    2,955
770,730;25394,089;    0,732;   -0,136
771,298;25191,870;    0,187;   -1,409
771,866;25290,561;   -1,541;    4,955
772,434;25652,978;   -0,631;   -1,864
773,002;25822,577;    0,005;    0,682
773,569;25436,722;    0,914;    1,682
774,137;25303,867;   -0,268;   -0,045
774,705;26069,012;    0,278;   -0,136
775,272;25577,702;    0,641;    0,682
775,840;25285,119;   -0,177;    2,682
776,407;24871,991;    0,277;    1,955
776,975;24423,591;   -0,632;    0,318
777,542;25437,008;   -1,086;   -0,045
778,110;25280,153;   -1,268;   -0,045
778,677;24982,934;   -2,359;   -0,864
779,244;24770,715;    2,186;    1,045
779,812;24942,042;    1,823;    0,864
780,379;24739,823;    0,005;    1,136
780,946;24964,967;    1,005;   -0,773
781,513;25296,839;   -1,450;    0,318
782,080;24693,802;   -0,086;    2,864
782,647;25415,765;   -0,268;    3,045
783,214;25002,546;   -0,177;    3,864
783,781;24659,146;   -0,723;   -0,682
784,348;24486,290;   -0,632;    1,500
784,915;24966,799;   -3,177;    0,318
785,482;24715,034;    1,368;    2,591
786,049;25100,725;    0,186;   -0,591
786,615;25245,688;    0,277;   -0,955
787,182;25024,560;    0,186;   -0,682
787,749;24714,250;   -2,814;    1,409
788,315;24067,576;   -1,632;   -0,409
788,882;24293,721;    1,550;   -1,227
789,448;25001,684;    1,732;   -0,955
790,015;25032,011;    1,095;    3,227
790,581;24612,064;    1,459;    0,227
791,148;24455,573;    0,641;    1,045
791,714;24600,172;   -0,541;    3,136
792,280;24305,226;    0,186;    1,591
792,847;23872,462;    0,550;    2,500
793,413;24467,243;   -0,269;   -0,318
793,979;24033,660;    3,459;   -1,318
794,545;24096,169;    4,459;    2,682
795,111;23532,313;    2,186;    1,318
795,678;23715,822;    0,731;   -1,682
796,244;23357,057;    3,368;    0,136
796,810;23914,293;    1,731;    0,773
797,375;23589,438;    0,549;   -2,136
797,941;23649,764;   -0,541;    0,591
798,507;23808,273;   -0,451;   -0,955
799,073;23344,054;   -0,360;    0,591
799,639;23357,380;   -2,632;    3,136
800,205;23391,252;    0,095;    2,682
800,770;22925,034;    0,640;    1,773
801,336;23043,815;    1,368;   -0,955
801,901;22783,868;    4,549;    3,136
802,467;23313,559;   -0,542;    2,045
803,033;22619,067;   -0,087;    0,864
803,598;22884,485;    1,913;   -1,045
804,163;22905,084;    1,095;   -0,318
804,729;22827,410;   -0,178;    1,136
805,294;23221,464;    0,822;    2,227
805,859;23038,882;    0,731;   -0,409
806,425;22533,936;    1,186;    2,682
806,990;22199,080;    2,186;    4,318
807,555;22655,407;   -1,451;    2,591
808,120;22561,006;    0,822;   -0,409
808,685;22585,696;    0,185;   -2,500
809,250;22094,205;    0,004;   -0,500
809,815;22409,077;    1,913;    0,682
810,380;22942,403;   -0,269;    1,591
810,945;23539,094;   -1,087;    2,045
811,510;22624,693;    2,094;    1,591
812,075;22328,656;   -0,633;   -1,409
812,640;22391,073;    2,003;    1,409
813,204;22435,582;    0,822;   -0,227
813,769;22955,181;    2,094;   -0,045
814,334;22373,144;    0,458;    0,864
814,898;22414,016;    0,367;    0,591
815,463;22247,433;    1,276;   -0,773
816,027;22241,033;   -0,724;   -2,318
816,592;22329,905;    0,640;   -2,045
817,156;21878,049;    2,094;    1,136
817,721;21781,649;    4,276;    2,318
818,285;21690,884;    2,912;    1,500
818,849;22324,211;   -1,451;    1,682
819,414;22215,537;   -0,269;    2,955
819,978;21758,864;   -1,269;    1,773
820,542;22362,100;    2,003;    0,500
821,106;22069,699;   -0,815;    0,682
821,670;22184,935;   -0,815;    2,591
822,234;21887,443;   -0,270;    1,409
822,798;21310,679;    0,003;    0,500
823,362;21271,823;   -0,633;    4,227
823,926;20613,241;    0,094;    1,136
824,490;20832,386;   -0,997;   -0,682
825,054;21231,440;   -0,088;   -1,136
825,618;20830,948;   -1,542;   -1,500
826,181;20790,820;    0,458;   -1,318
826,745;20704,692;    1,367;   -1,045
827,309;21078,473;    1,185;    1,318
827,872;20467,345;    1,367;    0,955
828,436;21442,217;    1,185;   -0,773
828,999;21475,362;   -0,997;    1,227
829,563;20265,234;   -0,179;    1,136
830,126;20115,833;   -0,179;   -0,591
830,690;20165,705;   -1,997;    2,864
831,253;19672,486;   -0,543;    2,227
831,816;19782,358;   -1,906;    0,500
832,380;19707,503;    0,185;    0,864
832,943;19958,284;   -1,361;   -0,500
833,506;19395,793;    2,639;   -1,227
834,069;20201,846;    3,912;   -0,955
834,632;20244,627;    1,730;    1,318
835,195;20175,409;    1,003;    0,955
835,758;19323,644;   -0,997;    1,955
836,321;19177,971;    0,730;   -1,045
836,884;19283,661;   -0,725;   -0,955
837,447;19342,078;   -2,816;    1,773
838,010;19617,587;    0,366;    3,227
838,573;19877,913;   -1,179;    0,773
839,135;19852,240;   -1,361;   -0,955
839,698;19335,203;    1,275;    0,409
840,261;18835,075;    1,003;   -0,227
840,823;18681,583;   -0,543;    0,864
841,386;18972,092;   -0,452;   -2,409
841,948;18856,055;   -1,361;    1,773
842,511;18575,563;    0,912;    1,682
843,073;18758,617;    1,912;    0,227
843,636;18509,216;   -0,361;   -0,227
844,198;18514,906;    0,911;    0,591
844,760;18631,960;    1,093;    1,955
845,322;18228,014;    0,548;    1,136
845,885;18655,159;    0,730;    0,591
846,447;19116,849;   -1,998;    0,227
847,009;18737,539;    1,911;   -0,682
847,571;19006,048;    0,820;   -2,045
848,133;19105,738;   -1,089;   -1,864
848,695;18913,064;   -0,543;    1,409
849,257;18501,391;   -1,089;   -1,682
849,819;18669,627;   -0,998;   -0,409
850,381;18755,953;   -0,725;   -0,864
850,942;19085,643;    1,093;   -0,591
851,504;19081,334;    1,184;    0,227
852,066;19123,115;    1,275;   -1,591
852,628;18616,805;   -0,180;    1,955
853,189;18147,222;    1,638;    2,682
853,751;18240,731;   -0,907;    1,409
854,312;18055,057;   -0,453;   -1,682
854,874;18544,566;   -2,089;   -0,773
855,435;19088,438;   -0,907;   -1,682
855,997;19281,128;   -1,816;   -0,136
856,558;18562,364;    0,366;    1,773
857,119;18651,599;    0,820;    2,864
857,681;18346,198;    0,002;    0,318
858,242;18372,525;    1,911;   -2,136
858,803;18797,033;    0,456;   -0,773
859,364;19369,178;    0,184;   -4,773
859,925;18667,959;   -2,453;   -0,955
860,486;18594,922;   -0,453;   -0,955
861,047;18319,885;   -0,544;   -1,227
861,608;18088,030;   -1,089;   -0,773
862,169;18210,720;    0,638;   -0,045
862,730;17998,138;    0,456;    1,409
863,291;18234,010;   -0,635;   -0,500
863,852;18626,154;   -0,635;    1,955
864,412;18084,390;   -0,271;   -0,864
864,973;16697,535;   -0,089;    0,500
865,534;16578,770;   -1,726;    0,227
866,094;18055,733;    1,820;    0,227
866,655;17722,242;    1,274;    3,318
867,215;17982,477;    0,274;    0,136
867,776;17863,349;    0,547;   -0,136
868,336;17947,676;   -1,453;    0,136
868,897;17447,457;    2,638;    1,682
869,457;17137,056;    1,365;    0,318
870,017;17393,383;    0,547;   -1,227
870,578;17941,346;   -0,817;    0,773
871,138;17625,945;   -2,089;   -0,955
871,698;17185,544;   -0,817;   -1,318
872,258;17037,507;   -0,453;   -2,864
872,818;17392,016;    2,729;    0,045
873,378;17371,797;    0,638;    1,045
873,938;16878,760;    0,547;    0,500
874,498;17200,814;    0,274;   -1,955
875,058;17130,049;    2,183;    1,773
875,618;16999,376;    1,910;   -2,682
876,177;16896,521;    1,274;    0,136
876,737;16493,211;   -0,090;    1,955
877,297;16545,083;    0,183;    1,955
877,856;16593,046;   -0,362;    0,318
878,416;16501,463;    1,183;   -0,136
878,976;16650,335;   -1,817;    0,409
879,535;16863,116;    0,092;    3,136
880,095;16631,352;   -0,544;    0,045
880,654;16746,860;   -1,090;    1,318
881,213;16868,914;    2,456;    1,500
881,773;16486,514;    2,637;    2,682
882,332;16854,204;    3,365;    5,136
882,891;16681,439;    3,092;    2,136
883,451;17119,130;   -1,272;    1,682
884,010;16557,365;   -2,908;   -0,409
884,569;16662,328;   -0,999;   -0,045
885,128;16810,291;    2,819;   -1,864
885,687;16930,890;    4,455;    0,682
886,246;16650,944;    1,455;    2,136
886,805;16389,271;    2,455;    2,045
887,364;16658,143;   -0,999;   -0,500
887,922;17004,469;   -1,181;    0,045
888,481;16529,614;   -1,545;    0,591
889,040;16812,486;    1,183;    2,136
889,599;17511,085;    2,455;    1,409
890,157;17578,139;    1,455;    2,409
890,716;17246,011;   -0,090;    0,227
891,274;17030,702;    0,092;   -1,136
891,833;17540,119;    1,546;    0,864
892,391;17401,991;   -0,454;    0,500
892,950;17464,863;    1,819;   -0,773
893,508;17810,008;    0,455;   -0,409
894,067;17130,334;    0,637;    0,136
894,625;17051,025;   -0,636;   -1,500
895,183;17257,624;   -0,363;   -0,682
895,741;17126,405;    1,728;   -1,773
896,299;16962,550;   -0,545;   -2,409
896,858;17148,149;    0,819;   -1,591
897,416;17312,839;    2,728;   -1,318
897,974;17054,620;    1,819;    0,318
898,532;17240,401;    6,091;    2,682
899,089;17127,910;    2,091;   -0,682
899,647;17192,055;   -1,454;    1,318
900,205;16896,927;    1,182;    1,045
900,763;17080,162;   -0,454;    0,227
901,321;17041,762;    2,364;   -1,409
901,878;16475,815;   -1,000;   -0,773
902,436;16346,960;   -1,363;    1,318
902,994;16786,287;    4,728;    3,682
903,551;16248,886;    0,728;    0,409
904,109;16619,758;    0,182;   -1,409
904,666;16178,630;    2,455;    1,045
905,224;16019,957;    0,182;   -0,409
905,781;15756,465;    0,727;   -0,318
906,338;15803,973;   -1,363;    1,045
906,895;15726,027;    0,637;    2,045
907,453;15658,445;    1,727;    1,136
908,010;15687,226;   -0,909;    0,409
908,567;15399,098;    1,273;    0,591
909,124;14831,606;    0,364;   -1,500
909,681;14932,478;   -2,909;    0,682
910,238;15084,623;    0,636;   -1,318
910,795;15402,040;   -0,273;   -1,136
911,352;15019,313;   -2,909;   -2,682
911,909;14427,313;   -1,364;   -0,864
912,466;14959,495;   -3,182;    1,500
913,022;14527,586;   -1,636;    0,500
913,579;14882,040;   -0,909;    2,045
914,136;14560,768;    1,636;    0,955
914,692;14884,222;    0,091;   -1,227
915,249;14500,040;    1,455;    0,409
915,806;14707,768;    0,182;    1,955
916,362;14468,404;    1,909;    1,864
916,918;14021,404;    2,000;    1,045
917,475;13997,131;   -1,182;    0,955
918,031;14080,404;    3,364;   -0,045
918,587;13518,768;   -0,909;   -0,318
919,144;13754,495;   -2,273;    0,227
919,700;14060,131;    1,727;    0,773
920,256;13622,768;    0,727;    0,045
920,812;13224,131;   -0,727;   -1,045
921,368;13260,586;   -1,727;   -1,045
921,924;12914,859;    0,182;   -0,136
922,480;12496,586;   -0,545;    1,227
923,036;13102,313;    1,273;    1,955
923,592;13023,677;    0,455;    0,318
924,148;12982,040;    0,455;   -0,955
924,704;12240,949;   -1,364;   -0,409
925,259;12489,586;   -0,273;    0,591
925,815;12262,313;    1,455;    0,500
926,371;11754,131;    2,909;    1,409
926,926;11685,222;    2,091;    0,591
927,482;11319,495;   -1,364;    0,773
928,037;11208,859;    0,909;    2,045
928,593;11512,768;    1,636;    1,045
929,148;11320,586;   -1,818;   -1,500
929,704;10829,040;   -1,455;   -0,500
930,259;11043,404;    0,091;   -0,136
930,814;10108,586;   -0,818;    1,955
931,369; 9789,131;    1,091;   -0,773
931,925; 9651,313;   -0,091;    0,136
932,480; 9564,677;   -2,818;   -2,591
933,035; 9471,040;    0,545;   -0,318
933,590; 9245,768;    0,364;   -1,773
934,145; 8881,859;   -1,364;   -0,318
934,700; 9211,495;    0,455;   -0,591
935,255; 9014,768;   -0,091;    0,045
935,809; 8317,313;    3,182;    0,864
936,364; 7419,768;   -0,455;   -0,136
936,919; 7386,949;    0,455;   -1,773
937,474; 7283,495;    1,455;    0,136
938,028; 7026,404;   -1,636;    1,136
938,583; 6523,949;    1,818;    4,682
939,138; 6796,768;    2,091;    2,136
939,692; 6247,949;    1,636;   -1,136
940,247; 5951,222;   -0,727;   -1,045
940,801; 5506,131;   -0,636;    0,227
941,355; 5408,131;   -0,364;    2,591
941,910; 5040,040;   -0,273;   -2,136
942,464; 5150,131;   -0,818;   -0,318
943,018; 4947,859;    1,000;   -0,227
943,572; 4908,768;    2,545;   -0,682
944,126; 4323,768;    0,091;   -0,409
944,681; 4224,222;    3,091;    0,227
945,235; 4205,222;    1,000;   -0,591
945,789; 4123,131;    0,364;   -1,864
946,342; 4258,586;    0,455;   -0,591
946,896; 4054,040;   -2,273;    0,955
947,450; 3826,495;    1,545;   -0,227
948,004; 4023,313;    1,727;   -0,045
948,558; 4019,131;    0,273;   -0,864
949,111; 3939,768;   -0,273;   -0,318
949,665; 3978,949;    1,636;   -0,682
950,219; 3860,222;   -0,091;   -1,045
950,772; 3943,768;   -1,909;    1,864
951,326; 3835,040;    0,545;   -0,955
951,879; 3942,586;    0,727;   -2,318
952,433; 3959,404;    0,000;    2,227
952,986; 3787,040;    2,909;    0,682
953,539; 3752,586;   -0,273;    0,591
954,093; 3660,586;    0,545;   -1,318
954,646; 3821,495;    0,909;    1,318
955,199; 3629,859;    0,000;   -0,500
955,752; 3532,586;   -0,455;    1,773
956,305; 3484,949;   -0,091;    2,955
956,858; 3656,677;    0,818;   -0,318
957,411; 3813,313;   -0,545;    2,136
957,964; 3640,404;    1,364;    2,136
958,517; 3618,222;   -1,545;    3,136
959,070; 3455,495;   -0,455;    1,955
959,623; 3547,495;    1,091;    1,500
960,176; 3315,040;    1,727;    2,045
960,728; 3289,949;   -2,727;    0,773
961,281; 3342,313;    0,545;    0,500
961,834; 3387,495;   -0,909;    0,864
962,386; 3291,859;    1,727;    1,045
962,939; 3230,495;    0,364;   -0,318
963,491; 3374,677;    0,455;    1,136
964,043; 3242,768;    1,182;    2,409
964,596; 3369,949;   -1,000;    2,227
965,148; 3208,495;   -1,000;    1,773
965,700; 3102,677;    1,091;   -0,227
966,253; 3250,677;   -0,636;    0,318
966,805; 3111,313;   -2,273;    0,773
967,357; 3165,586;    1,091;   -1,500
967,909; 3152,495;    0,455;   -1,227
968,461; 3224,859;    0,545;    3,136
969,013; 3157,586;   -0,182;   -0,864
969,565; 3240,586;   -0,455;   -1,136
970,117; 3309,131;   -0,364;    1,045
970,669; 3138,313;    0,182;   -0,136
971,220; 3021,768;   -0,455;   -1,500
971,772; 2933,040;   -0,636;   -0,318
972,324; 3042,222;    0,091;   -0,500
972,876; 2995,404;    0,818;   -0,045
973,427; 3137,040;    1,909;   -1,045
973,979; 3104,040;   -0,727;   -2,500
974,530; 3154,313;    1,818;    1,318
975,082; 3158,222;   -0,545;    1,682
975,633; 3026,222;    1,091;    1,682
976,184; 3162,131;    0,909;    0,773
976,736; 2968,768;    0,091;    0,227
977,287; 2789,768;   -0,909;   -0,500
977,838; 2961,313;    0,909;   -0,318
978,389; 3013,677;   -1,000;   -0,500
978,940; 2860,949;    0,545;   -0,409
979,491; 2900,586;    0,091;   -0,500
980,042; 2882,222;    0,182;    3,045
980,593; 2904,859;   -2,545;    0,227
981,144; 2969,131;    2,545;   -0,500
981,695; 2954,222;    1,455;    1,500
982,246; 2910,586;   -0,273;    1,045
982,797; 3055,313;   -1,727;    0,682
983,347; 3147,131;    0,364;    0,591
983,898; 3349,586;    3,091;    0,409
984,449; 3173,949;    2,182;    0,773
984,999; 3056,404;    1,455;   -1,136
985,550; 2822,495;    0,182;   -0,318
986,100; 2858,859;   -0,455;   -0,318
986,651; 2881,586;   -0,818;    0,045
987,201; 2879,859;   -1,000;   -0,591
987,751; 2951,040;    0,818;    2,864
988,302; 2948,586;    2,636;    1,500
988,852; 2977,949;    0,455;   -1,136
989,402; 3010,495;    0,091;    0,682
989,952; 2933,677;   -2,182;    0,864
990,502; 3023,586;   -0,091;    0,682
991,052; 2993,222;   -0,727;    0,045
991,602; 2863,040;   -2,909;    1,318
992,152; 2853,040;    0,455;    0,682
992,702; 2844,949;    1,364;   -0,045
993,252; 2767,495;   -3,000;   -0,500
993,802; 2873,131;   -0,273;    1,318
994,352; 3094,949;   -1,545;    1,136
994,901; 3179,131;   -0,182;    3,227
995,451; 3089,586;   -0,182;    0,318
996,000; 3167,859;    1,636;    0,318
996,550; 2887,677;    2,273;    0,227
997,100; 2880,404;    1,273;   -0,045
997,649; 3162,949;    2,182;    0,955
998,198; 2787,222;    1,727;   -1,500
998,748; 2984,404;    1,091;   -2,318
999,297; 2883,040;   -0,818;   -0,409
999,846; 2955,859;    1,000;   -0,773
1000,395; 2992,586;   -0,818;    0,500
1000,945; 2985,131;    1,818;   -0,773
1001,494; 3075,586;    2,364;    0,682
1002,043; 3053,404;    4,636;    0,864
1002,592; 2896,222;   -1,091;    1,955
1003,141; 3041,677;   -0,455;   -0,682
1003,690; 2903,495;    1,727;    0,500
1004,238; 2987,495;    1,455;   -0,045
1004,787; 2596,586;    1,364;    1,227
1005,336; 2849,222;    0,364;    0,682
1005,885; 2981,586;    1,364;   -2,773
1006,433; 3125,768;    0,545;    0,955
1006,982; 3196,859;    0,455;    1,682
1007,531; 3088,222;   -1,818;   -0,227
1008,079; 3035,949;   -2,273;    0,500
1008,627; 3164,222;   -1,455;    0,409
1009,176; 2922,404;    0,000;   -1,955
1009,724; 2955,131;    1,091;    0,864
1010,273; 3021,131;    1,273;    0,500
1010,821; 3112,586;    0,091;    1,409
1011,369; 2866,495;   -1,364;    1,318
1011,917; 2835,768;   -1,364;   -0,591
1012,465; 3134,677;    1,273;   -1,591
1013,013; 3236,040;    2,091;   -1,682
1013,561; 3121,949;    0,455;   -0,773
1014,109; 3164,859;   -1,909;    1,682
1014,657; 3043,404;    0,364;    0,591
1015,205; 3149,040;    1,636;   -0,955
1015,753; 3184,586;   -0,545;   -1,409
1016,301; 3228,859;   -2,636;    3,045
1016,848; 3236,677;   -1,273;    0,409
1017,396; 3281,586;    2,545;    0,045
1017,944; 3384,131;    1,182;    1,864
1018,491; 3149,949;    0,273;    1,409
1019,039; 3310,495;    0,455;    0,591
1019,586; 3220,586;   -1,364;    1,682
1020,134; 3322,586;    0,455;    1,500
1020,681; 3327,222;    0,182;   -1,136
1021,228; 3347,495;    2,909;   -2,227
1021,776; 3156,949;    1,182;   -1,136
1022,323; 3386,586;    0,455;    0,773
1022,870; 3328,768;   -1,000;   -0,045
1023,417; 3232,313;    2,636;    1,864
1023,964; 3352,131;    2,636;    1,227
1024,511; 3206,586;    1,000;    0,773
1025,058; 3004,040;    3,182;   -0,045
1025,605; 3051,040;   -2,273;    3,136
1026,152; 3292,677;    1,727;   -0,591
1026,699; 3013,677;    1,818;    1,318
1027,245; 3170,949;   -0,091;    0,318
1027,792; 3364,768;   -1,000;    1,409
1028,339; 3262,040;    2,364;   -0,045
1028,885; 3123,949;    1,000;   -0,227
1029,432; 3059,677;   -0,091;    0,227
1029,978; 3121,586;   -1,000;   -1,591
1030,525; 3018,040;    1,000;    0,409
1031,071; 3251,131;   -1,364;    1,136
1031,618; 3355,949;    0,364;    1,682
1032,164; 3136,131;   -0,091;    3,045
1032,710; 3193,949;    1,636;   -1,500
1033,256; 3117,586;   -0,636;   -0,136
1033,803; 3087,859;   -0,545;    1,500
1034,349; 2785,131;   -1,364;    0,136
1034,895; 2944,677;    0,000;   -0,318
1035,441; 2939,404;   -0,818;    0,318
1035,987; 2935,677;   -2,364;   -0,682
1036,533; 2934,586;   -1,455;   -0,955
1037,078; 3154,404;    1,455;    1,682
1037,624; 2970,131;    2,455;   -0,955
1038,170; 2988,586;    0,455;   -0,318
1038,716; 2900,768;    1,636;   -0,409
1039,261; 2799,949;   -2,273;   -0,773
1039,807; 2744,222;   -0,091;    3,409
1040,352; 2821,040;   -1,909;   -0,318
1040,898; 2860,040;   -1,545;   -0,682
1041,443; 2771,949;   -1,455;   -2,591
1041,989; 2820,586;    1,091;    1,591
1042,534; 2686,222;   -0,364;    2,591
1043,079; 2776,404;    2,909;    0,955
1043,625; 2584,859;    1,818;    0,500
1044,170; 2642,677;   -1,364;    1,045
1044,715; 2896,040;    2,455;    0,955
1045,260; 2698,222;    2,182;   -0,955
1045,805; 2742,495;    1,182;   -0,591
1046,350; 2666,859;    1,364;   -0,409
1046,895; 2627,222;    2,909;    1,591
1047,440; 2598,586;    5,364;    0,409
1047,985; 2474,495;    2,818;   -0,955
1048,530; 2389,040;    1,545;    1,227
1049,074; 2476,131;    0,000;    0,318
1049,619; 2429,949;   -1,364;    1,955
1050,164; 2233,768;    0,455;    0,227
1050,708; 2285,586;   -0,455;    0,045
1051,253; 2676,040;    1,273;   -2,227
1051,797; 2366,859;    0,818;   -1,318
1052,342; 2372,859;   -1,182;    1,045
1052,886; 2373,586;    0,364;   -1,409
1053,430; 2249,495;   -1,364;    0,136
1053,975; 2273,313;   -0,818;   -0,318
1054,519; 2251,404;   -0,727;    3,227
1055,063; 2275,040;    0,909;    1,318
1055,607; 2155,131;   -0,182;    0,227
1056,151; 2169,859;    2,909;    1,682
1056,695; 2083,404;    2,273;   -1,136
1057,239; 2150,222;   -1,727;   -0,682
1057,783; 2162,949;    0,818;   -1,500
1058,327; 2120,222;    0,000;    1,409
1058,871; 2362,677;   -0,545;    1,318
1059,415; 2062,949;   -0,818;   -0,045
1059,958; 2342,495;    1,455;    2,591
1060,502; 2045,040;   -1,000;   -0,773
1061,046; 1935,040;    0,364;   -0,955
1061,589; 1911,949;   -3,000;   -1,136
1062,133; 1800,313;   -1,273;    1,864
1062,676; 1743,949;    1,182;    0,864
1063,220; 1742,949;    1,091;    0,500
1063,763; 1776,404;    0,909;    1,136
1064,306; 1868,313;   -0,909;    1,864
1064,849; 1757,222;   -0,909;    0,591
1065,393; 1749,768;    2,000;   -1,500
1065,936; 1859,040;    0,182;   -0,409
1066,479; 1743,404;   -1,455;    1,318
1067,022; 1764,131;   -0,273;   -0,227
1067,565; 1656,313;   -0,091;   -1,318
1068,108; 1684,586;    0,727;   -0,591
1068,651; 1658,222;   -0,636;    1,409
1069,194; 1583,949;   -0,455;   -1,682
1069,736; 1603,768;   -1,273;    0,955
1070,279; 1570,040;   -1,364;   -0,500
1070,822; 1623,677;   -2,000;   -0,318
1071,364; 1721,040;   -0,364;    1,318
1071,907; 1534,949;   -0,727;    3,227
1072,450; 1437,040;    0,000;   -0,045
1072,992; 1429,131;   -0,273;    3,136
1073,535; 1584,404;    2,091;    2,136
1074,077; 1378,768;   -0,727;    2,045
1074,619; 1341,949;   -1,364;    0,591
1075,161; 1382,768;   -1,091;    1,500
1075,704; 1572,495;    1,545;    1,227
1076,246; 1358,768;   -0,182;    0,682
1076,788; 1279,040;   -0,364;    1,773
1077,330; 1356,677;    1,273;    2,136
1077,872; 1324,131;    0,909;    0,955
1078,414; 1552,131;    2,727;    0,773
1078,956; 1289,040;    1,273;   -0,227
1079,498; 1555,949;    1,636;    0,318
1080,040; 1255,313;    1,909;   -1,318
1080,581; 1184,131;    1,636;   -0,318
1081,123; 1107,677;    0,091;   -0,773
1081,665; 1152,313;   -1,182;   -0,955
1082,206; 1462,131;    1,364;   -0,500
1082,748; 1314,768;    0,727;    2,045
1083,289; 1195,495;   -2,000;    1,318
1083,831; 1107,222;   -0,545;    0,227
1084,372; 1151,222;    0,000;    0,591
1084,913; 1158,677;    1,091;    0,864
1085,455; 1109,040;   -1,909;   -2,045
1085,996; 1085,404;   -2,273;    0,136
1086,537; 1099,404;   -0,091;    0,864
1087,078; 1132,677;   -0,909;   -2,136
1087,619; 1194,313;   -1,273;    0,227
1088,160; 1105,222;    0,000;    1,318
1088,701; 1079,949;   -1,091;    0,682
1089,242; 1018,859;    1,364;   -2,227
1089,783; 1127,768;   -0,273;    1,409
1090,324; 1088,586;    0,455;    0,682
1090,865;  961,040;    2,727;   -0,409
1091,405;  927,313;    0,727;    2,227
1091,946;  950,040;    0,182;   -0,955
1092,487;  882,313;    0,818;   -1,409
1093,027; 1065,404;   -1,364;   -1,500
1093,568;  910,495;   -0,364;    1,227
1094,108; 1017,949;    0,273;    1,773
1094,649;  948,768;   -1,182;    0,136
1095,189;  889,131;   -0,636;   -0,682
1095,729;  841,040;   -0,091;    0,955
1096,269;  828,677;    0,727;   -0,955
1096,810; 1160,222;   -1,364;    0,500
1097,350;  974,949;    1,364;   -0,773
1097,890;  884,949;    0,364;    1,227
1098,430; 1138,859;    2,364;    2,864
1098,970; 1017,040;    2,182;    1,682
1099,510;  863,040;    0,545;   -2,318
1100,050;  805,586;    1,000;   -1,591
1100,589;  769,586;   -0,727;   -0,318
1101,129;  897,768;    0,818;   -0,955
1101,669; 1050,313;    1,727;    2,136
1102,209;  857,404;   -0,091;    2,227
1102,748;  824,040;    0,000;    0,955
1103,288;  818,768;    1,273;   -1,227
1103,827;  845,677;    3,091;   -2,227
1104,367;  716,586;   -0,091;   -2,409
1104,906;  682,131;    1,364;   -1,136
1105,445;  760,313;    0,636;   -1,136
1105,985;  704,859;   -0,727;    1,500
1106,524;  753,768;   -1,727;   -0,682
1107,063;  725,677;   -2,727;    1,409
1107,602;  700,768;   -1,909;   -1,500
1108,141;  625,677;   -1,909;    1,500
1108,680;  732,313;   -3,455;   -0,591
1109,219;  656,404;   -0,909;   -0,500
1109,758;  659,404;    0,455;    0,682
1110,297;  626,677;    1,000;   -0,682
1110,836;  578,313;   -0,727;    0,955
1111,375;  749,586;   -2,545;    0,409
1111,913;  766,768;   -1,000;    0,773
1112,452;  693,586;   -0,273;    0,136
1112,991;  566,677;    1,091;    1,955
1113,529;  529,495;   -0,818;   -0,045
1114,068;  604,495;   -0,273;    2,955
1114,606;  509,586;   -0,364;   -0,955
1115,144;  681,495;   -1,273;    1,045
1115,683;  617,949;   -0,727;    0,318
1116,221;  657,586;   -0,455;   -0,864
1116,759;  563,404;    0,636;   -0,864
1117,297;  768,313;    0,000;    1,864
1117,836;  568,313;   -2,182;   -1,227
1118,374;  570,495;    0,182;   -0,682
1118,912;  519,313;    0,909;    2,682
1119,450;  512,313;    1,000;    0,864
1119,988;  567,768;    1,545;    2,136
1120,525; 1021,313;    5,091;    3,318
1121,063;  719,768;    1,182;    1,864
1121,601;  528,313;   -0,909;   -1,227
1122,139;  478,677;   -0,727;   -2,045
1122,676;  683,495;   -0,727;    2,773
1123,214;  606,859;   -1,182;    4,409
1123,751;  414,040;    1,727;    2,227
1124,289;  554,222;   -0,091;   -0,409
1124,826;  417,949;    1,727;    0,227
1125,364;  339,949;    1,727;   -0,955
1125,901;  535,222;    1,182;    1,227
1126,438;  656,313;    0,818;    0,955
1126,975;  374,222;   -0,727;   -0,773
1127,513;  444,586;    0,273;    2,136
1128,050;  346,040;    1,636;   -0,682
1128,587;  448,949;    2,000;   -0,227
1129,124;  497,586;    0,091;    1,318
1129,661;  349,404;    0,273;    0,227
1130,198;  533,495;    1,636;    0,773
1130,734;  472,949;    0,182;    1,409
1131,271;  328,949;   -0,909;    0,864
1131,808;  499,949;    2,909;    3,045
1132,345;  373,949;    1,545;    0,318
1132,881;  240,949;   -1,545;   -1,864
1133,418;  383,222;    0,727;   -1,136
1133,954;  311,404;    2,455;   -2,682
1134,491;  395,949;    1,364;   -0,773
1135,027;  289,222;    2,364;    0,864
1135,564;  387,040;    0,273;    2,955
1136,100;  370,949;    0,364;    2,136
1136,636;  250,768;   -1,273;   -1,045
1137,172;  351,222;    0,000;   -1,045
1137,708;  277,495;   -1,364;   -1,045
1138,245;  287,768;    1,273;   -1,227
1138,781;  221,313;    1,091;   -3,318
1139,317;  299,313;    1,273;   -1,409
1139,852;  288,677;    3,091;    0,136
1140,388;  409,768;   -1,182;   -0,409
1140,924;  289,586;   -1,091;   -2,227
1141,460;  224,131;   -1,636;    0,136
1141,996;  157,768;   -1,364;    2,682
1142,531;  211,495;    1,364;    3,318
1143,067;  425,859;    1,182;    1,045
1143,602;  489,859;   -0,091;   -0,318
1144,138;  331,404;   -2,636;    1,045
1144,673;  185,495;   -1,455;    1,409
1145,209;  254,949;   -1,909;   -0,318
1145,744;  174,495;   -0,727;    0,864
1146,279;  327,222;    1,818;   -0,136
1146,815;  238,677;    1,545;   -2,682
1147,350;  281,586;   -1,364;    0,045
1147,885;  188,949;   -0,818;   -1,318
1148,420;  181,313;   -2,273;    0,773
1148,955;  160,313;   -1,727;    1,864
1149,490;  183,313;   -0,909;   -1,591
1150,025;  170,222;    0,455;   -1,773
1150,560;  285,859;    1,091;   -0,955
1151,094;  253,131;    1,455;   -0,591
1151,629;  262,404;    1,636;    0,864
1152,164;  192,313;    1,364;    1,318
1152,698;  143,677;   -0,182;   -0,136
1153,233;  110,313;    0,091;   -0,682
1153,767;  149,313;   -3,000;   -2,318
1154,302;  196,949;   -1,455;    1,773
1154,836;  211,768;   -0,455;   -2,136
1155,371;  268,131;   -1,364;    3,682
1155,905;  213,495;   -0,636;    1,682
1156,439;  178,040;   -0,636;   -0,500
1156,973;  213,586;    0,364;    0,318
1157,507;  143,677;   -0,364;    0,682
1158,042;  169,859;   -0,727;    1,045
1158,576;  227,586;    0,182;    1,773
1159,110;  205,586;   -0,818;    2,409
1159,643;  176,404;    0,636;   -0,045
1160,177;  106,313;   -1,545;    1,500

