
Integration time [ms]:   0,040
Averaging Nr. [scans]: 11
Smoothing Nr. [pixels]: 0
Data measured with spectrometer [name]: 7318044SP
Wave   ;Sample   ;Dark     ;Reference
[nm]   ;[counts] ;[counts] ;[counts] 

186,757;   20,303;   31,551;    1,318
187,357;   60,511;   22,551;    0,955
187,958;   36,312;   15,460;   -1,591
188,558;   82,296;    8,915;   -1,227
189,159;   57,249;    6,733;   -4,500
189,759;   21,760;    7,278;   -3,591
190,360;   15,665;    2,824;   -2,136
190,960;   60,141;    2,915;   -4,136
191,560;   74,458;    3,189;   -6,591
192,161;  347,760;    4,372;   -3,500
192,761;  180,982;    4,010;   -3,227
193,361;  119,128;    1,556;   -3,773
193,962;  168,644;    2,010;   -2,682
194,562;   89,318;    1,189;   -3,955
195,162;  134,863;   -2,448;   -2,227
195,762;  301,378;   -3,176;   -0,045
196,362;  240,330;    1,370;   -2,500
196,963;   92,695;    2,006;   -0,864
197,563;  177,027;    1,551;   -0,955
198,163;  119,275;    0,096;   -0,682
198,763;  130,882;    1,733;   -0,500
199,363;  250,952;    3,096;   -0,500
199,963;  204,794;    0,369;    0,409
200,563;  172,599;    2,823;   -1,409
201,163;  160,688;    3,277;   -0,227
201,763;  254,215;    3,732;    0,318
202,363;  197,307;    1,459;    1,500
202,963;  304,336;    1,459;    1,045
203,563;  423,510;    0,277;    0,500
204,162;  257,434;    2,096;   -1,864
204,762;  248,951;    0,550;    0,591
205,362;  214,040;    3,004;    1,955
205,962;  313,230;    3,096;    1,955
206,562;  311,312;    1,823;    2,318
207,161;  274,959;   -0,087;    0,318
207,761;  446,889;    1,277;    2,409
208,361;  315,168;   -0,268;    1,409
208,960;  425,176;    0,459;    1,500
209,560;  508,871;    1,277;    1,591
210,160;  481,457;    0,550;    1,864
210,759;  435,635;    4,186;    1,227
211,359;  444,379;    1,459;    1,045
211,958;  722,650;    1,277;    2,045
212,558;  809,810;    1,732;    1,864
213,157;  647,129;    1,822;    1,500
213,757; 1111,219;    3,822;   -0,227
214,356;  791,375;    1,277;   -0,409
214,956; 1150,058;    3,095;    0,409
215,555;  747,327;    2,095;    2,136
216,154;  683,995;   -2,723;   -0,591
216,754;  686,988;    0,277;    0,773
217,353;  840,336;   -0,268;   -1,045
217,952;  697,280;   -0,178;    0,318
218,552;  942,465;    1,368;   -0,773
219,151;  830,267;    0,277;    0,955
219,750;  832,034;    0,004;   -0,227
220,349;  969,179;   -0,451;    1,045
220,948; 1023,047;   -1,360;    1,136
221,548; 1074,626;    0,913;    1,227
222,147; 1178,367;   -0,087;   -0,409
222,746; 1479,218;   -0,451;   -0,955
223,345; 1354,600;    0,731;    0,500
223,944; 1381,591;   -0,451;    0,773
224,543; 1571,727;    1,004;   -1,409
225,142; 1672,185;    0,094;    0,136
225,741; 1588,858;   -0,814;    1,045
226,340; 1620,362;   -0,451;   -0,955
226,939; 2085,087;   -0,996;   -0,136
227,538; 2056,333;   -0,360;   -0,773
228,137; 2211,027;   -0,814;    0,864
228,735; 2396,932;   -0,541;    1,227
229,334; 2142,652;   -0,905;   -0,227
229,933; 2523,450;    0,459;    0,591
230,532; 2635,225;    1,186;   -0,409
231,131; 2690,501;    1,732;    0,318
231,729; 2856,159;   -2,450;   -2,318
232,328; 2997,299;   -0,723;   -1,500
232,927; 3108,902;    1,004;   -0,500
233,525; 3238,993;    3,640;    0,045
234,124; 3464,103;    2,368;   -1,591
234,723; 3489,131;    0,913;   -1,045
235,321; 3641,430;    2,277;    0,136
235,920; 3902,890;    1,186;   -1,227
236,518; 4181,552;    3,459;    0,318
237,117; 4373,871;    0,004;   -0,227
237,715; 4555,806;    0,640;   -0,500
238,314; 4598,327;   -0,087;   -2,318
238,912; 4701,995;   -0,723;   -1,409
239,510; 4738,889;    0,459;   -1,227
240,109; 4933,087;    0,004;    3,773
240,707; 4963,982;   -0,996;    1,227
241,305; 5367,403;    0,550;    0,136
241,904; 5598,675;   -0,178;   -2,045
242,502; 5553,686;   -0,632;   -0,227
243,100; 5485,890;   -0,087;   -0,955
243,698; 5747,826;    0,732;    1,682
244,297; 5948,929;   -0,632;    0,682
244,895; 5766,786;   -0,269;   -2,318
245,493; 6132,972;    2,186;   -0,591
246,091; 6179,108;    1,368;   -1,318
246,689; 6161,468;    1,004;    0,591
247,287; 6324,070;    0,822;   -1,136
247,885; 6622,141;   -1,451;    1,227
248,483; 6713,671;    1,822;   -0,500
249,081; 6873,178;    0,185;    1,591
249,679; 7020,286;   -0,178;    1,682
250,277; 7289,662;   -1,723;    0,864
250,875; 7293,257;   -1,087;   -1,045
251,473; 7318,360;   -1,178;    0,500
252,071; 7549,580;    1,459;    1,045
252,669; 7667,501;   -1,814;    0,318
253,267; 7916,713;   -0,087;    0,773
253,864; 7893,615;   -0,360;    0,682
254,462; 7757,040;    1,640;    1,591
255,060; 7709,840;   -0,269;    1,318
255,658; 8076,319;    0,822;   -0,136
256,255; 8514,066;    0,186;   -2,045
256,853; 8336,596;   -0,269;    1,409
257,451; 8358,329;    0,822;    1,864
258,048; 8631,129;    1,822;    1,864
258,646; 8416,763;    1,731;   -1,045
259,243; 8579,050;   -0,087;    2,227
259,841; 8629,018;   -0,814;    0,318
260,438; 8507,568;   -0,087;    0,864
261,036; 9276,600;   -1,905;    1,409
261,633; 9122,780;   -0,087;    2,227
262,231; 8846,339;    2,731;   -0,045
262,828; 8936,484;   -0,905;    1,136
263,425; 8994,213;    0,913;   -0,591
264,023; 9275,840;    0,186;    0,045
264,620; 8842,756;   -0,360;   -0,318
265,217; 9220,686;   -2,087;    3,136
265,815; 9304,807;   -1,905;    2,136
266,412; 9090,057;    0,731;    0,136
267,009; 9135,962;   -1,451;    0,773
267,606; 9032,763;    0,822;   -0,955
268,203; 9009,373;   -0,269;   -0,591
268,801; 9325,256;    1,731;    0,591
269,398; 9577,547;   -0,360;    2,500
269,995; 9573,030;    0,277;    1,591
270,592; 9321,229;   -0,632;   -0,500
271,189; 9527,033;    0,186;    0,409
271,786; 9666,975;   -0,632;    1,227
272,383; 9500,607;   -1,087;    0,227
272,980; 9711,846;    0,277;    0,318
273,577;10182,823;    0,004;    1,227
274,174; 9738,869;    0,822;    2,591
274,771; 9721,319;   -0,814;   -0,773
275,367; 9873,456;    2,277;    1,409
275,964; 9856,925;    0,731;   -0,500
276,561; 9919,784;    1,549;   -1,045
277,158;10130,377;    0,095;   -1,773
277,755;10269,996;    2,185;    0,409
278,351; 9682,396;   -0,451;   -1,500
278,948;10014,143;   -0,815;    0,045
279,545;10004,495;   -1,360;    2,318
280,141;10643,769;   -1,723;   -2,045
280,738;10540,221;   -0,451;   -0,136
281,334;10762,456;   -1,633;    0,591
281,931;10134,361;   -0,087;   -1,318
282,528;10208,556;    0,822;   -0,500
283,124;10931,221;   -1,087;   -0,500
283,721;10838,165;   -0,451;    1,409
284,317;10653,336;    0,185;    2,500
284,913;11244,595;   -1,360;    0,591
285,510;11443,413;    0,640;   -0,318
286,106;11460,153;   -2,269;   -0,955
286,703;11078,464;   -0,360;    1,955
287,299;11222,109;   -1,451;   -0,591
287,895;11433,333;    0,822;   -1,045
288,491;12016,820;    0,186;    2,136
289,088;11737,093;   -2,360;    2,409
289,684;11838,137;   -1,723;    1,500
290,280;11831,486;    0,368;    0,682
290,876;11923,448;    1,822;    5,500
291,472;11804,954;    1,276;    2,227
292,068;11907,160;    1,367;    0,227
292,665;11613,200;    2,095;    0,773
293,261;11189,677;    0,276;    2,136
293,857;11618,024;    2,913;    2,136
294,453;11552,537;    3,550;    0,955
295,049;11425,040;   -0,268;    1,955
295,644;11409,472;    0,095;    0,136
296,240;11332,198;   -0,905;   -0,136
296,836;11350,392;   -0,995;    0,318
297,432;11665,905;    1,096;   -0,500
298,028;11725,513;    0,732;    0,773
298,624;12112,675;    1,459;    1,864
299,220;12379,612;    2,368;    0,591
299,815;12047,536;    1,005;   -0,409
300,411;11804,131;    0,914;    1,773
301,007;11843,139;    1,368;    0,227
301,602;11874,913;   -0,541;   -2,318
302,198;12047,285;    0,732;   -0,773
302,794;12387,479;    1,187;   -0,500
303,389;12471,035;   -1,177;    1,045
303,985;12556,287;    0,550;    1,409
304,580;12564,020;    1,459;    1,591
305,176;12521,463;   -3,086;    0,136
305,771;12460,617;   -1,268;   -1,227
306,367;12316,247;    4,095;    0,136
306,962;12628,459;    0,641;    1,500
307,558;12372,941;   -0,450;    0,136
308,153;12285,012;    1,095;   -1,136
308,748;12520,595;   -0,814;    1,682
309,344;12464,188;   -0,632;   -1,318
309,939;12535,278;   -1,905;   -1,318
310,534;12837,778;   -0,086;   -1,682
311,130;12783,935;    0,459;   -2,500
311,725;12485,872;    1,004;   -0,500
312,320;12845,798;    2,459;    0,045
312,915;12710,509;    1,459;   -1,045
313,510;12795,544;    1,550;   -0,500
314,105;13295,880;    1,096;    1,409
314,700;12683,818;   -3,086;   -1,045
315,295;12263,748;   -0,904;    0,045
315,890;11853,451;    1,277;    0,864
316,485;12239,152;   -0,359;   -0,318
317,080;12375,920;   -3,086;    1,591
317,675;12951,983;    2,005;   -0,682
318,270;12322,484;    5,550;    3,318
318,865;12301,572;    3,278;    3,045
319,460;12179,518;   -0,904;    0,591
320,055;12346,326;   -0,541;   -1,227
320,650;12050,095;   -1,995;   -0,591
321,244;12063,799;   -0,177;   -1,409
321,839;13027,556;   -1,541;   -0,227
322,434;12924,980;   -1,086;   -1,591
323,029;12552,716;    1,732;    1,591
323,623;12384,323;    1,550;    0,773
324,218;12108,418;    2,368;    1,409
324,812;12037,209;    1,096;    1,591
325,407;11830,427;   -0,814;    2,045
326,002;11755,494;    0,277;   -0,409
326,596;12017,171;    0,914;    1,318
327,191;12210,839;    0,823;   -1,045
327,785;11772,807;   -0,813;   -0,227
328,379;12012,325;    1,368;    0,136
328,974;11812,448;    0,914;   -3,955
329,568;12016,063;    0,186;   -2,409
330,163;11833,936;    2,096;    1,045
330,757;12191,040;    2,459;    1,591
331,351;11530,396;    0,459;    0,682
331,945;11810,839;    0,914;    1,409
332,540;11418,491;   -1,723;   -0,591
333,134;11606,743;   -1,086;    0,773
333,728;11841,186;    0,005;    0,318
334,322;12142,077;   -1,177;   -0,864
334,916;11387,478;    0,277;    0,955
335,510;11754,239;   -0,450;   -0,136
336,105;12017,839;   -1,086;    1,591
336,699;11736,774;   -1,086;    0,591
337,293;11654,349;   -1,723;    0,318
337,887;11822,284;   -2,723;    1,955
338,481;11915,700;    0,459;    0,591
339,074;12031,202;   -0,359;    2,682
339,668;11852,789;   -1,632;    1,227
340,262;12141,506;    1,732;    3,227
340,856;11651,937;    1,822;   -0,682
341,450;10950,393;    1,004;    1,864
342,044;11884,167;    1,459;    0,136
342,637;11657,178;    0,913;   -2,136
343,231;11485,119;   -2,360;    0,682
343,825;11476,862;   -1,086;   -0,591
344,419;11441,587;   -1,995;    0,500
345,012;11205,132;    2,459;    4,045
345,606;11237,261;    4,641;    1,591
346,199;11077,973;   -1,813;   -0,227
346,793;10585,651;    1,914;    2,045
347,386;10728,993;   -0,813;   -1,136
347,980;10733,640;   -0,268;   -0,045
348,573;10547,369;    2,278;    0,409
349,167;10204,092;    5,278;    4,773
349,760;10539,403;    2,914;    2,682
350,354;10523,357;   -0,813;    1,136
350,947;10271,827;    1,096;    1,682
351,540; 9948,306;   -0,358;   -1,409
352,134; 9902,162;    1,096;    1,136
352,727; 9991,986;   -0,086;    1,136
353,320; 9776,393;    0,005;    0,591
353,913; 9575,719;   -1,995;    1,864
354,507; 9809,100;    0,823;   -1,227
355,100; 9794,624;    0,460;    0,864
355,693; 9025,765;    2,005;    2,409
356,286; 9071,067;    0,823;    2,773
356,879; 9452,137;   -0,722;    1,227
357,472; 9050,634;   -0,904;    1,500
358,065; 9247,545;   -0,722;    2,500
358,658; 9119,134;   -0,540;    2,318
359,251; 8768,505;   -1,631;   -0,591
359,844; 8271,171;   -1,904;   -1,136
360,437; 8459,872;   -2,995;    0,045
361,030; 8707,291;    1,369;   -0,682
361,623; 8294,044;    2,824;    0,318
362,215; 8366,566;   -0,086;    2,045
362,808; 8190,224;   -2,358;   -1,682
363,401; 8399,348;   -2,449;    0,136
363,994; 8145,193;   -0,631;   -1,500
364,586; 8029,303;    0,824;   -1,500
365,179; 8232,270;   -0,449;   -1,136
365,772; 7705,664;   -1,995;    2,045
366,364; 8032,610;    1,915;   -3,227
366,957; 8247,809;    2,279;   -0,045
367,549; 8266,525;    2,188;   -0,864
368,142; 7885,890;    1,825;   -1,500
368,734; 8091,561;    0,734;   -2,136
369,327; 8073,220;    1,643;   -0,500
369,919; 7986,707;   -1,538;    0,409
370,512; 7763,203;   -1,083;   -0,500
371,104; 7547,046;   -0,901;    1,591
371,696; 7725,986;    1,191;   -0,955
372,289; 7801,911;    0,373;    1,136
372,881; 7932,293;   -2,080;    1,318
373,473; 7871,052;   -2,170;    1,136
374,066; 7676,975;   -0,169;    0,500
374,658; 7511,159;    0,378;    1,136
375,250; 7866,474;    0,653;   -1,409
375,842; 7713,140;    0,473;   -0,045
376,434; 7628,233;   -0,435;   -0,409
377,026; 8207,281;    0,204;   -2,500
377,618; 8087,401;   -0,158;   -0,682
378,210; 7871,352;   -0,338;   -1,955
378,802; 7741,842;    0,754;   -0,591
379,394; 7728,769;    1,846;    0,682
379,986; 8313,933;    1,393;   -0,955
380,578; 8429,346;   -0,153;    0,773
381,170; 7764,634;   -0,972;    0,045
381,762; 7729,822;    0,755;    1,409
382,354; 7944,382;   -0,065;   -1,318
382,945; 8031,621;   -2,976;    0,318
383,537; 8170,081;   -2,705;   -1,955
384,129; 8164,388;   -2,160;   -1,136
384,721; 8339,924;   -0,252;    0,955
385,312; 8283,095;   -0,161;   -0,955
385,904; 8386,592;   -2,706;    1,591
386,496; 7784,471;   -0,979;    1,045
387,087; 7949,616;    1,022;    2,500
387,679; 7965,058;   -1,160;    0,045
388,270; 8035,340;    2,840;    2,045
388,862; 8171,156;    1,295;   -0,318
389,453; 8114,392;   -0,887;    1,045
390,045; 8383,997;   -0,705;   -2,682
390,636; 8292,051;    0,204;   -0,591
391,227; 8158,445;   -0,523;   -0,045
391,819; 8249,870;    0,204;    0,773
392,410; 8336,561;    1,022;    0,045
393,001; 8264,301;   -0,979;   -1,591
393,593; 8563,567;    1,930;   -0,045
394,184; 8429,126;    1,385;   -0,409
394,775; 8352,434;    1,839;    2,136
395,366; 8527,910;    1,385;    0,773
395,957; 8564,326;    0,113;    0,136
396,548; 8861,147;   -0,342;    2,682
397,139; 9184,095;   -2,433;    0,591
397,730; 8883,507;   -1,888;    0,955
398,321; 8965,866;   -1,252;    0,955
398,912; 8988,017;   -0,615;    0,136
399,503; 9038,769;   -3,524;   -1,409
400,094; 8498,857;    0,294;    1,682
400,685; 8369,156;   -0,433;    0,045
401,276; 8408,309;    0,930;   -0,955
401,867; 8780,650;   -0,888;    0,773
402,458; 8880,907;   -2,251;   -2,318
403,048; 8833,220;    1,112;    0,591
403,639; 8424,928;    0,840;    0,864
404,230; 8643,895;    2,476;    0,318
404,821; 8592,496;   -0,615;    0,045
405,411; 8726,319;    1,203;   -2,591
406,002; 8319,804;   -1,252;   -1,136
406,592; 8149,257;    2,294;    0,045
407,183; 8484,225;    0,566;   -1,500
407,774; 8392,693;    3,475;   -0,136
408,364; 8729,811;    0,930;    0,409
408,954; 8339,546;    0,384;    1,227
409,545; 8388,172;    1,021;    1,045
410,135; 7925,544;    1,293;    0,500
410,726; 8113,118;    1,838;    0,318
411,316; 8481,504;    0,111;    0,773
411,906; 8126,977;   -0,253;   -0,409
412,497; 7599,604;   -1,070;   -0,045
413,087; 8222,856;   -1,980;   -0,227
413,677; 8657,877;   -0,707;    3,864
414,267; 8499,013;    0,656;    1,409
414,857; 8482,216;   -2,980;    4,227
415,448; 8774,723;    0,839;    0,500
416,038; 8465,045;    0,020;   -0,591
416,628; 8431,685;   -0,889;    0,409
417,218; 7852,976;    0,565;    3,318
417,808; 8144,725;    0,202;   -0,409
418,398; 8628,214;    0,020;    2,682
418,988; 8669,564;    2,020;    0,591
419,578; 8901,231;   -0,707;    1,409
420,168; 9232,712;   -1,343;   -0,955
420,757; 8833,209;   -1,343;   -1,500
421,347; 8514,370;    0,111;   -0,227
421,937; 8690,755;    2,292;    1,409
422,527; 8646,528;    0,838;   -0,773
423,116; 8473,151;   -0,253;   -0,045
423,706; 8793,075;   -1,889;    0,318
424,296; 8792,068;    1,384;    0,682
424,885; 9232,250;   -0,071;   -3,045
425,475; 9490,849;    1,474;   -2,864
426,065; 9403,055;   -0,980;   -0,318
426,654; 9010,992;   -0,435;   -0,318
427,244; 9164,531;    0,020;    1,409
427,833; 8624,779;    1,383;   -0,500
428,423; 9080,739;   -0,526;    1,136
429,012; 9859,291;   -0,344;   -1,136
429,601; 9369,099;   -1,344;    0,136
430,191; 9594,311;    1,292;    4,318
430,780; 9257,715;   -0,344;   -0,409
431,369; 9157,648;    0,746;   -0,045
431,959; 9795,152;   -1,254;    0,500
432,548; 9570,285;   -1,163;   -0,045
433,137; 9682,056;   -1,254;   -1,318
433,726;10256,296;    0,292;    0,500
434,315; 9588,115;   -0,526;    2,409
434,905; 9667,835;   -1,254;    1,409
435,494; 9544,250;    0,746;    0,955
436,083;10055,555;   -0,981;   -0,955
436,672; 9924,416;    0,110;    0,500
437,261; 9451,191;    0,292;   -1,955
437,850; 9590,942;    1,383;    0,682
438,439; 9595,770;    3,291;    1,955
439,027; 9445,708;    3,655;    1,773
439,616; 9816,083;    2,927;    1,227
440,205; 9634,348;    0,200;   -2,136
440,794; 9747,647;    2,109;   -0,045
441,383;10036,432;   -1,346;   -0,591
441,971; 9891,327;   -2,436;    0,591
442,560; 9734,717;    0,563;   -1,773
443,149; 9477,211;    0,379;   -1,318
443,737; 9636,838;   -0,074;   -2,318
444,326; 9909,091;    0,018;    0,318
444,915; 9993,559;   -1,982;    0,864
445,503;10391,247;   -2,891;   -0,318
446,092; 9610,276;    0,382;    2,136
446,680;10191,784;    0,382;    0,318
447,269;10336,694;   -0,346;   -0,318
447,857;10113,856;    0,018;   -1,773
448,445;10210,458;    0,563;    1,318
449,034;10428,559;   -1,528;   -1,136
449,622;10557,563;   -1,073;    3,500
450,210; 9779,080;    2,017;    2,227
450,799;10374,014;    0,290;   -0,591
451,387;10322,438;    1,381;   -0,591
451,975; 9968,671;    2,654;    0,864
452,563;10072,848;    3,472;    2,318
453,151;10077,134;   -0,528;   -1,227
453,739;10032,976;   -1,347;    0,136
454,328; 9875,807;    2,381;   -2,136
454,916; 9560,350;    2,562;   -0,136
455,504; 9747,147;    1,017;    1,227
456,092; 9920,859;    0,017;   -1,591
456,679; 9916,565;    1,472;    0,682
457,267; 9878,273;    4,017;    1,045
457,855;10028,648;    1,017;    1,409
458,443; 9785,370;   -0,165;    1,682
459,031; 9915,499;    0,108;    2,409
459,619;10378,512;   -1,801;    2,864
460,206;10507,757;    0,835;    2,045
460,794;10587,475;   -2,983;   -0,227
461,382;10868,523;   -0,529;   -0,864
461,970;10442,642;    1,198;    1,864
462,557;10432,393;   -0,711;   -0,682
463,145;10642,504;   -3,165;   -1,682
463,732;10791,073;    2,016;   -1,045
464,320;10752,100;   -0,075;   -3,045
464,907;10418,036;    2,743;   -0,773
465,495;10264,267;    0,743;   -1,227
466,082;10441,393;   -1,984;   -0,045
466,670;10372,498;   -2,529;    1,227
467,257;10751,716;   -1,711;    2,045
467,844;10925,325;   -0,075;    0,045
468,432;10956,553;    0,834;    3,500
469,019;10440,621;    0,925;   -1,773
469,606;10937,714;    0,470;    3,682
470,193;10699,448;   -1,439;    0,227
470,780;10300,495;   -2,075;    0,864
471,368;10637,772;   -1,257;   -0,773
471,955;10432,104;    1,379;   -0,682
472,542;10095,774;    0,652;   -1,136
473,129;10281,912;   -0,166;    0,136
473,716;10024,946;    1,470;    0,591
474,303;10261,499;    0,652;   -0,864
474,890;10569,335;   -1,439;   -0,500
475,477;10580,714;   -1,621;    0,409
476,064;10479,454;    1,106;   -1,591
476,650;10435,452;    0,288;    0,318
477,237;10259,724;   -0,258;    0,955
477,824;10449,868;   -1,076;    0,864
478,411;10465,854;   -1,894;   -0,318
478,997;10656,300;    0,560;   -0,773
479,584;10696,194;    1,196;   -0,409
480,171;11441,605;   -0,440;   -0,773
480,757;11087,188;    2,651;    0,773
481,344;11414,945;    0,469;    0,409
481,931;10912,566;    1,105;    1,045
482,517;11979,172;   -1,258;    0,318
483,104;12644,980;    1,106;    2,864
483,690;12950,627;   -1,804;    0,045
484,276;13265,010;   -0,895;    0,227
484,863;13000,600;    2,469;    1,136
485,449;13578,438;   -0,077;    0,318
486,035;13563,939;   -1,986;   -0,136
486,622;14020,682;   -0,895;    0,045
487,208;13927,882;    1,378;    1,500
487,794;13785,891;    0,741;    0,318
488,380;13874,465;    0,105;   -1,409
488,967;13943,877;   -1,168;   -0,409
489,553;14002,579;   -1,895;   -1,409
490,139;14212,100;    1,559;    0,773
490,725;13565,936;    0,741;   -0,227
491,311;13069,705;    3,287;    3,045
491,897;12403,170;   -0,986;    1,500
492,483;12249,230;    0,105;    1,227
493,069;12052,425;    3,923;    0,864
493,655;12045,616;    1,650;    0,682
494,241;11907,748;    1,377;   -0,955
494,826;12333,575;    0,287;   -1,045
495,412;11803,970;    2,559;   -0,682
495,998;11943,153;   -0,805;   -0,318
496,584;12106,228;    0,377;    1,045
497,169;12108,509;    1,014;   -0,682
497,755;12038,515;    0,650;    1,227
498,341;12642,505;    0,559;    0,318
498,926;12221,804;    1,832;    1,955
499,512;12380,754;    1,286;    2,955
500,097;12515,542;    0,195;   -0,318
500,683;12478,499;   -0,350;    2,136
501,268;12825,265;   -0,169;   -0,955
501,854;12559,458;   -0,169;    1,227
502,439;12489,649;   -0,624;   -1,773
503,024;12690,001;    0,195;    0,500
503,610;12765,749;   -0,078;   -0,682
504,195;12754,819;    0,558;    1,955
504,780;12889,825;    2,922;    1,227
505,366;12689,439;    3,013;    2,864
505,951;12438,980;    0,740;    1,045
506,536;12416,535;   -3,260;   -3,682
507,121;12402,524;    0,285;   -0,318
507,706;12927,898;    2,376;    1,045
508,291;13343,165;    2,649;    1,136
508,876;12786,575;   -0,988;    2,591
509,461;12246,318;   -0,169;   -0,773
510,046;12701,244;    0,194;    0,318
510,631;12919,638;   -0,351;   -0,773
511,216;12542,202;    2,467;   -0,500
511,801;12929,151;   -0,442;    2,591
512,386;13242,817;    0,740;    0,500
512,971;13170,372;   -2,988;    0,955
513,555;12733,272;   -0,897;   -1,500
514,140;13521,602;   -0,442;   -3,136
514,725;13544,685;   -0,715;   -1,136
515,309;13678,209;   -0,533;    0,318
515,894;13103,719;   -0,624;   -2,227
516,479;13565,482;   -0,624;   -0,955
517,063;13376,722;    0,376;    1,227
517,648;13509,282;    1,012;   -1,136
518,232;13171,489;   -0,261;   -1,409
518,817;13490,737;   -0,079;    1,682
519,401;13754,048;    2,194;    0,591
519,985;13253,838;    1,103;    1,136
520,570;13126,752;    0,830;   -1,955
521,154;13406,043;    2,102;    0,591
521,738;13605,779;   -2,352;    2,409
522,323;14166,749;   -0,170;    1,682
522,907;13929,737;    0,466;   -0,136
523,491;13628,475;    0,557;    0,955
524,075;13593,087;    2,284;    0,591
524,659;13671,876;    1,466;    0,591
525,243;13137,922;    1,739;    0,409
525,827;13386,332;    0,648;   -0,045
526,411;14232,149;   -1,989;   -0,136
526,995;14481,517;   -0,352;    1,409
527,579;14072,376;   -0,443;   -1,045
528,163;14410,920;    0,375;   -1,500
528,747;14289,902;    2,466;   -0,773
529,331;14564,370;   -0,080;   -1,409
529,915;14781,867;    1,738;    0,955
530,499;14766,472;   -0,807;    1,227
531,082;14468,915;   -0,534;    1,591
531,666;13933,590;    1,374;    0,773
532,250;14584,696;    1,284;    2,682
532,833;14961,177;    0,920;    2,773
533,417;14776,488;   -1,807;    0,864
534,001;14802,406;    1,647;   -0,318
534,584;15498,330;    0,374;    0,500
535,168;15289,323;    0,465;    1,409
535,751;15394,261;    0,647;    0,045
536,334;14814,020;   -0,898;   -0,409
536,918;15364,678;    0,011;    1,591
537,501;15504,364;   -0,899;    1,318
538,085;15489,480;   -0,444;    1,045
538,668;15678,183;    0,829;    2,409
539,251;16007,340;    1,829;    3,773
539,834;15991,690;    0,101;    0,773
540,418;15917,276;   -1,990;    4,318
541,001;16063,034;   -0,990;    1,773
541,584;16090,534;    2,101;    2,227
542,167;15788,867;    1,374;    2,955
542,750;15904,840;    1,919;   -0,773
543,333;15488,290;    0,555;    2,136
543,916;16292,243;    0,192;    2,500
544,499;16932,065;   -1,354;    0,227
545,082;16890,226;    1,374;    3,591
545,665;17004,957;    1,919;    1,500
546,248;17365,381;    1,010;   -0,318
546,830;17016,786;   -0,445;    1,955
547,413;17449,019;    1,010;   -0,773
547,996;17974,852;    0,555;    0,500
548,579;17762,881;    0,919;    0,955
549,161;17579,497;    1,828;    2,682
549,744;17333,435;   -0,809;    0,409
550,326;17817,715;   -0,809;   -1,136
550,909;17639,279;    2,737;    0,591
551,492;18030,330;   -0,263;    0,227
552,074;17813,612;   -0,173;   -1,318
552,657;18374,039;    2,373;    0,045
553,239;18110,056;   -0,173;   -0,773
553,821;18000,530;   -1,082;    1,045
554,404;17520,731;    1,282;    1,136
554,986;17952,501;    0,464;    1,045
555,568;18544,428;    1,191;   -0,955
556,151;17738,313;    1,191;   -0,227
556,733;17943,938;   -0,264;   -0,864
557,315;18417,507;    0,100;    0,500
557,897;18249,643;    0,554;   -0,500
558,479;18326,409;   -1,991;    1,318
559,061;18519,516;   -0,719;   -0,864
559,643;18852,980;   -0,264;    0,045
560,225;19191,225;    1,645;    2,864
560,807;19204,434;    0,918;    0,318
561,389;18698,242;    0,554;    2,318
561,971;19492,469;    0,463;    2,136
562,553;19271,642;   -1,628;    1,591
563,135;19440,026;   -0,537;    1,136
563,717;19035,264;    3,372;    1,136
564,298;19750,967;    3,645;   -0,045
564,880;19490,908;    0,645;   -1,409
565,462;19631,726;    0,645;    1,318
566,043;20754,549;   -0,446;    2,318
566,625;20324,454;    1,918;    1,227
567,207;20172,700;    1,099;    1,682
567,788;21345,991;   -1,264;    1,500
568,370;22142,503;    1,917;   -0,500
568,951;22005,621;    0,190;    0,227
569,533;22831,554;   -0,628;   -0,500
570,114;23339,976;   -0,446;    0,682
570,695;23825,479;   -0,174;   -1,318
571,277;24342,249;   -0,265;   -1,682
571,858;25083,336;    2,008;   -1,136
572,439;26013,622;    1,554;   -1,045
573,021;26205,388;    2,099;   -2,773
573,602;26700,523;   -1,265;    0,318
574,183;27657,902;   -2,083;    2,227
574,764;27747,314;   -1,629;    0,409
575,345;28294,172;    0,917;   -0,136
575,926;28836,628;   -0,356;    0,136
576,507;28803,974;    1,099;   -0,227
577,088;30008,216;    3,099;    1,682
577,669;29996,434;    0,735;    1,955
578,250;30819,538;    0,644;   -1,045
578,831;31448,719;   -1,356;   -2,227
579,412;31697,137;   -0,810;    0,955
579,993;32603,571;    1,008;    0,227
580,573;32866,787;   -0,629;   -0,955
581,154;31831,833;    0,735;   -0,591
581,735;32723,581;    0,644;    0,773
582,315;32294,762;   -0,629;    2,136
582,896;32536,860;   -0,174;    1,227
583,477;31902,764;    0,189;    1,227
584,057;32135,539;    0,553;    0,955
584,638;32436,571;    2,553;    2,318
585,218;32429,350;   -0,538;    2,682
585,799;32572,717;    0,281;   -0,227
586,379;32507,761;    0,372;    1,591
586,959;31245,510;    0,735;    0,318
587,540;30541,796;   -0,629;    2,227
588,120;30077,837;    1,007;   -0,045
588,700;29099,513;    2,553;    2,136
589,281;29447,543;    0,462;   -0,955
589,861;29453,050;    0,099;   -1,682
590,441;29255,732;    2,371;   -2,682
591,021;28183,931;   -0,265;   -2,591
591,601;28411,313;   -0,537;    0,500
592,181;28464,239;   -0,719;   -0,773
592,761;27686,902;    0,007;    1,409
593,341;27601,021;   -0,901;    0,045
593,921;27612,911;   -0,265;    1,591
594,501;27488,633;   -0,538;    1,318
595,081;27358,845;    0,917;   -0,318
595,661;27753,762;   -1,447;    0,955
596,240;28291,890;   -0,537;    0,136
596,820;27964,763;    0,372;    1,955
597,400;28068,692;    2,008;    0,773
597,980;28273,529;    2,008;    1,045
598,559;28264,681;    2,735;   -0,227
599,139;28001,248;   -0,174;   -1,227
599,718;27893,157;   -0,174;   -0,409
600,298;28156,258;    0,735;    0,682
600,877;28429,085;    2,917;    1,409
601,457;28682,594;    2,281;    1,136
602,036;28566,491;    0,190;    2,045
602,616;28816,071;    0,644;    1,682
603,195;29174,773;   -0,355;    3,500
603,774;28671,853;   -0,901;    2,045
604,354;28609,829;    0,826;   -0,500
604,933;28039,030;    0,463;    1,864
605,512;28137,536;    3,554;    0,591
606,091;28206,352;   -0,537;    3,773
606,671;29038,112;    0,281;    0,773
607,250;28178,665;    1,644;    3,136
607,829;28436,764;    2,372;    3,227
608,408;28182,496;    1,190;    2,591
608,987;27257,112;    1,281;    3,409
609,566;27588,038;   -1,265;   -2,500
610,145;27658,640;   -1,082;    0,682
610,723;28088,322;    4,372;    6,864
611,302;27357,625;   -0,446;    1,682
611,881;26858,018;    5,008;   11,227
612,460;27663,724;    1,645;    3,955
613,039;28056,775;   -0,082;    2,045
613,617;26825,901;    1,736;    4,773
614,196;26983,119;    1,099;    1,227
614,775;27346,554;    1,009;    2,409
615,353;27308,120;    0,736;    0,864
615,932;27018,281;    0,100;    2,409
616,510;27599,187;    0,554;    0,591
617,089;27167,988;    7,100;   17,591
617,667;26898,285;    2,372;    6,136
618,246;26737,910;   -1,537;    1,318
618,824;26925,983;   -3,355;   -0,955
619,402;26482,623;   -2,900;   -1,773
619,981;27013,031;   -0,173;   -1,045
620,559;26784,149;    0,009;    1,682
621,137;26311,503;   -0,718;    1,864
621,715;26352,912;   -1,173;   -0,682
622,293;26237,377;   -0,537;   -0,773
622,871;26694,870;   -0,718;    0,500
623,450;26280,606;    0,373;   -0,864
624,028;26144,359;    0,191;   -0,955
624,606;25846,169;   -1,718;    1,682
625,183;26217,361;   -1,536;   -1,136
625,761;25842,448;    1,009;    1,136
626,339;26125,247;    1,373;    2,591
626,917;26561,918;   -0,172;   -0,045
627,495;26566,233;   -0,354;    1,318
628,073;26000,757;   -0,263;    2,864
628,650;25723,084;    0,100;    2,136
629,228;26125,078;    0,373;    4,409
629,806;25526,545;    2,282;    1,136
630,383;25809,089;    1,464;   -0,318
630,961;25598,031;    2,555;   -0,955
631,539;25339,142;    2,464;    0,227
632,116;24719,850;   11,373;   15,409
632,694;25232,642;    2,555;    6,500
633,271;25574,377;    0,828;    2,682
633,848;25482,791;    1,828;    2,045
634,426;25527,583;   -1,081;    1,773
635,003;24625,695;    1,101;   -0,409
635,580;24942,772;    1,192;    3,682
636,158;25527,386;    3,737;    1,227
636,735;25479,863;    0,555;   -0,500
637,312;25683,505;   -0,809;   -0,682
637,889;25731,988;   -4,354;   -0,682
638,466;25147,478;   -3,990;   -0,409
639,043;25170,860;    2,101;   -1,136
639,620;25521,734;   -2,262;   -0,955
640,197;25844,505;    1,100;    1,682
640,774;25978,105;   -0,172;    1,136
641,351;26388,159;    0,737;    1,136
641,928;25796,031;   -0,627;    1,409
642,505;25429,540;    0,828;   -0,500
643,082;25596,140;   -1,718;    1,227
643,658;24633,376;   -0,718;    1,500
644,235;25339,703;    1,191;    2,500
644,812;25707,120;    1,918;    0,773
645,388;25418,629;   -0,991;    1,409
645,965;25501,229;   -0,809;    1,682
646,542;25555,101;   -1,445;   -0,227
647,118;25572,155;    1,009;   -0,955
647,695;25846,119;   -0,263;    1,136
648,271;25719,082;   -0,536;    0,500
648,848;26041,863;    0,736;    2,227
649,424;25936,099;    0,827;    1,318
650,000;25662,517;   -0,354;   -1,045
650,577;25425,753;   -0,627;   -0,955
651,153;25890,898;   -1,809;    0,955
651,729;26911,225;    1,191;    0,864
652,305;27411,006;    0,645;    2,773
652,881;32501,606;   -0,082;    1,136
653,458;39446,933;    1,100;    0,227
654,034;42820,351;    0,282;    1,591
654,610;44057,405;    0,554;    0,773
655,186;45281,368;    0,645;    3,045
655,762;44839,968;   -0,991;    0,409
656,338;44881,204;    0,100;    0,136
656,913;45768,621;   -0,082;    0,409
657,489;44963,857;    0,827;   -0,318
658,065;44968,912;   -0,173;   -1,591
658,641;45604,511;   -0,900;   -0,864
659,217;44921,293;   -0,991;    0,409
659,792;44254,892;    0,645;   -0,409
660,368;44485,401;   -2,173;   -0,682
660,944;43919,637;   -2,082;    1,227
661,519;38750,236;   -0,628;    0,409
662,095;32836,654;   -1,719;    0,591
662,670;28710,981;    1,281;   -0,136
663,246;27774,672;    1,009;   -0,409
663,821;27197,089;    0,281;    1,682
664,396;26689,598;    0,009;    1,864
664,972;26956,289;    0,009;   -0,500
665,547;27276,070;    1,372;    0,136
666,122;27316,942;   -1,082;    0,318
666,698;27632,906;   -0,173;    0,318
667,273;26954,687;   -0,173;    0,136
667,848;27783,650;    2,372;    1,500
668,423;27567,614;    2,190;    2,318
668,998;28138,577;    2,827;   -0,682
669,573;28687,631;   -3,264;   -1,500
670,148;28510,958;   -1,446;   -0,682
670,723;28298,012;   -1,810;    0,318
671,298;28719,975;    2,372;    1,045
671,873;28838,757;   -0,082;   -0,136
672,448;28772,993;    0,645;    0,136
673,023;29093,138;   -1,992;   -0,227
673,597;29436,010;    0,827;    2,318
674,172;29266,064;   -0,355;    0,318
674,747;28718,391;    0,372;   -1,045
675,321;28487,991;   -0,628;    3,318
675,896;28085,681;    0,645;    1,045
676,471;29114,554;    2,645;    1,591
677,045;28879,971;   -1,264;    0,682
677,620;28967,207;    0,190;    1,136
678,194;29204,807;   -2,628;    1,136
678,769;28788,407;   -1,083;   -0,318
679,343;29103,370;   -0,628;    1,773
679,917;28989,788;   -1,446;    1,955
680,492;29069,751;    0,826;    3,227
681,066;29165,078;    3,372;    0,409
681,640;29214,859;    1,463;   -0,318
682,214;30049,186;    0,735;    0,500
682,788;29528,877;   -1,356;   -0,773
683,363;29459,476;   -1,810;    1,682
683,937;29185,621;   -1,719;   -0,318
684,511;29946,494;    0,463;   -0,591
685,085;29636,002;   -1,356;    0,318
685,659;29304,602;   -2,538;    0,864
686,232;29716,111;   -0,356;   -0,318
686,806;29399,165;   -0,901;    0,409
687,380;30027,219;   -0,174;    0,591
687,954;30235,546;   -1,174;    1,136
688,528;29949,327;   -0,719;    1,955
689,101;30722,381;   -3,992;    1,045
689,675;30304,527;   -0,356;   -0,136
690,249;29652,490;   -0,719;    0,409
690,822;29990,998;    0,280;    0,318
691,396;30032,507;   -0,265;    1,227
691,969;29539,107;    1,280;    0,136
692,543;29981,161;   -0,447;   -1,955
693,116;29594,851;   -0,265;   -1,409
693,690;29497,451;    0,099;    0,500
694,263;30043,778;   -1,083;    2,955
694,836;30040,014;    1,371;    3,591
695,410;28691,704;   -0,265;    1,773
695,983;29224,395;    0,189;    0,591
696,556;29164,358;   -0,447;   -1,045
697,129;29539,685;   -0,356;    1,409
697,703;29222,921;   -1,629;    1,955
698,276;29191,339;    1,462;   -0,773
698,849;29016,393;    1,280;    1,409
699,422;29335,538;   -1,083;    0,591
699,995;29024,683;    0,007;    0,136
700,568;29495,465;   -0,629;    3,045
701,140;29526,246;   -2,811;    1,682
701,713;29291,846;   -0,174;    2,409
702,286;29068,445;   -0,538;    0,864
702,859;28937,681;   -0,902;   -0,591
703,432;28101,372;    0,825;    0,682
704,004;28595,426;    0,462;    0,318
704,577;28450,026;   -0,629;    0,136
705,150;29057,443;    0,189;    2,500
705,722;28803,316;   -0,356;   -3,227
706,295;28630,552;   -0,175;   -0,591
706,867;28485,060;   -0,175;    1,955
707,440;28697,478;   -1,720;   -0,409
708,012;28913,169;    0,462;    0,591
708,584;28850,677;    2,462;    0,227
709,157;29093,277;    1,825;   -0,591
709,729;28802,058;    2,280;    2,045
710,301;29619,476;    0,734;    0,045
710,874;29640,076;   -1,447;   -0,227
711,446;28539,403;    0,371;    0,864
712,018;28354,093;    0,098;    0,500
712,590;28137,784;   -1,993;    1,682
713,162;28659,292;    0,825;    1,318
713,734;28930,528;    1,825;   -2,045
714,306;28819,673;   -1,902;   -0,409
714,878;27477,637;    0,825;    0,864
715,450;28317,873;    0,643;    0,864
716,022;28540,927;    1,552;    1,318
716,593;28676,072;    0,189;    0,591
717,165;28621,581;   -3,175;   -1,227
717,737;28349,180;    0,280;    0,409
718,309;28011,234;    0,280;   -0,045
718,880;28019,016;   -0,539;   -1,409
719,452;28226,797;   -0,175;   -1,591
720,024;27780,033;    0,734;   -0,591
720,595;28352,633;   -2,902;    0,955
721,167;27915,051;    0,370;   -2,045
721,738;27441,741;   -0,812;   -1,045
722,309;27430,704;   -0,993;   -1,227
722,881;27245,668;   -1,357;    0,773
723,452;27833,540;   -2,630;    2,864
724,023;28030,231;   -0,721;    2,682
724,595;27777,921;    0,007;    0,682
725,166;27490,612;    0,007;   -0,409
725,737;27209,757;    1,734;    0,227
726,308;27262,720;   -0,266;    0,318
726,879;27733,501;   -1,630;    1,227
727,450;27616,283;    0,552;   -0,045
728,021;27541,791;    3,097;    0,682
728,592;27313,846;    0,734;    0,500
729,163;27649,263;    0,643;   -0,136
729,734;27708,227;    0,188;   -0,227
730,305;28051,281;    1,734;    0,136
730,876;28383,426;    0,188;    2,955
731,447;28057,298;    2,188;    2,682
732,017;28231,080;    1,097;    1,864
732,588;27680,679;    0,734;    1,227
733,159;27859,915;    0,643;   -1,045
733,729;27670,333;    0,006;    0,409
734,300;26959,205;    0,915;    0,864
734,870;27375,623;    3,461;    0,591
735,441;27957,314;    0,370;   -0,591
736,011;27718,095;    0,643;   -1,591
736,582;27651,422;   -0,812;    0,045
737,152;27135,840;   -1,721;   -2,045
737,722;27530,712;   -0,267;   -0,682
738,293;27249,130;   -1,358;    1,318
738,863;27184,275;    2,461;    2,318
739,433;26955,147;    5,279;    0,318
740,003;27583,292;   -0,994;   -0,682
740,573;26964,528;    2,097;   -1,591
741,143;26927,673;   -1,085;    0,318
741,713;27715,000;    1,188;   -0,500
742,283;27487,054;    0,915;    1,591
742,853;27287,018;    1,915;    1,591
743,423;26639,799;    1,733;    0,045
743,993;26751,126;   -0,358;    1,500
744,563;26136,817;    0,097;   -0,864
745,133;26097,053;   -0,812;   -0,864
745,702;26742,561;   -0,267;    1,773
746,272;25969,343;   -0,176;    0,591
746,842;25790,306;   -1,358;   -0,591
747,411;26154,360;   -0,267;   -0,318
747,981;26376,505;    0,097;    0,500
748,551;26401,559;    2,278;   -1,045
749,120;26260,068;    0,642;   -0,227
749,690;26660,759;   -0,631;    2,409
750,259;27019,176;    1,369;    2,955
750,828;26943,594;    1,551;   -1,955
751,398;27189,194;    1,278;   -0,045
751,967;26702,611;    2,187;    0,409
752,536;26924,847;   -0,813;   -0,227
753,105;27346,083;    0,096;    0,227
753,675;27152,592;    0,096;    1,773
754,244;27068,828;   -0,904;    3,591
754,813;27046,155;    0,551;    1,227
755,382;26637,573;    0,460;    0,955
755,951;27274,445;    1,551;    3,682
756,520;26772,499;   -0,085;    1,864
757,089;27353,917;    0,278;    0,500
757,658;27437,699;    1,733;    1,227
758,227;27454,753;    1,096;    0,318
758,795;27747,989;    1,187;    1,136
759,364;27904,588;   -0,086;   -0,591
759,933;26986,642;   -1,176;   -0,045
760,501;26500,969;    0,733;   -1,318
761,070;26948,933;   -2,813;   -1,409
761,639;27685,078;   -1,904;    1,318
762,207;27041,677;    1,551;   -0,955
762,776;26922,731;    0,369;    0,864
763,344;26848,331;   -0,995;    0,591
763,913;25966,022;   -0,722;    1,409
764,481;26744,258;    1,005;   -0,136
765,049;26527,675;   -1,358;    1,409
765,618;26394,002;   -0,086;    0,318
766,186;26502,602;    0,278;    0,136
766,754;26681,201;    0,005;    1,864
767,322;25691,710;   -1,995;    0,409
767,890;25691,037;   -0,722;   -1,773
768,459;26093,637;   -2,177;   -0,318
769,027;26321,418;    1,641;    3,409
769,595;25238,836;    3,278;    2,591
770,163;25687,890;    3,823;    2,955
770,730;25421,581;    0,732;   -0,136
771,298;25299,726;    0,187;   -1,409
771,866;25335,689;   -1,541;    4,955
772,434;25690,834;   -0,631;   -1,864
773,002;25844,888;    0,005;    0,682
773,569;25481,669;    0,914;    1,682
774,137;25296,815;   -0,268;   -0,045
774,705;26106,323;    0,278;   -0,136
775,272;25629,559;    0,641;    0,682
775,840;25367,613;   -0,177;    2,682
776,407;24932,213;    0,277;    1,955
776,975;24473,631;   -0,632;    0,318
777,542;25480,594;   -1,086;   -0,045
778,110;25301,921;   -1,268;   -0,045
778,677;25051,521;   -2,359;   -0,864
779,244;24790,938;    2,186;    1,045
779,812;24943,174;    1,823;    0,864
780,379;24734,138;    0,005;    1,136
780,946;25000,737;    1,005;   -0,773
781,513;25334,246;   -1,450;    0,318
782,080;24702,845;   -0,086;    2,864
782,647;25481,172;   -0,268;    3,045
783,214;25028,590;   -0,177;    3,864
783,781;24640,917;   -0,723;   -0,682
784,348;24516,880;   -0,632;    1,500
784,915;24965,753;   -3,177;    0,318
785,482;24729,352;    1,368;    2,591
786,049;25180,497;    0,186;   -0,591
786,615;25308,188;    0,277;   -0,955
787,182;25013,333;    0,186;   -0,682
787,749;24679,751;   -2,814;    1,409
788,315;24035,441;   -1,632;   -0,409
788,882;24296,041;    1,550;   -1,227
789,448;25029,731;    1,732;   -0,955
790,015;25029,331;    1,095;    3,227
790,581;24628,112;    1,459;    0,227
791,148;24526,712;    0,641;    1,045
791,714;24680,312;   -0,541;    3,136
792,280;24374,911;    0,186;    1,591
792,847;23980,329;    0,550;    2,500
793,413;24511,747;   -0,269;   -0,318
793,979;24076,528;    3,459;   -1,318
794,545;24163,855;    4,459;    2,682
795,111;23552,273;    2,186;    1,318
795,678;23753,236;    0,731;   -1,682
796,244;23385,199;    3,368;    0,136
796,810;23966,981;    1,731;    0,773
797,375;23693,490;    0,549;   -2,136
797,941;23692,635;   -0,541;    0,591
798,507;23824,507;   -0,451;   -0,955
799,073;23358,107;   -0,360;    0,591
799,639;23402,433;   -2,632;    3,136
800,205;23444,851;    0,095;    2,682
800,770;22959,087;    0,640;    1,773
801,336;23102,960;    1,368;   -0,955
801,901;22769,286;    4,549;    3,136
802,467;23325,795;   -0,542;    2,045
803,033;22606,304;   -0,087;    0,864
803,598;22915,085;    1,913;   -1,045
804,163;22914,594;    1,095;   -0,318
804,729;22920,557;   -0,178;    1,136
805,294;23294,430;    0,822;    2,227
805,859;23050,029;    0,731;   -0,409
806,425;22552,720;    1,186;    2,682
806,990;22199,865;    2,186;    4,318
807,555;22669,737;   -1,451;    2,591
808,120;22578,155;    0,822;   -0,409
808,685;22626,209;    0,185;   -2,500
809,250;22136,990;    0,004;   -0,500
809,815;22429,590;    1,913;    0,682
810,380;22980,553;   -0,269;    1,591
810,945;23531,698;   -1,087;    2,045
811,510;22657,753;    2,094;    1,591
812,075;22381,534;   -0,633;   -1,409
812,640;22449,134;    2,003;    1,409
813,204;22468,370;    0,822;   -0,227
813,769;22950,242;    2,094;   -0,045
814,334;22364,569;    0,458;    0,864
814,898;22460,350;    0,367;    0,591
815,463;22347,404;    1,276;   -0,773
816,027;22322,822;   -0,724;   -2,318
816,592;22329,967;    0,640;   -2,045
817,156;21889,749;    2,094;    1,136
817,721;21793,348;    4,276;    2,318
818,285;21717,221;    2,912;    1,500
818,849;22297,093;   -1,451;    1,682
819,414;22186,420;   -0,269;    2,955
819,978;21774,474;   -1,269;    1,773
820,542;22412,074;    2,003;    0,500
821,106;22089,310;   -0,815;    0,682
821,670;22204,091;   -0,815;    2,591
822,234;21950,509;   -0,270;    1,409
822,798;21295,927;    0,003;    0,500
823,362;21263,708;   -0,633;    4,227
823,926;20592,944;    0,094;    1,136
824,490;20811,725;   -0,997;   -0,682
825,054;21282,507;   -0,088;   -1,136
825,618;20931,379;   -1,542;   -1,500
826,181;20875,342;    0,458;   -1,318
826,745;20798,851;    1,367;   -1,045
827,309;21119,814;    1,185;    1,318
827,872;20495,323;    1,367;    0,955
828,436;21475,014;    1,185;   -0,773
828,999;21521,613;   -0,997;    1,227
829,563;20307,758;   -0,179;    1,136
830,126;20127,176;   -0,179;   -0,591
830,690;20148,230;   -1,997;    2,864
831,253;19725,103;   -0,543;    2,227
831,816;19857,975;   -1,906;    0,500
832,380;19764,756;    0,185;    0,864
832,943;20001,992;   -1,361;   -0,500
833,506;19435,137;    2,639;   -1,227
834,069;20213,282;    3,912;   -0,955
834,632;20300,609;    1,730;    1,318
835,195;20216,391;    1,003;    0,955
835,758;19361,263;   -0,997;    1,955
836,321;19212,226;    0,730;   -1,045
836,884;19286,826;   -0,725;   -0,955
837,447;19328,426;   -2,816;    1,773
838,010;19640,116;    0,366;    3,227
838,573;19955,261;   -1,179;    0,773
839,135;19900,497;   -1,361;   -0,955
839,698;19365,733;    1,275;    0,409
840,261;18902,878;    1,003;   -0,227
840,823;18718,023;   -0,543;    0,864
841,386;18969,532;   -0,452;   -2,409
841,948;18853,950;   -1,361;    1,773
842,511;18593,095;    0,912;    1,682
843,073;18769,240;    1,912;    0,227
843,636;18536,658;   -0,361;   -0,227
844,198;18526,530;    0,911;    0,591
844,760;18650,402;    1,093;    1,955
845,322;18275,366;    0,548;    1,136
845,885;18691,056;    0,730;    0,591
846,447;19113,292;   -1,998;    0,227
847,009;18725,983;    1,911;   -0,682
847,571;19050,128;    0,820;   -2,045
848,133;19145,455;   -1,089;   -1,864
848,695;18972,691;   -0,543;    1,409
849,257;18524,472;   -1,089;   -1,682
849,819;18673,344;   -0,998;   -0,409
850,381;18730,308;   -0,725;   -0,864
850,942;19092,180;    1,093;   -0,591
851,504;19113,870;    1,184;    0,227
852,066;19084,288;    1,275;   -1,591
852,628;18579,251;   -0,180;    1,955
853,189;18190,851;    1,638;    2,682
853,751;18304,814;   -0,907;    1,409
854,312;18074,687;   -0,453;   -1,682
854,874;18602,104;   -2,089;   -0,773
855,435;19125,159;   -0,907;   -1,682
855,997;19329,122;   -1,816;   -0,136
856,558;18584,631;    0,366;    1,773
857,119;18692,776;    0,820;    2,864
857,681;18348,830;    0,002;    0,318
858,242;18407,066;    1,911;   -2,136
858,803;18858,756;    0,456;   -0,773
859,364;19411,083;    0,184;   -4,773
859,925;18748,683;   -2,453;   -0,955
860,486;18607,646;   -0,453;   -0,955
861,047;18338,791;   -0,544;   -1,227
861,608;18162,663;   -1,089;   -0,773
862,169;18256,445;    0,638;   -0,045
862,730;18048,681;    0,456;    1,409
863,291;18306,008;   -0,635;   -0,500
863,852;18666,426;   -0,635;    1,955
864,412;18093,298;   -0,271;   -0,864
864,973;16681,625;   -0,089;    0,500
865,534;16602,952;   -1,726;    0,227
866,094;18101,188;    1,820;    0,227
866,655;17764,424;    1,274;    3,318
867,215;18013,296;    0,274;    0,136
867,776;17852,714;    0,547;   -0,136
868,336;17960,950;   -1,453;    0,136
868,897;17467,186;    2,638;    1,682
869,457;17197,513;    1,365;    0,318
870,017;17391,385;    0,547;   -1,227
870,578;17930,985;   -0,817;    0,773
871,138;17602,766;   -2,089;   -0,955
871,698;17154,911;   -0,817;   -1,318
872,258;17038,692;   -0,453;   -2,864
872,818;17445,110;    2,729;    0,045
873,378;17383,619;    0,638;    1,045
873,938;16896,582;    0,547;    0,500
874,498;17260,545;    0,274;   -1,955
875,058;17201,691;    2,183;    1,773
875,618;16978,472;    1,910;   -2,682
876,177;16926,617;    1,274;    0,136
876,737;16545,489;   -0,090;    1,955
877,297;16577,362;    0,183;    1,955
877,856;16589,325;   -0,362;    0,318
878,416;16502,925;    1,183;   -0,136
878,976;16732,433;   -1,817;    0,409
879,535;16921,487;    0,092;    3,136
880,095;16641,723;   -0,544;    0,045
880,654;16764,596;   -1,090;    1,318
881,213;16886,650;    2,456;    1,500
881,773;16515,704;    2,637;    2,682
882,332;16928,395;    3,365;    5,136
882,891;16769,085;    3,092;    2,136
883,451;17195,048;   -1,272;    1,682
884,010;16612,193;   -2,908;   -0,409
884,569;16706,429;   -0,999;   -0,045
885,128;16873,574;    2,819;   -1,864
885,687;16941,810;    4,455;    0,682
886,246;16670,137;    1,455;    2,136
886,805;16407,373;    2,455;    2,045
887,364;16675,791;   -0,999;   -0,500
887,922;17045,482;   -1,181;    0,045
888,481;16535,263;   -1,545;    0,591
889,040;16822,499;    1,183;    2,136
889,599;17524,553;    2,455;    1,409
890,157;17575,516;    1,455;    2,409
890,716;17248,934;   -0,090;    0,227
891,274;17035,261;    0,092;   -1,136
891,833;17485,952;    1,546;    0,864
892,391;17378,915;   -0,454;    0,500
892,950;17420,878;    1,819;   -0,773
893,508;17790,296;    0,455;   -0,409
894,067;17130,259;    0,637;    0,136
894,625;17055,859;   -0,636;   -1,500
895,183;17282,367;   -0,363;   -0,682
895,741;17153,513;    1,728;   -1,773
896,299;17007,567;   -0,545;   -2,409
896,858;17153,439;    0,819;   -1,591
897,416;17329,675;    2,728;   -1,318
897,974;17078,093;    1,819;    0,318
898,532;17251,420;    6,091;    2,682
899,089;17147,656;    2,091;   -0,682
899,647;17186,073;   -1,454;    1,318
900,205;16944,218;    1,182;    1,045
900,763;17088,273;   -0,454;    0,227
901,321;17087,963;    2,364;   -1,409
901,878;16522,472;   -1,000;   -0,773
902,436;16435,071;   -1,363;    1,318
902,994;16826,126;    4,728;    3,682
903,551;16215,453;    0,728;    0,409
904,109;16580,598;    0,182;   -1,409
904,666;16151,379;    2,455;    1,045
905,224;15984,524;    0,182;   -0,409
905,781;15794,487;    0,727;   -0,318
906,338;15870,269;   -1,363;    1,045
906,895;15780,505;    0,637;    2,045
907,453;15700,104;    1,727;    1,136
908,010;15791,340;   -0,909;    0,409
908,567;15438,758;    1,273;    0,591
909,124;14891,903;    0,364;   -1,500
909,681;14963,139;   -2,909;    0,682
910,238;15103,921;    0,636;   -1,318
910,795;15395,611;   -0,273;   -1,136
911,352;15003,702;   -2,909;   -2,682
911,909;14461,884;   -1,364;   -0,864
912,466;14990,702;   -3,182;    1,500
913,022;14523,611;   -1,636;    0,500
913,579;14886,247;   -0,909;    2,045
914,136;14563,338;    1,636;    0,955
914,692;14925,611;    0,091;   -1,227
915,249;14509,429;    1,455;    0,409
915,806;14749,247;    0,182;    1,955
916,362;14491,066;    1,909;    1,864
916,918;14054,611;    2,000;    1,045
917,475;14042,338;   -1,182;    0,955
918,031;14113,975;    3,364;   -0,045
918,587;13565,793;   -0,909;   -0,318
919,144;13772,157;   -2,273;    0,227
919,700;14071,611;    1,727;    0,773
920,256;13610,429;    0,727;    0,045
920,812;13260,884;   -0,727;   -1,045
921,368;13319,338;   -1,727;   -1,045
921,924;12915,884;    0,182;   -0,136
922,480;12519,338;   -0,545;    1,227
923,036;13108,520;    1,273;    1,955
923,592;13052,338;    0,455;    0,318
924,148;12924,247;    0,455;   -0,955
924,704;12256,611;   -1,364;   -0,409
925,259;12504,793;   -0,273;    0,591
925,815;12301,247;    1,455;    0,500
926,371;11819,611;    2,909;    1,409
926,926;11707,884;    2,091;    0,591
927,482;11364,247;   -1,364;    0,773
928,037;11213,247;    0,909;    2,045
928,593;11491,520;    1,636;    1,045
929,148;11332,975;   -1,818;   -1,500
929,704;10846,520;   -1,455;   -0,500
930,259;11059,702;    0,091;   -0,136
930,814;10101,157;   -0,818;    1,955
931,369; 9812,429;    1,091;   -0,773
931,925; 9665,884;   -0,091;    0,136
932,480; 9565,611;   -2,818;   -2,591
933,035; 9467,338;    0,545;   -0,318
933,590; 9271,066;    0,364;   -1,773
934,145; 8879,975;   -1,364;   -0,318
934,700; 9194,884;    0,455;   -0,591
935,255; 9056,702;   -0,091;    0,045
935,809; 8336,066;    3,182;    0,864
936,364; 7442,066;   -0,455;   -0,136
936,919; 7409,611;    0,455;   -1,773
937,474; 7281,429;    1,455;    0,136
938,028; 7038,157;   -1,636;    1,136
938,583; 6538,157;    1,818;    4,682
939,138; 6810,702;    2,091;    2,136
939,692; 6228,247;    1,636;   -1,136
940,247; 5952,702;   -0,727;   -1,045
940,801; 5504,611;   -0,636;    0,227
941,355; 5382,157;   -0,364;    2,591
941,910; 5048,702;   -0,273;   -2,136
942,464; 5140,611;   -0,818;   -0,318
943,018; 4959,611;    1,000;   -0,227
943,572; 4920,429;    2,545;   -0,682
944,126; 4356,429;    0,091;   -0,409
944,681; 4241,520;    3,091;    0,227
945,235; 4210,975;    1,000;   -0,591
945,789; 4164,066;    0,364;   -1,864
946,342; 4264,975;    0,455;   -0,591
946,896; 4067,793;   -2,273;    0,955
947,450; 3815,157;    1,545;   -0,227
948,004; 4037,520;    1,727;   -0,045
948,558; 4019,975;    0,273;   -0,864
949,111; 3954,975;   -0,273;   -0,318
949,665; 3994,611;    1,636;   -0,682
950,219; 3857,975;   -0,091;   -1,045
950,772; 3936,157;   -1,909;    1,864
951,326; 3836,066;    0,545;   -0,955
951,879; 3935,429;    0,727;   -2,318
952,433; 3963,884;    0,000;    2,227
952,986; 3790,520;    2,909;    0,682
953,539; 3751,066;   -0,273;    0,591
954,093; 3692,793;    0,545;   -1,318
954,646; 3819,884;    0,909;    1,318
955,199; 3632,066;    0,000;   -0,500
955,752; 3536,975;   -0,455;    1,773
956,305; 3476,611;   -0,091;    2,955
956,858; 3655,338;    0,818;   -0,318
957,411; 3818,429;   -0,545;    2,136
957,964; 3656,157;    1,364;    2,136
958,517; 3631,884;   -1,545;    3,136
959,070; 3467,793;   -0,455;    1,955
959,623; 3549,793;    1,091;    1,500
960,176; 3332,157;    1,727;    2,045
960,728; 3300,429;   -2,727;    0,773
961,281; 3346,157;    0,545;    0,500
961,834; 3391,884;   -0,909;    0,864
962,386; 3298,066;    1,727;    1,045
962,939; 3236,247;    0,364;   -0,318
963,491; 3375,975;    0,455;    1,136
964,043; 3253,520;    1,182;    2,409
964,596; 3377,884;   -1,000;    2,227
965,148; 3210,611;   -1,000;    1,773
965,700; 3118,157;    1,091;   -0,227
966,253; 3282,884;   -0,636;    0,318
966,805; 3126,247;   -2,273;    0,773
967,357; 3161,157;    1,091;   -1,500
967,909; 3136,884;    0,455;   -1,227
968,461; 3231,793;    0,545;    3,136
969,013; 3162,157;   -0,182;   -0,864
969,565; 3257,247;   -0,455;   -1,136
970,117; 3322,429;   -0,364;    1,045
970,669; 3138,793;    0,182;   -0,136
971,220; 2985,429;   -0,455;   -1,500
971,772; 2928,793;   -0,636;   -0,318
972,324; 3054,884;    0,091;   -0,500
972,876; 3001,975;    0,818;   -0,045
973,427; 3151,975;    1,909;   -1,045
973,979; 3113,520;   -0,727;   -2,500
974,530; 3139,338;    1,818;    1,318
975,082; 3132,520;   -0,545;    1,682
975,633; 3038,702;    1,091;    1,682
976,184; 3180,611;    0,909;    0,773
976,736; 2981,429;    0,091;    0,227
977,287; 2763,157;   -0,909;   -0,500
977,838; 2948,611;    0,909;   -0,318
978,389; 3011,338;   -1,000;   -0,500
978,940; 2895,066;    0,545;   -0,409
979,491; 2914,066;    0,091;   -0,500
980,042; 2891,793;    0,182;    3,045
980,593; 2944,702;   -2,545;    0,227
981,144; 2979,793;    2,545;   -0,500
981,695; 2951,520;    1,455;    1,500
982,246; 2922,793;   -0,273;    1,045
982,797; 3079,611;   -1,727;    0,682
983,347; 3167,520;    0,364;    0,591
983,898; 3336,429;    3,091;    0,409
984,449; 3149,157;    2,182;    0,773
984,999; 3064,884;    1,455;   -1,136
985,550; 2841,157;    0,182;   -0,318
986,100; 2848,066;   -0,455;   -0,318
986,651; 2892,793;   -0,818;    0,045
987,201; 2883,338;   -1,000;   -0,591
987,751; 2964,338;    0,818;    2,864
988,302; 2946,157;    2,636;    1,500
988,852; 2962,884;    0,455;   -1,136
989,402; 3010,520;    0,091;    0,682
989,952; 2929,611;   -2,182;    0,864
990,502; 3033,520;   -0,091;    0,682
991,052; 2982,975;   -0,727;    0,045
991,602; 2845,702;   -2,909;    1,318
992,152; 2868,975;    0,455;    0,682
992,702; 2856,429;    1,364;   -0,045
993,252; 2764,884;   -3,000;   -0,500
993,802; 2869,429;   -0,273;    1,318
994,352; 3110,247;   -1,545;    1,136
994,901; 3186,884;   -0,182;    3,227
995,451; 3085,702;   -0,182;    0,318
996,000; 3174,157;    1,636;    0,318
996,550; 2916,429;    2,273;    0,227
997,100; 2896,884;    1,273;   -0,045
997,649; 3171,429;    2,182;    0,955
998,198; 2811,793;    1,727;   -1,500
998,748; 3012,975;    1,091;   -2,318
999,297; 2916,793;   -0,818;   -0,409
999,846; 2972,429;    1,000;   -0,773
1000,395; 3008,884;   -0,818;    0,500
1000,945; 2971,157;    1,818;   -0,773
1001,494; 3059,975;    2,364;    0,682
1002,043; 3046,066;    4,636;    0,864
1002,592; 2883,429;   -1,091;    1,955
1003,141; 3045,520;   -0,455;   -0,682
1003,690; 2914,066;    1,727;    0,500
1004,238; 2969,066;    1,455;   -0,045
1004,787; 2622,338;    1,364;    1,227
1005,336; 2855,338;    0,364;    0,682
1005,885; 2986,520;    1,364;   -2,773
1006,433; 3124,429;    0,545;    0,955
1006,982; 3197,066;    0,455;    1,682
1007,531; 3095,884;   -1,818;   -0,227
1008,079; 3039,338;   -2,273;    0,500
1008,627; 3177,702;   -1,455;    0,409
1009,176; 2914,520;    0,000;   -1,955
1009,724; 2973,429;    1,091;    0,864
1010,273; 3019,247;    1,273;    0,500
1010,821; 3114,429;    0,091;    1,409
1011,369; 2861,247;   -1,364;    1,318
1011,917; 2841,975;   -1,364;   -0,591
1012,465; 3118,429;    1,273;   -1,591
1013,013; 3214,338;    2,091;   -1,682
1013,561; 3099,975;    0,455;   -0,773
1014,109; 3160,338;   -1,909;    1,682
1014,657; 3060,247;    0,364;    0,591
1015,205; 3164,975;    1,636;   -0,955
1015,753; 3199,793;   -0,545;   -1,409
1016,301; 3245,247;   -2,636;    3,045
1016,848; 3233,520;   -1,273;    0,409
1017,396; 3274,975;    2,545;    0,045
1017,944; 3406,247;    1,182;    1,864
1018,491; 3154,611;    0,273;    1,409
1019,039; 3327,247;    0,455;    0,591
1019,586; 3229,157;   -1,364;    1,682
1020,134; 3318,611;    0,455;    1,500
1020,681; 3347,884;    0,182;   -1,136
1021,228; 3344,338;    2,909;   -2,227
1021,776; 3171,338;    1,182;   -1,136
1022,323; 3403,702;    0,455;    0,773
1022,870; 3321,520;   -1,000;   -0,045
1023,417; 3215,066;    2,636;    1,864
1023,964; 3348,338;    2,636;    1,227
1024,511; 3221,157;    1,000;    0,773
1025,058; 3017,702;    3,182;   -0,045
1025,605; 3073,157;   -2,273;    3,136
1026,152; 3276,247;    1,727;   -0,591
1026,699; 3010,884;    1,818;    1,318
1027,245; 3165,702;   -0,091;    0,318
1027,792; 3381,247;   -1,000;    1,409
1028,339; 3272,793;    2,364;   -0,045
1028,885; 3109,247;    1,000;   -0,227
1029,432; 3037,975;   -0,091;    0,227
1029,978; 3112,793;   -1,000;   -1,591
1030,525; 3022,429;    1,000;    0,409
1031,071; 3249,884;   -1,364;    1,136
1031,618; 3370,975;    0,364;    1,682
1032,164; 3132,520;   -0,091;    3,045
1032,710; 3178,157;    1,636;   -1,500
1033,256; 3108,066;   -0,636;   -0,136
1033,803; 3099,793;   -0,545;    1,500
1034,349; 2805,429;   -1,364;    0,136
1034,895; 2943,429;    0,000;   -0,318
1035,441; 2940,429;   -0,818;    0,318
1035,987; 2929,702;   -2,364;   -0,682
1036,533; 2935,429;   -1,455;   -0,955
1037,078; 3158,884;    1,455;    1,682
1037,624; 2974,429;    2,455;   -0,955
1038,170; 2987,520;    0,455;   -0,318
1038,716; 2910,793;    1,636;   -0,409
1039,261; 2801,975;   -2,273;   -0,773
1039,807; 2747,157;   -0,091;    3,409
1040,352; 2831,247;   -1,909;   -0,318
1040,898; 2877,884;   -1,545;   -0,682
1041,443; 2787,884;   -1,455;   -2,591
1041,989; 2809,066;    1,091;    1,591
1042,534; 2685,066;   -0,364;    2,591
1043,079; 2769,793;    2,909;    0,955
1043,625; 2577,702;    1,818;    0,500
1044,170; 2626,793;   -1,364;    1,045
1044,715; 2890,157;    2,455;    0,955
1045,260; 2692,611;    2,182;   -0,955
1045,805; 2729,066;    1,182;   -0,591
1046,350; 2669,884;    1,364;   -0,409
1046,895; 2649,066;    2,909;    1,591
1047,440; 2598,884;    5,364;    0,409
1047,985; 2470,975;    2,818;   -0,955
1048,530; 2396,338;    1,545;    1,227
1049,074; 2465,338;    0,000;    0,318
1049,619; 2437,520;   -1,364;    1,955
1050,164; 2248,066;    0,455;    0,227
1050,708; 2296,611;   -0,455;    0,045
1051,253; 2665,702;    1,273;   -2,227
1051,797; 2355,338;    0,818;   -1,318
1052,342; 2366,429;   -1,182;    1,045
1052,886; 2380,429;    0,364;   -1,409
1053,430; 2250,520;   -1,364;    0,136
1053,975; 2272,429;   -0,818;   -0,318
1054,519; 2270,702;   -0,727;    3,227
1055,063; 2274,157;    0,909;    1,318
1055,607; 2157,429;   -0,182;    0,227
1056,151; 2181,157;    2,909;    1,682
1056,695; 2079,520;    2,273;   -1,136
1057,239; 2153,520;   -1,727;   -0,682
1057,783; 2177,520;    0,818;   -1,500
1058,327; 2123,066;    0,000;    1,409
1058,871; 2361,066;   -0,545;    1,318
1059,415; 2060,247;   -0,818;   -0,045
1059,958; 2332,247;    1,455;    2,591
1060,502; 2047,611;   -1,000;   -0,773
1061,046; 1941,884;    0,364;   -0,955
1061,589; 1932,702;   -3,000;   -1,136
1062,133; 1817,975;   -1,273;    1,864
1062,676; 1769,429;    1,182;    0,864
1063,220; 1759,066;    1,091;    0,500
1063,763; 1784,975;    0,909;    1,136
1064,306; 1865,429;   -0,909;    1,864
1064,849; 1753,793;   -0,909;    0,591
1065,393; 1757,520;    2,000;   -1,500
1065,936; 1863,884;    0,182;   -0,409
1066,479; 1743,611;   -1,455;    1,318
1067,022; 1770,520;   -0,273;   -0,227
1067,565; 1661,975;   -0,091;   -1,318
1068,108; 1683,793;    0,727;   -0,591
1068,651; 1661,975;   -0,636;    1,409
1069,194; 1598,429;   -0,455;   -1,682
1069,736; 1607,066;   -1,273;    0,955
1070,279; 1578,066;   -1,364;   -0,500
1070,822; 1638,975;   -2,000;   -0,318
1071,364; 1735,884;   -0,364;    1,318
1071,907; 1541,247;   -0,727;    3,227
1072,450; 1438,247;    0,000;   -0,045
1072,992; 1429,338;   -0,273;    3,136
1073,535; 1580,429;    2,091;    2,136
1074,077; 1372,793;   -0,727;    2,045
1074,619; 1327,247;   -1,364;    0,591
1075,161; 1381,429;   -1,091;    1,500
1075,704; 1573,975;    1,545;    1,227
1076,246; 1340,338;   -0,182;    0,682
1076,788; 1281,157;   -0,364;    1,773
1077,330; 1351,611;    1,273;    2,136
1077,872; 1320,793;    0,909;    0,955
1078,414; 1562,247;    2,727;    0,773
1078,956; 1274,611;    1,273;   -0,227
1079,498; 1552,247;    1,636;    0,318
1080,040; 1259,429;    1,909;   -1,318
1080,581; 1197,157;    1,636;   -0,318
1081,123; 1121,429;    0,091;   -0,773
1081,665; 1168,884;   -1,182;   -0,955
1082,206; 1469,157;    1,364;   -0,500
1082,748; 1335,702;    0,727;    2,045
1083,289; 1195,702;   -2,000;    1,318
1083,831; 1106,884;   -0,545;    0,227
1084,372; 1154,520;    0,000;    0,591
1084,913; 1158,429;    1,091;    0,864
1085,455; 1111,247;   -1,909;   -2,045
1085,996; 1086,793;   -2,273;    0,136
1086,537; 1109,066;   -0,091;    0,864
1087,078; 1142,338;   -0,909;   -2,136
1087,619; 1178,429;   -1,273;    0,227
1088,160; 1094,157;    0,000;    1,318
1088,701; 1094,793;   -1,091;    0,682
1089,242; 1031,793;    1,364;   -2,227
1089,783; 1138,066;   -0,273;    1,409
1090,324; 1096,975;    0,455;    0,682
1090,865;  966,157;    2,727;   -0,409
1091,405;  932,247;    0,727;    2,227
1091,946;  969,702;    0,182;   -0,955
1092,487;  877,702;    0,818;   -1,409
1093,027; 1067,975;   -1,364;   -1,500
1093,568;  920,611;   -0,364;    1,227
1094,108; 1012,884;    0,273;    1,773
1094,649;  943,247;   -1,182;    0,136
1095,189;  886,793;   -0,636;   -0,682
1095,729;  832,066;   -0,091;    0,955
1096,269;  822,702;    0,727;   -0,955
1096,810; 1159,429;   -1,364;    0,500
1097,350;  987,611;    1,364;   -0,773
1097,890;  883,611;    0,364;    1,227
1098,430; 1146,247;    2,364;    2,864
1098,970; 1022,611;    2,182;    1,682
1099,510;  868,975;    0,545;   -2,318
1100,050;  802,429;    1,000;   -1,591
1100,589;  762,066;   -0,727;   -0,318
1101,129;  897,702;    0,818;   -0,955
1101,669; 1059,520;    1,727;    2,136
1102,209;  869,338;   -0,091;    2,227
1102,748;  818,066;    0,000;    0,955
1103,288;  817,247;    1,273;   -1,227
1103,827;  851,066;    3,091;   -2,227
1104,367;  715,066;   -0,091;   -2,409
1104,906;  677,066;    1,364;   -1,136
1105,445;  760,066;    0,636;   -1,136
1105,985;  716,338;   -0,727;    1,500
1106,524;  767,247;   -1,727;   -0,682
1107,063;  732,884;   -2,727;    1,409
1107,602;  705,975;   -1,909;   -1,500
1108,141;  608,429;   -1,909;    1,500
1108,680;  719,429;   -3,455;   -0,591
1109,219;  648,975;   -0,909;   -0,500
1109,758;  648,338;    0,455;    0,682
1110,297;  624,520;    1,000;   -0,682
1110,836;  576,793;   -0,727;    0,955
1111,375;  762,611;   -2,545;    0,409
1111,913;  770,975;   -1,000;    0,773
1112,452;  696,975;   -0,273;    0,136
1112,991;  565,793;    1,091;    1,955
1113,529;  527,611;   -0,818;   -0,045
1114,068;  613,611;   -0,273;    2,955
1114,606;  502,157;   -0,364;   -0,955
1115,144;  670,520;   -1,273;    1,045
1115,683;  600,247;   -0,727;    0,318
1116,221;  653,247;   -0,455;   -0,864
1116,759;  561,793;    0,636;   -0,864
1117,297;  774,520;    0,000;    1,864
1117,836;  578,884;   -2,182;   -1,227
1118,374;  588,157;    0,182;   -0,682
1118,912;  517,975;    0,909;    2,682
1119,450;  511,429;    1,000;    0,864
1119,988;  558,247;    1,545;    2,136
1120,525; 1021,247;    5,091;    3,318
1121,063;  719,702;    1,182;    1,864
1121,601;  521,975;   -0,909;   -1,227
1122,139;  471,338;   -0,727;   -2,045
1122,676;  682,338;   -0,727;    2,773
1123,214;  606,793;   -1,182;    4,409
1123,751;  419,702;    1,727;    2,227
1124,289;  558,611;   -0,091;   -0,409
1124,826;  420,157;    1,727;    0,227
1125,364;  339,247;    1,727;   -0,955
1125,901;  528,702;    1,182;    1,227
1126,438;  653,702;    0,818;    0,955
1126,975;  362,611;   -0,727;   -0,773
1127,513;  440,066;    0,273;    2,136
1128,050;  347,066;    1,636;   -0,682
1128,587;  446,611;    2,000;   -0,227
1129,124;  498,429;    0,091;    1,318
1129,661;  356,066;    0,273;    0,227
1130,198;  534,157;    1,636;    0,773
1130,734;  468,520;    0,182;    1,409
1131,271;  324,247;   -0,909;    0,864
1131,808;  499,520;    2,909;    3,045
1132,345;  368,611;    1,545;    0,318
1132,881;  235,611;   -1,545;   -1,864
1133,418;  385,884;    0,727;   -1,136
1133,954;  318,520;    2,455;   -2,682
1134,491;  407,066;    1,364;   -0,773
1135,027;  300,066;    2,364;    0,864
1135,564;  384,975;    0,273;    2,955
1136,100;  371,702;    0,364;    2,136
1136,636;  257,338;   -1,273;   -1,045
1137,172;  364,884;    0,000;   -1,045
1137,708;  280,520;   -1,364;   -1,045
1138,245;  279,702;    1,273;   -1,227
1138,781;  225,520;    1,091;   -3,318
1139,317;  304,157;    1,273;   -1,409
1139,852;  294,157;    3,091;    0,136
1140,388;  416,702;   -1,182;   -0,409
1140,924;  295,793;   -1,091;   -2,227
1141,460;  227,247;   -1,636;    0,136
1141,996;  152,338;   -1,364;    2,682
1142,531;  213,066;    1,364;    3,318
1143,067;  431,884;    1,182;    1,045
1143,602;  487,520;   -0,091;   -0,318
1144,138;  327,793;   -2,636;    1,045
1144,673;  185,338;   -1,455;    1,409
1145,209;  266,247;   -1,909;   -0,318
1145,744;  185,066;   -0,727;    0,864
1146,279;  324,975;    1,818;   -0,136
1146,815;  232,157;    1,545;   -2,682
1147,350;  276,338;   -1,364;    0,045
1147,885;  188,157;   -0,818;   -1,318
1148,420;  184,157;   -2,273;    0,773
1148,955;  161,429;   -1,727;    1,864
1149,490;  197,520;   -0,909;   -1,591
1150,025;  177,157;    0,455;   -1,773
1150,560;  293,793;    1,091;   -0,955
1151,094;  258,520;    1,455;   -0,591
1151,629;  265,793;    1,636;    0,864
1152,164;  188,611;    1,364;    1,318
1152,698;  153,520;   -0,182;   -0,136
1153,233;  100,429;    0,091;   -0,682
1153,767;  147,157;   -3,000;   -2,318
1154,302;  199,338;   -1,455;    1,773
1154,836;  203,429;   -0,455;   -2,136
1155,371;  261,975;   -1,364;    3,682
1155,905;  210,702;   -0,636;    1,682
1156,439;  174,975;   -0,636;   -0,500
1156,973;  211,157;    0,364;    0,318
1157,507;  144,702;   -0,364;    0,682
1158,042;  178,157;   -0,727;    1,045
1158,576;  230,157;    0,182;    1,773
1159,110;  213,338;   -0,818;    2,409
1159,643;  181,793;    0,636;   -0,045
1160,177;  111,520;   -1,545;    1,500

