
Integration time [ms]:   0,040
Averaging Nr. [scans]: 11
Smoothing Nr. [pixels]: 0
Data measured with spectrometer [name]: 7318044SP
Wave   ;Sample   ;Dark     ;Reference
[nm]   ;[counts] ;[counts] ;[counts] 

186,757;   26,458;   31,551;    1,318
187,357;   68,485;   22,551;    0,955
187,958;   48,013;   15,460;   -1,591
188,558;   89,360;    8,915;   -1,227
189,159;   53,405;    6,733;   -4,500
189,759;   23,824;    7,278;   -3,591
190,360;   25,005;    2,824;   -2,136
190,960;   68,028;    2,915;   -4,136
191,560;   81,897;    3,189;   -6,591
192,161;  343,846;    4,372;   -3,500
192,761;  179,625;    4,010;   -3,227
193,361;  118,680;    1,556;   -3,773
193,962;  176,917;    2,010;   -2,682
194,562;   96,668;    1,189;   -3,955
195,162;  132,297;   -2,448;   -2,227
195,762;  303,991;   -3,176;   -0,045
196,362;  249,397;    1,370;   -2,500
196,963;   99,488;    2,006;   -0,864
197,563;  172,545;    1,551;   -0,955
198,163;  119,336;    0,096;   -0,682
198,763;  151,126;    1,733;   -0,500
199,363;  256,287;    3,096;   -0,500
199,963;  212,308;    0,369;    0,409
200,563;  183,568;    2,823;   -1,409
201,163;  166,201;    3,277;   -0,227
201,763;  260,638;    3,732;    0,318
202,363;  186,092;    1,459;    1,500
202,963;  307,757;    1,459;    1,045
203,563;  422,205;    0,277;    0,500
204,162;  254,673;    2,096;   -1,864
204,762;  251,552;    0,550;    0,591
205,362;  209,006;    3,004;    1,955
205,962;  325,743;    3,096;    1,955
206,562;  327,369;    1,823;    2,318
207,161;  284,559;   -0,087;    0,318
207,761;  446,310;    1,277;    2,409
208,361;  319,226;   -0,268;    1,409
208,960;  429,778;    0,459;    1,500
209,560;  510,835;    1,277;    1,591
210,160;  474,968;    0,550;    1,864
210,759;  431,873;    4,186;    1,227
211,359;  451,706;    1,459;    1,045
211,958;  725,342;    1,277;    2,045
212,558;  814,230;    1,732;    1,864
213,157;  657,457;    1,822;    1,500
213,757; 1106,000;    3,822;   -0,227
214,356;  789,611;    1,277;   -0,409
214,956; 1159,205;    3,095;    0,409
215,555;  756,563;    2,095;    2,136
216,154;  692,958;   -2,723;   -0,591
216,754;  697,497;    0,277;    0,773
217,353;  838,664;   -0,268;   -1,045
217,952;  692,605;   -0,178;    0,318
218,552;  944,791;    1,368;   -0,773
219,151;  829,864;    0,277;    0,955
219,750;  829,358;    0,004;   -0,227
220,349;  966,959;   -0,451;    1,045
220,948; 1039,735;   -1,360;    1,136
221,548; 1067,224;    0,913;    1,227
222,147; 1183,965;   -0,087;   -0,409
222,746; 1480,634;   -0,451;   -0,955
223,345; 1360,197;    0,731;    0,500
223,944; 1365,462;   -0,451;    0,773
224,543; 1548,780;    1,004;   -1,409
225,142; 1661,327;    0,094;    0,136
225,741; 1560,273;   -0,814;    1,045
226,340; 1607,141;   -0,451;   -0,955
226,939; 2081,686;   -0,996;   -0,136
227,538; 2042,931;   -0,360;   -0,773
228,137; 2181,262;   -0,814;    0,864
228,735; 2349,622;   -0,541;    1,227
229,334; 2099,797;   -0,905;   -0,227
229,933; 2483,413;    0,459;    0,591
230,532; 2598,461;    1,186;   -0,409
231,131; 2646,919;    1,732;    0,318
231,729; 2822,850;   -2,450;   -2,318
232,328; 2952,535;   -0,723;   -1,500
232,927; 3050,503;    1,004;   -0,500
233,525; 3189,591;    3,640;    0,045
234,124; 3419,248;    2,368;   -1,591
234,723; 3433,458;    0,913;   -1,045
235,321; 3569,846;    2,277;    0,136
235,920; 3827,217;    1,186;   -1,227
236,518; 4104,969;    3,459;    0,318
237,117; 4287,105;    0,004;   -0,227
237,715; 4480,497;    0,640;   -0,500
238,314; 4488,290;   -0,087;   -2,318
238,912; 4613,049;   -0,723;   -1,409
239,510; 4656,853;    0,459;   -1,227
240,109; 4859,143;    0,004;    3,773
240,707; 4854,674;   -0,996;    1,227
241,305; 5243,276;    0,550;    0,136
241,904; 5502,548;   -0,178;   -2,045
242,502; 5474,377;   -0,632;   -0,227
243,100; 5386,217;   -0,087;   -0,955
243,698; 5674,153;    0,732;    1,682
244,297; 5851,437;   -0,632;    0,682
244,895; 5654,567;   -0,269;   -2,318
245,493; 6017,752;    2,186;   -0,591
246,091; 6082,252;    1,368;   -1,318
246,689; 6078,976;    1,004;    0,591
247,287; 6231,577;    0,822;   -1,136
247,885; 6513,375;   -1,451;    1,227
248,483; 6621,088;    1,822;   -0,500
249,081; 6744,138;    0,185;    1,591
249,679; 6905,519;   -0,178;    1,682
250,277; 7175,078;   -1,723;    0,864
250,875; 7185,766;   -1,087;   -1,045
251,473; 7210,595;   -1,178;    0,500
252,071; 7449,451;    1,459;    1,045
252,669; 7595,189;   -1,814;    0,318
253,267; 7827,127;   -0,087;    0,773
253,864; 7807,486;   -0,360;    0,682
254,462; 7644,910;    1,640;    1,591
255,060; 7603,165;   -0,269;    1,318
255,658; 7972,735;    0,822;   -0,136
256,255; 8402,301;    0,186;   -2,045
256,853; 8229,011;   -0,269;    1,409
257,451; 8237,382;    0,822;    1,864
258,048; 8539,728;    1,822;    1,864
258,646; 8296,997;    1,731;   -1,045
259,243; 8483,193;   -0,087;    2,227
259,841; 8532,343;   -0,814;    0,318
260,438; 8397,620;   -0,087;    0,864
261,036; 9179,927;   -1,905;    1,409
261,633; 9010,651;   -0,087;    2,227
262,231; 8779,756;    2,731;   -0,045
262,828; 8851,720;   -0,905;    1,136
263,425; 8915,266;    0,913;   -0,591
264,023; 9198,347;    0,186;    0,045
264,620; 8762,354;   -0,360;   -0,318
265,217; 9110,193;   -2,087;    3,136
265,815; 9181,858;   -1,905;    2,136
266,412; 8976,927;    0,731;    0,136
267,009; 9073,923;   -1,451;    0,773
267,606; 8913,361;    0,822;   -0,955
268,203; 8899,245;   -0,269;   -0,591
268,801; 9205,399;    1,731;    0,591
269,398; 9496,053;   -0,360;    2,500
269,995; 9472,357;    0,277;    1,591
270,592; 9230,374;   -0,632;   -0,500
271,189; 9436,358;    0,186;    0,409
271,786; 9552,937;   -0,632;    1,227
272,383; 9398,570;   -1,087;    0,227
272,980; 9625,717;    0,277;    0,318
273,577;10094,059;    0,004;    1,227
274,174; 9623,105;    0,822;    2,591
274,771; 9641,553;   -0,814;   -0,773
275,367; 9804,692;    2,277;    1,409
275,964; 9742,161;    0,731;   -0,500
276,561; 9851,291;    1,549;   -1,045
277,158;10072,428;    0,095;   -1,773
277,755;10204,501;    2,185;    0,409
278,351; 9574,539;   -0,451;   -1,500
278,948; 9905,466;   -0,815;    0,045
279,545; 9878,637;   -1,360;    2,318
280,141;10534,186;   -1,723;   -2,045
280,738;10460,546;   -0,451;   -0,136
281,334;10683,781;   -1,633;    0,591
281,931;10050,683;   -0,087;   -1,318
282,528;10103,697;    0,822;   -0,500
283,124;10867,637;   -1,087;   -0,500
283,721;10757,033;   -0,451;    1,409
284,317;10589,932;    0,185;    2,500
284,913;11178,190;   -1,360;    0,591
285,510;11333,009;    0,640;   -0,318
286,106;11364,659;   -2,269;   -0,955
286,703;10970,970;   -0,360;    1,955
287,299;11123,798;   -1,451;   -0,591
287,895;11350,203;    0,822;   -1,045
288,491;11956,144;    0,186;    2,136
289,088;11687,054;   -2,360;    2,409
289,684;11743,189;   -1,723;    1,500
290,280;11741,630;    0,368;    0,682
290,876;11854,773;    1,822;    5,500
291,472;11734,550;    1,276;    2,227
292,068;11841,302;    1,367;    0,227
292,665;11535,161;    2,095;    0,773
293,261;11116,546;    0,276;    2,136
293,857;11540,259;    2,913;    2,136
294,453;11481,318;    3,550;    0,955
295,049;11358,551;   -0,268;    1,955
295,644;11374,164;    0,095;    0,136
296,240;11264,254;   -0,905;   -0,136
296,836;11305,631;   -0,995;    0,318
297,432;11586,418;    1,096;   -0,500
298,028;11641,571;    0,732;    0,773
298,624;12073,096;    1,459;    1,864
299,220;12316,215;    2,368;    0,591
299,815;11961,320;    1,005;   -0,409
300,411;11766,006;    0,914;    1,773
301,007;11788,834;    1,368;    0,227
301,602;11835,789;   -0,541;   -2,318
302,198;12031,435;    0,732;   -0,773
302,794;12351,173;    1,187;   -0,500
303,389;12476,638;   -1,177;    1,045
303,985;12556,072;    0,550;    1,409
304,580;12526,442;    1,459;    1,591
305,176;12478,883;   -3,086;    0,136
305,771;12383,583;   -1,268;   -1,227
306,367;12279,031;    4,095;    0,136
306,962;12623,880;    0,641;    1,500
307,558;12302,089;   -0,450;    0,136
308,153;12226,614;    1,095;   -1,136
308,748;12474,743;   -0,814;    1,682
309,344;12463,698;   -0,632;   -1,318
309,939;12558,244;   -1,905;   -1,318
310,534;12819,926;   -0,086;   -1,682
311,130;12732,992;    0,459;   -2,500
311,725;12444,293;    1,004;   -0,500
312,320;12784,401;    2,459;    0,045
312,915;12638,475;    1,459;   -1,045
313,510;12708,873;    1,550;   -0,500
314,105;13191,484;    1,096;    1,409
314,700;12563,603;   -3,086;   -1,045
315,295;12183,351;   -0,904;    0,045
315,890;11791,054;    1,277;    0,864
316,485;12195,845;   -0,359;   -0,318
317,080;12291,432;   -3,086;    1,591
317,675;12871,404;    2,005;   -0,682
318,270;12284,725;    5,550;    3,318
318,865;12259,085;    3,278;    3,045
319,460;12076,757;   -0,904;    0,591
320,055;12287,931;   -0,541;   -1,227
320,650;11973,791;   -1,995;   -0,591
321,244;11993,403;   -0,177;   -1,409
321,839;12940,796;   -1,541;   -0,227
322,434;12851,401;   -1,086;   -1,591
323,029;12464,956;    1,732;    1,591
323,623;12272,925;    1,550;    0,773
324,218;12041,113;    2,368;    1,409
324,812;11928,995;    1,096;    1,591
325,407;11755,303;   -0,814;    2,045
326,002;11677,915;    0,277;   -0,409
326,596;11953,411;    0,914;    1,318
327,191;12151,806;    0,823;   -1,045
327,785;11743,502;   -0,813;   -0,227
328,379;11959,383;    1,368;    0,136
328,974;11765,596;    0,914;   -3,955
329,568;11969,030;    0,186;   -2,409
330,163;11799,722;    2,096;    1,045
330,757;12162,006;    2,459;    1,591
331,351;11439,635;    0,459;    0,682
331,945;11747,442;    0,914;    1,409
332,540;11341,184;   -1,723;   -0,591
333,134;11490,891;   -1,086;    0,773
333,728;11763,880;    0,005;    0,318
334,322;12074,862;   -1,177;   -0,864
334,916;11351,807;    0,277;    0,955
335,510;11719,932;   -0,450;   -0,136
336,105;11981,624;   -1,086;    1,591
336,699;11652,104;   -1,086;    0,591
337,293;11559,677;   -1,723;    0,318
337,887;11723,432;   -2,723;    1,955
338,481;11851,394;    0,459;    0,591
339,074;12010,712;   -0,359;    2,682
339,668;11834,209;   -1,632;    1,227
340,262;12103,471;    1,732;    3,227
340,856;11580,265;    1,822;   -0,682
341,450;10957,447;    1,004;    1,864
342,044;11832,496;    1,459;    0,136
342,637;11589,052;    0,913;   -2,136
343,231;11468,717;   -2,360;    0,682
343,825;11455,555;   -1,086;   -0,591
344,419;11390,554;   -1,995;    0,500
345,012;11192,827;    2,459;    4,045
345,606;11172,138;    4,641;    1,591
346,199;10999,578;   -1,813;   -0,227
346,793;10519,711;    1,914;    2,045
347,386;10711,414;   -0,813;   -1,136
347,980;10687,246;   -0,268;   -0,045
348,573;10515,067;    2,278;    0,409
349,167;10215,154;    5,278;    4,773
349,760;10546,283;    2,914;    2,682
350,354;10523,240;   -0,813;    1,136
350,947;10250,527;    1,096;    1,682
351,540; 9920,643;   -0,358;   -1,409
352,134; 9854,860;    1,096;    1,136
352,727; 9938,955;   -0,086;    1,136
353,320; 9715,000;    0,005;    0,591
353,913; 9556,235;   -1,995;    1,864
354,507; 9773,252;    0,823;   -1,227
355,100; 9767,958;    0,460;    0,864
355,693; 9027,464;    2,005;    2,409
356,286; 9031,402;    0,823;    2,773
356,879; 9373,563;   -0,722;    1,227
357,472; 8993,150;   -0,904;    1,500
358,065; 9209,790;   -0,722;    2,500
358,658; 9140,014;   -0,540;    2,318
359,251; 8773,385;   -1,631;   -0,591
359,844; 8247,779;   -1,904;   -1,136
360,437; 8424,661;   -2,995;    0,045
361,030; 8682,808;    1,369;   -0,682
361,623; 8286,744;    2,824;    0,318
362,215; 8353,902;   -0,086;    2,045
362,808; 8152,741;   -2,358;   -1,682
363,401; 8366,594;   -2,449;    0,136
363,994; 8127,985;   -0,631;   -1,500
364,586; 7982,369;    0,824;   -1,500
365,179; 8219,064;   -0,449;   -1,136
365,772; 7709,363;   -1,995;    2,045
366,364; 8021,222;    1,915;   -3,227
366,957; 8195,333;    2,279;   -0,045
367,549; 8244,595;    2,188;   -0,864
368,142; 7902,416;    1,825;   -1,500
368,734; 8095,908;    0,734;   -2,136
369,327; 8027,295;    1,643;   -0,500
369,919; 7951,420;   -1,538;    0,409
370,512; 7745,828;   -1,083;   -0,500
371,104; 7497,312;   -0,901;    1,591
371,696; 7681,712;    1,191;   -0,955
372,289; 7758,822;    0,373;    1,136
372,881; 7911,666;   -2,080;    1,318
373,473; 7826,066;   -2,170;    1,136
374,066; 7665,544;   -0,169;    0,500
374,658; 7482,650;    0,378;    1,136
375,250; 7851,250;    0,653;   -1,409
375,842; 7684,202;    0,473;   -0,045
376,434; 7568,761;   -0,435;   -0,409
377,026; 8142,097;    0,204;   -2,500
377,618; 8059,685;   -0,158;   -0,682
378,210; 7872,285;   -0,338;   -1,955
378,802; 7730,693;    0,754;   -0,591
379,394; 7690,627;    1,846;    0,682
379,986; 8298,705;    1,393;   -0,955
380,578; 8408,757;   -0,153;    0,773
381,170; 7747,039;   -0,972;    0,045
381,762; 7716,857;    0,755;    1,409
382,354; 7884,225;   -0,065;   -1,318
382,945; 7999,362;   -2,976;    0,318
383,537; 8165,539;   -2,705;   -1,955
384,129; 8147,473;   -2,160;   -1,136
384,721; 8330,005;   -0,252;    0,955
385,312; 8252,538;   -0,161;   -0,955
385,904; 8353,219;   -2,706;    1,591
386,496; 7712,281;   -0,979;    1,045
387,087; 7886,339;    1,022;    2,500
387,679; 7935,782;   -1,160;    0,045
388,270; 8044,520;    2,840;    2,045
388,862; 8143,880;    1,295;   -0,318
389,453; 8067,936;   -0,887;    1,045
390,045; 8336,632;   -0,705;   -2,682
390,636; 8259,960;    0,204;   -0,591
391,227; 8119,352;   -0,523;   -0,045
391,819; 8225,866;    0,204;    0,773
392,410; 8337,010;    1,022;    0,045
393,001; 8239,928;   -0,979;   -1,591
393,593; 8547,921;    1,930;   -0,045
394,184; 8384,935;    1,385;   -0,409
394,775; 8333,334;    1,839;    2,136
395,366; 8516,630;    1,385;    0,773
395,957; 8529,322;    0,113;    0,136
396,548; 8807,504;   -0,342;    2,682
397,139; 9137,636;   -2,433;    0,591
397,730; 8862,137;   -1,888;    0,955
398,321; 8907,494;   -1,252;    0,955
398,912; 8934,463;   -0,615;    0,136
399,503; 9000,851;   -3,524;   -1,409
400,094; 8416,302;    0,294;    1,682
400,685; 8306,057;   -0,433;    0,045
401,276; 8400,847;    0,930;   -0,955
401,867; 8710,369;   -0,888;    0,773
402,458; 8802,809;   -2,251;   -2,318
403,048; 8764,666;    1,112;    0,591
403,639; 8384,102;    0,840;    0,864
404,230; 8642,159;    2,476;    0,318
404,821; 8563,033;   -0,615;    0,045
405,411; 8674,946;    1,203;   -2,591
406,002; 8293,614;   -1,252;   -1,136
406,592; 8161,247;    2,294;    0,045
407,183; 8423,122;    0,566;   -1,500
407,774; 8371,408;    3,475;   -0,136
408,364; 8690,254;    0,930;    0,409
408,954; 8269,171;    0,384;    1,227
409,545; 8342,342;    1,021;    1,045
410,135; 7883,440;    1,293;    0,500
410,726; 8005,466;    1,838;    0,318
411,316; 8433,762;    0,111;    0,773
411,906; 8084,235;   -0,253;   -0,409
412,497; 7572,318;   -1,070;   -0,045
413,087; 8174,933;   -1,980;   -0,227
413,677; 8560,316;   -0,707;    3,864
414,267; 8420,361;    0,656;    1,409
414,857; 8406,746;   -2,980;    4,227
415,448; 8703,437;    0,839;    0,500
416,038; 8406,850;    0,020;   -0,591
416,628; 8379,760;   -0,889;    0,409
417,218; 7840,414;    0,565;    3,318
417,808; 8087,435;    0,202;   -0,409
418,398; 8576,288;    0,020;    2,682
418,988; 8593,547;    2,020;    0,591
419,578; 8862,669;   -0,707;    1,409
420,168; 9214,060;   -1,343;   -0,955
420,757; 8779,832;   -1,343;   -1,500
421,347; 8456,715;    0,111;   -0,227
421,937; 8627,645;    2,292;    1,409
422,527; 8576,873;    0,838;   -0,773
423,116; 8368,589;   -0,253;   -0,045
423,706; 8736,785;   -1,889;    0,318
424,296; 8705,960;    1,384;    0,682
424,885; 9141,778;   -0,071;   -3,045
425,475; 9411,376;    1,474;   -2,864
426,065; 9307,219;   -0,980;   -0,318
426,654; 8935,153;   -0,435;   -0,318
427,244; 9085,785;    0,020;    1,409
427,833; 8527,397;    1,383;   -0,500
428,423; 9014,992;   -0,526;    1,136
429,012; 9758,451;   -0,344;   -1,136
429,601; 9255,441;   -1,344;    0,136
430,191; 9494,108;    1,292;    4,318
430,780; 9135,513;   -0,344;   -0,409
431,369; 9050,717;    0,746;   -0,045
431,959; 9657,948;   -1,254;    0,500
432,548; 9437,535;   -1,163;   -0,045
433,137; 9562,578;   -1,254;   -1,318
433,726;10108,819;    0,292;    0,500
434,315; 9450,274;   -0,526;    2,409
434,905; 9544,537;   -1,254;    1,409
435,494; 9430,225;    0,746;    0,955
436,083; 9898,987;   -0,981;   -0,955
436,672; 9803,302;    0,110;    0,500
437,261; 9342,257;    0,292;   -1,955
437,850; 9488,554;    1,383;    0,682
438,439; 9450,107;    3,291;    1,955
439,027; 9294,044;    3,655;    1,773
439,616; 9650,419;    2,927;    1,227
440,205; 9480,139;    0,200;   -2,136
440,794; 9556,073;    2,109;   -0,045
441,383; 9833,948;   -1,346;   -0,591
441,971; 9670,752;   -2,436;    0,591
442,560; 9556,322;    0,563;   -1,773
443,149; 9282,710;    0,379;   -1,318
443,737; 9430,076;   -0,074;   -2,318
444,326; 9716,969;    0,018;    0,318
444,915; 9773,801;   -1,982;    0,864
445,503;10188,126;   -2,891;   -0,318
446,092; 9429,609;    0,382;    2,136
446,680; 9964,571;    0,382;    0,318
447,269;10114,753;   -0,346;   -0,318
447,857; 9892,369;    0,018;   -1,773
448,445; 9979,970;    0,563;    1,318
449,034;10221,526;   -1,528;   -1,136
449,622;10342,529;   -1,073;    3,500
450,210; 9550,499;    2,017;    2,227
450,799;10135,251;    0,290;   -0,591
451,387;10050,947;    1,381;   -0,591
451,975; 9722,999;    2,654;    0,864
452,563; 9795,359;    3,472;    2,318
453,151; 9847,188;   -0,528;   -1,227
453,739; 9786,756;   -1,347;    0,136
454,328; 9609,769;    2,381;   -2,136
454,916; 9340,493;    2,562;   -0,136
455,504; 9517,290;    1,017;    1,227
456,092; 9657,094;    0,017;   -1,591
456,679; 9672,255;    1,472;    0,682
457,267; 9634,689;    4,017;    1,045
457,855; 9728,973;    1,017;    1,409
458,443; 9473,330;   -0,165;    1,682
459,031; 9642,277;    0,108;    2,409
459,619;10095,382;   -1,801;    2,864
460,206;10229,717;    0,835;    2,045
460,794;10307,798;   -2,983;   -0,227
461,382;10533,754;   -0,529;   -0,864
461,970;10102,327;    1,198;    1,864
462,557;10108,897;   -0,711;   -0,682
463,145;10336,281;   -3,165;   -1,682
463,732;10488,939;    2,016;   -1,045
464,320;10416,692;   -0,075;   -3,045
464,907;10101,992;    2,743;   -0,773
465,495; 9952,311;    0,743;   -1,227
466,082;10088,349;   -1,984;   -0,045
466,670;10010,454;   -2,529;    1,227
467,257;10409,489;   -1,711;    2,045
467,844;10574,643;   -0,075;    0,045
468,432;10594,234;    0,834;    3,500
469,019;10047,847;    0,925;   -1,773
469,606;10547,032;    0,470;    3,682
470,193;10396,763;   -1,439;    0,227
470,780; 9961,084;   -2,075;    0,864
471,368;10291,361;   -1,257;   -0,773
471,955;10084,056;    1,379;   -0,682
472,542; 9718,089;    0,652;   -1,136
473,129; 9943,410;   -0,166;    0,136
473,716; 9649,445;    1,470;    0,591
474,303; 9864,452;    0,652;   -0,864
474,890;10208,649;   -1,439;   -0,500
475,477;10207,299;   -1,621;    0,409
476,064;10083,401;    1,106;   -1,591
476,650;10028,946;    0,288;    0,318
477,237; 9849,401;   -0,258;    0,955
477,824; 9991,271;   -1,076;    0,864
478,411; 9997,530;   -1,894;   -0,318
478,997;10199,066;    0,560;   -0,773
479,584;10299,412;    1,196;   -0,409
480,171;10980,007;   -0,440;   -0,773
480,757;10632,406;    2,651;    0,773
481,344;10939,528;    0,469;    0,409
481,931;10418,418;    1,105;    1,045
482,517;11445,389;   -1,258;    0,318
483,104;12083,108;    1,106;    2,864
483,690;12353,028;   -1,804;    0,045
484,276;12633,591;   -0,895;    0,227
484,863;12364,727;    2,469;    1,136
485,449;12959,927;   -0,077;    0,318
486,035;12908,337;   -1,986;   -0,136
486,622;13328,081;   -0,895;    0,045
487,208;13284,644;    1,378;    1,500
487,794;13095,288;    0,741;    0,318
488,380;13210,862;    0,105;   -1,409
488,967;13274,181;   -1,168;   -0,409
489,553;13297,247;   -1,895;   -1,409
490,139;13492,586;    1,559;    0,773
490,725;12926,694;    0,741;   -0,227
491,311;12499,645;    3,287;    3,045
491,897;11820,747;   -0,986;    1,500
492,483;11665,716;    0,105;    1,227
493,069;11522,548;    3,923;    0,864
493,655;11540,010;    1,650;    0,682
494,241;11397,415;    1,377;   -0,955
494,826;11815,971;    0,287;   -1,045
495,412;11314,366;    2,559;   -0,682
495,998;11475,000;   -0,805;   -0,318
496,584;11598,985;    0,377;    1,045
497,169;11628,175;    1,014;   -0,682
497,755;11600,542;    0,650;    1,227
498,341;12232,716;    0,559;    0,318
498,926;11800,105;    1,832;    1,955
499,512;11971,415;    1,286;    2,955
500,097;12102,749;    0,195;   -0,318
500,683;12073,343;   -0,350;    2,136
501,268;12463,837;   -0,169;   -0,955
501,854;12160,665;   -0,169;    1,227
502,439;12094,310;   -0,624;   -1,773
503,024;12334,208;    0,195;    0,500
503,610;12423,047;   -0,078;   -0,682
504,195;12460,117;    0,558;    1,955
504,780;12593,942;    2,922;    1,227
505,366;12415,466;    3,013;    2,864
505,951;12169,639;    0,740;    1,045
506,536;12206,740;   -3,260;   -3,682
507,121;12218,002;    0,285;   -0,318
507,706;12724,467;    2,376;    1,045
508,291;13134,006;    2,649;    1,136
508,876;12621,140;   -0,988;    2,591
509,461;12089,430;   -0,169;   -0,773
510,046;12522,174;    0,194;    0,318
510,631;12769,660;   -0,351;   -0,773
511,216;12442,496;    2,467;   -0,500
511,801;12812,265;   -0,442;    2,591
512,386;13144,202;    0,740;    0,500
512,971;13100,937;   -2,988;    0,955
513,555;12668,112;   -0,897;   -1,500
514,140;13439,713;   -0,442;   -3,136
514,725;13485,612;   -0,715;   -1,136
515,309;13584,682;   -0,533;    0,318
515,894;13037,375;   -0,624;   -2,227
516,479;13500,864;   -0,624;   -0,955
517,063;13341,924;    0,376;    1,227
517,648;13491,301;    1,012;   -1,136
518,232;13135,596;   -0,261;   -1,409
518,817;13478,481;   -0,079;    1,682
519,401;13697,246;    2,194;    0,591
519,985;13181,491;    1,103;    1,136
520,570;13084,404;    0,830;   -1,955
521,154;13360,058;    2,102;    0,591
521,738;13576,248;   -2,352;    2,409
522,323;14121,492;   -0,170;    1,682
522,907;13901,206;    0,466;   -0,136
523,491;13590,671;    0,557;    0,955
524,075;13588,373;    2,284;    0,591
524,659;13669,254;    1,466;    0,591
525,243;13164,300;    1,739;    0,409
525,827;13402,527;    0,648;   -0,045
526,411;14213,163;   -1,989;   -0,136
526,995;14464,985;   -0,352;    1,409
527,579;14090,479;   -0,443;   -1,045
528,163;14355,658;    0,375;   -1,500
528,747;14270,458;    2,466;   -0,773
529,331;14595,563;   -0,080;   -1,409
529,915;14793,787;    1,738;    0,955
530,499;14754,392;   -0,807;    1,227
531,082;14466,927;   -0,534;    1,591
531,666;13915,599;    1,374;    0,773
532,250;14560,616;    1,284;    2,682
532,833;14900,004;    0,920;    2,773
533,417;14735,952;   -1,807;    0,864
534,001;14741,414;    1,647;   -0,318
534,584;15452,429;    0,374;    0,500
535,168;15318,331;    0,465;    1,409
535,751;15396,907;    0,647;    0,045
536,334;14785,484;   -0,898;   -0,409
536,918;15390,778;    0,011;    1,591
537,501;15498,100;   -0,899;    1,318
538,085;15503,851;   -0,444;    1,045
538,668;15684,282;    0,829;    2,409
539,251;16028,166;    1,829;    3,773
539,834;16016,243;    0,101;    0,773
540,418;15950,464;   -1,990;    4,318
541,001;16077,677;   -0,990;    1,773
541,584;16041,538;    2,101;    2,227
542,167;15762,419;    1,374;    2,955
542,750;15881,391;    1,919;   -0,773
543,333;15453,748;    0,555;    2,136
543,916;16296,975;    0,192;    2,500
544,499;16902,979;   -1,354;    0,227
545,082;16899,867;    1,374;    3,591
545,665;16989,325;    1,919;    1,500
546,248;17350,930;    1,010;   -0,318
546,830;17041,517;   -0,445;    1,955
547,413;17421,658;    1,010;   -0,773
547,996;17955,036;    0,555;    0,500
548,579;17761,700;    0,919;    0,955
549,161;17563,407;    1,828;    2,682
549,744;17311,708;   -0,809;    0,409
550,326;17809,624;   -0,809;   -1,136
550,909;17612,551;    2,737;    0,591
551,492;18000,148;   -0,263;    0,227
552,074;17824,792;   -0,173;   -1,318
552,657;18362,855;    2,373;    0,045
553,239;18105,055;   -0,173;   -0,773
553,821;18040,893;   -1,082;    1,045
554,404;17524,639;    1,282;    1,136
554,986;17914,772;    0,464;    1,045
555,568;18518,335;    1,191;   -0,955
556,151;17751,765;    1,191;   -0,227
556,733;17880,754;   -0,264;   -0,864
557,315;18433,230;    0,100;    0,500
557,897;18248,821;    0,554;   -0,500
558,479;18360,132;   -1,991;    1,318
559,061;18484,329;   -0,719;   -0,864
559,643;18844,885;   -0,264;    0,045
560,225;19206,677;    1,645;    2,864
560,807;19179,339;    0,918;    0,318
561,389;18655,238;    0,554;    2,318
561,971;19491,917;    0,463;    2,136
562,553;19253,182;   -1,628;    1,591
563,135;19388,839;   -0,537;    1,136
563,717;19004,077;    3,372;    1,136
564,298;19706,780;    3,645;   -0,045
564,880;19442,536;    0,645;   -1,409
565,462;19637,809;    0,645;    1,318
566,043;20795,815;   -0,446;    2,318
566,625;20321,903;    1,918;    1,227
567,207;20201,784;    1,099;    1,682
567,788;21381,075;   -1,264;    1,500
568,370;22180,040;    1,917;   -0,500
568,951;22030,068;    0,190;    0,227
569,533;22903,453;   -0,628;   -0,500
570,114;23324,606;   -0,446;    0,682
570,695;23872,561;   -0,174;   -1,318
571,277;24380,240;   -0,265;   -1,682
571,858;25133,509;    2,008;   -1,136
572,439;26021,523;    1,554;   -1,045
573,021;26194,104;    2,099;   -2,773
573,602;26636,422;   -1,265;    0,318
574,183;27631,618;   -2,083;    2,227
574,764;27723,304;   -1,629;    0,409
575,345;28282,433;    0,917;   -0,136
575,926;28882,345;   -0,356;    0,136
576,507;28779,964;    1,099;   -0,227
577,088;29939,114;    3,099;    1,682
577,669;29965,059;    0,735;    1,955
578,250;30786,800;    0,644;   -1,045
578,831;31435,525;   -1,356;   -2,227
579,412;31725,035;   -0,810;    0,955
579,993;32571,832;    1,008;    0,227
580,573;32871,867;   -0,629;   -0,955
581,154;31852,094;    0,735;   -0,591
581,735;32750,842;    0,644;    0,773
582,315;32287,478;   -0,629;    2,136
582,896;32498,122;   -0,174;    1,227
583,477;31924,479;    0,189;    1,227
584,057;32115,891;    0,553;    0,955
584,638;32441,286;    2,553;    2,318
585,218;32445,611;   -0,538;    2,682
585,799;32571,433;    0,281;   -0,227
586,379;32541,387;    0,372;    1,591
586,959;31271,408;    0,735;    0,318
587,540;30512,965;   -0,629;    2,227
588,120;30071,732;    1,007;   -0,045
588,700;29138,682;    2,553;    2,136
589,281;29460,349;    0,462;   -0,955
589,861;29441,220;    0,099;   -1,682
590,441;29237,447;    2,371;   -2,682
591,021;28173,101;   -0,265;   -2,591
591,601;28390,303;   -0,537;    0,500
592,181;28382,775;   -0,719;   -0,773
592,761;27709,889;    0,007;    1,409
593,341;27656,464;   -0,901;    0,045
593,921;27622,719;   -0,265;    1,591
594,501;27515,713;   -0,538;    1,318
595,081;27369,562;    0,917;   -0,318
595,661;27735,024;   -1,447;    0,955
596,240;28272,971;   -0,537;    0,136
596,820;27938,572;    0,372;    1,955
597,400;28056,499;    2,008;    0,773
597,980;28255,974;    2,008;    1,045
598,559;28270,852;    2,735;   -0,227
599,139;27959,328;   -0,174;   -1,227
599,718;27903,964;   -0,174;   -0,409
600,298;28130,611;    0,735;    0,682
600,877;28425,076;    2,917;    1,409
601,457;28679,768;    2,281;    1,136
602,036;28574,390;    0,190;    2,045
602,616;28807,789;    0,644;    1,682
603,195;29143,673;   -0,355;    3,500
603,774;28711,117;   -0,901;    2,045
604,354;28561,002;    0,826;   -0,500
604,933;28051,656;    0,463;    1,864
605,512;28173,072;    3,554;    0,591
606,091;28175,799;   -0,537;    3,773
606,671;29024,376;    0,281;    0,773
607,250;28115,383;    1,644;    3,136
607,829;28366,029;    2,372;    3,227
608,408;28216,306;    1,190;    2,591
608,987;27230,742;    1,281;    3,409
609,566;27516,573;   -1,265;   -2,500
610,145;27645,543;   -1,082;    0,682
610,723;28039,861;    4,372;    6,864
611,302;27327,983;   -0,446;    1,682
611,881;26831,557;    5,008;   11,227
612,460;27675,718;    1,645;    3,955
613,039;28085,588;   -0,082;    2,045
613,617;26814,075;    1,736;    4,773
614,196;26979,931;    1,099;    1,227
614,775;27340,822;    1,009;    2,409
615,353;27271,752;    0,736;    0,864
615,932;27024,004;    0,100;    2,409
616,510;27577,364;    0,554;    0,591
617,089;27156,528;    7,100;   17,591
617,667;26897,007;    2,372;    6,136
618,246;26744,996;   -1,537;    1,318
618,824;26922,888;   -3,355;   -0,955
619,402;26461,801;   -2,900;   -1,773
619,981;26983,300;   -0,173;   -1,045
620,559;26766,055;    0,009;    1,682
621,137;26300,500;   -0,718;    1,864
621,715;26363,363;   -1,173;   -0,682
622,293;26319,283;   -0,537;   -0,773
622,871;26715,321;   -0,718;    0,500
623,450;26294,149;    0,373;   -0,864
624,028;26181,720;    0,191;   -0,955
624,606;25830,167;   -1,718;    1,682
625,183;26218,632;   -1,536;   -1,136
625,761;25806,537;    1,009;    1,136
626,339;26124,517;    1,373;    2,591
626,917;26508,645;   -0,172;   -0,045
627,495;26539,233;   -0,354;    1,318
628,073;25948,393;   -0,263;    2,864
628,650;25640,173;    0,100;    2,136
629,228;26113,258;    0,373;    4,409
629,806;25501,726;    2,282;    1,136
630,383;25741,635;    1,464;   -0,318
630,961;25568,848;    2,555;   -0,955
631,539;25336,414;    2,464;    0,227
632,116;24691,030;   11,373;   15,409
632,694;25270,642;    2,555;    6,500
633,271;25583,924;    0,828;    2,682
633,848;25476,428;    1,828;    2,045
634,426;25497,130;   -1,081;    1,773
635,003;24610,427;    1,101;   -0,409
635,580;24940,412;    1,192;    3,682
636,158;25508,570;    3,737;    1,227
636,735;25536,683;    0,555;   -0,500
637,312;25687,323;   -0,809;   -0,682
637,889;25731,354;   -4,354;   -0,682
638,466;25181,300;   -3,990;   -0,409
639,043;25179,593;    2,101;   -1,136
639,620;25555,104;   -2,262;   -0,955
640,197;25880,143;    1,100;    1,682
640,774;25958,378;   -0,172;    1,136
641,351;26376,251;    0,737;    1,136
641,928;25792,668;   -0,627;    1,409
642,505;25427,450;    0,828;   -0,500
643,082;25524,776;   -1,718;    1,227
643,658;24562,558;   -0,718;    1,500
644,235;25355,248;    1,191;    2,500
644,812;25641,575;    1,918;    0,773
645,388;25417,720;   -0,991;    1,409
645,965;25531,683;   -0,809;    1,682
646,542;25560,646;   -1,445;   -0,227
647,118;25518,064;    1,009;   -0,955
647,695;25804,936;   -0,263;    1,136
648,271;25714,808;   -0,536;    0,500
648,848;26063,771;    0,736;    2,227
649,424;25893,916;    0,827;    1,318
650,000;25664,334;   -0,354;   -1,045
650,577;25437,388;   -0,627;   -0,955
651,153;25936,533;   -1,809;    0,955
651,729;26966,950;    1,191;    0,864
652,305;27463,822;    0,645;    2,773
652,881;32633,604;   -0,082;    1,136
653,458;39492,567;    1,100;    0,227
654,034;42832,530;    0,282;    1,591
654,610;44034,493;    0,554;    0,773
655,186;45284,183;    0,645;    3,045
655,762;44895,237;   -0,991;    0,409
656,338;44867,019;    0,100;    0,136
656,913;45794,255;   -0,082;    0,409
657,489;45022,763;    0,827;   -0,318
658,065;44970,454;   -0,173;   -1,591
658,641;45609,780;   -0,900;   -0,864
659,217;44836,107;   -0,991;    0,409
659,792;44232,616;    0,645;   -0,409
660,368;44428,942;   -2,173;   -0,682
660,944;43831,360;   -2,082;    1,227
661,519;38659,232;   -0,628;    0,409
662,095;32828,377;   -1,719;    0,591
662,670;28649,977;    1,281;   -0,136
663,246;27748,485;    1,009;   -0,409
663,821;27155,721;    0,281;    1,682
664,396;26636,775;    0,009;    1,864
664,972;26924,284;    0,009;   -0,500
665,547;27264,701;    1,372;    0,136
666,122;27313,573;   -1,082;    0,318
666,698;27587,082;   -0,173;    0,318
667,273;26915,863;   -0,173;    0,136
667,848;27710,917;    2,372;    1,500
668,423;27535,880;    2,190;    2,318
668,998;28046,116;    2,827;   -0,682
669,573;28633,716;   -3,264;   -1,500
670,148;28481,042;   -1,446;   -0,682
670,723;28276,278;   -1,810;    0,318
671,298;28704,605;    2,372;    1,045
671,873;28840,568;   -0,082;   -0,136
672,448;28798,804;    0,645;    0,136
673,023;29115,131;   -1,992;   -0,227
673,597;29413,003;    0,827;    2,318
674,172;29204,602;   -0,355;    0,318
674,747;28704,384;    0,372;   -1,045
675,321;28431,529;   -0,628;    3,318
675,896;28096,855;    0,645;    1,045
676,471;29096,546;    2,645;    1,591
677,045;28857,145;   -1,264;    0,682
677,620;28856,563;    0,190;    1,136
678,194;29178,344;   -2,628;    1,136
678,769;28766,762;   -1,083;   -0,318
679,343;29024,452;   -0,628;    1,773
679,917;28901,143;   -1,446;    1,955
680,492;29014,651;    0,826;    3,227
681,066;29159,614;    3,372;    0,409
681,640;29176,214;    1,463;   -0,318
682,214;29998,268;    0,735;    0,500
682,788;29569,231;   -1,356;   -0,773
683,363;29479,830;   -1,810;    1,682
683,937;29183,157;   -1,719;   -0,318
684,511;29901,302;    0,463;   -0,591
685,085;29565,811;   -1,356;    0,318
685,659;29347,774;   -2,538;    0,864
686,232;29696,464;   -0,356;   -0,318
686,806;29368,245;   -0,901;    0,409
687,380;29977,299;   -0,174;    0,591
687,954;30160,172;   -1,174;    1,136
688,528;29885,953;   -0,719;    1,955
689,101;30688,461;   -3,992;    1,045
689,675;30294,425;   -0,356;   -0,136
690,249;29628,024;   -0,719;    0,409
690,822;29929,805;    0,280;    0,318
691,396;30086,950;   -0,265;    1,227
691,969;29522,368;    1,280;    0,136
692,543;29956,604;   -0,447;   -1,955
693,116;29622,385;   -0,265;   -1,409
693,690;29495,439;    0,099;    0,500
694,263;30037,493;   -1,083;    2,955
694,836;30090,183;    1,371;    3,591
695,410;28750,965;   -0,265;    1,773
695,983;29161,291;    0,189;    0,591
696,556;29142,800;   -0,447;   -1,045
697,129;29566,218;   -0,356;    1,409
697,703;29208,999;   -1,629;    1,955
698,276;29192,508;    1,462;   -0,773
698,849;28989,289;    1,280;    1,409
699,422;29348,161;   -1,083;    0,591
699,995;29010,215;    0,007;    0,136
700,568;29560,360;   -0,629;    3,045
701,140;29584,050;   -2,811;    1,682
701,713;29265,104;   -0,174;    2,409
702,286;29048,431;   -0,538;    0,864
702,859;28913,667;   -0,902;   -0,591
703,432;28069,539;    0,825;    0,682
704,004;28533,411;    0,462;    0,318
704,577;28458,102;   -0,629;    0,136
705,150;29044,792;    0,189;    2,500
705,722;28777,937;   -0,356;   -3,227
706,295;28562,718;   -0,175;   -0,591
706,867;28499,500;   -0,175;    1,955
707,440;28639,190;   -1,720;   -0,409
708,012;28968,062;    0,462;    0,591
708,584;28893,753;    2,462;    0,227
709,157;29088,079;    1,825;   -0,591
709,729;28804,315;    2,280;    2,045
710,301;29584,460;    0,734;    0,045
710,874;29580,241;   -1,447;   -0,227
711,446;28426,023;    0,371;    0,864
712,018;28377,440;    0,098;    0,500
712,590;28154,222;   -1,993;    1,682
713,162;28662,367;    0,825;    1,318
713,734;28929,693;    1,825;   -2,045
714,306;28816,293;   -1,902;   -0,409
714,878;27450,529;    0,825;    0,864
715,450;28309,583;    0,643;    0,864
716,022;28522,637;    1,552;    1,318
716,593;28671,327;    0,189;    0,591
717,165;28564,017;   -3,175;   -1,227
717,737;28360,799;    0,280;    0,409
718,309;28018,944;    0,280;   -0,045
718,880;27963,089;   -0,539;   -1,409
719,452;28174,415;   -0,175;   -1,591
720,024;27779,287;    0,734;   -0,591
720,595;28362,341;   -2,902;    0,955
721,167;27900,850;    0,370;   -2,045
721,738;27434,722;   -0,812;   -1,045
722,309;27447,504;   -0,993;   -1,227
722,881;27173,739;   -1,357;    0,773
723,452;27768,521;   -2,630;    2,864
724,023;27957,756;   -0,721;    2,682
724,595;27779,901;    0,007;    0,682
725,166;27506,865;    0,007;   -0,409
725,737;27193,282;    1,734;    0,227
726,308;27306,700;   -0,266;    0,318
726,879;27727,117;   -1,630;    1,227
727,450;27574,717;    0,552;   -0,045
728,021;27516,953;    3,097;    0,682
728,592;27304,734;    0,734;    0,500
729,163;27599,970;    0,643;   -0,136
729,734;27653,297;    0,188;   -0,227
730,305;27986,623;    1,734;    0,136
730,876;28340,950;    0,188;    2,955
731,447;28104,095;    2,188;    2,682
732,017;28187,695;    1,097;    1,864
732,588;27648,749;    0,734;    1,227
733,159;27870,439;    0,643;   -1,045
733,729;27676,675;    0,006;    0,409
734,300;26917,729;    0,915;    0,864
734,870;27347,146;    3,461;    0,591
735,441;27909,200;    0,370;   -0,591
736,011;27700,255;    0,643;   -1,591
736,582;27666,945;   -0,812;    0,045
737,152;27091,363;   -1,721;   -2,045
737,722;27509,689;   -0,267;   -0,682
738,293;27232,380;   -1,358;    1,318
738,863;27141,070;    2,461;    2,318
739,433;26943,942;    5,279;    0,318
740,003;27586,451;   -0,994;   -0,682
740,573;26965,687;    2,097;   -1,591
741,143;26893,559;   -1,085;    0,318
741,713;27704,431;    1,188;   -0,500
742,283;27392,758;    0,915;    1,591
742,853;27135,357;    1,915;    1,591
743,423;26621,320;    1,733;    0,045
743,993;26757,283;   -0,358;    1,500
744,563;26113,974;    0,097;   -0,864
745,133;26083,755;   -0,812;   -0,864
745,702;26761,264;   -0,267;    1,773
746,272;25956,409;   -0,176;    0,591
746,842;25764,463;   -1,358;   -0,591
747,411;26187,335;   -0,267;   -0,318
747,981;26369,753;    0,097;    0,500
748,551;26406,079;    2,278;   -1,045
749,120;26258,406;    0,642;   -0,227
749,690;26637,096;   -0,631;    2,409
750,259;27001,514;    1,369;    2,955
750,828;26915,386;    1,551;   -1,955
751,398;27148,349;    1,278;   -0,045
751,967;26702,676;    2,187;    0,409
752,536;26886,457;   -0,813;   -0,227
753,105;27311,875;    0,096;    0,227
753,675;27071,111;    0,096;    1,773
754,244;27010,619;   -0,904;    3,591
754,813;27024,401;    0,551;    1,227
755,382;26618,000;    0,460;    0,955
755,951;27163,963;    1,551;    3,682
756,520;26686,199;   -0,085;    1,864
757,089;27275,617;    0,278;    0,500
757,658;27482,489;    1,733;    1,227
758,227;27508,543;    1,096;    0,318
758,795;27753,052;    1,187;    1,136
759,364;27982,015;   -0,086;   -0,591
759,933;26986,614;   -1,176;   -0,045
760,501;26477,668;    0,733;   -1,318
761,070;26932,177;   -2,813;   -1,409
761,639;27655,322;   -1,904;    1,318
762,207;27016,830;    1,551;   -0,955
762,776;26948,248;    0,369;    0,864
763,344;26896,666;   -0,995;    0,591
763,913;25993,356;   -0,722;    1,409
764,481;26781,683;    1,005;   -0,136
765,049;26557,464;   -1,358;    1,409
765,618;26417,336;   -0,086;    0,318
766,186;26449,027;    0,278;    0,136
766,754;26690,353;    0,005;    1,864
767,322;25645,771;   -1,995;    0,409
767,890;25670,189;   -0,722;   -1,773
768,459;26086,243;   -2,177;   -0,318
769,027;26312,024;    1,641;    3,409
769,595;25218,805;    3,278;    2,591
770,163;25645,041;    3,823;    2,955
770,730;25384,550;    0,732;   -0,136
771,298;25237,331;    0,187;   -1,409
771,866;25315,021;   -1,541;    4,955
772,434;25638,075;   -0,631;   -1,864
773,002;25844,857;    0,005;    0,682
773,569;25521,365;    0,914;    1,682
774,137;25321,419;   -0,268;   -0,045
774,705;26062,110;    0,278;   -0,136
775,272;25587,345;    0,641;    0,682
775,840;25376,127;   -0,177;    2,682
776,407;24900,544;    0,277;    1,955
776,975;24484,871;   -0,632;    0,318
777,542;25472,925;   -1,086;   -0,045
778,110;25295,706;   -1,268;   -0,045
778,677;24973,033;   -2,359;   -0,864
779,244;24751,269;    2,186;    1,045
779,812;24897,959;    1,823;    0,864
780,379;24787,559;    0,005;    1,136
780,946;25009,067;    1,005;   -0,773
781,513;25332,030;   -1,450;    0,318
782,080;24738,357;   -0,086;    2,864
782,647;25479,502;   -0,268;    3,045
783,214;25014,374;   -0,177;    3,864
783,781;24603,065;   -0,723;   -0,682
784,348;24526,937;   -0,632;    1,500
784,915;24999,264;   -3,177;    0,318
785,482;24775,772;    1,368;    2,591
786,049;25204,917;    0,186;   -0,591
786,615;25319,153;    0,277;   -0,955
787,182;24940,207;    0,186;   -0,682
787,749;24658,352;   -2,814;    1,409
788,315;24002,588;   -1,632;   -0,409
788,882;24313,278;    1,550;   -1,227
789,448;25025,150;    1,732;   -0,955
790,015;24996,023;    1,095;    3,227
790,581;24572,622;    1,459;    0,227
791,148;24470,767;    0,641;    1,045
791,714;24708,639;   -0,541;    3,136
792,280;24334,420;    0,186;    1,591
792,847;23876,111;    0,550;    2,500
793,413;24461,892;   -0,269;   -0,318
793,979;24041,310;    3,459;   -1,318
794,545;24129,727;    4,459;    2,682
795,111;23562,327;    2,186;    1,318
795,678;23781,290;    0,731;   -1,682
796,244;23377,617;    3,368;    0,136
796,810;23893,307;    1,731;    0,773
797,375;23628,452;    0,549;   -2,136
797,941;23682,233;   -0,541;    0,591
798,507;23802,196;   -0,451;   -0,955
799,073;23335,614;   -0,360;    0,591
799,639;23369,668;   -2,632;    3,136
800,205;23367,904;    0,095;    2,682
800,770;22950,413;    0,640;    1,773
801,336;23041,012;    1,368;   -0,955
801,901;22795,611;    4,549;    3,136
802,467;23319,575;   -0,542;    2,045
803,033;22630,538;   -0,087;    0,864
803,598;22831,683;    1,913;   -1,045
804,163;22880,282;    1,095;   -0,318
804,729;22843,154;   -0,178;    1,136
805,294;23256,936;    0,822;    2,227
805,859;23046,081;    0,731;   -0,409
806,425;22562,680;    1,186;    2,682
806,990;22224,189;    2,186;    4,318
807,555;22731,606;   -1,451;    2,591
808,120;22604,115;    0,822;   -0,409
808,685;22631,078;    0,185;   -2,500
809,250;22081,950;    0,004;   -0,500
809,815;22372,550;    1,913;    0,682
810,380;22936,694;   -0,269;    1,591
810,945;23523,021;   -1,087;    2,045
811,510;22694,712;    2,094;    1,591
812,075;22395,129;   -0,633;   -1,409
812,640;22417,274;    2,003;    1,409
813,204;22488,692;    0,822;   -0,227
813,769;22986,837;    2,094;   -0,045
814,334;22385,527;    0,458;    0,864
814,898;22428,581;    0,367;    0,591
815,463;22279,635;    1,276;   -0,773
816,027;22255,053;   -0,724;   -2,318
816,592;22311,834;    0,640;   -2,045
817,156;21882,888;    2,094;    1,136
817,721;21784,669;    4,276;    2,318
818,285;21685,723;    2,912;    1,500
818,849;22318,777;   -1,451;    1,682
819,414;22236,741;   -0,269;    2,955
819,978;21789,795;   -1,269;    1,773
820,542;22376,849;    2,003;    0,500
821,106;22107,994;   -0,815;    0,682
821,670;22208,957;   -0,815;    2,591
822,234;21929,192;   -0,270;    1,409
822,798;21304,701;    0,003;    0,500
823,362;21260,301;   -0,633;    4,227
823,926;20613,445;    0,094;    1,136
824,490;20853,318;   -0,997;   -0,682
825,054;21254,463;   -0,088;   -1,136
825,618;20871,789;   -1,542;   -1,500
826,181;20833,934;    0,458;   -1,318
826,745;20776,897;    1,367;   -1,045
827,309;21133,497;    1,185;    1,318
827,872;20489,096;    1,367;    0,955
828,436;21453,241;    1,185;   -0,773
828,999;21493,659;   -0,997;    1,227
829,563;20262,258;   -0,179;    1,136
830,126;20125,312;   -0,179;   -0,591
830,690;20160,275;   -1,997;    2,864
831,253;19673,148;   -0,543;    2,227
831,816;19791,565;   -1,906;    0,500
832,380;19714,256;    0,185;    0,864
832,943;19975,946;   -1,361;   -0,500
833,506;19427,364;    2,639;   -1,227
834,069;20191,509;    3,912;   -0,955
834,632;20253,563;    1,730;    1,318
835,195;20169,071;    1,003;    0,955
835,758;19370,943;   -0,997;    1,955
836,321;19235,179;    0,730;   -1,045
836,884;19304,415;   -0,725;   -0,955
837,447;19337,196;   -2,816;    1,773
838,010;19630,614;    0,366;    3,227
838,573;19942,668;   -1,179;    0,773
839,135;19887,449;   -1,361;   -0,955
839,698;19314,049;    1,275;    0,409
840,261;18884,376;    1,003;   -0,227
840,823;18688,430;   -0,543;    0,864
841,386;18960,665;   -0,452;   -2,409
841,948;18853,083;   -1,361;    1,773
842,511;18592,864;    0,912;    1,682
843,073;18763,191;    1,912;    0,227
843,636;18564,972;   -0,361;   -0,227
844,198;18508,481;    0,911;    0,591
844,760;18633,808;    1,093;    1,955
845,322;18237,862;    0,548;    1,136
845,885;18679,734;    0,730;    0,591
846,447;19140,061;   -1,998;    0,227
847,009;18763,115;    1,911;   -0,682
847,571;19063,351;    0,820;   -2,045
848,133;19152,223;   -1,089;   -1,864
848,695;18929,640;   -0,543;    1,409
849,257;18490,967;   -1,089;   -1,682
849,819;18682,294;   -0,998;   -0,409
850,381;18739,893;   -0,725;   -0,864
850,942;19111,038;    1,093;   -0,591
851,504;19058,547;    1,184;    0,227
852,066;19078,783;    1,275;   -1,591
852,628;18595,291;   -0,180;    1,955
853,189;18146,709;    1,638;    2,682
853,751;18259,945;   -0,907;    1,409
854,312;18089,635;   -0,453;   -1,682
854,874;18576,053;   -2,089;   -0,773
855,435;19064,834;   -0,907;   -1,682
855,997;19243,615;   -1,816;   -0,136
856,558;18577,942;    0,366;    1,773
857,119;18658,360;    0,820;    2,864
857,681;18312,323;    0,002;    0,318
858,242;18378,195;    1,911;   -2,136
858,803;18810,976;    0,456;   -0,773
859,364;19437,303;    0,184;   -4,773
859,925;18748,084;   -2,453;   -0,955
860,486;18636,866;   -0,453;   -0,955
861,047;18312,011;   -0,544;   -1,227
861,608;18134,156;   -1,089;   -0,773
862,169;18223,846;    0,638;   -0,045
862,730;18016,991;    0,456;    1,409
863,291;18240,954;   -0,635;   -0,500
863,852;18652,372;   -0,635;    1,955
864,412;18113,062;   -0,271;   -0,864
864,973;16692,571;   -0,089;    0,500
865,534;16569,079;   -1,726;    0,227
866,094;18076,406;    1,820;    0,227
866,655;17784,369;    1,274;    3,318
867,215;17993,514;    0,274;    0,136
867,776;17805,204;    0,547;   -0,136
868,336;17951,076;   -1,453;    0,136
868,897;17446,585;    2,638;    1,682
869,457;17127,275;    1,365;    0,318
870,017;17363,057;    0,547;   -1,227
870,578;17914,929;   -0,817;    0,773
871,138;17596,619;   -2,089;   -0,955
871,698;17153,946;   -0,817;   -1,318
872,258;17043,546;   -0,453;   -2,864
872,818;17439,327;    2,729;    0,045
873,378;17368,744;    0,638;    1,045
873,938;16896,162;    0,547;    0,500
874,498;17253,943;    0,274;   -1,955
875,058;17162,088;    2,183;    1,773
875,618;16948,415;    1,910;   -2,682
876,177;16873,560;    1,274;    0,136
876,737;16505,796;   -0,090;    1,955
877,297;16566,123;    0,183;    1,955
877,856;16555,904;   -0,362;    0,318
878,416;16504,322;    1,183;   -0,136
878,976;16713,830;   -1,817;    0,409
879,535;16868,339;    0,092;    3,136
880,095;16608,120;   -0,544;    0,045
880,654;16750,447;   -1,090;    1,318
881,213;16886,864;    2,456;    1,500
881,773;16489,464;    2,637;    2,682
882,332;16889,972;    3,365;    5,136
882,891;16704,935;    3,092;    2,136
883,451;17197,262;   -1,272;    1,682
884,010;16624,225;   -2,908;   -0,409
884,569;16673,279;   -0,999;   -0,045
885,128;16827,242;    2,819;   -1,864
885,687;16950,933;    4,455;    0,682
886,246;16621,987;    1,455;    2,136
886,805;16389,950;    2,455;    2,045
887,364;16667,822;   -0,999;   -0,500
887,922;17019,967;   -1,181;    0,045
888,481;16521,385;   -1,545;    0,591
889,040;16871,075;    1,183;    2,136
889,599;17538,493;    2,455;    1,409
890,157;17594,820;    1,455;    2,409
890,716;17237,146;   -0,090;    0,227
891,274;17079,928;    0,092;   -1,136
891,833;17472,163;    1,546;    0,864
892,391;17340,945;   -0,454;    0,500
892,950;17435,908;    1,819;   -0,773
893,508;17787,416;    0,455;   -0,409
894,067;17111,561;    0,637;    0,136
894,625;17033,797;   -0,636;   -1,500
895,183;17253,215;   -0,363;   -0,682
895,741;17175,269;    1,728;   -1,773
896,299;17004,777;   -0,545;   -2,409
896,858;17220,831;    0,819;   -1,591
897,416;17349,613;    2,728;   -1,318
897,974;17043,849;    1,819;    0,318
898,532;17213,721;    6,091;    2,682
899,089;17098,138;    2,091;   -0,682
899,647;17188,192;   -1,454;    1,318
900,205;16902,065;    1,182;    1,045
900,763;17078,391;   -0,454;    0,227
901,321;17118,173;    2,364;   -1,409
901,878;16488,227;   -1,000;   -0,773
902,436;16393,735;   -1,363;    1,318
902,994;16824,426;    4,728;    3,682
903,551;16257,934;    0,728;    0,409
904,109;16626,897;    0,182;   -1,409
904,666;16167,588;    2,455;    1,045
905,224;16032,642;    0,182;   -0,409
905,781;15751,059;    0,727;   -0,318
906,338;15838,295;   -1,363;    1,045
906,895;15756,895;    0,637;    2,045
907,453;15732,585;    1,727;    1,136
908,010;15739,366;   -0,909;    0,409
908,567;15370,875;    1,273;    0,591
909,124;14885,111;    0,364;   -1,500
909,681;14957,256;   -2,909;    0,682
910,238;15086,855;    0,636;   -1,318
910,795;15388,545;   -0,273;   -1,136
911,352;15054,636;   -2,909;   -2,682
911,909;14462,636;   -1,364;   -0,864
912,466;14928,273;   -3,182;    1,500
913,022;14493,091;   -1,636;    0,500
913,579;14879,091;   -0,909;    2,045
914,136;14555,727;    1,636;    0,955
914,692;14906,727;    0,091;   -1,227
915,249;14498,000;    1,455;    0,409
915,806;14694,545;    0,182;    1,955
916,362;14460,727;    1,909;    1,864
916,918;14036,636;    2,000;    1,045
917,475;14012,091;   -1,182;    0,955
918,031;14020,091;    3,364;   -0,045
918,587;13544,000;   -0,909;   -0,318
919,144;13745,091;   -2,273;    0,227
919,700;14099,182;    1,727;    0,773
920,256;13673,000;    0,727;    0,045
920,812;13284,909;   -0,727;   -1,045
921,368;13277,727;   -1,727;   -1,045
921,924;12918,818;    0,182;   -0,136
922,480;12458,545;   -0,545;    1,227
923,036;13063,000;    1,273;    1,955
923,592;13023,000;    0,455;    0,318
924,148;12946,636;    0,455;   -0,955
924,704;12264,545;   -1,364;   -0,409
925,259;12513,273;   -0,273;    0,591
925,815;12313,455;    1,455;    0,500
926,371;11824,818;    2,909;    1,409
926,926;11695,636;    2,091;    0,591
927,482;11357,727;   -1,364;    0,773
928,037;11255,545;    0,909;    2,045
928,593;11496,909;    1,636;    1,045
929,148;11304,091;   -1,818;   -1,500
929,704;10834,636;   -1,455;   -0,500
930,259;11073,909;    0,091;   -0,136
930,814;10116,909;   -0,818;    1,955
931,369; 9758,182;    1,091;   -0,773
931,925; 9639,818;   -0,091;    0,136
932,480; 9593,364;   -2,818;   -2,591
933,035; 9480,091;    0,545;   -0,318
933,590; 9234,727;    0,364;   -1,773
934,145; 8877,545;   -1,364;   -0,318
934,700; 9201,273;    0,455;   -0,591
935,255; 9026,091;   -0,091;    0,045
935,809; 8323,818;    3,182;    0,864
936,364; 7462,273;   -0,455;   -0,136
936,919; 7425,364;    0,455;   -1,773
937,474; 7303,000;    1,455;    0,136
938,028; 7027,182;   -1,636;    1,136
938,583; 6521,455;    1,818;    4,682
939,138; 6789,455;    2,091;    2,136
939,692; 6248,000;    1,636;   -1,136
940,247; 5964,273;   -0,727;   -1,045
940,801; 5515,273;   -0,636;    0,227
941,355; 5395,909;   -0,364;    2,591
941,910; 5049,545;   -0,273;   -2,136
942,464; 5156,727;   -0,818;   -0,318
943,018; 4956,273;    1,000;   -0,227
943,572; 4914,091;    2,545;   -0,682
944,126; 4337,818;    0,091;   -0,409
944,681; 4243,818;    3,091;    0,227
945,235; 4222,727;    1,000;   -0,591
945,789; 4170,091;    0,364;   -1,864
946,342; 4281,182;    0,455;   -0,591
946,896; 4078,636;   -2,273;    0,955
947,450; 3819,818;    1,545;   -0,227
948,004; 4016,182;    1,727;   -0,045
948,558; 4003,727;    0,273;   -0,864
949,111; 3943,909;   -0,273;   -0,318
949,665; 4001,818;    1,636;   -0,682
950,219; 3875,909;   -0,091;   -1,045
950,772; 3945,636;   -1,909;    1,864
951,326; 3844,273;    0,545;   -0,955
951,879; 3935,091;    0,727;   -2,318
952,433; 3962,636;    0,000;    2,227
952,986; 3779,818;    2,909;    0,682
953,539; 3754,000;   -0,273;    0,591
954,093; 3691,455;    0,545;   -1,318
954,646; 3829,273;    0,909;    1,318
955,199; 3622,636;    0,000;   -0,500
955,752; 3530,182;   -0,455;    1,773
956,305; 3488,273;   -0,091;    2,955
956,858; 3669,000;    0,818;   -0,318
957,411; 3837,273;   -0,545;    2,136
957,964; 3650,727;    1,364;    2,136
958,517; 3625,727;   -1,545;    3,136
959,070; 3468,455;   -0,455;    1,955
959,623; 3548,182;    1,091;    1,500
960,176; 3323,909;    1,727;    2,045
960,728; 3297,909;   -2,727;    0,773
961,281; 3348,727;    0,545;    0,500
961,834; 3388,545;   -0,909;    0,864
962,386; 3305,455;    1,727;    1,045
962,939; 3227,636;    0,364;   -0,318
963,491; 3369,545;    0,455;    1,136
964,043; 3254,727;    1,182;    2,409
964,596; 3376,636;   -1,000;    2,227
965,148; 3204,364;   -1,000;    1,773
965,700; 3121,727;    1,091;   -0,227
966,253; 3286,545;   -0,636;    0,318
966,805; 3135,636;   -2,273;    0,773
967,357; 3175,818;    1,091;   -1,500
967,909; 3131,545;    0,455;   -1,227
968,461; 3239,273;    0,545;    3,136
969,013; 3177,545;   -0,182;   -0,864
969,565; 3253,182;   -0,455;   -1,136
970,117; 3306,091;   -0,364;    1,045
970,669; 3125,364;    0,182;   -0,136
971,220; 2989,182;   -0,455;   -1,500
971,772; 2920,455;   -0,636;   -0,318
972,324; 3043,545;    0,091;   -0,500
972,876; 2986,000;    0,818;   -0,045
973,427; 3137,545;    1,909;   -1,045
973,979; 3111,818;   -0,727;   -2,500
974,530; 3150,364;    1,818;    1,318
975,082; 3123,909;   -0,545;    1,682
975,633; 3009,909;    1,091;    1,682
976,184; 3189,182;    0,909;    0,773
976,736; 2971,818;    0,091;    0,227
977,287; 2788,000;   -0,909;   -0,500
977,838; 2962,455;    0,909;   -0,318
978,389; 3022,727;   -1,000;   -0,500
978,940; 2897,364;    0,545;   -0,409
979,491; 2918,273;    0,091;   -0,500
980,042; 2895,364;    0,182;    3,045
980,593; 2940,091;   -2,545;    0,227
981,144; 2974,909;    2,545;   -0,500
981,695; 2955,364;    1,455;    1,500
982,246; 2897,091;   -0,273;    1,045
982,797; 3073,545;   -1,727;    0,682
983,347; 3165,091;    0,364;    0,591
983,898; 3341,000;    3,091;    0,409
984,449; 3166,545;    2,182;    0,773
984,999; 3068,000;    1,455;   -1,136
985,550; 2847,364;    0,182;   -0,318
986,100; 2858,818;   -0,455;   -0,318
986,651; 2900,818;   -0,818;    0,045
987,201; 2880,182;   -1,000;   -0,591
987,751; 2962,091;    0,818;    2,864
988,302; 2950,455;    2,636;    1,500
988,852; 2967,364;    0,455;   -1,136
989,402; 3037,182;    0,091;    0,682
989,952; 2956,364;   -2,182;    0,864
990,502; 3028,000;   -0,091;    0,682
991,052; 2969,818;   -0,727;    0,045
991,602; 2862,545;   -2,909;    1,318
992,152; 2854,727;    0,455;    0,682
992,702; 2832,909;    1,364;   -0,045
993,252; 2756,000;   -3,000;   -0,500
993,802; 2860,455;   -0,273;    1,318
994,352; 3098,273;   -1,545;    1,136
994,901; 3180,909;   -0,182;    3,227
995,451; 3093,727;   -0,182;    0,318
996,000; 3190,545;    1,636;    0,318
996,550; 2908,091;    2,273;    0,227
997,100; 2896,091;    1,273;   -0,045
997,649; 3182,727;    2,182;    0,955
998,198; 2801,000;    1,727;   -1,500
998,748; 3011,364;    1,091;   -2,318
999,297; 2902,909;   -0,818;   -0,409
999,846; 2980,273;    1,000;   -0,773
1000,395; 3013,909;   -0,818;    0,500
1000,945; 2975,727;    1,818;   -0,773
1001,494; 3068,545;    2,364;    0,682
1002,043; 3057,182;    4,636;    0,864
1002,592; 2874,455;   -1,091;    1,955
1003,141; 3030,636;   -0,455;   -0,682
1003,690; 2886,818;    1,727;    0,500
1004,238; 2982,727;    1,455;   -0,045
1004,787; 2622,818;    1,364;    1,227
1005,336; 2862,636;    0,364;    0,682
1005,885; 2997,727;    1,364;   -2,773
1006,433; 3125,182;    0,545;    0,955
1006,982; 3192,545;    0,455;    1,682
1007,531; 3087,818;   -1,818;   -0,227
1008,079; 3044,909;   -2,273;    0,500
1008,627; 3177,000;   -1,455;    0,409
1009,176; 2904,909;    0,000;   -1,955
1009,724; 2961,364;    1,091;    0,864
1010,273; 3018,909;    1,273;    0,500
1010,821; 3112,273;    0,091;    1,409
1011,369; 2871,273;   -1,364;    1,318
1011,917; 2853,636;   -1,364;   -0,591
1012,465; 3129,909;    1,273;   -1,591
1013,013; 3224,000;    2,091;   -1,682
1013,561; 3108,273;    0,455;   -0,773
1014,109; 3181,909;   -1,909;    1,682
1014,657; 3051,818;    0,364;    0,591
1015,205; 3166,818;    1,636;   -0,955
1015,753; 3200,909;   -0,545;   -1,409
1016,301; 3258,182;   -2,636;    3,045
1016,848; 3238,818;   -1,273;    0,409
1017,396; 3281,455;    2,545;    0,045
1017,944; 3412,182;    1,182;    1,864
1018,491; 3159,091;    0,273;    1,409
1019,039; 3327,091;    0,455;    0,591
1019,586; 3206,727;   -1,364;    1,682
1020,134; 3305,727;    0,455;    1,500
1020,681; 3353,273;    0,182;   -1,136
1021,228; 3348,545;    2,909;   -2,227
1021,776; 3179,636;    1,182;   -1,136
1022,323; 3405,636;    0,455;    0,773
1022,870; 3321,364;   -1,000;   -0,045
1023,417; 3236,364;    2,636;    1,864
1023,964; 3364,818;    2,636;    1,227
1024,511; 3184,636;    1,000;    0,773
1025,058; 3003,091;    3,182;   -0,045
1025,605; 3071,273;   -2,273;    3,136
1026,152; 3294,727;    1,727;   -0,591
1026,699; 2997,909;    1,818;    1,318
1027,245; 3173,545;   -0,091;    0,318
1027,792; 3380,636;   -1,000;    1,409
1028,339; 3278,636;    2,364;   -0,045
1028,885; 3130,273;    1,000;   -0,227
1029,432; 3047,909;   -0,091;    0,227
1029,978; 3119,273;   -1,000;   -1,591
1030,525; 3030,091;    1,000;    0,409
1031,071; 3260,364;   -1,364;    1,136
1031,618; 3370,636;    0,364;    1,682
1032,164; 3160,182;   -0,091;    3,045
1032,710; 3208,818;    1,636;   -1,500
1033,256; 3093,000;   -0,636;   -0,136
1033,803; 3076,364;   -0,545;    1,500
1034,349; 2783,909;   -1,364;    0,136
1034,895; 2944,273;    0,000;   -0,318
1035,441; 2928,636;   -0,818;    0,318
1035,987; 2925,000;   -2,364;   -0,682
1036,533; 2931,000;   -1,455;   -0,955
1037,078; 3161,182;    1,455;    1,682
1037,624; 2968,182;    2,455;   -0,955
1038,170; 2987,091;    0,455;   -0,318
1038,716; 2911,636;    1,636;   -0,409
1039,261; 2812,545;   -2,273;   -0,773
1039,807; 2748,909;   -0,091;    3,409
1040,352; 2830,818;   -1,909;   -0,318
1040,898; 2870,273;   -1,545;   -0,682
1041,443; 2771,818;   -1,455;   -2,591
1041,989; 2801,636;    1,091;    1,591
1042,534; 2680,727;   -0,364;    2,591
1043,079; 2765,000;    2,909;    0,955
1043,625; 2566,364;    1,818;    0,500
1044,170; 2636,727;   -1,364;    1,045
1044,715; 2887,273;    2,455;    0,955
1045,260; 2707,455;    2,182;   -0,955
1045,805; 2729,091;    1,182;   -0,591
1046,350; 2656,727;    1,364;   -0,409
1046,895; 2616,091;    2,909;    1,591
1047,440; 2603,273;    5,364;    0,409
1047,985; 2495,273;    2,818;   -0,955
1048,530; 2391,818;    1,545;    1,227
1049,074; 2466,818;    0,000;    0,318
1049,619; 2436,091;   -1,364;    1,955
1050,164; 2245,182;    0,455;    0,227
1050,708; 2304,091;   -0,455;    0,045
1051,253; 2688,727;    1,273;   -2,227
1051,797; 2384,182;    0,818;   -1,318
1052,342; 2378,909;   -1,182;    1,045
1052,886; 2387,545;    0,364;   -1,409
1053,430; 2248,636;   -1,364;    0,136
1053,975; 2253,455;   -0,818;   -0,318
1054,519; 2241,636;   -0,727;    3,227
1055,063; 2269,727;    0,909;    1,318
1055,607; 2158,091;   -0,182;    0,227
1056,151; 2183,364;    2,909;    1,682
1056,695; 2094,455;    2,273;   -1,136
1057,239; 2165,273;   -1,727;   -0,682
1057,783; 2182,636;    0,818;   -1,500
1058,327; 2132,000;    0,000;    1,409
1058,871; 2363,636;   -0,545;    1,318
1059,415; 2065,182;   -0,818;   -0,045
1059,958; 2343,909;    1,455;    2,591
1060,502; 2042,091;   -1,000;   -0,773
1061,046; 1955,091;    0,364;   -0,955
1061,589; 1935,455;   -3,000;   -1,136
1062,133; 1811,455;   -1,273;    1,864
1062,676; 1753,273;    1,182;    0,864
1063,220; 1747,364;    1,091;    0,500
1063,763; 1788,091;    0,909;    1,136
1064,306; 1864,455;   -0,909;    1,864
1064,849; 1744,182;   -0,909;    0,591
1065,393; 1749,545;    2,000;   -1,500
1065,936; 1853,636;    0,182;   -0,409
1066,479; 1732,545;   -1,455;    1,318
1067,022; 1761,636;   -0,273;   -0,227
1067,565; 1663,545;   -0,091;   -1,318
1068,108; 1686,455;    0,727;   -0,591
1068,651; 1671,000;   -0,636;    1,409
1069,194; 1588,273;   -0,455;   -1,682
1069,736; 1601,364;   -1,273;    0,955
1070,279; 1575,364;   -1,364;   -0,500
1070,822; 1636,545;   -2,000;   -0,318
1071,364; 1732,455;   -0,364;    1,318
1071,907; 1549,273;   -0,727;    3,227
1072,450; 1432,000;    0,000;   -0,045
1072,992; 1428,818;   -0,273;    3,136
1073,535; 1591,091;    2,091;    2,136
1074,077; 1374,455;   -0,727;    2,045
1074,619; 1334,273;   -1,364;    0,591
1075,161; 1392,909;   -1,091;    1,500
1075,704; 1556,455;    1,545;    1,227
1076,246; 1347,091;   -0,182;    0,682
1076,788; 1273,727;   -0,364;    1,773
1077,330; 1350,818;    1,273;    2,136
1077,872; 1318,818;    0,909;    0,955
1078,414; 1553,455;    2,727;    0,773
1078,956; 1285,818;    1,273;   -0,227
1079,498; 1558,273;    1,636;    0,318
1080,040; 1259,909;    1,909;   -1,318
1080,581; 1200,545;    1,636;   -0,318
1081,123; 1121,273;    0,091;   -0,773
1081,665; 1169,273;   -1,182;   -0,955
1082,206; 1474,818;    1,364;   -0,500
1082,748; 1331,364;    0,727;    2,045
1083,289; 1187,000;   -2,000;    1,318
1083,831; 1111,182;   -0,545;    0,227
1084,372; 1149,909;    0,000;    0,591
1084,913; 1143,091;    1,091;    0,864
1085,455; 1104,636;   -1,909;   -2,045
1085,996; 1094,364;   -2,273;    0,136
1086,537; 1106,000;   -0,091;    0,864
1087,078; 1153,091;   -0,909;   -2,136
1087,619; 1193,818;   -1,273;    0,227
1088,160; 1111,364;    0,000;    1,318
1088,701; 1091,636;   -1,091;    0,682
1089,242; 1040,636;    1,364;   -2,227
1089,783; 1134,545;   -0,273;    1,409
1090,324; 1103,909;    0,455;    0,682
1090,865;  965,273;    2,727;   -0,409
1091,405;  935,455;    0,727;    2,227
1091,946;  961,273;    0,182;   -0,955
1092,487;  879,182;    0,818;   -1,409
1093,027; 1057,273;   -1,364;   -1,500
1093,568;  926,364;   -0,364;    1,227
1094,108; 1026,636;    0,273;    1,773
1094,649;  950,909;   -1,182;    0,136
1095,189;  889,909;   -0,636;   -0,682
1095,729;  842,455;   -0,091;    0,955
1096,269;  833,364;    0,727;   -0,955
1096,810; 1167,364;   -1,364;    0,500
1097,350;  997,727;    1,364;   -0,773
1097,890;  886,818;    0,364;    1,227
1098,430; 1152,091;    2,364;    2,864
1098,970; 1014,727;    2,182;    1,682
1099,510;  865,545;    0,545;   -2,318
1100,050;  796,182;    1,000;   -1,591
1100,589;  762,636;   -0,727;   -0,318
1101,129;  901,091;    0,818;   -0,955
1101,669; 1059,909;    1,727;    2,136
1102,209;  875,545;   -0,091;    2,227
1102,748;  834,182;    0,000;    0,955
1103,288;  820,909;    1,273;   -1,227
1103,827;  862,727;    3,091;   -2,227
1104,367;  726,909;   -0,091;   -2,409
1104,906;  686,545;    1,364;   -1,136
1105,445;  755,364;    0,636;   -1,136
1105,985;  713,182;   -0,727;    1,500
1106,524;  763,545;   -1,727;   -0,682
1107,063;  723,364;   -2,727;    1,409
1107,602;  697,091;   -1,909;   -1,500
1108,141;  612,818;   -1,909;    1,500
1108,680;  738,091;   -3,455;   -0,591
1109,219;  667,000;   -0,909;   -0,500
1109,758;  666,727;    0,455;    0,682
1110,297;  631,909;    1,000;   -0,682
1110,836;  599,273;   -0,727;    0,955
1111,375;  753,636;   -2,545;    0,409
1111,913;  757,818;   -1,000;    0,773
1112,452;  698,182;   -0,273;    0,136
1112,991;  576,545;    1,091;    1,955
1113,529;  541,455;   -0,818;   -0,045
1114,068;  606,818;   -0,273;    2,955
1114,606;  498,818;   -0,364;   -0,955
1115,144;  680,000;   -1,273;    1,045
1115,683;  611,909;   -0,727;    0,318
1116,221;  666,182;   -0,455;   -0,864
1116,759;  565,909;    0,636;   -0,864
1117,297;  768,909;    0,000;    1,864
1117,836;  571,818;   -2,182;   -1,227
1118,374;  575,273;    0,182;   -0,682
1118,912;  527,182;    0,909;    2,682
1119,450;  518,455;    1,000;    0,864
1119,988;  570,909;    1,545;    2,136
1120,525; 1023,455;    5,091;    3,318
1121,063;  725,727;    1,182;    1,864
1121,601;  525,818;   -0,909;   -1,227
1122,139;  481,091;   -0,727;   -2,045
1122,676;  688,545;   -0,727;    2,773
1123,214;  619,182;   -1,182;    4,409
1123,751;  418,909;    1,727;    2,227
1124,289;  558,636;   -0,091;   -0,409
1124,826;  424,545;    1,727;    0,227
1125,364;  345,000;    1,727;   -0,955
1125,901;  550,455;    1,182;    1,227
1126,438;  662,636;    0,818;    0,955
1126,975;  373,455;   -0,727;   -0,773
1127,513;  447,000;    0,273;    2,136
1128,050;  352,273;    1,636;   -0,682
1128,587;  458,364;    2,000;   -0,227
1129,124;  506,182;    0,091;    1,318
1129,661;  362,909;    0,273;    0,227
1130,198;  538,091;    1,636;    0,773
1130,734;  480,818;    0,182;    1,409
1131,271;  339,636;   -0,909;    0,864
1131,808;  508,273;    2,909;    3,045
1132,345;  373,091;    1,545;    0,318
1132,881;  248,000;   -1,545;   -1,864
1133,418;  400,818;    0,727;   -1,136
1133,954;  321,182;    2,455;   -2,682
1134,491;  404,727;    1,364;   -0,773
1135,027;  298,727;    2,364;    0,864
1135,564;  395,000;    0,273;    2,955
1136,100;  374,000;    0,364;    2,136
1136,636;  259,091;   -1,273;   -1,045
1137,172;  362,000;    0,000;   -1,045
1137,708;  279,727;   -1,364;   -1,045
1138,245;  290,091;    1,273;   -1,227
1138,781;  230,000;    1,091;   -3,318
1139,317;  312,636;    1,273;   -1,409
1139,852;  289,636;    3,091;    0,136
1140,388;  420,727;   -1,182;   -0,409
1140,924;  300,727;   -1,091;   -2,227
1141,460;  232,636;   -1,636;    0,136
1141,996;  159,545;   -1,364;    2,682
1142,531;  208,545;    1,364;    3,318
1143,067;  430,818;    1,182;    1,045
1143,602;  495,091;   -0,091;   -0,318
1144,138;  333,000;   -2,636;    1,045
1144,673;  194,273;   -1,455;    1,409
1145,209;  275,818;   -1,909;   -0,318
1145,744;  184,182;   -0,727;    0,864
1146,279;  326,000;    1,818;   -0,136
1146,815;  241,727;    1,545;   -2,682
1147,350;  284,818;   -1,364;    0,045
1147,885;  196,000;   -0,818;   -1,318
1148,420;  188,818;   -2,273;    0,773
1148,955;  168,636;   -1,727;    1,864
1149,490;  205,818;   -0,909;   -1,591
1150,025;  174,273;    0,455;   -1,773
1150,560;  299,091;    1,091;   -0,955
1151,094;  267,364;    1,455;   -0,591
1151,629;  264,909;    1,636;    0,864
1152,164;  182,455;    1,364;    1,318
1152,698;  148,455;   -0,182;   -0,136
1153,233;  105,364;    0,091;   -0,682
1153,767;  153,091;   -3,000;   -2,318
1154,302;  210,182;   -1,455;    1,773
1154,836;  204,636;   -0,455;   -2,136
1155,371;  261,273;   -1,364;    3,682
1155,905;  217,182;   -0,636;    1,682
1156,439;  180,000;   -0,636;   -0,500
1156,973;  209,000;    0,364;    0,318
1157,507;  144,273;   -0,364;    0,682
1158,042;  184,636;   -0,727;    1,045
1158,576;  231,000;    0,182;    1,773
1159,110;  218,182;   -0,818;    2,409
1159,643;  181,455;    0,636;   -0,045
1160,177;  120,182;   -1,545;    1,500

