
Integration time [ms]:   0,040
Averaging Nr. [scans]: 11
Smoothing Nr. [pixels]: 0
Data measured with spectrometer [name]: 7318044SP
Wave   ;Sample   ;Dark     ;Reference
[nm]   ;[counts] ;[counts] ;[counts] 

186,757;   23,358;   31,551;    1,318
187,357;   73,295;   22,551;    0,955
187,958;   39,187;   15,460;   -1,591
188,558;   90,533;    8,915;   -1,227
189,159;   55,488;    6,733;   -4,500
189,759;   22,544;    7,278;   -3,591
190,360;   26,908;    2,824;   -2,136
190,960;   59,387;    2,915;   -4,136
191,560;   84,713;    3,189;   -6,591
192,161;  351,487;    4,372;   -3,500
192,761;  170,817;    4,010;   -3,227
193,361;  122,692;    1,556;   -3,773
193,962;  177,380;    2,010;   -2,682
194,562;   90,577;    1,189;   -3,955
195,162;  134,384;   -2,448;   -2,227
195,762;  302,348;   -3,176;   -0,045
196,362;  251,299;    1,370;   -2,500
196,963;  102,299;    2,006;   -0,864
197,563;  184,900;    1,551;   -0,955
198,163;  127,508;    0,096;   -0,682
198,763;  142,117;    1,733;   -0,500
199,363;  253,368;    3,096;   -0,500
199,963;  202,844;    0,369;    0,409
200,563;  183,102;    2,823;   -1,409
201,163;  163,735;    3,277;   -0,227
201,763;  266,081;    3,732;    0,318
202,363;  192,808;    1,459;    1,500
202,963;  315,382;    1,459;    1,045
203,563;  433,557;    0,277;    0,500
204,162;  275,571;    2,096;   -1,864
204,762;  262,539;    0,550;    0,591
205,362;  211,084;    3,004;    1,955
205,962;  323,186;    3,096;    1,955
206,562;  328,175;    1,823;    2,318
207,161;  287,909;   -0,087;    0,318
207,761;  450,298;    1,277;    2,409
208,361;  317,305;   -0,268;    1,409
208,960;  429,584;    0,459;    1,500
209,560;  515,549;    1,277;    1,591
210,160;  494,137;    0,550;    1,864
210,759;  453,679;    4,186;    1,227
211,359;  453,056;    1,459;    1,045
211,958;  729,511;    1,277;    2,045
212,558;  826,399;    1,732;    1,864
213,157;  656,626;    1,822;    1,500
213,757; 1118,804;    3,822;   -0,227
214,356;  803,507;    1,277;   -0,409
214,956; 1157,102;    3,095;    0,409
215,555;  761,822;    2,095;    2,136
216,154;  698,399;   -2,723;   -0,591
216,754;  701,483;    0,277;    0,773
217,353;  855,014;   -0,268;   -1,045
217,952;  694,591;   -0,178;    0,318
218,552;  947,685;    1,368;   -0,773
219,151;  844,577;    0,277;    0,955
219,750;  852,251;    0,004;   -0,227
220,349;  988,671;   -0,451;    1,045
220,948; 1043,629;   -1,360;    1,136
221,548; 1091,482;    0,913;    1,227
222,147; 1207,769;   -0,087;   -0,409
222,746; 1490,619;   -0,451;   -0,955
223,345; 1373,182;    0,731;    0,500
223,944; 1389,538;   -0,451;    0,773
224,543; 1563,766;    1,004;   -1,409
225,142; 1665,311;    0,094;    0,136
225,741; 1586,804;   -0,814;    1,045
226,340; 1628,671;   -0,451;   -0,955
226,939; 2095,762;   -0,996;   -0,136
227,538; 2070,280;   -0,360;   -0,773
228,137; 2225,976;   -0,814;    0,864
228,735; 2404,699;   -0,541;    1,227
229,334; 2136,056;   -0,905;   -0,227
229,933; 2527,490;    0,459;    0,591
230,532; 2649,357;    1,186;   -0,409
231,131; 2706,815;    1,732;    0,318
231,729; 2888,018;   -2,450;   -2,318
232,328; 3026,612;   -0,723;   -1,500
232,927; 3133,853;    1,004;   -0,500
233,525; 3278,122;    3,640;    0,045
234,124; 3489,962;    2,368;   -1,591
234,723; 3500,353;    0,913;   -1,045
235,321; 3670,196;    2,277;    0,136
235,920; 3938,385;    1,186;   -1,227
236,518; 4197,773;    3,459;    0,318
237,117; 4379,000;    0,004;   -0,227
237,715; 4581,119;    0,640;   -0,500
238,314; 4606,458;   -0,087;   -2,318
238,912; 4703,308;   -0,723;   -1,409
239,510; 4772,567;    0,459;   -1,227
240,109; 4958,493;    0,004;    3,773
240,707; 4985,388;   -0,996;    1,227
241,305; 5384,535;    0,550;    0,136
241,904; 5631,262;   -0,178;   -2,045
242,502; 5577,909;   -0,632;   -0,227
243,100; 5528,657;   -0,087;   -0,955
243,698; 5759,322;    0,732;    1,682
244,297; 5967,969;   -0,632;    0,682
244,895; 5788,916;   -0,269;   -2,318
245,493; 6156,919;    2,186;   -0,591
246,091; 6166,965;    1,368;   -1,318
246,689; 6170,325;    1,004;    0,591
247,287; 6349,563;    0,822;   -1,136
247,885; 6662,360;   -1,451;    1,227
248,483; 6717,892;    1,822;   -0,500
249,081; 6858,667;    0,185;    1,591
249,679; 7030,776;   -0,178;    1,682
250,277; 7311,426;   -1,723;    0,864
250,875; 7284,025;   -1,087;   -1,045
251,473; 7314,126;   -1,178;    0,500
252,071; 7516,164;    1,459;    1,045
252,669; 7670,720;   -1,814;    0,318
253,267; 7918,839;   -0,087;    0,773
253,864; 7901,563;   -0,360;    0,682
254,462; 7753,349;    1,640;    1,591
255,060; 7744,968;   -0,269;    1,318
255,658; 8066,447;    0,822;   -0,136
256,255; 8474,105;    0,186;   -2,045
256,853; 8363,814;   -0,269;    1,409
257,451; 8348,822;    0,822;    1,864
258,048; 8635,168;    1,822;    1,864
258,646; 8403,710;    1,731;   -1,045
259,243; 8571,633;   -0,087;    2,227
259,841; 8640,601;   -0,814;    0,318
260,438; 8491,605;   -0,087;    0,864
261,036; 9261,004;   -1,905;    1,409
261,633; 9133,363;   -0,087;    2,227
262,231; 8853,559;    2,731;   -0,045
262,828; 8959,615;   -0,905;    1,136
263,425; 9022,888;    0,913;   -0,591
264,023; 9324,514;    0,186;    0,045
264,620; 8847,521;   -0,360;   -0,318
265,217; 9204,451;   -2,087;    3,136
265,815; 9301,479;   -1,905;    2,136
266,412; 9088,367;    0,731;    0,136
267,009; 9142,000;   -1,451;    0,773
267,606; 9023,073;    0,822;   -0,955
268,203; 8992,958;   -0,269;   -0,591
268,801; 9308,566;    1,731;    0,591
269,398; 9584,129;   -0,360;    2,500
269,995; 9591,434;    0,277;    1,591
270,592; 9347,542;   -0,632;   -0,500
271,189; 9540,524;    0,186;    0,409
271,786; 9679,378;   -0,632;    1,227
272,383; 9483,647;   -1,087;    0,227
272,980; 9721,975;    0,277;    0,318
273,577;10216,682;    0,004;    1,227
274,174; 9746,727;    0,822;    2,591
274,771; 9699,356;   -0,814;   -0,773
275,367; 9870,224;    2,277;    1,409
275,964; 9833,238;    0,731;   -0,500
276,561; 9949,821;    1,549;   -1,045
277,158;10168,412;    0,095;   -1,773
277,755;10316,577;    2,185;    0,409
278,351; 9700,252;   -0,451;   -1,500
278,948; 9989,360;   -0,815;    0,045
279,545;10013,713;   -1,360;    2,318
280,141;10637,262;   -1,723;   -2,045
280,738;10533,986;   -0,451;   -0,136
281,334;10766,220;   -1,633;    0,591
281,931;10126,576;   -0,087;   -1,318
282,528;10222,409;    0,822;   -0,500
283,124;10946,713;   -1,087;   -0,500
283,721;10867,835;   -0,451;    1,409
284,317;10647,916;    0,185;    2,500
284,913;11205,811;   -1,360;    0,591
285,510;11409,993;    0,640;   -0,318
286,106;11445,279;   -2,269;   -0,955
286,703;11051,863;   -0,360;    1,955
287,299;11255,056;   -1,451;   -0,591
287,895;11462,007;    0,822;   -1,045
288,491;12041,947;    0,186;    2,136
289,088;11717,765;   -2,360;    2,409
289,684;11823,811;   -1,723;    1,500
290,280;11837,615;    0,368;    0,682
290,876;11908,304;    1,822;    5,500
291,472;11822,535;    1,276;    2,227
292,068;11896,832;    1,367;    0,227
292,665;11596,238;    2,095;    0,773
293,261;11157,986;    0,276;    2,136
293,857;11606,699;    2,913;    2,136
294,453;11528,668;    3,550;    0,955
295,049;11403,084;   -0,268;    1,955
295,644;11432,787;    0,095;    0,136
296,240;11328,605;   -0,905;   -0,136
296,836;11389,710;   -0,995;    0,318
297,432;11677,952;    1,096;   -0,500
298,028;11714,469;    0,732;    0,773
298,624;12144,175;    1,459;    1,864
299,220;12400,476;    2,368;    0,591
299,815;12042,308;    1,005;   -0,409
300,411;11843,812;    0,914;    1,773
301,007;11811,459;    1,368;    0,227
301,602;11869,231;   -0,541;   -2,318
302,198;12056,606;    0,732;   -0,773
302,794;12411,434;    1,187;   -0,500
303,389;12518,626;   -1,177;    1,045
303,985;12599,787;    0,550;    1,409
304,580;12561,158;    1,459;    1,591
305,176;12557,598;   -3,086;    0,136
305,771;12494,116;   -1,268;   -1,227
306,367;12312,109;    4,095;    0,136
306,962;12645,777;    0,641;    1,500
307,558;12332,259;   -0,450;    0,136
308,153;12266,784;    1,095;   -1,136
308,748;12536,731;   -0,814;    1,682
309,344;12472,958;   -0,632;   -1,318
309,939;12586,322;   -1,905;   -1,318
310,534;12850,640;   -0,086;   -1,682
311,130;12789,070;    0,459;   -2,500
311,725;12501,553;    1,004;   -0,500
312,320;12831,661;    2,459;    0,045
312,915;12674,735;    1,459;   -1,045
313,510;12766,770;    1,550;   -0,500
314,105;13264,655;    1,096;    1,409
314,700;12645,773;   -3,086;   -1,045
315,295;12289,158;   -0,904;    0,045
315,890;11836,861;    1,277;    0,864
316,485;12227,923;   -0,359;   -0,318
317,080;12302,602;   -3,086;    1,591
317,675;12898,847;    2,005;   -0,682
318,270;12299,532;    5,550;    3,318
318,865;12314,801;    3,278;    3,045
319,460;12148,927;   -0,904;    0,591
320,055;12391,375;   -0,541;   -1,227
320,650;12017,690;   -1,995;   -0,591
321,244;12062,392;   -0,177;   -1,409
321,839;13041,784;   -1,541;   -0,227
322,434;12912,570;   -1,086;   -1,591
323,029;12523,036;    1,732;    1,591
323,623;12347,913;    1,550;    0,773
324,218;12114,557;    2,368;    1,409
324,812;11989,710;    1,096;    1,591
325,407;11819,654;   -0,814;    2,045
326,002;11693,448;    0,277;   -0,409
326,596;12031,945;    0,914;    1,318
327,191;12220,703;    0,823;   -1,045
327,785;11796,127;   -0,813;   -0,227
328,379;12021,098;    1,368;    0,136
328,974;11827,948;    0,914;   -3,955
329,568;12006,745;    0,186;   -2,409
330,163;11824,529;    2,096;    1,045
330,757;12198,175;    2,459;    1,591
331,351;11508,987;    0,459;    0,682
331,945;11846,885;    0,914;    1,409
332,540;11392,808;   -1,723;   -0,591
333,134;11548,060;   -1,086;    0,773
333,728;11828,231;    0,005;    0,318
334,322;12136,668;   -1,177;   -0,864
334,916;11437,976;    0,277;    0,955
335,510;11764,738;   -0,450;   -0,136
336,105;11962,340;   -1,086;    1,591
336,699;11672,819;   -1,086;    0,591
337,293;11577,210;   -1,723;    0,318
337,887;11790,238;   -2,723;    1,955
338,481;11883,291;    0,459;    0,591
339,074;12039,518;   -0,359;    2,682
339,668;11864,923;   -1,632;    1,227
340,262;12115,458;    1,732;    3,227
340,856;11631,888;    1,822;   -0,682
341,450;10973,888;    1,004;    1,864
342,044;11878,210;    1,459;    0,136
342,637;11624,675;    0,913;   -2,136
343,231;11485,521;   -2,360;    0,682
343,825;11444,452;   -1,086;   -0,591
344,419;11406,997;   -1,995;    0,500
345,012;11193,179;    2,459;    4,045
345,606;11225,036;    4,641;    1,591
346,199;11046,295;   -1,813;   -0,227
346,793;10544,155;    1,914;    2,045
347,386;10742,585;   -0,813;   -1,136
347,980;10740,053;   -0,268;   -0,045
348,573;10548,057;    2,278;    0,409
349,167;10211,236;    5,278;    4,773
349,760;10557,092;    2,914;    2,682
350,354;10569,687;   -0,813;    1,136
350,947;10275,246;    1,096;    1,682
351,540; 9932,816;   -0,358;   -1,409
352,134; 9868,669;    1,096;    1,136
352,727; 9960,036;   -0,086;    1,136
353,320; 9761,082;    0,005;    0,591
353,913; 9609,316;   -1,995;    1,864
354,507; 9809,788;    0,823;   -1,227
355,100; 9774,040;    0,460;    0,864
355,693; 9046,820;    2,005;    2,409
356,286; 9054,938;    0,823;    2,773
356,879; 9389,735;   -0,722;    1,227
357,472; 9030,959;   -0,904;    1,500
358,065; 9227,508;   -0,722;    2,500
358,658; 9120,096;   -0,540;    2,318
359,251; 8763,012;   -1,631;   -0,591
359,844; 8254,952;   -1,904;   -1,136
360,437; 8453,197;   -2,995;    0,045
361,030; 8722,344;    1,369;   -0,682
361,623; 8296,099;    2,824;    0,318
362,215; 8338,893;   -0,086;    2,045
362,808; 8161,823;   -2,358;   -1,682
363,401; 8379,404;   -2,449;    0,136
363,994; 8106,432;   -0,631;   -1,500
364,586; 8005,180;    0,824;   -1,500
365,179; 8224,785;   -0,449;   -1,136
365,772; 7739,627;   -1,995;    2,045
366,364; 8027,306;    1,915;   -3,227
366,957; 8212,418;    2,279;   -0,045
367,549; 8260,953;    2,188;   -0,864
368,142; 7906,412;    1,825;   -1,500
368,734; 8093,905;    0,734;   -2,136
369,327; 8055,748;    1,643;   -0,500
369,919; 7950,056;   -1,538;    0,409
370,512; 7717,647;   -1,083;   -0,500
371,104; 7510,770;   -0,901;    1,591
371,696; 7725,355;    1,191;   -0,955
372,289; 7796,831;    0,373;    1,136
372,881; 7958,496;   -2,080;    1,318
373,473; 7863,626;   -2,170;    1,136
374,066; 7679,656;   -0,169;    0,500
374,658; 7517,678;    0,378;    1,136
375,250; 7891,740;    0,653;   -1,409
375,842; 7735,609;    0,473;   -0,045
376,434; 7622,991;   -0,435;   -0,409
377,026; 8164,245;    0,204;   -2,500
377,618; 8078,660;   -0,158;   -0,682
378,210; 7919,085;   -0,338;   -1,955
378,802; 7748,317;    0,754;   -0,591
379,394; 7732,619;    1,846;    0,682
379,986; 8315,609;    1,393;   -0,955
380,578; 8413,025;   -0,153;    0,773
381,170; 7760,213;   -0,972;    0,045
381,762; 7701,209;    0,755;    1,409
382,354; 7914,662;   -0,065;   -1,318
382,945; 8002,520;   -2,976;    0,318
383,537; 8169,872;   -2,705;   -1,955
384,129; 8177,255;   -2,160;   -1,136
384,721; 8370,059;   -0,252;    0,955
385,312; 8301,590;   -0,161;   -0,955
385,904; 8411,272;   -2,706;    1,591
386,496; 7774,699;   -0,979;    1,045
387,087; 7893,941;    1,022;    2,500
387,679; 7955,022;   -1,160;    0,045
388,270; 8095,305;    2,840;    2,045
388,862; 8193,665;    1,295;   -0,318
389,453; 8097,176;   -0,887;    1,045
390,045; 8366,780;   -0,705;   -2,682
390,636; 8300,291;    0,204;   -0,591
391,227; 8149,773;   -0,523;   -0,045
391,819; 8261,378;    0,204;    0,773
392,410; 8344,794;    1,022;    0,045
393,001; 8270,437;   -0,979;   -1,591
393,593; 8560,248;    1,930;   -0,045
394,184; 8418,353;    1,385;   -0,409
394,775; 8366,115;    1,839;    2,136
395,366; 8531,049;    1,385;    0,773
395,957; 8521,105;    0,113;    0,136
396,548; 8860,378;   -0,342;    2,682
397,139; 9173,329;   -2,433;    0,591
397,730; 8899,010;   -1,888;    0,955
398,321; 8931,912;   -1,252;    0,955
398,912; 8970,335;   -0,615;    0,136
399,503; 9051,724;   -3,524;   -1,409
400,094; 8493,538;    0,294;    1,682
400,685; 8328,748;   -0,433;    0,045
401,276; 8431,811;    0,930;   -0,955
401,867; 8745,150;   -0,888;    0,773
402,458; 8791,500;   -2,251;   -2,318
403,048; 8807,084;    1,112;    0,591
403,639; 8415,794;    0,840;    0,864
404,230; 8671,849;    2,476;    0,318
404,821; 8563,087;   -0,615;    0,045
405,411; 8718,363;    1,203;   -2,591
406,002; 8311,031;   -1,252;   -1,136
406,592; 8166,846;    2,294;    0,045
407,183; 8459,083;    0,566;   -1,500
407,774; 8385,279;    3,475;   -0,136
408,364; 8723,762;    0,930;    0,409
408,954; 8315,859;    0,384;    1,227
409,545; 8386,576;    1,021;    1,045
410,135; 7923,856;    1,293;    0,500
410,726; 8075,153;    1,838;    0,318
411,316; 8467,177;    0,111;    0,773
411,906; 8142,195;   -0,253;   -0,409
412,497; 7630,006;   -1,070;   -0,045
413,087; 8229,985;   -1,980;   -0,227
413,677; 8630,002;   -0,707;    3,864
414,267; 8465,593;    0,656;    1,409
414,857; 8472,523;   -2,980;    4,227
415,448; 8780,579;    0,839;    0,500
416,038; 8450,447;    0,020;   -0,591
416,628; 8398,264;   -0,889;    0,409
417,218; 7851,645;    0,565;    3,318
417,808; 8144,485;    0,202;   -0,409
418,398; 8640,065;    0,020;    2,682
418,988; 8636,778;    2,020;    0,591
419,578; 8880,173;   -0,707;    1,409
420,168; 9245,020;   -1,343;   -0,955
420,757; 8863,429;   -1,343;   -1,500
421,347; 8506,400;    0,111;   -0,227
421,937; 8650,694;    2,292;    1,409
422,527; 8611,830;    0,838;   -0,773
423,116; 8447,184;   -0,253;   -0,045
423,706; 8795,561;   -1,889;    0,318
424,296; 8768,645;    1,384;    0,682
424,885; 9192,100;   -0,071;   -3,045
425,475; 9482,152;    1,474;   -2,864
426,065; 9395,722;   -0,980;   -0,318
426,654; 9019,019;   -0,435;   -0,318
427,244; 9154,561;    0,020;    1,409
427,833; 8606,537;    1,383;   -0,500
428,423; 9090,404;   -0,526;    1,136
429,012; 9837,134;   -0,344;   -1,136
429,601; 9337,124;   -1,344;    0,136
430,191; 9585,974;    1,292;    4,318
430,780; 9240,652;   -0,344;   -0,409
431,369; 9128,854;    0,746;   -0,045
431,959; 9765,994;   -1,254;    0,500
432,548; 9567,582;   -1,163;   -0,045
433,137; 9659,987;   -1,254;   -1,318
433,726;10218,865;    0,292;    0,500
434,315; 9545,047;   -0,526;    2,409
434,905; 9646,672;   -1,254;    1,409
435,494; 9531,725;    0,746;    0,955
436,083;10005,669;   -0,981;   -0,955
436,672; 9920,438;    0,110;    0,500
437,261; 9466,938;    0,292;   -1,955
437,850; 9599,235;    1,383;    0,682
438,439; 9607,424;    3,291;    1,955
439,027; 9449,815;    3,655;    1,773
439,616; 9789,189;    2,927;    1,227
440,205; 9660,546;    0,200;   -2,136
440,794; 9780,207;    2,109;   -0,045
441,383;10020,899;   -1,346;   -0,591
441,971; 9877,158;   -2,436;    0,591
442,560; 9729,909;    0,563;   -1,773
443,149; 9485,652;    0,379;   -1,318
443,737; 9611,115;   -0,074;   -2,318
444,326; 9889,829;    0,018;    0,318
444,915; 9964,661;   -1,982;    0,864
445,503;10378,713;   -2,891;   -0,318
446,092; 9615,378;    0,382;    2,136
446,680;10166,521;    0,382;    0,318
447,269;10343,521;   -0,346;   -0,318
447,857;10098,136;    0,018;   -1,773
448,445;10226,374;    0,563;    1,318
449,034;10435,293;   -1,528;   -1,136
449,622;10570,751;   -1,073;    3,500
450,210; 9787,901;    2,017;    2,227
450,799;10357,017;    0,290;   -0,591
451,387;10318,894;    1,381;   -0,591
451,975; 9946,038;    2,654;    0,864
452,563;10034,398;    3,472;    2,318
453,151;10068,045;   -0,528;   -1,227
453,739;10021,065;   -1,347;    0,136
454,328; 9842,352;    2,381;   -2,136
454,916; 9562,167;    2,562;   -0,136
455,504; 9748,237;    1,017;    1,227
456,092; 9899,496;    0,017;   -1,591
456,679; 9899,293;    1,472;    0,682
457,267; 9864,635;    4,017;    1,045
457,855;10002,100;    1,017;    1,409
458,443; 9768,820;   -0,165;    1,682
459,031; 9923,404;    0,108;    2,409
459,619;10388,055;   -1,801;    2,864
460,206;10538,936;    0,835;    2,045
460,794;10574,925;   -2,983;   -0,227
461,382;10840,425;   -0,529;   -0,864
461,970;10420,271;    1,198;    1,864
462,557;10430,659;   -0,711;   -0,682
463,145;10639,044;   -3,165;   -1,682
463,732;10797,156;    2,016;   -1,045
464,320;10744,816;   -0,075;   -3,045
464,907;10379,208;    2,743;   -0,773
465,495;10236,798;    0,743;   -1,227
466,082;10424,655;   -1,984;   -0,045
466,670;10373,397;   -2,529;    1,227
467,257;10747,159;   -1,711;    2,045
467,844;10907,131;   -0,075;    0,045
468,432;10951,631;    0,834;    3,500
469,019;10413,333;    0,925;   -1,773
469,606;10915,519;    0,470;    3,682
470,193;10693,067;   -1,439;    0,227
470,780;10283,026;   -2,075;    0,864
471,368;10618,120;   -1,257;   -0,773
471,955;10432,907;    1,379;   -0,682
472,542;10091,938;    0,652;   -1,136
473,129;10296,624;   -0,166;    0,136
473,716;10029,659;    1,470;    0,591
474,303;10249,393;    0,652;   -0,864
474,890;10556,225;   -1,439;   -0,500
475,477;10568,875;   -1,621;    0,409
476,064;10441,976;    1,106;   -1,591
476,650;10419,976;    0,288;    0,318
477,237;10239,703;   -0,258;    0,955
477,824;10392,665;   -1,076;    0,864
478,411;10449,742;   -1,894;   -0,318
478,997;10639,368;    0,560;   -0,773
479,584;10702,623;    1,196;   -0,409
480,171;11442,581;   -0,440;   -0,773
480,757;11116,797;    2,651;    0,773
481,344;11391,011;    0,469;    0,409
481,931;10905,989;    1,105;    1,045
482,517;11987,507;   -1,258;    0,318
483,104;12628,500;    1,106;    2,864
483,690;12896,420;   -1,804;    0,045
484,276;13252,892;   -0,895;    0,227
484,863;12957,664;    2,469;    1,136
485,449;13558,045;   -0,077;    0,318
486,035;13558,091;   -1,986;   -0,136
486,622;13968,290;   -0,895;    0,045
487,208;13906,308;    1,378;    1,500
487,794;13696,860;    0,741;    0,318
488,380;13861,979;    0,105;   -1,409
488,967;13948,569;   -1,168;   -0,409
489,553;14014,363;   -1,895;   -1,409
490,139;14212,793;    1,559;    0,773
490,725;13565,720;    0,741;   -0,227
491,311;13074,580;    3,287;    3,045
491,897;12388,318;   -0,986;    1,500
492,483;12199,650;    0,105;    1,227
493,069;12052,664;    3,923;    0,864
493,655;12018,761;    1,650;    0,682
494,241;11949,076;    1,377;   -0,955
494,826;12368,269;    0,287;   -1,045
495,412;11804,300;    2,559;   -0,682
495,998;11955,569;   -0,805;   -0,318
496,584;12094,646;    0,377;    1,045
497,169;12106,017;    1,014;   -0,682
497,755;12035,202;    0,650;    1,227
498,341;12634,649;    0,559;    0,318
498,926;12197,219;    1,832;    1,955
499,512;12356,435;    1,286;    2,955
500,097;12503,862;    0,195;   -0,318
500,683;12435,729;   -0,350;    2,136
501,268;12809,313;   -0,169;   -0,955
501,854;12534,415;   -0,169;    1,227
502,439;12433,331;   -0,624;   -1,773
503,024;12690,775;    0,195;    0,500
503,610;12749,796;   -0,078;   -0,682
504,195;12753,593;    0,558;    1,955
504,780;12836,055;    2,922;    1,227
505,366;12652,488;    3,013;    2,864
505,951;12385,750;    0,740;    1,045
506,536;12425,670;   -3,260;   -3,682
507,121;12379,205;    0,285;   -0,318
507,706;12880,761;    2,376;    1,045
508,291;13339,844;    2,649;    1,136
508,876;12813,977;   -0,988;    2,591
509,461;12258,358;   -0,169;   -0,773
510,046;12629,466;    0,194;    0,318
510,631;12889,043;   -0,351;   -0,773
511,216;12560,152;    2,467;   -0,500
511,801;12922,830;   -0,442;    2,591
512,386;13221,222;    0,740;    0,500
512,971;13193,592;   -2,988;    0,955
513,555;12760,585;   -0,897;   -1,500
514,140;13533,368;   -0,442;   -3,136
514,725;13538,721;   -0,715;   -1,136
515,309;13642,610;   -0,533;    0,318
515,894;13088,393;   -0,624;   -2,227
516,479;13535,246;   -0,624;   -0,955
517,063;13397,305;    0,376;    1,227
517,648;13542,774;    1,012;   -1,136
518,232;13179,704;   -0,261;   -1,409
518,817;13525,588;   -0,079;    1,682
519,401;13746,081;    2,194;    0,591
519,985;13221,144;    1,103;    1,136
520,570;13124,238;    0,830;   -1,955
521,154;13407,619;    2,102;    0,591
521,738;13582,626;   -2,352;    2,409
522,323;14149,326;   -0,170;    1,682
522,907;13870,130;    0,466;   -0,136
523,491;13584,595;    0,557;    0,955
524,075;13567,207;    2,284;    0,591
524,659;13640,724;    1,466;    0,591
525,243;13154,315;    1,739;    0,409
525,827;13400,815;    0,648;   -0,045
526,411;14265,724;   -1,989;   -0,136
526,995;14486,091;   -0,352;    1,409
527,579;14037,948;   -0,443;   -1,045
528,163;14369,762;    0,375;   -1,500
528,747;14291,290;    2,466;   -0,773
529,331;14577,122;   -0,080;   -1,409
529,915;14766,892;    1,738;    0,955
530,499;14736,315;   -0,807;    1,227
531,082;14438,122;   -0,534;    1,591
531,666;13918,339;    1,374;    0,773
532,250;14578,538;    1,284;    2,682
532,833;14938,926;    0,920;    2,773
533,417;14779,056;   -1,807;    0,864
534,001;14764,426;    1,647;   -0,318
534,584;15460,622;    0,374;    0,500
535,168;15335,888;    0,465;    1,409
535,751;15383,556;    0,647;    0,045
536,334;14788,405;   -0,898;   -0,409
536,918;15343,790;    0,011;    1,591
537,501;15461,021;   -0,899;    1,318
538,085;15480,590;   -0,444;    1,045
538,668;15680,748;    0,829;    2,409
539,251;16005,996;    1,829;    3,773
539,834;15983,346;    0,101;    0,773
540,418;15958,475;   -1,990;    4,318
541,001;16058,506;   -0,990;    1,773
541,584;16010,912;    2,101;    2,227
542,167;15753,157;    1,374;    2,955
542,750;15863,856;    1,919;   -0,773
543,333;15412,485;    0,555;    2,136
543,916;16214,894;    0,192;    2,500
544,499;16857,989;   -1,354;    0,227
545,082;16892,240;    1,374;    3,591
545,665;16998,971;    1,919;    1,500
546,248;17354,667;    1,010;   -0,318
546,830;17014,345;   -0,445;    1,955
547,413;17444,576;    1,010;   -0,773
547,996;17957,226;    0,555;    0,500
548,579;17739,799;    0,919;    0,955
549,161;17514,687;    1,828;    2,682
549,744;17299,352;   -0,809;    0,409
550,326;17766,177;   -0,809;   -1,136
550,909;17605,830;    2,737;    0,591
551,492;18018,792;   -0,263;    0,227
552,074;17780,163;   -0,173;   -1,318
552,657;18360,862;    2,373;    0,045
553,239;18115,061;   -0,173;   -0,773
553,821;17996,173;   -1,082;    1,045
554,404;17516,827;    1,282;    1,136
554,986;17882,141;    0,464;    1,045
555,568;18492,704;    1,191;   -0,955
556,151;17739,225;    1,191;   -0,227
556,733;17888,760;   -0,264;   -0,864
557,315;18401,145;    0,100;    0,500
557,897;18203,281;    0,554;   -0,500
558,479;18302,956;   -1,991;    1,318
559,061;18454,515;   -0,719;   -0,864
559,643;18825,889;   -0,264;    0,045
560,225;19208,683;    1,645;    2,864
560,807;19215,708;    0,918;    0,318
561,389;18674,879;    0,554;    2,318
561,971;19446,375;    0,463;    2,136
562,553;19237,641;   -1,628;    1,591
563,135;19411,207;   -0,537;    1,136
563,717;19031,172;    3,372;    1,136
564,298;19719,057;    3,645;   -0,045
564,880;19478,085;    0,645;   -1,409
565,462;19628,357;    0,645;    1,318
566,043;20820,546;   -0,446;    2,318
566,625;20315,361;    1,918;    1,227
567,207;20181,242;    1,099;    1,682
567,788;21311,078;   -1,264;    1,500
568,370;22165,315;    1,917;   -0,500
568,951;22002,798;    0,190;    0,227
569,533;22853,455;   -0,628;   -0,500
570,114;23308,609;   -0,446;    0,682
570,695;23836,473;   -0,174;   -1,318
571,277;24334,151;   -0,265;   -1,682
571,858;25067,057;    2,008;   -1,136
572,439;25989,525;    1,554;   -1,045
573,021;26164,832;    2,099;   -2,773
573,602;26660,696;   -1,265;    0,318
574,183;27605,256;   -2,083;    2,227
574,764;27712,123;   -1,629;    0,409
575,345;28262,525;    0,917;   -0,136
575,926;28862,074;   -0,356;    0,136
576,507;28758,056;    1,099;   -0,227
577,088;29917,661;    3,099;    1,682
577,669;29944,151;    0,735;    1,955
578,250;30765,437;    0,644;   -1,045
578,831;31428,888;   -1,356;   -2,227
579,412;31644,308;   -0,810;    0,955
579,993;32527,287;    1,008;    0,227
580,573;32818,504;   -0,629;   -0,955
581,154;31780,004;    0,735;   -0,591
581,735;32716,843;    0,644;    0,773
582,315;32188,207;   -0,629;    2,136
582,896;32458,305;   -0,174;    1,227
583,477;31908,115;    0,189;    1,227
584,057;32080,255;    0,553;    0,955
584,638;32409,014;    2,553;    2,318
585,218;32449,976;   -0,538;    2,682
585,799;32584,161;    0,281;   -0,227
586,379;32529,934;    0,372;    1,591
586,959;31256,228;    0,735;    0,318
587,540;30530,874;   -0,629;    2,227
588,120;30086,367;    1,007;   -0,045
588,700;29148,227;    2,553;    2,136
589,281;29470,986;    0,462;   -0,955
589,861;29348,857;    0,099;   -1,682
590,441;29155,902;    2,371;   -2,682
591,021;28135,374;   -0,265;   -2,591
591,601;28394,486;   -0,537;    0,500
592,181;28406,959;   -0,719;   -0,773
592,761;27683,524;    0,007;    1,409
593,341;27604,102;   -0,901;    0,045
593,921;27591,993;   -0,265;    1,591
594,501;27532,804;   -0,538;    1,318
595,081;27355,836;    0,917;   -0,318
595,661;27701,570;   -1,447;    0,955
596,240;28222,972;   -0,537;    0,136
596,820;27913,392;    0,372;    1,955
597,400;28075,409;    2,008;    0,773
597,980;28257,340;    2,008;    1,045
598,559;28255,581;    2,735;   -0,227
599,139;27960,693;   -0,174;   -1,227
599,718;27924,784;   -0,174;   -0,409
600,298;28169,249;    0,735;    0,682
600,877;28421,441;    2,917;    1,409
601,457;28613,679;    2,281;    1,136
602,036;28587,665;    0,190;    2,045
602,616;28792,791;    0,644;    1,682
603,195;29105,039;   -0,355;    3,500
603,774;28675,574;   -0,901;    2,045
604,354;28520,459;    0,826;   -0,500
604,933;28010,567;    0,463;    1,864
605,512;28172,529;    3,554;    0,591
606,091;28209,256;   -0,537;    3,773
606,671;29053,015;    0,281;    0,773
607,250;28136,840;    1,644;    3,136
607,829;28372,669;    2,372;    3,227
608,408;28192,945;    1,190;    2,591
608,987;27230,928;    1,281;    3,409
609,566;27562,937;   -1,265;   -2,500
610,145;27671,637;   -1,082;    0,682
610,723;28076,683;    4,372;    6,864
611,302;27321,169;   -0,446;    1,682
611,881;26801,651;    5,008;   11,227
612,460;27662,721;    1,645;    3,955
613,039;28089,319;   -0,082;    2,045
613,617;26825,623;    1,736;    4,773
614,196;26994,844;    1,099;    1,227
614,775;27348,190;    1,009;    2,409
615,353;27291,029;    0,736;    0,864
615,932;27042,372;    0,100;    2,409
616,510;27584,186;    0,554;    0,591
617,089;27103,169;    7,100;   17,591
617,667;26838,194;    2,372;    6,136
618,246;26657,819;   -1,537;    1,318
618,824;26893,620;   -3,355;   -0,955
619,402;26463,078;   -2,900;   -1,773
619,981;26964,487;   -0,173;   -1,045
620,559;26740,243;    0,009;    1,682
621,137;26273,869;   -0,718;    1,864
621,715;26362,914;   -1,173;   -0,682
622,293;26239,561;   -0,537;   -0,773
622,871;26733,417;   -0,718;    0,500
623,450;26325,428;    0,373;   -0,864
624,028;26175,089;    0,191;   -0,955
624,606;25787,809;   -1,718;    1,682
625,183;26163,093;   -1,536;   -1,136
625,761;25831,907;    1,009;    1,136
626,339;26102,341;    1,373;    2,591
626,917;26450,016;   -0,172;   -0,045
627,495;26473,421;   -0,354;    1,318
628,073;25926,128;   -0,263;    2,864
628,650;25651,726;    0,100;    2,136
629,228;26090,446;    0,373;    4,409
629,806;25482,278;    2,282;    1,136
630,383;25754,914;    1,464;   -0,318
630,961;25610,218;    2,555;   -0,955
631,539;25313,603;    2,464;    0,227
632,116;24722,582;   11,373;   15,409
632,694;25218,558;    2,555;    6,500
633,271;25578,478;    0,828;    2,682
633,848;25490,799;    1,828;    2,045
634,426;25494,502;   -1,081;    1,773
635,003;24604,891;    1,101;   -0,409
635,580;24962,149;    1,192;    3,682
636,158;25476,034;    3,737;    1,227
636,735;25448,964;    0,555;   -0,500
637,312;25621,876;   -0,809;   -0,682
637,889;25702,635;   -4,354;   -0,682
638,466;25160,038;   -3,990;   -0,409
639,043;25186,422;    2,101;   -1,136
639,620;25522,842;   -2,262;   -0,955
640,197;25818,878;    1,100;    1,682
640,774;25887,295;   -0,172;    1,136
641,351;26310,440;    0,737;    1,136
641,928;25768,039;   -0,627;    1,409
642,505;25413,730;    0,828;   -0,500
643,082;25568,966;   -1,718;    1,227
643,658;24628,292;   -0,718;    1,500
644,235;25328,801;    1,191;    2,500
644,812;25652,036;    1,918;    0,773
645,388;25394,090;   -0,991;    1,409
645,965;25502,417;   -0,809;    1,682
646,542;25573,835;   -1,445;   -0,227
647,118;25501,798;    1,009;   -0,955
647,695;25808,579;   -0,263;    1,136
648,271;25681,087;   -0,536;    0,500
648,848;26016,596;    0,736;    2,227
649,424;25913,741;    0,827;    1,318
650,000;25643,522;   -0,354;   -1,045
650,577;25407,849;   -0,627;   -0,955
651,153;25896,721;   -1,809;    0,955
651,729;26880,411;    1,191;    0,864
652,305;27401,010;    0,645;    2,773
652,881;32496,519;   -0,082;    1,136
653,458;39352,664;    1,100;    0,227
654,034;42787,718;    0,282;    1,591
654,610;43979,772;    0,554;    0,773
655,186;45238,280;    0,645;    3,045
655,762;44882,152;   -0,991;    0,409
656,338;44844,661;    0,100;    0,136
656,913;45776,078;   -0,082;    0,409
657,489;44944,587;    0,827;   -0,318
658,065;44898,822;   -0,173;   -1,591
658,641;45546,967;   -0,900;   -0,864
659,217;44816,112;   -0,991;    0,409
659,792;44209,621;    0,645;   -0,409
660,368;44406,038;   -2,173;   -0,682
660,944;43797,728;   -2,082;    1,227
661,519;38697,055;   -0,628;    0,409
662,095;32831,745;   -1,719;    0,591
662,670;28675,799;    1,281;   -0,136
663,246;27749,853;    1,009;   -0,409
663,821;27142,907;    0,281;    1,682
664,396;26652,598;    0,009;    1,864
664,972;26938,833;    0,009;   -0,500
665,547;27234,433;    1,372;    0,136
666,122;27306,578;   -1,082;    0,318
666,698;27544,177;   -0,173;    0,318
667,273;26902,867;   -0,173;    0,136
667,848;27752,194;    2,372;    1,500
668,423;27573,975;    2,190;    2,318
668,998;28114,756;    2,827;   -0,682
669,573;28632,628;   -3,264;   -1,500
670,148;28456,592;   -1,446;   -0,682
670,723;28239,918;   -1,810;    0,318
671,298;28640,063;    2,372;    1,045
671,873;28794,844;   -0,082;   -0,136
672,448;28743,353;    0,645;    0,136
673,023;29075,861;   -1,992;   -0,227
673,597;29430,733;    0,827;    2,318
674,172;29181,333;   -0,355;    0,318
674,747;28677,750;    0,372;   -1,045
675,321;28461,895;   -0,628;    3,318
675,896;28052,676;    0,645;    1,045
676,471;29072,912;    2,645;    1,591
677,045;28812,602;   -1,264;    0,682
677,620;28893,565;    0,190;    1,136
678,194;29163,074;   -2,628;    1,136
678,769;28754,855;   -1,083;   -0,318
679,343;29035,455;   -0,628;    1,773
679,917;28885,599;   -1,446;    1,955
680,492;29010,471;    0,826;    3,227
681,066;29165,162;    3,372;    0,409
681,640;29163,761;    1,463;   -0,318
682,214;30004,724;    0,735;    0,500
682,788;29524,142;   -1,356;   -0,773
683,363;29476,105;   -1,810;    1,682
683,937;29139,341;   -1,719;   -0,318
684,511;29903,122;    0,463;   -0,591
685,085;29577,085;   -1,356;    0,318
685,659;29296,593;   -2,538;    0,864
686,232;29626,284;   -0,356;   -0,318
686,806;29348,065;   -0,901;    0,409
687,380;29981,210;   -0,174;    0,591
687,954;30180,536;   -1,174;    1,136
688,528;29922,499;   -0,719;    1,955
689,101;30640,826;   -3,992;    1,045
689,675;30255,607;   -0,356;   -0,136
690,249;29606,843;   -0,719;    0,409
690,822;29926,533;    0,280;    0,318
691,396;30106,224;   -0,265;    1,227
691,969;29504,459;    1,280;    0,136
692,543;29919,786;   -0,447;   -1,955
693,116;29566,294;   -0,265;   -1,409
693,690;29440,530;    0,099;    0,500
694,263;30011,493;   -1,083;    2,955
694,836;30060,002;    1,371;    3,591
695,410;28795,965;   -0,265;    1,773
695,983;29233,564;    0,189;    0,591
696,556;29162,618;   -0,447;   -1,045
697,129;29534,672;   -0,356;    1,409
697,703;29125,271;   -1,629;    1,955
698,276;29103,598;    1,462;   -0,773
698,849;28947,652;    1,280;    1,409
699,422;29376,615;   -1,083;    0,591
699,995;29053,669;    0,007;    0,136
700,568;29557,723;   -0,629;    3,045
701,140;29550,959;   -2,811;    1,682
701,713;29273,013;   -0,174;    2,409
702,286;29005,157;   -0,538;    0,864
702,859;28904,030;   -0,902;   -0,591
703,432;28033,629;    0,825;    0,682
704,004;28558,501;    0,462;    0,318
704,577;28452,191;   -0,629;    0,136
705,150;29048,609;    0,189;    2,500
705,722;28791,572;   -0,356;   -3,227
706,295;28582,171;   -0,175;   -0,591
706,867;28456,134;   -0,175;    1,955
707,440;28666,097;   -1,720;   -0,409
708,012;28966,515;    0,462;    0,591
708,584;28786,933;    2,462;    0,227
709,157;29066,259;    1,825;   -0,591
709,729;28768,313;    2,280;    2,045
710,301;29623,458;    0,734;    0,045
710,874;29603,421;   -1,447;   -0,227
711,446;28452,202;    0,371;    0,864
712,018;28379,529;    0,098;    0,500
712,590;28097,310;   -1,993;    1,682
713,162;28662,182;    0,825;    1,318
713,734;28887,145;    1,825;   -2,045
714,306;28764,381;   -1,902;   -0,409
714,878;27452,617;    0,825;    0,864
715,450;28313,853;    0,643;    0,864
716,022;28527,816;    1,552;    1,318
716,593;28671,051;    0,189;    0,591
717,165;28630,924;   -3,175;   -1,227
717,737;28381,523;    0,280;    0,409
718,309;27995,486;    0,280;   -0,045
718,880;27967,540;   -0,539;   -1,409
719,452;28172,867;   -0,175;   -1,591
720,024;27809,557;    0,734;   -0,591
720,595;28358,338;   -2,902;    0,955
721,167;27912,937;    0,370;   -2,045
721,738;27411,719;   -0,812;   -1,045
722,309;27435,682;   -0,993;   -1,227
722,881;27169,372;   -1,357;    0,773
723,452;27783,971;   -2,630;    2,864
724,023;27979,025;   -0,721;    2,682
724,595;27722,443;    0,007;    0,682
725,166;27499,497;    0,007;   -0,409
725,737;27190,096;    1,734;    0,227
726,308;27196,696;   -0,266;    0,318
726,879;27692,295;   -1,630;    1,227
727,450;27553,713;    0,552;   -0,045
728,021;27478,857;    3,097;    0,682
728,592;27252,002;    0,734;    0,500
729,163;27633,147;    0,643;   -0,136
729,734;27660,837;    0,188;   -0,227
730,305;27990,982;    1,734;    0,136
730,876;28379,127;    0,188;    2,955
731,447;28109,090;    2,188;    2,682
732,017;28210,508;    1,097;    1,864
732,588;27654,471;    0,734;    1,227
733,159;27851,434;    0,643;   -1,045
733,729;27616,760;    0,006;    0,409
734,300;26898,905;    0,915;    0,864
734,870;27324,777;    3,461;    0,591
735,441;27890,468;    0,370;   -0,591
736,011;27699,794;    0,643;   -1,591
736,582;27606,303;   -0,812;    0,045
737,152;27090,811;   -1,721;   -2,045
737,722;27522,593;   -0,267;   -0,682
738,293;27271,192;   -1,358;    1,318
738,863;27078,155;    2,461;    2,318
739,433;26915,663;    5,279;    0,318
740,003;27515,172;   -0,994;   -0,682
740,573;26937,317;    2,097;   -1,591
741,143;26921,189;   -1,085;    0,318
741,713;27687,606;    1,188;   -0,500
742,283;27375,479;    0,915;    1,591
742,853;27125,987;    1,915;    1,591
743,423;26583,223;    1,733;    0,045
743,993;26699,731;   -0,358;    1,500
744,563;26105,603;    0,097;   -0,864
745,133;26105,385;   -0,812;   -0,864
745,702;26709,893;   -0,267;    1,773
746,272;25961,765;   -0,176;    0,591
746,842;25741,274;   -1,358;   -0,591
747,411;26147,419;   -0,267;   -0,318
747,981;26326,563;    0,097;    0,500
748,551;26380,890;    2,278;   -1,045
749,120;26226,217;    0,642;   -0,227
749,690;26607,634;   -0,631;    2,409
750,259;26977,416;    1,369;    2,955
750,828;26849,833;    1,551;   -1,955
751,398;27122,342;    1,278;   -0,045
751,967;26674,668;    2,187;    0,409
752,536;26846,904;   -0,813;   -0,227
753,105;27259,685;    0,096;    0,227
753,675;27107,739;    0,096;    1,773
754,244;27060,884;   -0,904;    3,591
754,813;27125,483;    0,551;    1,227
755,382;26621,446;    0,460;    0,955
755,951;27247,500;    1,551;    3,682
756,520;26735,100;   -0,085;    1,864
757,089;27325,245;    0,278;    0,500
757,658;27449,389;    1,733;    1,227
758,227;27417,989;    1,096;    0,318
758,795;27720,861;    1,187;    1,136
759,364;27953,006;   -0,086;   -0,591
759,933;26990,332;   -1,176;   -0,045
760,501;26486,023;    0,733;   -1,318
761,070;26968,440;   -2,813;   -1,409
761,639;27668,949;   -1,904;    1,318
762,207;27036,003;    1,551;   -0,955
762,776;26955,602;    0,369;    0,864
763,344;26904,020;   -0,995;    0,591
763,913;25976,074;   -0,722;    1,409
764,481;26698,582;    1,005;   -0,136
765,049;26480,545;   -1,358;    1,409
765,618;26380,781;   -0,086;    0,318
766,186;26460,199;    0,278;    0,136
766,754;26674,434;    0,005;    1,864
767,322;25685,306;   -1,995;    0,409
767,890;25666,542;   -0,722;   -1,773
768,459;26076,051;   -2,177;   -0,318
769,027;26252,741;    1,641;    3,409
769,595;25203,704;    3,278;    2,591
770,163;25667,394;    3,823;    2,955
770,730;25423,266;    0,732;   -0,136
771,298;25235,684;    0,187;   -1,409
771,866;25340,374;   -1,541;    4,955
772,434;25699,519;   -0,631;   -1,864
773,002;25820,937;    0,005;    0,682
773,569;25468,809;    0,914;    1,682
774,137;25269,499;   -0,268;   -0,045
774,705;26083,099;    0,278;   -0,136
775,272;25580,334;    0,641;    0,682
775,840;25301,025;   -0,177;    2,682
776,407;24885,169;    0,277;    1,955
776,975;24509,769;   -0,632;    0,318
777,542;25463,641;   -1,086;   -0,045
778,110;25289,604;   -1,268;   -0,045
778,677;24955,203;   -2,359;   -0,864
779,244;24704,894;    2,186;    1,045
779,812;24883,948;    1,823;    0,864
780,379;24744,002;    0,005;    1,136
780,946;24985,237;    1,005;   -0,773
781,513;25301,564;   -1,450;    0,318
782,080;24711,527;   -0,086;    2,864
782,647;25448,035;   -0,268;    3,045
783,214;25042,453;   -0,177;    3,864
783,781;24645,416;   -0,723;   -0,682
784,348;24499,379;   -0,632;    1,500
784,915;24966,069;   -3,177;    0,318
785,482;24773,760;    1,368;    2,591
786,049;25171,541;    0,186;   -0,591
786,615;25281,868;    0,277;   -0,955
787,182;25016,376;    0,186;   -0,682
787,749;24666,885;   -2,814;    1,409
788,315;24014,029;   -1,632;   -0,409
788,882;24275,174;    1,550;   -1,227
789,448;25030,228;    1,732;   -0,955
790,015;24962,373;    1,095;    3,227
790,581;24531,791;    1,459;    0,227
791,148;24452,299;    0,641;    1,045
791,714;24667,080;   -0,541;    3,136
792,280;24321,862;    0,186;    1,591
792,847;23924,552;    0,550;    2,500
793,413;24471,424;   -0,269;   -0,318
793,979;24010,023;    3,459;   -1,318
794,545;24151,077;    4,459;    2,682
795,111;23529,949;    2,186;    1,318
795,678;23654,912;    0,731;   -1,682
796,244;23361,694;    3,368;    0,136
796,810;23903,838;    1,731;    0,773
797,375;23618,983;    0,549;   -2,136
797,941;23666,128;   -0,541;    0,591
798,507;23786,909;   -0,451;   -0,955
799,073;23329,963;   -0,360;    0,591
799,639;23376,926;   -2,632;    3,136
800,205;23408,617;    0,095;    2,682
800,770;22980,852;    0,640;    1,773
801,336;23036,543;    1,368;   -0,955
801,901;22790,233;    4,549;    3,136
802,467;23296,378;   -0,542;    2,045
803,033;22648,523;   -0,087;    0,864
803,598;22845,668;    1,913;   -1,045
804,163;22884,358;    1,095;   -0,318
804,729;22852,685;   -0,178;    1,136
805,294;23245,284;    0,822;    2,227
805,859;23041,520;    0,731;   -0,409
806,425;22525,028;    1,186;    2,682
806,990;22167,082;    2,186;    4,318
807,555;22655,772;   -1,451;    2,591
808,120;22523,644;    0,822;   -0,409
808,685;22564,335;    0,185;   -2,500
809,250;22067,571;    0,004;   -0,500
809,815;22412,170;    1,913;    0,682
810,380;22938,951;   -0,269;    1,591
810,945;23494,732;   -1,087;    2,045
811,510;22658,332;    2,094;    1,591
812,075;22378,295;   -0,633;   -1,409
812,640;22396,985;    2,003;    1,409
813,204;22462,584;    0,822;   -0,227
813,769;22951,093;    2,094;   -0,045
814,334;22426,601;    0,458;    0,864
814,898;22489,292;    0,367;    0,591
815,463;22281,800;    1,276;   -0,773
816,027;22238,127;   -0,724;   -2,318
816,592;22306,363;    0,640;   -2,045
817,156;21853,144;    2,094;    1,136
817,721;21742,107;    4,276;    2,318
818,285;21686,615;    2,912;    1,500
818,849;22313,669;   -1,451;    1,682
819,414;22225,087;   -0,269;    2,955
819,978;21811,050;   -1,269;    1,773
820,542;22360,558;    2,003;    0,500
821,106;22074,976;   -0,815;    0,682
821,670;22204,030;   -0,815;    2,591
822,234;21930,266;   -0,270;    1,409
822,798;21273,501;    0,003;    0,500
823,362;21243,919;   -0,633;    4,227
823,926;20557,700;    0,094;    1,136
824,490;20859,209;   -0,997;   -0,682
825,054;21241,172;   -0,088;   -1,136
825,618;20824,953;   -1,542;   -1,500
826,181;20808,098;    0,458;   -1,318
826,745;20758,606;    1,367;   -1,045
827,309;21103,751;    1,185;    1,318
827,872;20483,441;    1,367;    0,955
828,436;21445,314;    1,185;   -0,773
828,999;21540,367;   -0,997;    1,227
829,563;20304,331;   -0,179;    1,136
830,126;20090,294;   -0,179;   -0,591
830,690;20140,893;   -1,997;    2,864
831,253;19633,947;   -0,543;    2,227
831,816;19785,728;   -1,906;    0,500
832,380;19701,055;    0,185;    0,864
832,943;19952,018;   -1,361;   -0,500
833,506;19416,799;    2,639;   -1,227
834,069;20198,853;    3,912;   -0,955
834,632;20260,180;    1,730;    1,318
835,195;20159,870;    1,003;    0,955
835,758;19337,197;   -0,997;    1,955
836,321;19215,614;    0,730;   -1,045
836,884;19290,123;   -0,725;   -0,955
837,447;19324,086;   -2,816;    1,773
838,010;19633,958;    0,366;    3,227
838,573;19937,648;   -1,179;    0,773
839,135;19857,793;   -1,361;   -0,955
839,698;19320,483;    1,275;    0,409
840,261;18833,446;    1,003;   -0,227
840,823;18666,864;   -0,543;    0,864
841,386;18997,736;   -0,452;   -2,409
841,948;18853,244;   -1,361;    1,773
842,511;18568,935;    0,912;    1,682
843,073;18758,716;    1,912;    0,227
843,636;18563,952;   -0,361;   -0,227
844,198;18505,278;    0,911;    0,591
844,760;18589,332;    1,093;    1,955
845,322;18226,023;    0,548;    1,136
845,885;18661,895;    0,730;    0,591
846,447;19117,767;   -1,998;    0,227
847,009;18724,730;    1,911;   -0,682
847,571;19042,420;    0,820;   -2,045
848,133;19125,838;   -1,089;   -1,864
848,695;18905,983;   -0,543;    1,409
849,257;18504,309;   -1,089;   -1,682
849,819;18699,272;   -0,998;   -0,409
850,381;18691,872;   -0,725;   -0,864
850,942;19088,653;    1,093;   -0,591
851,504;19055,525;    1,184;    0,227
852,066;19092,488;    1,275;   -1,591
852,628;18577,542;   -0,180;    1,955
853,189;18116,323;    1,638;    2,682
853,751;18272,741;   -0,907;    1,409
854,312;18074,249;   -0,453;   -1,682
854,874;18530,940;   -2,089;   -0,773
855,435;19086,266;   -0,907;   -1,682
855,997;19275,684;   -1,816;   -0,136
856,558;18523,101;    0,366;    1,773
857,119;18660,701;    0,820;    2,864
857,681;18356,755;    0,002;    0,318
858,242;18400,990;    1,911;   -2,136
858,803;18810,681;    0,456;   -0,773
859,364;19383,916;    0,184;   -4,773
859,925;18694,698;   -2,453;   -0,955
860,486;18600,933;   -0,453;   -0,955
861,047;18329,624;   -0,544;   -1,227
861,608;18110,223;   -1,089;   -0,773
862,169;18215,459;    0,638;   -0,045
862,730;18008,786;    0,456;    1,409
863,291;18304,749;   -0,635;   -0,500
863,852;18645,075;   -0,635;    1,955
864,412;18109,584;   -0,271;   -0,864
864,973;16692,820;   -0,089;    0,500
865,534;16571,964;   -1,726;    0,227
866,094;18116,291;    1,820;    0,227
866,655;17747,163;    1,274;    3,318
867,215;17987,399;    0,274;    0,136
867,776;17806,180;    0,547;   -0,136
868,336;17946,052;   -1,453;    0,136
868,897;17442,288;    2,638;    1,682
869,457;17195,978;    1,365;    0,318
870,017;17402,759;    0,547;   -1,227
870,578;17940,904;   -0,817;    0,773
871,138;17603,867;   -2,089;   -0,955
871,698;17144,558;   -0,817;   -1,318
872,258;17027,430;   -0,453;   -2,864
872,818;17417,666;    2,729;    0,045
873,378;17378,356;    0,638;    1,045
873,938;16919,683;    0,547;    0,500
874,498;17236,827;    0,274;   -1,955
875,058;17125,972;    2,183;    1,773
875,618;16977,026;    1,910;   -2,682
876,177;16873,807;    1,274;    0,136
876,737;16512,316;   -0,090;    1,955
877,297;16558,279;    0,183;    1,955
877,856;16566,878;   -0,362;    0,318
878,416;16495,932;    1,183;   -0,136
878,976;16732,532;   -1,817;    0,409
879,535;16901,404;    0,092;    3,136
880,095;16627,185;   -0,544;    0,045
880,654;16754,148;   -1,090;    1,318
881,213;16890,384;    2,456;    1,500
881,773;16534,710;    2,637;    2,682
882,332;16873,492;    3,365;    5,136
882,891;16703,273;    3,092;    2,136
883,451;17185,690;   -1,272;    1,682
884,010;16601,562;   -2,908;   -0,409
884,569;16693,526;   -0,999;   -0,045
885,128;16825,216;    2,819;   -1,864
885,687;16905,997;    4,455;    0,682
886,246;16653,596;    1,455;    2,136
886,805;16423,650;    2,455;    2,045
887,364;16656,613;   -0,999;   -0,500
887,922;17031,304;   -1,181;    0,045
888,481;16525,630;   -1,545;    0,591
889,040;16807,866;    1,183;    2,136
889,599;17519,011;    2,455;    1,409
890,157;17545,156;    1,455;    2,409
890,716;17204,119;   -0,090;    0,227
891,274;17055,900;    0,092;   -1,136
891,833;17518,318;    1,546;    0,864
892,391;17409,281;   -0,454;    0,500
892,950;17459,244;    1,819;   -0,773
893,508;17840,025;    0,455;   -0,409
894,067;17146,261;    0,637;    0,136
894,625;17042,315;   -0,636;   -1,500
895,183;17272,550;   -0,363;   -0,682
895,741;17158,786;    1,728;   -1,773
896,299;16988,749;   -0,545;   -2,409
896,858;17169,530;    0,819;   -1,591
897,416;17304,766;    2,728;   -1,318
897,974;17063,184;    1,819;    0,318
898,532;17269,965;    6,091;    2,682
899,089;17134,292;    2,091;   -0,682
899,647;17162,891;   -1,454;    1,318
900,205;16887,763;    1,182;    1,045
900,763;17074,817;   -0,454;    0,227
901,321;17075,053;    2,364;   -1,409
901,878;16500,743;   -1,000;   -0,773
902,436;16383,524;   -1,363;    1,318
902,994;16790,851;    4,728;    3,682
903,551;16232,723;    0,728;    0,409
904,109;16593,141;    0,182;   -1,409
904,666;16171,104;    2,455;    1,045
905,224;16016,067;    0,182;   -0,409
905,781;15781,030;    0,727;   -0,318
906,338;15799,265;   -1,363;    1,045
906,895;15751,956;    0,637;    2,045
907,453;15717,919;    1,727;    1,136
908,010;15696,427;   -0,909;    0,409
908,567;15389,572;    1,273;    0,591
909,124;14869,990;    0,364;   -1,500
909,681;14964,680;   -2,909;    0,682
910,238;15101,370;    0,636;   -1,318
910,795;15388,606;   -0,273;   -1,136
911,352;15021,606;   -2,909;   -2,682
911,909;14426,606;   -1,364;   -0,864
912,466;14982,697;   -3,182;    1,500
913,022;14538,424;   -1,636;    0,500
913,579;14842,515;   -0,909;    2,045
914,136;14525,424;    1,636;    0,955
914,692;14904,606;    0,091;   -1,227
915,249;14490,788;    1,455;    0,409
915,806;14710,061;    0,182;    1,955
916,362;14479,333;    1,909;    1,864
916,918;14059,788;    2,000;    1,045
917,475;14041,424;   -1,182;    0,955
918,031;14079,061;    3,364;   -0,045
918,587;13510,424;   -0,909;   -0,318
919,144;13743,242;   -2,273;    0,227
919,700;14067,242;    1,727;    0,773
920,256;13594,515;    0,727;    0,045
920,812;13215,970;   -0,727;   -1,045
921,368;13278,879;   -1,727;   -1,045
921,924;12895,333;    0,182;   -0,136
922,480;12495,970;   -0,545;    1,227
923,036;13105,970;    1,273;    1,955
923,592;13040,697;    0,455;    0,318
924,148;12947,697;    0,455;   -0,955
924,704;12245,424;   -1,364;   -0,409
925,259;12492,788;   -0,273;    0,591
925,815;12283,697;    1,455;    0,500
926,371;11807,333;    2,909;    1,409
926,926;11706,788;    2,091;    0,591
927,482;11334,424;   -1,364;    0,773
928,037;11200,879;    0,909;    2,045
928,593;11512,970;    1,636;    1,045
929,148;11331,515;   -1,818;   -1,500
929,704;10834,152;   -1,455;   -0,500
930,259;11052,697;    0,091;   -0,136
930,814;10142,515;   -0,818;    1,955
931,369; 9789,242;    1,091;   -0,773
931,925; 9685,970;   -0,091;    0,136
932,480; 9604,152;   -2,818;   -2,591
933,035; 9453,788;    0,545;   -0,318
933,590; 9228,788;    0,364;   -1,773
934,145; 8875,242;   -1,364;   -0,318
934,700; 9193,515;    0,455;   -0,591
935,255; 9014,152;   -0,091;    0,045
935,809; 8301,697;    3,182;    0,864
936,364; 7432,333;   -0,455;   -0,136
936,919; 7417,970;    0,455;   -1,773
937,474; 7285,515;    1,455;    0,136
938,028; 7050,242;   -1,636;    1,136
938,583; 6539,879;    1,818;    4,682
939,138; 6771,242;    2,091;    2,136
939,692; 6225,970;    1,636;   -1,136
940,247; 5937,515;   -0,727;   -1,045
940,801; 5511,606;   -0,636;    0,227
941,355; 5392,970;   -0,364;    2,591
941,910; 5043,879;   -0,273;   -2,136
942,464; 5172,333;   -0,818;   -0,318
943,018; 4961,970;    1,000;   -0,227
943,572; 4923,061;    2,545;   -0,682
944,126; 4340,606;    0,091;   -0,409
944,681; 4251,242;    3,091;    0,227
945,235; 4201,333;    1,000;   -0,591
945,789; 4133,606;    0,364;   -1,864
946,342; 4284,242;    0,455;   -0,591
946,896; 4070,788;   -2,273;    0,955
947,450; 3813,879;    1,545;   -0,227
948,004; 4023,061;    1,727;   -0,045
948,558; 4019,606;    0,273;   -0,864
949,111; 3952,333;   -0,273;   -0,318
949,665; 3982,152;    1,636;   -0,682
950,219; 3874,970;   -0,091;   -1,045
950,772; 3920,879;   -1,909;    1,864
951,326; 3834,152;    0,545;   -0,955
951,879; 3938,788;    0,727;   -2,318
952,433; 3975,788;    0,000;    2,227
952,986; 3811,061;    2,909;    0,682
953,539; 3769,152;   -0,273;    0,591
954,093; 3666,333;    0,545;   -1,318
954,646; 3814,697;    0,909;    1,318
955,199; 3630,333;    0,000;   -0,500
955,752; 3509,970;   -0,455;    1,773
956,305; 3481,606;   -0,091;    2,955
956,858; 3642,333;    0,818;   -0,318
957,411; 3813,333;   -0,545;    2,136
957,964; 3643,879;    1,364;    2,136
958,517; 3631,879;   -1,545;    3,136
959,070; 3481,697;   -0,455;    1,955
959,623; 3552,697;    1,091;    1,500
960,176; 3314,606;    1,727;    2,045
960,728; 3299,152;   -2,727;    0,773
961,281; 3360,152;    0,545;    0,500
961,834; 3402,061;   -0,909;    0,864
962,386; 3290,152;    1,727;    1,045
962,939; 3230,970;    0,364;   -0,318
963,491; 3369,606;    0,455;    1,136
964,043; 3238,697;    1,182;    2,409
964,596; 3363,424;   -1,000;    2,227
965,148; 3203,333;   -1,000;    1,773
965,700; 3120,970;    1,091;   -0,227
966,253; 3282,515;   -0,636;    0,318
966,805; 3112,515;   -2,273;    0,773
967,357; 3153,697;    1,091;   -1,500
967,909; 3130,333;    0,455;   -1,227
968,461; 3229,061;    0,545;    3,136
969,013; 3159,333;   -0,182;   -0,864
969,565; 3250,333;   -0,455;   -1,136
970,117; 3302,061;   -0,364;    1,045
970,669; 3137,879;    0,182;   -0,136
971,220; 2999,152;   -0,455;   -1,500
971,772; 2921,606;   -0,636;   -0,318
972,324; 3052,061;    0,091;   -0,500
972,876; 3015,424;    0,818;   -0,045
973,427; 3153,606;    1,909;   -1,045
973,979; 3105,061;   -0,727;   -2,500
974,530; 3125,242;    1,818;    1,318
975,082; 3134,333;   -0,545;    1,682
975,633; 3026,424;    1,091;    1,682
976,184; 3176,970;    0,909;    0,773
976,736; 2961,061;    0,091;    0,227
977,287; 2763,788;   -0,909;   -0,500
977,838; 2944,697;    0,909;   -0,318
978,389; 3011,970;   -1,000;   -0,500
978,940; 2871,970;    0,545;   -0,409
979,491; 2905,606;    0,091;   -0,500
980,042; 2876,152;    0,182;    3,045
980,593; 2923,879;   -2,545;    0,227
981,144; 2973,697;    2,545;   -0,500
981,695; 2931,515;    1,455;    1,500
982,246; 2908,242;   -0,273;    1,045
982,797; 3077,515;   -1,727;    0,682
983,347; 3156,515;    0,364;    0,591
983,898; 3339,879;    3,091;    0,409
984,449; 3153,061;    2,182;    0,773
984,999; 3046,697;    1,455;   -1,136
985,550; 2820,606;    0,182;   -0,318
986,100; 2848,606;   -0,455;   -0,318
986,651; 2892,879;   -0,818;    0,045
987,201; 2865,152;   -1,000;   -0,591
987,751; 2957,606;    0,818;    2,864
988,302; 2962,515;    2,636;    1,500
988,852; 2988,970;    0,455;   -1,136
989,402; 3027,061;    0,091;    0,682
989,952; 2965,879;   -2,182;    0,864
990,502; 3037,788;   -0,091;    0,682
991,052; 2978,970;   -0,727;    0,045
991,602; 2865,515;   -2,909;    1,318
992,152; 2854,970;    0,455;    0,682
992,702; 2837,424;    1,364;   -0,045
993,252; 2759,697;   -3,000;   -0,500
993,802; 2866,788;   -0,273;    1,318
994,352; 3090,970;   -1,545;    1,136
994,901; 3173,970;   -0,182;    3,227
995,451; 3066,061;   -0,182;    0,318
996,000; 3147,333;    1,636;    0,318
996,550; 2885,879;    2,273;    0,227
997,100; 2898,697;    1,273;   -0,045
997,649; 3179,061;    2,182;    0,955
998,198; 2805,242;    1,727;   -1,500
998,748; 3022,970;    1,091;   -2,318
999,297; 2928,424;   -0,818;   -0,409
999,846; 2971,697;    1,000;   -0,773
1000,395; 3015,242;   -0,818;    0,500
1000,945; 2984,424;    1,818;   -0,773
1001,494; 3076,061;    2,364;    0,682
1002,043; 3041,424;    4,636;    0,864
1002,592; 2858,697;   -1,091;    1,955
1003,141; 3037,970;   -0,455;   -0,682
1003,690; 2915,606;    1,727;    0,500
1004,238; 2978,333;    1,455;   -0,045
1004,787; 2610,424;    1,364;    1,227
1005,336; 2865,152;    0,364;    0,682
1005,885; 2996,515;    1,364;   -2,773
1006,433; 3148,606;    0,545;    0,955
1006,982; 3204,697;    0,455;    1,682
1007,531; 3097,970;   -1,818;   -0,227
1008,079; 3028,606;   -2,273;    0,500
1008,627; 3180,970;   -1,455;    0,409
1009,176; 2914,424;    0,000;   -1,955
1009,724; 2957,970;    1,091;    0,864
1010,273; 3032,606;    1,273;    0,500
1010,821; 3110,515;    0,091;    1,409
1011,369; 2869,333;   -1,364;    1,318
1011,917; 2863,606;   -1,364;   -0,591
1012,465; 3127,333;    1,273;   -1,591
1013,013; 3235,333;    2,091;   -1,682
1013,561; 3115,242;    0,455;   -0,773
1014,109; 3187,424;   -1,909;    1,682
1014,657; 3063,061;    0,364;    0,591
1015,205; 3170,606;    1,636;   -0,955
1015,753; 3195,242;   -0,545;   -1,409
1016,301; 3223,606;   -2,636;    3,045
1016,848; 3232,879;   -1,273;    0,409
1017,396; 3285,970;    2,545;    0,045
1017,944; 3404,788;    1,182;    1,864
1018,491; 3168,333;    0,273;    1,409
1019,039; 3319,061;    0,455;    0,591
1019,586; 3219,788;   -1,364;    1,682
1020,134; 3318,333;    0,455;    1,500
1020,681; 3333,970;    0,182;   -1,136
1021,228; 3346,606;    2,909;   -2,227
1021,776; 3157,242;    1,182;   -1,136
1022,323; 3392,242;    0,455;    0,773
1022,870; 3332,333;   -1,000;   -0,045
1023,417; 3218,242;    2,636;    1,864
1023,964; 3364,424;    2,636;    1,227
1024,511; 3209,424;    1,000;    0,773
1025,058; 2994,606;    3,182;   -0,045
1025,605; 3048,515;   -2,273;    3,136
1026,152; 3297,697;    1,727;   -0,591
1026,699; 3021,970;    1,818;    1,318
1027,245; 3155,697;   -0,091;    0,318
1027,792; 3377,879;   -1,000;    1,409
1028,339; 3268,788;    2,364;   -0,045
1028,885; 3117,333;    1,000;   -0,227
1029,432; 3057,970;   -0,091;    0,227
1029,978; 3115,515;   -1,000;   -1,591
1030,525; 3019,697;    1,000;    0,409
1031,071; 3244,333;   -1,364;    1,136
1031,618; 3386,333;    0,364;    1,682
1032,164; 3140,879;   -0,091;    3,045
1032,710; 3183,606;    1,636;   -1,500
1033,256; 3112,606;   -0,636;   -0,136
1033,803; 3087,970;   -0,545;    1,500
1034,349; 2811,424;   -1,364;    0,136
1034,895; 2963,788;    0,000;   -0,318
1035,441; 2949,788;   -0,818;    0,318
1035,987; 2938,970;   -2,364;   -0,682
1036,533; 2955,697;   -1,455;   -0,955
1037,078; 3157,879;    1,455;    1,682
1037,624; 2958,788;    2,455;   -0,955
1038,170; 2989,152;    0,455;   -0,318
1038,716; 2907,515;    1,636;   -0,409
1039,261; 2803,152;   -2,273;   -0,773
1039,807; 2759,788;   -0,091;    3,409
1040,352; 2822,788;   -1,909;   -0,318
1040,898; 2843,515;   -1,545;   -0,682
1041,443; 2757,697;   -1,455;   -2,591
1041,989; 2799,152;    1,091;    1,591
1042,534; 2686,242;   -0,364;    2,591
1043,079; 2782,879;    2,909;    0,955
1043,625; 2588,061;    1,818;    0,500
1044,170; 2640,606;   -1,364;    1,045
1044,715; 2895,515;    2,455;    0,955
1045,260; 2706,879;    2,182;   -0,955
1045,805; 2731,697;    1,182;   -0,591
1046,350; 2656,242;    1,364;   -0,409
1046,895; 2632,152;    2,909;    1,591
1047,440; 2607,879;    5,364;    0,409
1047,985; 2488,879;    2,818;   -0,955
1048,530; 2396,152;    1,545;    1,227
1049,074; 2479,879;    0,000;    0,318
1049,619; 2442,333;   -1,364;    1,955
1050,164; 2254,606;    0,455;    0,227
1050,708; 2304,424;   -0,455;    0,045
1051,253; 2674,424;    1,273;   -2,227
1051,797; 2378,879;    0,818;   -1,318
1052,342; 2375,788;   -1,182;    1,045
1052,886; 2376,970;    0,364;   -1,409
1053,430; 2261,333;   -1,364;    0,136
1053,975; 2278,424;   -0,818;   -0,318
1054,519; 2263,970;   -0,727;    3,227
1055,063; 2281,970;    0,909;    1,318
1055,607; 2154,424;   -0,182;    0,227
1056,151; 2177,970;    2,909;    1,682
1056,695; 2104,970;    2,273;   -1,136
1057,239; 2163,515;   -1,727;   -0,682
1057,783; 2166,879;    0,818;   -1,500
1058,327; 2118,970;    0,000;    1,409
1058,871; 2355,970;   -0,545;    1,318
1059,415; 2071,152;   -0,818;   -0,045
1059,958; 2346,788;    1,455;    2,591
1060,502; 2059,152;   -1,000;   -0,773
1061,046; 1946,152;    0,364;   -0,955
1061,589; 1928,061;   -3,000;   -1,136
1062,133; 1807,697;   -1,273;    1,864
1062,676; 1743,515;    1,182;    0,864
1063,220; 1765,879;    1,091;    0,500
1063,763; 1793,333;    0,909;    1,136
1064,306; 1859,242;   -0,909;    1,864
1064,849; 1745,424;   -0,909;    0,591
1065,393; 1746,061;    2,000;   -1,500
1065,936; 1859,424;    0,182;   -0,409
1066,479; 1738,879;   -1,455;    1,318
1067,022; 1753,788;   -0,273;   -0,227
1067,565; 1660,697;   -0,091;   -1,318
1068,108; 1693,788;    0,727;   -0,591
1068,651; 1663,152;   -0,636;    1,409
1069,194; 1608,061;   -0,455;   -1,682
1069,736; 1609,606;   -1,273;    0,955
1070,279; 1572,152;   -1,364;   -0,500
1070,822; 1643,515;   -2,000;   -0,318
1071,364; 1728,333;   -0,364;    1,318
1071,907; 1550,515;   -0,727;    3,227
1072,450; 1437,606;    0,000;   -0,045
1072,992; 1440,424;   -0,273;    3,136
1073,535; 1587,152;    2,091;    2,136
1074,077; 1358,515;   -0,727;    2,045
1074,619; 1343,333;   -1,364;    0,591
1075,161; 1389,061;   -1,091;    1,500
1075,704; 1569,424;    1,545;    1,227
1076,246; 1351,061;   -0,182;    0,682
1076,788; 1275,242;   -0,364;    1,773
1077,330; 1356,424;    1,273;    2,136
1077,872; 1320,788;    0,909;    0,955
1078,414; 1556,697;    2,727;    0,773
1078,956; 1286,788;    1,273;   -0,227
1079,498; 1548,061;    1,636;    0,318
1080,040; 1263,606;    1,909;   -1,318
1080,581; 1206,970;    1,636;   -0,318
1081,123; 1124,333;    0,091;   -0,773
1081,665; 1169,970;   -1,182;   -0,955
1082,206; 1473,424;    1,364;   -0,500
1082,748; 1321,970;    0,727;    2,045
1083,289; 1194,424;   -2,000;    1,318
1083,831; 1096,788;   -0,545;    0,227
1084,372; 1153,333;    0,000;    0,591
1084,913; 1160,697;    1,091;    0,864
1085,455; 1111,424;   -1,909;   -2,045
1085,996; 1086,152;   -2,273;    0,136
1086,537; 1109,697;   -0,091;    0,864
1087,078; 1139,879;   -0,909;   -2,136
1087,619; 1188,152;   -1,273;    0,227
1088,160; 1101,424;    0,000;    1,318
1088,701; 1092,333;   -1,091;    0,682
1089,242; 1026,333;    1,364;   -2,227
1089,783; 1128,333;   -0,273;    1,409
1090,324; 1083,697;    0,455;    0,682
1090,865;  971,424;    2,727;   -0,409
1091,405;  934,515;    0,727;    2,227
1091,946;  959,515;    0,182;   -0,955
1092,487;  879,424;    0,818;   -1,409
1093,027; 1063,333;   -1,364;   -1,500
1093,568;  911,424;   -0,364;    1,227
1094,108; 1025,061;    0,273;    1,773
1094,649;  957,606;   -1,182;    0,136
1095,189;  883,970;   -0,636;   -0,682
1095,729;  839,061;   -0,091;    0,955
1096,269;  848,061;    0,727;   -0,955
1096,810; 1174,788;   -1,364;    0,500
1097,350;  994,242;    1,364;   -0,773
1097,890;  885,152;    0,364;    1,227
1098,430; 1148,879;    2,364;    2,864
1098,970; 1025,697;    2,182;    1,682
1099,510;  870,788;    0,545;   -2,318
1100,050;  808,333;    1,000;   -1,591
1100,589;  778,697;   -0,727;   -0,318
1101,129;  910,152;    0,818;   -0,955
1101,669; 1063,515;    1,727;    2,136
1102,209;  867,697;   -0,091;    2,227
1102,748;  826,515;    0,000;    0,955
1103,288;  819,424;    1,273;   -1,227
1103,827;  854,515;    3,091;   -2,227
1104,367;  724,788;   -0,091;   -2,409
1104,906;  683,333;    1,364;   -1,136
1105,445;  760,333;    0,636;   -1,136
1105,985;  715,788;   -0,727;    1,500
1106,524;  751,879;   -1,727;   -0,682
1107,063;  731,970;   -2,727;    1,409
1107,602;  705,242;   -1,909;   -1,500
1108,141;  618,606;   -1,909;    1,500
1108,680;  735,879;   -3,455;   -0,591
1109,219;  664,333;   -0,909;   -0,500
1109,758;  671,515;    0,455;    0,682
1110,297;  636,242;    1,000;   -0,682
1110,836;  577,333;   -0,727;    0,955
1111,375;  750,697;   -2,545;    0,409
1111,913;  766,606;   -1,000;    0,773
1112,452;  697,788;   -0,273;    0,136
1112,991;  580,788;    1,091;    1,955
1113,529;  537,606;   -0,818;   -0,045
1114,068;  612,333;   -0,273;    2,955
1114,606;  505,697;   -0,364;   -0,955
1115,144;  684,697;   -1,273;    1,045
1115,683;  622,242;   -0,727;    0,318
1116,221;  657,424;   -0,455;   -0,864
1116,759;  559,333;    0,636;   -0,864
1117,297;  770,697;    0,000;    1,864
1117,836;  566,333;   -2,182;   -1,227
1118,374;  576,242;    0,182;   -0,682
1118,912;  518,424;    0,909;    2,682
1119,450;  511,697;    1,000;    0,864
1119,988;  566,515;    1,545;    2,136
1120,525; 1036,152;    5,091;    3,318
1121,063;  716,242;    1,182;    1,864
1121,601;  528,424;   -0,909;   -1,227
1122,139;  492,061;   -0,727;   -2,045
1122,676;  687,515;   -0,727;    2,773
1123,214;  620,242;   -1,182;    4,409
1123,751;  429,515;    1,727;    2,227
1124,289;  558,152;   -0,091;   -0,409
1124,826;  419,788;    1,727;    0,227
1125,364;  355,970;    1,727;   -0,955
1125,901;  546,788;    1,182;    1,227
1126,438;  662,970;    0,818;    0,955
1126,975;  384,515;   -0,727;   -0,773
1127,513;  450,970;    0,273;    2,136
1128,050;  343,970;    1,636;   -0,682
1128,587;  452,152;    2,000;   -0,227
1129,124;  501,697;    0,091;    1,318
1129,661;  360,970;    0,273;    0,227
1130,198;  523,333;    1,636;    0,773
1130,734;  478,788;    0,182;    1,409
1131,271;  328,152;   -0,909;    0,864
1131,808;  499,606;    2,909;    3,045
1132,345;  376,242;    1,545;    0,318
1132,881;  241,515;   -1,545;   -1,864
1133,418;  391,515;    0,727;   -1,136
1133,954;  325,152;    2,455;   -2,682
1134,491;  394,242;    1,364;   -0,773
1135,027;  295,697;    2,364;    0,864
1135,564;  395,788;    0,273;    2,955
1136,100;  377,788;    0,364;    2,136
1136,636;  260,061;   -1,273;   -1,045
1137,172;  365,606;    0,000;   -1,045
1137,708;  288,242;   -1,364;   -1,045
1138,245;  291,606;    1,273;   -1,227
1138,781;  232,788;    1,091;   -3,318
1139,317;  302,970;    1,273;   -1,409
1139,852;  292,788;    3,091;    0,136
1140,388;  421,606;   -1,182;   -0,409
1140,924;  300,061;   -1,091;   -2,227
1141,460;  222,970;   -1,636;    0,136
1141,996;  152,152;   -1,364;    2,682
1142,531;  215,333;    1,364;    3,318
1143,067;  436,242;    1,182;    1,045
1143,602;  498,606;   -0,091;   -0,318
1144,138;  332,970;   -2,636;    1,045
1144,673;  199,515;   -1,455;    1,409
1145,209;  274,424;   -1,909;   -0,318
1145,744;  188,788;   -0,727;    0,864
1146,279;  329,152;    1,818;   -0,136
1146,815;  235,788;    1,545;   -2,682
1147,350;  283,788;   -1,364;    0,045
1147,885;  189,242;   -0,818;   -1,318
1148,420;  187,061;   -2,273;    0,773
1148,955;  175,697;   -1,727;    1,864
1149,490;  204,242;   -0,909;   -1,591
1150,025;  183,152;    0,455;   -1,773
1150,560;  293,061;    1,091;   -0,955
1151,094;  266,152;    1,455;   -0,591
1151,629;  274,879;    1,636;    0,864
1152,164;  194,061;    1,364;    1,318
1152,698;  140,333;   -0,182;   -0,136
1153,233;   99,788;    0,091;   -0,682
1153,767;  155,333;   -3,000;   -2,318
1154,302;  208,424;   -1,455;    1,773
1154,836;  213,515;   -0,455;   -2,136
1155,371;  264,424;   -1,364;    3,682
1155,905;  207,697;   -0,636;    1,682
1156,439;  171,788;   -0,636;   -0,500
1156,973;  207,424;    0,364;    0,318
1157,507;  142,152;   -0,364;    0,682
1158,042;  177,061;   -0,727;    1,045
1158,576;  227,606;    0,182;    1,773
1159,110;  212,879;   -0,818;    2,409
1159,643;  184,242;    0,636;   -0,045
1160,177;  116,515;   -1,545;    1,500

