
Integration time [ms]:   0,040
Averaging Nr. [scans]: 11
Smoothing Nr. [pixels]: 0
Data measured with spectrometer [name]: 7318044SP
Wave   ;Sample   ;Dark     ;Reference
[nm]   ;[counts] ;[counts] ;[counts] 

186,757;   22,797;   31,551;    1,318
187,357;   63,279;   22,551;    0,955
187,958;   41,625;   15,460;   -1,591
188,558;   90,062;    8,915;   -1,227
189,159;   49,471;    6,733;   -4,500
189,759;   16,164;    7,278;   -3,591
190,360;    8,254;    2,824;   -2,136
190,960;   59,006;    2,915;   -4,136
191,560;   83,330;    3,189;   -6,591
192,161;  343,283;    4,372;   -3,500
192,761;  172,883;    4,010;   -3,227
193,361;  118,211;    1,556;   -3,773
193,962;  168,719;    2,010;   -2,682
194,562;   84,193;    1,189;   -3,955
195,162;  132,366;   -2,448;   -2,227
195,762;  303,967;   -3,176;   -0,045
196,362;  245,555;    1,370;   -2,500
196,963;   97,646;    2,006;   -0,864
197,563;  171,339;    1,551;   -0,955
198,163;  117,129;    0,096;   -0,682
198,763;  132,465;    1,733;   -0,500
199,363;  254,444;    3,096;   -0,500
199,963;  211,283;    0,369;    0,409
200,563;  180,815;    2,823;   -1,409
201,163;  156,720;    3,277;   -0,227
201,763;  256,703;    3,732;    0,318
202,363;  191,612;    1,459;    1,500
202,963;  317,004;    1,459;    1,045
203,563;  436,088;    0,277;    0,500
204,162;  255,647;    2,096;   -1,864
204,762;  245,434;    0,550;    0,591
205,362;  219,707;    3,004;    1,955
205,962;  321,444;    3,096;    1,955
206,562;  324,434;    1,823;    2,318
207,161;  294,350;   -0,087;    0,318
207,761;  452,829;    1,277;    2,409
208,361;  322,381;   -0,268;    1,409
208,960;  433,843;    0,459;    1,500
209,560;  511,990;    1,277;    1,591
210,160;  490,668;    0,550;    1,864
210,759;  444,574;    4,186;    1,227
211,359;  456,134;    1,459;    1,045
211,958;  738,952;    1,277;    2,045
212,558;  832,476;    1,732;    1,864
213,157;  659,794;    1,822;    1,500
213,757; 1117,518;    3,822;   -0,227
214,356;  801,585;    1,277;   -0,409
214,956; 1156,542;    3,095;    0,409
215,555;  757,536;    2,095;    2,136
216,154;  693,567;   -2,723;   -0,591
216,754;  698,197;    0,277;    0,773
217,353;  839,364;   -0,268;   -1,045
217,952;  695,942;   -0,178;    0,318
218,552;  951,854;    1,368;   -0,773
219,151;  827,200;    0,277;    0,955
219,750;  833,148;    0,004;   -0,227
220,349;  967,113;   -0,451;    1,045
220,948; 1033,798;   -1,360;    1,136
221,548; 1068,106;    0,913;    1,227
222,147; 1181,938;   -0,087;   -0,409
222,746; 1472,424;   -0,451;   -0,955
223,345; 1360,260;    0,731;    0,500
223,944; 1368,435;   -0,451;    0,773
224,543; 1561,753;    1,004;   -1,409
225,142; 1677,389;    0,094;    0,136
225,741; 1588,973;   -0,814;    1,045
226,340; 1615,295;   -0,451;   -0,955
226,939; 2088,931;   -0,996;   -0,136
227,538; 2060,630;   -0,360;   -0,773
228,137; 2223,781;   -0,814;    0,864
228,735; 2406,050;   -0,541;    1,227
229,334; 2146,952;   -0,905;   -0,227
229,933; 2518,749;    0,459;    0,591
230,532; 2629,889;    1,186;   -0,409
231,131; 2685,892;    1,732;    0,318
231,729; 2879,368;   -2,450;   -2,318
232,328; 3011,690;   -0,723;   -1,500
232,927; 3106,840;    1,004;   -0,500
233,525; 3249,018;    3,640;    0,045
234,124; 3463,766;    2,368;   -1,591
234,723; 3486,067;    0,913;   -1,045
235,321; 3638,092;    2,277;    0,136
235,920; 3920,008;    1,186;   -1,227
236,518; 4175,305;    3,459;    0,318
237,117; 4370,351;    0,004;   -0,227
237,715; 4544,651;    0,640;   -0,500
238,314; 4600,536;   -0,087;   -2,318
238,912; 4691,113;   -0,723;   -1,409
239,510; 4751,008;    0,459;   -1,227
240,109; 4940,661;    0,004;    3,773
240,707; 4972,557;   -0,996;    1,227
241,305; 5378,340;    0,550;    0,136
241,904; 5593,703;   -0,178;   -2,045
242,502; 5566,805;   -0,632;   -0,227
243,100; 5500,462;   -0,087;   -0,955
243,698; 5735,581;    0,732;    1,682
244,297; 5942,683;   -0,632;    0,682
244,895; 5776,994;   -0,269;   -2,318
245,493; 6105,816;    2,186;   -0,591
246,091; 6143,588;    1,368;   -1,318
246,689; 6132,676;    1,004;    0,591
247,287; 6306,186;    0,822;   -1,136
247,885; 6600,711;   -1,451;    1,227
248,483; 6722,242;    1,822;   -0,500
249,081; 6854,291;    0,185;    1,591
249,679; 7014,763;   -0,178;    1,682
250,277; 7262,141;   -1,723;    0,864
250,875; 7261,102;   -1,087;   -1,045
251,473; 7284,840;   -1,178;    0,500
252,071; 7515,788;    1,459;    1,045
252,669; 7681,889;   -1,814;    0,318
253,267; 7937,736;   -0,087;    0,773
253,864; 7902,459;   -0,360;    0,682
254,462; 7763,337;    1,640;    1,591
255,060; 7725,410;   -0,269;    1,318
255,658; 8054,707;    0,822;   -0,136
256,255; 8520,274;    0,186;   -2,045
256,853; 8370,620;   -0,269;    1,409
257,451; 8354,445;    0,822;    1,864
258,048; 8623,064;    1,822;    1,864
258,646; 8350,879;    1,731;   -1,045
259,243; 8575,347;   -0,087;    2,227
259,841; 8614,770;   -0,814;    0,318
260,438; 8487,774;   -0,087;    0,864
261,036; 9217,172;   -1,905;    1,409
261,633; 9135,896;   -0,087;    2,227
262,231; 8873,001;    2,731;   -0,045
262,828; 8935,511;   -0,905;    1,136
263,425; 9014,966;    0,913;   -0,591
264,023; 9302,046;    0,186;    0,045
264,620; 8844,144;   -0,360;   -0,318
265,217; 9217,074;   -2,087;    3,136
265,815; 9270,921;   -1,905;    2,136
266,412; 9018,081;    0,731;    0,136
267,009; 9101,441;   -1,451;    0,773
267,606; 9016,515;    0,822;   -0,955
268,203; 8986,854;   -0,269;   -0,591
268,801; 9265,644;    1,731;    0,591
269,398; 9584,116;   -0,360;    2,500
269,995; 9548,511;    0,277;    1,591
270,592; 9321,983;   -0,632;   -0,500
271,189; 9538,693;    0,186;    0,409
271,786; 9660,455;   -0,632;    1,227
272,383; 9500,634;   -1,087;    0,227
272,980; 9697,872;    0,277;    0,318
273,577;10197,123;    0,004;    1,227
274,174; 9749,896;    0,822;    2,591
274,771; 9706,162;   -0,814;   -0,773
275,367; 9888,392;    2,277;    1,409
275,964; 9842,043;    0,731;   -0,500
276,561; 9899,172;    1,549;   -1,045
277,158;10142,127;    0,095;   -1,773
277,755;10286,928;    2,185;    0,409
278,351; 9650,875;   -0,451;   -1,500
278,948;10000,347;   -0,815;    0,045
279,545; 9998,337;   -1,360;    2,318
280,141;10640,886;   -1,723;   -2,045
280,738;10529,246;   -0,451;   -0,136
281,334;10772,116;   -1,633;    0,591
281,931;10138,655;   -0,087;   -1,318
282,528;10223,851;    0,822;   -0,500
283,124;10931,973;   -1,087;   -0,500
283,721;10845,550;   -0,451;    1,409
284,317;10635,449;    0,185;    2,500
284,913;11218,799;   -1,360;    0,591
285,510;11420,071;    0,640;   -0,318
286,106;11458,722;   -2,269;   -0,955
286,703;11067,305;   -0,360;    1,955
287,299;11215,043;   -1,451;   -0,591
287,895;11423,812;    0,822;   -1,045
288,491;12011,753;    0,186;    2,136
289,088;11737,844;   -2,360;    2,409
289,684;11828,616;   -1,723;    1,500
290,280;11802,239;    0,368;    0,682
290,876;11928,018;    1,822;    5,500
291,472;11793,613;    1,276;    2,227
292,068;11874,819;    1,367;    0,227
292,665;11603,134;    2,095;    0,773
293,261;11175,246;    0,276;    2,136
293,857;11561,413;    2,913;    2,136
294,453;11511,291;    3,550;    0,955
295,049;11402,616;   -0,268;    1,955
295,644;11387,773;    0,095;    0,136
296,240;11307,864;   -0,905;   -0,136
296,836;11347,969;   -0,995;    0,318
297,432;11635,301;    1,096;   -0,500
298,028;11739,182;    0,732;    0,773
298,624;12153,343;    1,459;    1,864
299,220;12350,916;    2,368;    0,591
299,815;12018,021;    1,005;   -0,409
300,411;11805,252;    0,914;    1,773
301,007;11802,444;    1,368;    0,227
301,602;11868,126;   -0,541;   -2,318
302,198;12028,500;    0,732;   -0,773
302,794;12382,238;    1,187;   -0,500
303,389;12535,703;   -1,177;    1,045
303,985;12603,591;    0,550;    1,409
304,580;12594,780;    1,459;    1,591
305,176;12518,584;   -3,086;    0,136
305,771;12424,375;   -1,268;   -1,227
306,367;12280,277;    4,095;    0,136
306,962;12631,308;    0,641;    1,500
307,558;12347,245;   -0,450;    0,136
308,153;12248,042;    1,095;   -1,136
308,748;12517,808;   -0,814;    1,682
309,344;12510,217;   -0,632;   -1,318
309,939;12561,217;   -1,905;   -1,318
310,534;12844,535;   -0,086;   -1,682
311,130;12823,056;    0,459;   -2,500
311,725;12507,084;    1,004;   -0,500
312,320;12812,193;    2,459;    0,045
312,915;12664,084;    1,459;   -1,045
313,510;12751,847;    1,550;   -0,500
314,105;13249,458;    1,096;    1,409
314,700;12640,668;   -3,086;   -1,045
315,295;12269,234;   -0,904;    0,045
315,890;11834,665;    1,277;    0,864
316,485;12236,728;   -0,359;   -0,318
317,080;12348,224;   -3,086;    1,591
317,675;12918,105;    2,005;   -0,682
318,270;12299,972;    5,550;    3,318
318,865;12314,060;    3,278;    3,045
319,460;12152,640;   -0,904;    0,591
320,055;12386,360;   -0,541;   -1,227
320,650;12014,857;   -1,995;   -0,591
321,244;12068,287;   -0,177;   -1,409
321,839;13074,769;   -1,541;   -0,227
322,434;12922,647;   -1,086;   -1,591
323,029;12539,294;    1,732;    1,591
323,623;12346,990;    1,550;    0,773
324,218;12111,815;    2,368;    1,409
324,812;11978,787;    1,096;    1,591
325,407;11798,640;   -0,814;    2,045
326,002;11728,979;    0,277;   -0,409
326,596;12039,930;    0,914;    1,318
327,191;12210,235;    0,823;   -1,045
327,785;11755,658;   -0,813;   -0,227
328,379;11972,811;    1,368;    0,136
328,974;11755,116;    0,914;   -3,955
329,568;12011,458;    0,186;   -2,409
330,163;11800,423;    2,096;    1,045
330,757;12147,889;    2,459;    1,591
331,351;11481,154;    0,459;    0,682
331,945;11783,507;    0,914;    1,409
332,540;11383,340;   -1,723;   -0,591
333,134;11563,864;   -1,086;    0,773
333,728;11816,944;    0,005;    0,318
334,322;12134,654;   -1,177;   -0,864
334,916;11382,871;    0,277;    0,955
335,510;11699,451;   -0,450;   -0,136
336,105;11978,144;   -1,086;    1,591
336,699;11662,532;   -1,086;    0,591
337,293;11624,196;   -1,723;    0,318
337,887;11820,133;   -2,723;    1,955
338,481;11903,458;    0,459;    0,591
339,074;12040,140;   -0,359;    2,682
339,668;11859,273;   -1,632;    1,227
340,262;12122,081;    1,732;    3,227
340,856;11636,875;    1,822;   -0,682
341,450;10972,602;    1,004;    1,864
342,044;11883,469;    1,459;    0,136
342,637;11661,661;    0,913;   -2,136
343,231;11484,053;   -2,360;    0,682
343,825;11445,074;   -1,086;   -0,591
344,419;11386,983;   -1,995;    0,500
345,012;11181,346;    2,459;    4,045
345,606;11221,657;    4,641;    1,591
346,199;11050,007;   -1,813;   -0,227
346,793;10556,958;    1,914;    2,045
347,386;10720,934;   -0,813;   -1,136
347,980;10736,857;   -0,268;   -0,045
348,573;10502,405;    2,278;    0,409
349,167;10195,402;    5,278;    4,773
349,760;10535,258;    2,914;    2,682
350,354;10514,216;   -0,813;    1,136
350,947;10277,412;    1,096;    1,682
351,540; 9930,073;   -0,358;   -1,409
352,134; 9857,563;    1,096;    1,136
352,727; 9962,839;   -0,086;    1,136
353,320; 9748,702;    0,005;    0,591
353,913; 9580,664;   -1,995;    1,864
354,507; 9774,045;    0,823;   -1,227
355,100; 9760,479;    0,460;    0,864
355,693; 9033,804;    2,005;    2,409
356,286; 9047,014;    0,823;    2,773
356,879; 9425,993;   -0,722;    1,227
357,472; 9006,944;   -0,904;    1,500
358,065; 9214,765;   -0,722;    2,500
358,658; 9123,171;   -0,540;    2,318
359,251; 8772,814;   -1,631;   -0,591
359,844; 8258,300;   -1,904;   -1,136
360,437; 8453,636;   -2,995;    0,045
361,030; 8699,965;    1,369;   -0,682
361,623; 8276,992;    2,824;    0,318
362,215; 8339,059;   -0,086;    2,045
362,808; 8172,171;   -2,358;   -1,682
363,401; 8368,115;   -2,449;    0,136
363,994; 8104,597;   -0,631;   -1,500
364,586; 8007,982;    0,824;   -1,500
365,179; 8228,223;   -0,449;   -1,136
365,772; 7707,884;   -1,995;    2,045
366,364; 8011,653;    1,915;   -3,227
366,957; 8227,037;    2,279;   -0,045
367,549; 8215,572;    2,188;   -0,864
368,142; 7889,303;    1,825;   -1,500
368,734; 8100,613;    0,734;   -2,136
369,327; 8039,001;    1,643;   -0,500
369,919; 7949,945;   -1,538;    0,409
370,512; 7762,172;   -1,083;   -0,500
371,104; 7549,476;   -0,901;    1,591
371,696; 7710,968;    1,191;   -0,955
372,289; 7810,443;    0,373;    1,136
372,881; 7959,561;   -2,080;    1,318
373,473; 7861,508;   -2,170;    1,136
374,066; 7654,989;   -0,169;    0,500
374,658; 7499,190;    0,378;    1,136
375,250; 7869,429;    0,653;   -1,409
375,842; 7714,113;    0,473;   -0,045
376,434; 7612,038;   -0,435;   -0,409
377,026; 8204,742;    0,204;   -2,500
377,618; 8069,061;   -0,158;   -0,682
378,210; 7882,483;   -0,338;   -1,955
378,802; 7740,440;    0,754;   -0,591
379,394; 7737,194;    1,846;    0,682
379,986; 8304,819;    1,393;   -0,955
380,578; 8425,507;   -0,153;    0,773
381,170; 7762,242;   -0,972;    0,045
381,762; 7718,331;    0,755;    1,409
382,354; 7915,241;   -0,065;   -1,318
382,945; 8018,558;   -2,976;    0,318
383,537; 8164,003;   -2,705;   -1,955
384,129; 8178,935;   -2,160;   -1,136
384,721; 8359,012;   -0,252;    0,955
385,312; 8288,089;   -0,161;   -0,955
385,904; 8404,680;   -2,706;    1,591
386,496; 7763,652;   -0,979;    1,045
387,087; 7904,983;    1,022;    2,500
387,679; 7966,064;   -1,160;    0,045
388,270; 8093,619;    2,840;    2,045
388,862; 8204,161;    1,295;   -0,318
389,453; 8101,854;   -0,887;    1,045
390,045; 8353,277;   -0,705;   -2,682
390,636; 8303,060;    0,204;   -0,591
391,227; 8179,542;   -0,523;   -0,045
391,819; 8245,875;    0,204;    0,773
392,410; 8344,473;    1,022;    0,045
393,001; 8257,753;   -0,979;   -1,591
393,593; 8590,019;    1,930;   -0,045
394,184; 8419,306;    1,385;   -0,409
394,775; 8355,068;    1,839;    2,136
395,366; 8511,274;    1,385;    0,773
395,957; 8523,057;    0,113;    0,136
396,548; 8844,421;   -0,342;    2,682
397,139; 9167,280;   -2,433;    0,591
397,730; 8914,326;   -1,888;    0,955
398,321; 8937,774;   -1,252;    0,955
398,912; 8960,924;   -0,615;    0,136
399,503; 9035,403;   -3,524;   -1,409
400,094; 8464,764;    0,294;    1,682
400,685; 8317,428;   -0,433;    0,045
401,276; 8429,309;    0,930;   -0,955
401,867; 8755,285;   -0,888;    0,773
402,458; 8830,361;   -2,251;   -2,318
403,048; 8805,764;    1,112;    0,591
403,639; 8383,382;    0,840;    0,864
404,230; 8629,984;    2,476;    0,318
404,821; 8565,040;   -0,615;    0,045
405,411; 8728,862;    1,203;   -2,591
406,002; 8303,984;   -1,252;   -1,136
406,592; 8154,890;    2,294;    0,045
407,183; 8461,855;    0,566;   -1,500
407,774; 8404,778;    3,475;   -0,136
408,364; 8733,533;    0,930;    0,409
408,954; 8311,631;    0,384;    1,227
409,545; 8363,984;    1,021;    1,045
410,135; 7901,992;    1,293;    0,500
410,726; 8071,380;    1,838;    0,318
411,316; 8451,586;    0,111;    0,773
411,906; 8124,604;   -0,253;   -0,409
412,497; 7608,051;   -1,070;   -0,045
413,087; 8235,666;   -1,980;   -0,227
413,677; 8654,775;   -0,707;    3,864
414,267; 8472,275;    0,656;    1,409
414,857; 8469,296;   -2,980;    4,227
415,448; 8790,079;    0,839;    0,500
416,038; 8452,764;    0,020;   -0,591
416,628; 8421,401;   -0,889;    0,409
417,218; 7901,509;    0,565;    3,318
417,808; 8144,530;    0,202;   -0,409
418,398; 8615,838;    0,020;    2,682
418,988; 8646,006;    2,020;    0,591
419,578; 8918,492;   -0,707;    1,409
420,168; 9222,065;   -1,343;   -0,955
420,757; 8818,838;   -1,343;   -1,500
421,347; 8479,447;    0,111;   -0,227
421,937; 8681,740;    2,292;    1,409
422,527; 8628,150;    0,838;   -0,773
423,116; 8452,593;   -0,253;   -0,045
423,706; 8781,153;   -1,889;    0,318
424,296; 8761,964;    1,384;    0,682
424,885; 9226,328;   -0,071;   -3,045
425,475; 9489,380;    1,474;   -2,864
426,065; 9378,314;   -0,980;   -0,318
426,654; 9022,975;   -0,435;   -0,318
427,244; 9133,880;    0,020;    1,409
427,833; 8607,674;    1,383;   -0,500
428,423; 9103,632;   -0,526;    1,136
429,012; 9850,818;   -0,344;   -1,136
429,601; 9336,444;   -1,344;    0,136
430,191; 9587,748;    1,292;    4,318
430,780; 9219,244;   -0,344;   -0,409
431,369; 9138,811;    0,746;   -0,045
431,959; 9780,860;   -1,254;    0,500
432,548; 9546,720;   -1,163;   -0,045
433,137; 9673,035;   -1,254;   -1,318
433,726;10242,912;    0,292;    0,500
434,315; 9560,913;   -0,526;    2,409
434,905; 9686,811;   -1,254;    1,409
435,494; 9565,864;    0,746;    0,955
436,083;10070,717;   -0,981;   -0,955
436,672; 9924,668;    0,110;    0,500
437,261; 9461,532;    0,292;   -1,955
437,850; 9584,011;    1,383;    0,682
438,439; 9594,836;    3,291;    1,955
439,027; 9458,228;    3,655;    1,773
439,616; 9812,147;    2,927;    1,227
440,205; 9641,322;    0,200;   -2,136
440,794; 9736,074;    2,109;   -0,045
441,383; 9977,312;   -1,346;   -0,591
441,971; 9851,480;   -2,436;    0,591
442,560; 9745,414;    0,563;   -1,773
443,149; 9492,888;    0,379;   -1,318
443,737; 9629,621;   -0,074;   -2,318
444,326; 9919,424;    0,018;    0,318
444,915; 9974,165;   -1,982;    0,864
445,503;10354,400;   -2,891;   -0,318
446,092; 9586,973;    0,382;    2,136
446,680;10169,662;    0,382;    0,318
447,269;10338,117;   -0,346;   -0,318
447,857;10103,459;    0,018;   -1,773
448,445;10209,970;    0,563;    1,318
449,034;10413,344;   -1,528;   -1,136
449,622;10560,620;   -1,073;    3,500
450,210; 9781,498;    2,017;    2,227
450,799;10370,705;    0,290;   -0,591
451,387;10284,582;    1,381;   -0,591
451,975; 9944,544;    2,654;    0,864
452,563;10035,813;    3,472;    2,318
453,151;10079,642;   -0,528;   -1,227
453,739;10005,936;   -1,347;    0,136
454,328; 9847,768;    2,381;   -2,136
454,916; 9562,855;    2,562;   -0,136
455,504; 9752,925;    1,017;    1,227
456,092; 9907,093;    0,017;   -1,591
456,679; 9912,072;    1,472;    0,682
457,267; 9824,869;    4,017;    1,045
457,855; 9981,153;    1,017;    1,409
458,443; 9752,328;   -0,165;    1,682
459,031; 9884,457;    0,108;    2,409
459,619;10357,653;   -1,801;    2,864
460,206;10521,988;    0,835;    2,045
460,794;10596,160;   -2,983;   -0,227
461,382;10856,478;   -0,529;   -0,864
461,970;10421,052;    1,198;    1,864
462,557;10428,803;   -0,711;   -0,682
463,145;10648,733;   -3,165;   -1,682
463,732;10807,118;    2,016;   -1,045
464,320;10727,506;   -0,075;   -3,045
464,907;10378,534;    2,743;   -0,773
465,495;10205,126;    0,743;   -1,227
466,082;10357,618;   -1,984;   -0,045
466,670;10319,905;   -2,529;    1,227
467,257;10743,940;   -1,711;    2,045
467,844;10897,639;   -0,075;    0,045
468,432;10966,503;    0,834;    3,500
469,019;10395,933;    0,925;   -1,773
469,606;10854,846;    0,470;    3,682
470,193;10716,395;   -1,439;    0,227
470,780;10306,262;   -2,075;    0,864
471,368;10658,993;   -1,257;   -0,773
471,955;10451,507;    1,379;   -0,682
472,542;10077,629;    0,652;   -1,136
473,129;10287,587;   -0,166;    0,136
473,716;10013,168;    1,470;    0,591
474,303;10241,993;    0,652;   -0,864
474,890;10545,825;   -1,439;   -0,500
475,477;10568,476;   -1,621;    0,409
476,064;10462,668;    1,106;   -1,591
476,650;10426,850;    0,288;    0,318
477,237;10270,123;   -0,258;    0,955
477,824;10417,812;   -1,076;    0,864
478,411;10424,161;   -1,894;   -0,318
478,997;10652,151;    0,560;   -0,773
479,584;10726,406;    1,196;   -0,409
480,171;11450,455;   -0,440;   -0,773
480,757;11089,036;    2,651;    0,773
481,344;11380,794;    0,469;    0,409
481,931;10876,774;    1,105;    1,045
482,517;11961,291;   -1,258;    0,318
483,104;12597,648;    1,106;    2,864
483,690;12942,204;   -1,804;    0,045
484,276;13219,858;   -0,895;    0,227
484,863;12960,085;    2,469;    1,136
485,449;13577,557;   -0,077;    0,318
486,035;13546,421;   -1,986;   -0,136
486,622;13985,438;   -0,895;    0,045
487,208;13935,456;    1,378;    1,500
487,794;13768,372;    0,741;    0,318
488,380;13859,854;    0,105;   -1,409
488,967;13909,082;   -1,168;   -0,409
489,553;13979,876;   -1,895;   -1,409
490,139;14190,306;    1,559;    0,773
490,725;13580,778;    0,741;   -0,227
491,311;13095,274;    3,287;    3,045
491,897;12409,012;   -0,986;    1,500
492,483;12232,799;    0,105;    1,227
493,069;12030,085;    3,923;    0,864
493,655;12038,274;    1,650;    0,682
494,241;11930,680;    1,377;   -0,955
494,826;12371,327;    0,287;   -1,045
495,412;11809,813;    2,559;   -0,682
495,998;11944,628;   -0,805;   -0,318
496,584;12099,250;    0,377;    1,045
497,169;12069,984;    1,014;   -0,682
497,755;12032,079;    0,650;    1,227
498,341;12631,799;    0,559;    0,318
498,926;12222,369;    1,832;    1,955
499,512;12351,859;    1,286;    2,955
500,097;12497,195;    0,195;   -0,318
500,683;12441,153;   -0,350;    2,136
501,268;12828,100;   -0,169;   -0,955
501,854;12513,929;   -0,169;    1,227
502,439;12432,300;   -0,624;   -1,773
503,024;12692,107;    0,195;    0,500
503,610;12759,219;   -0,078;   -0,682
504,195;12765,107;    0,558;    1,955
504,780;12852,296;    2,922;    1,227
505,366;12655,093;    3,013;    2,864
505,951;12398,447;    0,740;    1,045
506,536;12389,821;   -3,260;   -3,682
507,121;12399,992;    0,285;   -0,318
507,706;12929,275;    2,376;    1,045
508,291;13326,087;    2,649;    1,136
508,876;12799,402;   -0,988;    2,591
509,461;12223,056;   -0,169;   -0,773
510,046;12643,528;    0,194;    0,318
510,631;12895,923;   -0,351;   -0,773
511,216;12554,213;    2,467;   -0,500
511,801;12913,800;   -0,442;    2,591
512,386;13237,555;    0,740;    0,500
512,971;13164,835;   -2,988;    0,955
513,555;12744,919;   -0,897;   -1,500
514,140;13527,975;   -0,442;   -3,136
514,725;13520,238;   -0,715;   -1,136
515,309;13656,126;   -0,533;    0,318
515,894;13097,727;   -0,624;   -2,227
516,479;13576,308;   -0,624;   -0,955
517,063;13415,367;    0,376;    1,227
517,648;13524,108;    1,012;   -1,136
518,232;13178,493;   -0,261;   -1,409
518,817;13506,742;   -0,079;    1,682
519,401;13750,780;    2,194;    0,591
519,985;13261,661;    1,103;    1,136
520,570;13125,756;    0,830;   -1,955
521,154;13412,319;    2,102;    0,591
521,738;13583,689;   -2,352;    2,409
522,323;14121,388;   -0,170;    1,682
522,907;13865,375;    0,466;   -0,136
523,491;13594,113;    0,557;    0,955
524,075;13628,633;    2,284;    0,591
524,659;13678,424;    1,466;    0,591
525,243;13119,378;    1,739;    0,409
525,827;13380,151;    0,648;   -0,045
526,411;14282,878;   -1,989;   -0,136
526,995;14490,518;   -0,352;    1,409
527,579;14068,739;   -0,443;   -1,045
528,163;14375,553;    0,375;   -1,500
528,747;14287,445;    2,466;   -0,773
529,331;14591,186;   -0,080;   -1,409
529,915;14767,956;    1,738;    0,955
530,499;14717,560;   -0,807;    1,227
531,082;14456,550;   -0,534;    1,591
531,666;13914,585;    1,374;    0,773
532,250;14590,966;    1,284;    2,682
532,833;14900,263;    0,920;    2,773
533,417;14747,302;   -1,807;    0,864
534,001;14728,854;    1,647;   -0,318
534,584;15437,778;    0,374;    0,500
535,168;15272,316;    0,465;    1,409
535,751;15371,529;    0,647;    0,045
536,334;14804,924;   -0,898;   -0,409
536,918;15363,400;    0,011;    1,591
537,501;15495,358;   -0,899;    1,318
538,085;15461,473;   -0,444;    1,045
538,668;15622,631;    0,829;    2,409
539,251;16024,334;    1,829;    3,773
539,834;15994,865;    0,101;    0,773
540,418;15925,540;   -1,990;    4,318
541,001;16042,935;   -0,990;    1,773
541,584;16024,250;    2,101;    2,227
542,167;15734,222;    1,374;    2,955
542,750;15876,740;    1,919;   -0,773
543,333;15461,915;    0,555;    2,136
543,916;16262,233;    0,192;    2,500
544,499;16922,873;   -1,354;    0,227
545,082;16864,306;    1,374;    3,591
545,665;17002,491;    1,919;    1,500
546,248;17379,824;    1,010;   -0,318
546,830;16999,047;   -0,445;    1,955
547,413;17441,551;    1,010;   -0,773
547,996;17953,474;    0,555;    0,500
548,579;17743,411;    0,919;    0,955
549,161;17551,300;    1,828;    2,682
549,744;17335,510;   -0,809;    0,409
550,326;17826,607;   -0,809;   -1,136
550,909;17615,625;    2,737;    0,591
551,492;18024,768;   -0,263;    0,227
552,074;17800,412;   -0,173;   -1,318
552,657;18358,475;    2,373;    0,045
553,239;18063,947;   -0,173;   -0,773
553,821;18003,968;   -1,082;    1,045
554,404;17524,713;    1,282;    1,136
554,986;17919,482;    0,464;    1,045
555,568;18509,408;    1,191;   -0,955
556,151;17728,020;    1,191;   -0,227
556,733;17912,555;   -0,264;   -0,864
557,315;18407,940;    0,100;    0,500
557,897;18221,804;    0,554;   -0,500
558,479;18329,206;   -1,991;    1,318
559,061;18476,856;   -0,719;   -0,864
559,643;18804,503;   -0,264;    0,045
560,225;19165,387;    1,645;    2,864
560,807;19190,230;    0,918;    0,318
561,389;18666,220;    0,554;    2,318
561,971;19455,899;    0,463;    2,136
562,553;19226,437;   -1,628;    1,591
563,135;19382,094;   -0,537;    1,136
563,717;18992,605;    3,372;    1,136
564,298;19699,671;    3,645;   -0,045
564,880;19424,427;    0,645;   -1,409
565,462;19595,154;    0,645;    1,318
566,043;20822,343;   -0,446;    2,318
566,625;20330,157;    1,918;    1,227
567,207;20186,038;    1,099;    1,682
567,788;21315,056;   -1,264;    1,500
568,370;22139,839;    1,917;   -0,500
568,951;21943,776;    0,190;    0,227
569,533;22789,070;   -0,628;   -0,500
570,114;23283,678;   -0,446;    0,682
570,695;23865,270;   -0,174;   -1,318
571,277;24372,857;   -0,265;   -1,682
571,858;25114,490;    2,008;   -1,136
572,439;26013,231;    1,554;   -1,045
573,021;26149,175;    2,099;   -2,773
573,602;26626,494;   -1,265;    0,318
574,183;27556,417;   -2,083;    2,227
574,764;27718,557;   -1,629;    0,409
575,345;28268,141;    0,917;   -0,136
575,926;28862,144;   -0,356;    0,136
576,507;28819,581;    1,099;   -0,227
577,088;29982,004;    3,099;    1,682
577,669;29950,039;    0,735;    1,955
578,250;30781,871;    0,644;   -1,045
578,831;31422,868;   -1,356;   -2,227
579,412;31679,742;   -0,810;    0,955
579,993;32500,266;    1,008;    0,227
580,573;32827,574;   -0,629;   -0,955
581,154;31834,347;    0,735;   -0,591
581,735;32725,640;    0,644;    0,773
582,315;32231,822;   -0,629;    2,136
582,896;32489,557;   -0,174;    1,227
583,477;31907,368;    0,189;    1,227
584,057;32099,326;    0,553;    0,955
584,638;32410,994;    2,553;    2,318
585,218;32395,864;   -0,538;    2,682
585,799;32534,050;    0,281;   -0,227
586,379;32489,731;    0,372;    1,591
586,959;31200,207;    0,735;    0,318
587,540;30499,218;   -0,629;    2,227
588,120;30091,529;    1,007;   -0,045
588,700;29126,298;    2,553;    2,136
589,281;29475,148;    0,462;   -0,955
589,861;29393,927;    0,099;   -1,682
590,441;29207,609;    2,371;   -2,682
591,021;28141,990;   -0,265;   -2,591
591,601;28376,011;   -0,537;    0,500
592,181;28406,847;   -0,719;   -0,773
592,761;27644,868;    0,007;    1,409
593,341;27590,899;   -0,901;    0,045
593,921;27643,973;   -0,265;    1,591
594,501;27506,875;   -0,538;    1,318
595,081;27373,179;    0,917;   -0,318
595,661;27728,186;   -1,447;    0,955
596,240;28212,406;   -0,537;    0,136
596,820;27913,553;    0,372;    1,955
597,400;28109,570;    2,008;    0,773
597,980;28266,046;    2,008;    1,045
598,559;28239,833;    2,735;   -0,227
599,139;27949,763;   -0,174;   -1,227
599,718;27876,308;   -0,174;   -0,409
600,298;28136,410;    0,735;    0,682
600,877;28374,420;    2,917;    1,409
601,457;28680,839;    2,281;    1,136
602,036;28544,189;    0,190;    2,045
602,616;28758,861;    0,644;    1,682
603,195;29138,654;   -0,355;    3,500
603,774;28710,189;   -0,901;    2,045
604,354;28548,256;    0,826;   -0,500
604,933;28066,637;    0,463;    1,864
605,512;28155,780;    3,554;    0,591
606,091;28261,598;   -0,537;    3,773
606,671;29019,902;    0,281;    0,773
607,250;28152,728;    1,644;    3,136
607,829;28349,465;    2,372;    3,227
608,408;28225,560;    1,190;    2,591
608,987;27224,996;    1,281;    3,409
609,566;27575,371;   -1,265;   -2,500
610,145;27669,706;   -1,082;    0,682
610,723;28068,479;    4,372;    6,864
611,302;27324,056;   -0,446;    1,682
611,881;26819,447;    5,008;   11,227
612,460;27670,972;    1,645;    3,955
613,039;28098,570;   -0,082;    2,045
613,617;26782,420;    1,736;    4,773
614,196;26955,094;    1,099;    1,227
614,775;27316,713;    1,009;    2,409
615,353;27191,552;    0,736;    0,864
615,932;26963,713;    0,100;    2,409
616,510;27587,891;    0,554;    0,591
617,089;27134,510;    7,100;   17,591
617,667;26832,807;    2,372;    6,136
618,246;26688,888;   -1,537;    1,318
618,824;26902,507;   -3,355;   -0,955
619,402;26474,328;   -2,900;   -1,773
619,981;26953,465;   -0,173;   -1,045
620,559;26768,856;    0,009;    1,682
621,137;26263,482;   -0,718;    1,864
621,715;26300,891;   -1,173;   -0,682
622,293;26206,265;   -0,537;   -0,773
622,871;26697,667;   -0,718;    0,500
623,450;26264,769;    0,373;   -0,864
624,028;26178,520;    0,191;   -0,955
624,606;25795,695;   -1,718;    1,682
625,183;26206,978;   -1,536;   -1,136
625,761;25818,611;    1,009;    1,136
626,339;26126,681;    1,373;    2,591
626,917;26508,810;   -0,172;   -0,045
627,495;26543,307;   -0,354;    1,318
628,073;26000,558;   -0,263;    2,864
628,650;25682,338;    0,100;    2,136
629,228;26146,877;    0,373;    4,409
629,806;25511,527;    2,282;    1,136
630,383;25735,800;    1,464;   -0,318
630,961;25569,831;    2,555;   -0,955
631,539;25289,579;    2,464;    0,227
632,116;24707,286;   11,373;   15,409
632,694;25284,080;    2,555;    6,500
633,271;25586,090;    0,828;    2,682
633,848;25567,412;    1,828;    2,045
634,426;25529,660;   -1,081;    1,773
635,003;24591,684;    1,101;   -0,409
635,580;24943,306;    1,192;    3,682
636,158;25513,464;    3,737;    1,227
636,735;25461,212;    0,555;   -0,500
637,312;25593,125;   -0,809;   -0,682
637,889;25719,429;   -4,354;   -0,682
638,466;25207,649;   -3,990;   -0,409
639,043;25226,124;    2,101;   -1,136
639,620;25560,544;   -2,262;   -0,955
640,197;25817,308;    1,100;    1,682
640,774;25931,180;   -0,172;    1,136
641,351;26340,689;    0,737;    1,136
641,928;25777,379;   -0,627;    1,409
642,505;25403,797;    0,828;   -0,500
643,082;25539,214;   -1,718;    1,227
643,658;24543,814;   -0,718;    1,500
644,235;25324,777;    1,191;    2,500
644,812;25671,376;    1,918;    0,773
645,388;25387,248;   -0,991;    1,409
645,965;25494,212;   -0,809;    1,682
646,542;25563,266;   -1,445;   -0,227
647,118;25557,319;    1,009;   -0,955
647,695;25815,555;   -0,263;    1,136
648,271;25719,518;   -0,536;    0,500
648,848;26067,118;    0,736;    2,227
649,424;25894,354;    0,827;    1,318
650,000;25633,044;   -0,354;   -1,045
650,577;25449,280;   -0,627;   -0,955
651,153;25924,152;   -1,809;    0,955
651,729;26916,842;    1,191;    0,864
652,305;27427,260;    0,645;    2,773
652,881;32477,768;   -0,082;    1,136
653,458;39266,095;    1,100;    0,227
654,034;42701,240;    0,282;    1,591
654,610;43989,748;    0,554;    0,773
655,186;45233,621;    0,645;    3,045
655,762;44868,584;   -0,991;    0,409
656,338;44768,638;    0,100;    0,136
656,913;45732,146;   -0,082;    0,409
657,489;44958,927;    0,827;   -0,318
658,065;44935,072;   -0,173;   -1,591
658,641;45548,763;   -0,900;   -0,864
659,217;44841,908;   -0,991;    0,409
659,792;44227,780;    0,645;   -0,409
660,368;44482,379;   -2,173;   -0,682
660,944;43777,979;   -2,082;    1,227
661,519;38647,578;   -0,628;    0,409
662,095;32829,087;   -1,719;    0,591
662,670;28662,322;    1,281;   -0,136
663,246;27763,740;    1,009;   -0,409
663,821;27129,521;    0,281;    1,682
664,396;26658,848;    0,009;    1,864
664,972;26892,356;    0,009;   -0,500
665,547;27271,774;    1,372;    0,136
666,122;27338,464;   -1,082;    0,318
666,698;27592,246;   -0,173;    0,318
667,273;26929,118;   -0,173;    0,136
667,848;27769,081;    2,372;    1,500
668,423;27532,408;    2,190;    2,318
668,998;28094,371;    2,827;   -0,682
669,573;28687,061;   -3,264;   -1,500
670,148;28500,660;   -1,446;   -0,682
670,723;28244,533;   -1,810;    0,318
671,298;28683,223;    2,372;    1,045
671,873;28810,731;   -0,082;   -0,136
672,448;28751,149;    0,645;    0,136
673,023;29023,839;   -1,992;   -0,227
673,597;29375,893;    0,827;    2,318
674,172;29216,766;   -0,355;    0,318
674,747;28697,638;    0,372;   -1,045
675,321;28477,055;   -0,628;    3,318
675,896;28063,564;    0,645;    1,045
676,471;29077,163;    2,645;    1,591
677,045;28832,672;   -1,264;    0,682
677,620;28886,817;    0,190;    1,136
678,194;29224,689;   -2,628;    1,136
678,769;28806,016;   -1,083;   -0,318
679,343;29069,433;   -0,628;    1,773
679,917;28922,033;   -1,446;    1,955
680,492;29047,905;    0,826;    3,227
681,066;29106,050;    3,372;    0,409
681,640;29173,104;    1,463;   -0,318
682,214;30046,521;    0,735;    0,500
682,788;29577,212;   -1,356;   -0,773
683,363;29480,266;   -1,810;    1,682
683,937;29165,592;   -1,719;   -0,318
684,511;29911,101;    0,463;   -0,591
685,085;29615,064;   -1,356;    0,318
685,659;29347,936;   -2,538;    0,864
686,232;29623,626;   -0,356;   -0,318
686,806;29331,408;   -0,901;    0,409
687,380;29994,643;   -0,174;    0,591
687,954;30234,970;   -1,174;    1,136
688,528;29970,842;   -0,719;    1,955
689,101;30708,624;   -3,992;    1,045
689,675;30263,132;   -0,356;   -0,136
690,249;29585,277;   -0,719;    0,409
690,822;29906,513;    0,280;    0,318
691,396;30011,930;   -0,265;    1,227
691,969;29452,712;    1,280;    0,136
692,543;29941,038;   -0,447;   -1,955
693,116;29596,547;   -0,265;   -1,409
693,690;29455,328;    0,099;    0,500
694,263;30065,473;   -1,083;    2,955
694,836;30134,800;    1,371;    3,591
695,410;28722,490;   -0,265;    1,773
695,983;29187,362;    0,189;    0,591
696,556;29128,689;   -0,447;   -1,045
697,129;29475,561;   -0,356;    1,409
697,703;29176,797;   -1,629;    1,955
698,276;29096,851;    1,462;   -0,773
698,849;28935,450;    1,280;    1,409
699,422;29297,050;   -1,083;    0,591
699,995;29021,922;    0,007;    0,136
700,568;29549,976;   -0,629;    3,045
701,140;29509,302;   -2,811;    1,682
701,713;29278,811;   -0,174;    2,409
702,286;29031,592;   -0,538;    0,864
702,859;28914,283;   -0,902;   -0,591
703,432;28076,609;    0,825;    0,682
704,004;28553,845;    0,462;    0,318
704,577;28404,626;   -0,629;    0,136
705,150;29024,589;    0,189;    2,500
705,722;28799,916;   -0,356;   -3,227
706,295;28621,970;   -0,175;   -0,591
706,867;28426,842;   -0,175;    1,955
707,440;28617,987;   -1,720;   -0,409
708,012;28934,041;    0,462;    0,591
708,584;28887,277;    2,462;    0,227
709,157;29107,422;    1,825;   -0,591
709,729;28768,658;    2,280;    2,045
710,301;29609,803;    0,734;    0,045
710,874;29550,220;   -1,447;   -0,227
711,446;28476,365;    0,371;    0,864
712,018;28394,146;    0,098;    0,500
712,590;28132,200;   -1,993;    1,682
713,162;28688,618;    0,825;    1,318
713,734;28914,945;    1,825;   -2,045
714,306;28787,908;   -1,902;   -0,409
714,878;27452,871;    0,825;    0,864
715,450;28248,288;    0,643;    0,864
716,022;28497,433;    1,552;    1,318
716,593;28717,033;    0,189;    0,591
717,165;28638,359;   -3,175;   -1,227
717,737;28314,959;    0,280;    0,409
718,309;27993,922;    0,280;   -0,045
718,880;27949,430;   -0,539;   -1,409
719,452;28180,484;   -0,175;   -1,591
720,024;27743,447;    0,734;   -0,591
720,595;28287,501;   -2,902;    0,955
721,167;27897,464;    0,370;   -2,045
721,738;27427,155;   -0,812;   -1,045
722,309;27417,300;   -0,993;   -1,227
722,881;27130,535;   -1,357;    0,773
723,452;27797,953;   -2,630;    2,864
724,023;27983,553;   -0,721;    2,682
724,595;27736,152;    0,007;    0,682
725,166;27492,842;    0,007;   -0,409
725,737;27174,533;    1,734;    0,227
726,308;27242,496;   -0,266;    0,318
726,879;27672,095;   -1,630;    1,227
727,450;27570,876;    0,552;   -0,045
728,021;27485,021;    3,097;    0,682
728,592;27263,803;    0,734;    0,500
729,163;27633,947;    0,643;   -0,136
729,734;27671,638;    0,188;   -0,227
730,305;28018,146;    1,734;    0,136
730,876;28351,837;    0,188;    2,955
731,447;28095,254;    2,188;    2,682
732,017;28240,945;    1,097;    1,864
732,588;27675,817;    0,734;    1,227
733,159;27877,598;    0,643;   -1,045
733,729;27661,652;    0,006;    0,409
734,300;26929,342;    0,915;    0,864
734,870;27355,851;    3,461;    0,591
735,441;27892,632;    0,370;   -0,591
736,011;27670,868;    0,643;   -1,591
736,582;27633,467;   -0,812;    0,045
737,152;27076,430;   -1,721;   -2,045
737,722;27532,212;   -0,267;   -0,682
738,293;27217,447;   -1,358;    1,318
738,863;27140,956;    2,461;    2,318
739,433;26938,646;    5,279;    0,318
740,003;27547,973;   -0,994;   -0,682
740,573;26925,482;    2,097;   -1,591
741,143;26900,172;   -1,085;    0,318
741,713;27724,953;    1,188;   -0,500
742,283;27405,916;    0,915;    1,591
742,853;27141,788;    1,915;    1,591
743,423;26572,206;    1,733;    0,045
743,993;26701,351;   -0,358;    1,500
744,563;26145,041;    0,097;   -0,864
745,133;26055,641;   -0,812;   -0,864
745,702;26748,149;   -0,267;    1,773
746,272;25929,658;   -0,176;    0,591
746,842;25694,530;   -1,358;   -0,591
747,411;26145,675;   -0,267;   -0,318
747,981;26308,729;    0,097;    0,500
748,551;26377,601;    2,278;   -1,045
749,120;26261,291;    0,642;   -0,227
749,690;26677,527;   -0,631;    2,409
750,259;26949,672;    1,369;    2,955
750,828;26911,089;    1,551;   -1,955
751,398;27143,507;    1,278;   -0,045
751,967;26684,652;    2,187;    0,409
752,536;26876,797;   -0,813;   -0,227
753,105;27284,124;    0,096;    0,227
753,675;27125,996;    0,096;    1,773
754,244;27081,141;   -0,904;    3,591
754,813;27059,922;    0,551;    1,227
755,382;26622,430;    0,460;    0,955
755,951;27196,484;    1,551;    3,682
756,520;26729,902;   -0,085;    1,864
757,089;27283,501;    0,278;    0,500
757,658;27420,555;    1,733;    1,227
758,227;27418,064;    1,096;    0,318
758,795;27739,572;    1,187;    1,136
759,364;27943,354;   -0,086;   -0,591
759,933;26944,408;   -1,176;   -0,045
760,501;26504,371;    0,733;   -1,318
761,070;26968,879;   -2,813;   -1,409
761,639;27635,115;   -1,904;    1,318
762,207;27006,714;    1,551;   -0,955
762,776;26929,132;    0,369;    0,864
763,344;26948,732;   -0,995;    0,591
763,913;26001,422;   -0,722;    1,409
764,481;26762,476;    1,005;   -0,136
765,049;26563,439;   -1,358;    1,409
765,618;26393,129;   -0,086;    0,318
766,186;26480,183;    0,278;    0,136
766,754;26697,964;    0,005;    1,864
767,322;25662,109;   -1,995;    0,409
767,890;25676,982;   -0,722;   -1,773
768,459;26069,581;   -2,177;   -0,318
769,027;26259,271;    1,641;    3,409
769,595;25233,689;    3,278;    2,591
770,163;25661,652;    3,823;    2,955
770,730;25437,161;    0,732;   -0,136
771,298;25209,396;    0,187;   -1,409
771,866;25325,723;   -1,541;    4,955
772,434;25634,504;   -0,631;   -1,864
773,002;25823,104;    0,005;    0,682
773,569;25463,976;    0,914;    1,682
774,137;25315,303;   -0,268;   -0,045
774,705;26101,084;    0,278;   -0,136
775,272;25592,229;    0,641;    0,682
775,840;25351,555;   -0,177;    2,682
776,407;24882,973;    0,277;    1,955
776,975;24507,027;   -0,632;    0,318
777,542;25480,081;   -1,086;   -0,045
778,110;25308,862;   -1,268;   -0,045
778,677;25055,371;   -2,359;   -0,864
779,244;24777,152;    2,186;    1,045
779,812;24890,388;    1,823;    0,864
780,379;24761,078;    0,005;    1,136
780,946;25035,223;    1,005;   -0,773
781,513;25316,186;   -1,450;    0,318
782,080;24691,695;   -0,086;    2,864
782,647;25434,567;   -0,268;    3,045
783,214;25049,621;   -0,177;    3,864
783,781;24626,129;   -0,723;   -0,682
784,348;24501,183;   -0,632;    1,500
784,915;24953,783;   -3,177;    0,318
785,482;24747,746;    1,368;    2,591
786,049;25149,709;    0,186;   -0,591
786,615;25274,672;    0,277;   -0,955
787,182;24947,726;    0,186;   -0,682
787,749;24649,871;   -2,814;    1,409
788,315;23985,379;   -1,632;   -0,409
788,882;24301,251;    1,550;   -1,227
789,448;25047,396;    1,732;   -0,955
790,015;25003,268;    1,095;    3,227
790,581;24540,868;    1,459;    0,227
791,148;24468,286;    0,641;    1,045
791,714;24649,976;   -0,541;    3,136
792,280;24302,666;    0,186;    1,591
792,847;23905,902;    0,550;    2,500
793,413;24462,047;   -0,269;   -0,318
793,979;24023,919;    3,459;   -1,318
794,545;24142,882;    4,459;    2,682
795,111;23582,754;    2,186;    1,318
795,678;23763,263;    0,731;   -1,682
796,244;23339,680;    3,368;    0,136
796,810;23898,462;    1,731;    0,773
797,375;23624,607;    0,549;   -2,136
797,941;23644,842;   -0,541;    0,591
798,507;23765,351;   -0,451;   -0,955
799,073;23325,769;   -0,360;    0,591
799,639;23409,459;   -2,632;    3,136
800,205;23384,240;    0,095;    2,682
800,770;22960,840;    0,640;    1,773
801,336;23028,348;    1,368;   -0,955
801,901;22787,220;    4,549;    3,136
802,467;23347,820;   -0,542;    2,045
803,033;22677,055;   -0,087;    0,864
803,598;22919,019;    1,913;   -1,045
804,163;22931,618;    1,095;   -0,318
804,729;22884,945;   -0,178;    1,136
805,294;23260,453;    0,822;    2,227
805,859;23024,053;    0,731;   -0,409
806,425;22565,470;    1,186;    2,682
806,990;22225,615;    2,186;    4,318
807,555;22668,215;   -1,451;    2,591
808,120;22574,087;    0,822;   -0,409
808,685;22589,322;    0,185;   -2,500
809,250;22096,376;    0,004;   -0,500
809,815;22442,794;    1,913;    0,682
810,380;22982,030;   -0,269;    1,591
810,945;23528,447;   -1,087;    2,045
811,510;22664,683;    2,094;    1,591
812,075;22362,737;   -0,633;   -1,409
812,640;22425,428;    2,003;    1,409
813,204;22487,845;    0,822;   -0,227
813,769;22979,717;    2,094;   -0,045
814,334;22386,590;    0,458;    0,864
814,898;22449,462;    0,367;    0,591
815,463;22310,970;    1,276;   -0,773
816,027;22285,388;   -0,724;   -2,318
816,592;22345,533;    0,640;   -2,045
817,156;21875,041;    2,094;    1,136
817,721;21730,550;    4,276;    2,318
818,285;21702,967;    2,912;    1,500
818,849;22276,840;   -1,451;    1,682
819,414;22220,348;   -0,269;    2,955
819,978;21795,857;   -1,269;    1,773
820,542;22362,456;    2,003;    0,500
821,106;22085,146;   -0,815;    0,682
821,670;22218,928;   -0,815;    2,591
822,234;21946,163;   -0,270;    1,409
822,798;21303,763;    0,003;    0,500
823,362;21296,635;   -0,633;    4,227
823,926;20587,598;    0,094;    1,136
824,490;20837,925;   -0,997;   -0,682
825,054;21294,342;   -0,088;   -1,136
825,618;20885,396;   -1,542;   -1,500
826,181;20835,178;    0,458;   -1,318
826,745;20793,323;    1,367;   -1,045
827,309;21112,558;    1,185;    1,318
827,872;20496,885;    1,367;    0,955
828,436;21418,394;    1,185;   -0,773
828,999;21478,993;   -0,997;    1,227
829,563;20311,229;   -0,179;    1,136
830,126;20138,192;   -0,179;   -0,591
830,690;20165,337;   -1,997;    2,864
831,253;19657,482;   -0,543;    2,227
831,816;19816,808;   -1,906;    0,500
832,380;19719,317;    0,185;    0,864
832,943;19970,189;   -1,361;   -0,500
833,506;19401,788;    2,639;   -1,227
834,069;20205,933;    3,912;   -0,955
834,632;20288,805;    1,730;    1,318
835,195;20179,678;    1,003;    0,955
835,758;19373,277;   -0,997;    1,955
836,321;19248,786;    0,730;   -1,045
836,884;19306,567;   -0,725;   -0,955
837,447;19337,166;   -2,816;    1,773
838,010;19672,311;    0,366;    3,227
838,573;19928,365;   -1,179;    0,773
839,135;19902,146;   -1,361;   -0,955
839,698;19374,200;    1,275;    0,409
840,261;18864,345;    1,003;   -0,227
840,823;18704,854;   -0,543;    0,864
841,386;18996,817;   -0,452;   -2,409
841,948;18867,053;   -1,361;    1,773
842,511;18589,198;    0,912;    1,682
843,073;18767,433;    1,912;    0,227
843,636;18523,942;   -0,361;   -0,227
844,198;18505,996;    0,911;    0,591
844,760;18637,959;    1,093;    1,955
845,322;18251,740;    0,548;    1,136
845,885;18684,976;    0,730;    0,591
846,447;19124,212;   -1,998;    0,227
847,009;18741,448;    1,911;   -0,682
847,571;19061,774;    0,820;   -2,045
848,133;19150,101;   -1,089;   -1,864
848,695;18939,155;   -0,543;    1,409
849,257;18509,027;   -1,089;   -1,682
849,819;18681,536;   -0,998;   -0,409
850,381;18702,135;   -0,725;   -0,864
850,942;19113,371;    1,093;   -0,591
851,504;19071,516;    1,184;    0,227
852,066;19109,388;    1,275;   -1,591
852,628;18632,260;   -0,180;    1,955
853,189;18187,041;    1,638;    2,682
853,751;18285,550;   -0,907;    1,409
854,312;18083,877;   -0,453;   -1,682
854,874;18623,930;   -2,089;   -0,773
855,435;19108,075;   -0,907;   -1,682
855,997;19294,311;   -1,816;   -0,136
856,558;18601,365;    0,366;    1,773
857,119;18650,783;    0,820;    2,864
857,681;18332,200;    0,002;    0,318
858,242;18408,436;    1,911;   -2,136
858,803;18828,308;    0,456;   -0,773
859,364;19401,908;    0,184;   -4,773
859,925;18671,598;   -2,453;   -0,955
860,486;18579,743;   -0,453;   -0,955
861,047;18310,342;   -0,544;   -1,227
861,608;18141,851;   -1,089;   -0,773
862,169;18234,996;    0,638;   -0,045
862,730;18018,959;    0,456;    1,409
863,291;18290,831;   -0,635;   -0,500
863,852;18641,158;   -0,635;    1,955
864,412;18083,939;   -0,271;   -0,864
864,973;16687,993;   -0,089;    0,500
865,534;16615,138;   -1,726;    0,227
866,094;18123,828;    1,820;    0,227
866,655;17765,246;    1,274;    3,318
867,215;18027,845;    0,274;    0,136
867,776;17861,899;    0,547;   -0,136
868,336;17970,953;   -1,453;    0,136
868,897;17454,644;    2,638;    1,682
869,457;17205,879;    1,365;    0,318
870,017;17407,297;    0,547;   -1,227
870,578;17911,715;   -0,817;    0,773
871,138;17565,496;   -2,089;   -0,955
871,698;17123,186;   -0,817;   -1,318
872,258;17046,786;   -0,453;   -2,864
872,818;17431,021;    2,729;    0,045
873,378;17364,894;    0,638;    1,045
873,938;16890,766;    0,547;    0,500
874,498;17236,820;    0,274;   -1,955
875,058;17123,783;    2,183;    1,773
875,618;16984,200;    1,910;   -2,682
876,177;16896,618;    1,274;    0,136
876,737;16499,217;   -0,090;    1,955
877,297;16568,362;    0,183;    1,955
877,856;16567,871;   -0,362;    0,318
878,416;16517,925;    1,183;   -0,136
878,976;16709,797;   -1,817;    0,409
879,535;16880,396;    0,092;    3,136
880,095;16639,996;   -0,544;    0,045
880,654;16750,232;   -1,090;    1,318
881,213;16893,286;    2,456;    1,500
881,773;16499,885;    2,637;    2,682
882,332;16919,666;    3,365;    5,136
882,891;16766,448;    3,092;    2,136
883,451;17177,865;   -1,272;    1,682
884,010;16598,737;   -2,908;   -0,409
884,569;16711,246;   -0,999;   -0,045
885,128;16842,482;    2,819;   -1,864
885,687;16929,172;    4,455;    0,682
886,246;16634,408;    1,455;    2,136
886,805;16395,371;    2,455;    2,045
887,364;16665,243;   -0,999;   -0,500
887,922;17033,661;   -1,181;    0,045
888,481;16542,442;   -1,545;    0,591
889,040;16834,223;    1,183;    2,136
889,599;17511,732;    2,455;    1,409
890,157;17552,331;    1,455;    2,409
890,716;17250,476;   -0,090;    0,227
891,274;17078,166;    0,092;   -1,136
891,833;17493,493;    1,546;    0,864
892,391;17345,547;   -0,454;    0,500
892,950;17414,601;    1,819;   -0,773
893,508;17775,837;    0,455;   -0,409
894,067;17121,618;    0,637;    0,136
894,625;17017,763;   -0,636;   -1,500
895,183;17228,090;   -0,363;   -0,682
895,741;17178,235;    1,728;   -1,773
896,299;16954,379;   -0,545;   -2,409
896,858;17166,342;    0,819;   -1,591
897,416;17321,942;    2,728;   -1,318
897,974;17029,996;    1,819;    0,318
898,532;17244,504;    6,091;    2,682
899,089;17116,649;    2,091;   -0,682
899,647;17145,340;   -1,454;    1,318
900,205;16884,394;    1,182;    1,045
900,763;17053,357;   -0,454;    0,227
901,321;17095,956;    2,364;   -1,409
901,878;16474,465;   -1,000;   -0,773
902,436;16326,973;   -1,363;    1,318
902,994;16781,845;    4,728;    3,682
903,551;16256,172;    0,728;    0,409
904,109;16598,499;    0,182;   -1,409
904,666;16161,007;    2,455;    1,045
905,224;15996,516;    0,182;   -0,409
905,781;15759,297;    0,727;   -0,318
906,338;15806,806;   -1,363;    1,045
906,895;15737,405;    0,637;    2,045
907,453;15703,550;    1,727;    1,136
908,010;15727,513;   -0,909;    0,409
908,567;15373,840;    1,273;    0,591
909,124;14856,621;    0,364;   -1,500
909,681;14967,766;   -2,909;    0,682
910,238;15109,183;    0,636;   -1,318
910,795;15393,783;   -0,273;   -1,136
911,352;15023,237;   -2,909;   -2,682
911,909;14445,965;   -1,364;   -0,864
912,466;14963,237;   -3,182;    1,500
913,022;14504,601;   -1,636;    0,500
913,579;14876,146;   -0,909;    2,045
914,136;14588,692;    1,636;    0,955
914,692;14910,601;    0,091;   -1,227
915,249;14501,056;    1,455;    0,409
915,806;14737,965;    0,182;    1,955
916,362;14504,146;    1,909;    1,864
916,918;14077,237;    2,000;    1,045
917,475;14011,601;   -1,182;    0,955
918,031;14107,692;    3,364;   -0,045
918,587;13572,874;   -0,909;   -0,318
919,144;13754,874;   -2,273;    0,227
919,700;14061,601;    1,727;    0,773
920,256;13610,874;    0,727;    0,045
920,812;13263,237;   -0,727;   -1,045
921,368;13264,146;   -1,727;   -1,045
921,924;12888,328;    0,182;   -0,136
922,480;12476,874;   -0,545;    1,227
923,036;13089,783;    1,273;    1,955
923,592;12994,419;    0,455;    0,318
924,148;12925,692;    0,455;   -0,955
924,704;12267,146;   -1,364;   -0,409
925,259;12516,146;   -0,273;    0,591
925,815;12310,056;    1,455;    0,500
926,371;11811,328;    2,909;    1,409
926,926;11738,874;    2,091;    0,591
927,482;11366,874;   -1,364;    0,773
928,037;11235,510;    0,909;    2,045
928,593;11498,874;    1,636;    1,045
929,148;11326,237;   -1,818;   -1,500
929,704;10816,237;   -1,455;   -0,500
930,259;11027,419;    0,091;   -0,136
930,814;10097,692;   -0,818;    1,955
931,369; 9764,874;    1,091;   -0,773
931,925; 9680,510;   -0,091;    0,136
932,480; 9593,874;   -2,818;   -2,591
933,035; 9502,328;    0,545;   -0,318
933,590; 9235,783;    0,364;   -1,773
934,145; 8858,146;   -1,364;   -0,318
934,700; 9183,328;    0,455;   -0,591
935,255; 8995,965;   -0,091;    0,045
935,809; 8296,965;    3,182;    0,864
936,364; 7433,601;   -0,455;   -0,136
936,919; 7428,510;    0,455;   -1,773
937,474; 7300,510;    1,455;    0,136
938,028; 7057,601;   -1,636;    1,136
938,583; 6542,419;    1,818;    4,682
939,138; 6800,510;    2,091;    2,136
939,692; 6212,874;    1,636;   -1,136
940,247; 5946,419;   -0,727;   -1,045
940,801; 5521,328;   -0,636;    0,227
941,355; 5395,510;   -0,364;    2,591
941,910; 5055,237;   -0,273;   -2,136
942,464; 5175,601;   -0,818;   -0,318
943,018; 4963,237;    1,000;   -0,227
943,572; 4916,783;    2,545;   -0,682
944,126; 4323,692;    0,091;   -0,409
944,681; 4217,692;    3,091;    0,227
945,235; 4218,419;    1,000;   -0,591
945,789; 4156,965;    0,364;   -1,864
946,342; 4284,328;    0,455;   -0,591
946,896; 4071,692;   -2,273;    0,955
947,450; 3808,783;    1,545;   -0,227
948,004; 4022,510;    1,727;   -0,045
948,558; 3994,510;    0,273;   -0,864
949,111; 3922,783;   -0,273;   -0,318
949,665; 3995,056;    1,636;   -0,682
950,219; 3853,056;   -0,091;   -1,045
950,772; 3921,419;   -1,909;    1,864
951,326; 3812,510;    0,545;   -0,955
951,879; 3916,965;    0,727;   -2,318
952,433; 3961,874;    0,000;    2,227
952,986; 3778,601;    2,909;    0,682
953,539; 3753,328;   -0,273;    0,591
954,093; 3665,146;    0,545;   -1,318
954,646; 3824,874;    0,909;    1,318
955,199; 3640,783;    0,000;   -0,500
955,752; 3532,237;   -0,455;    1,773
956,305; 3490,419;   -0,091;    2,955
956,858; 3639,692;    0,818;   -0,318
957,411; 3813,965;   -0,545;    2,136
957,964; 3652,965;    1,364;    2,136
958,517; 3622,056;   -1,545;    3,136
959,070; 3444,146;   -0,455;    1,955
959,623; 3531,601;    1,091;    1,500
960,176; 3317,874;    1,727;    2,045
960,728; 3303,237;   -2,727;    0,773
961,281; 3358,237;    0,545;    0,500
961,834; 3388,328;   -0,909;    0,864
962,386; 3282,874;    1,727;    1,045
962,939; 3223,146;    0,364;   -0,318
963,491; 3355,601;    0,455;    1,136
964,043; 3234,419;    1,182;    2,409
964,596; 3368,692;   -1,000;    2,227
965,148; 3221,237;   -1,000;    1,773
965,700; 3133,692;    1,091;   -0,227
966,253; 3269,056;   -0,636;    0,318
966,805; 3096,601;   -2,273;    0,773
967,357; 3152,692;    1,091;   -1,500
967,909; 3132,328;    0,455;   -1,227
968,461; 3244,601;    0,545;    3,136
969,013; 3152,601;   -0,182;   -0,864
969,565; 3252,510;   -0,455;   -1,136
970,117; 3296,783;   -0,364;    1,045
970,669; 3135,510;    0,182;   -0,136
971,220; 3005,328;   -0,455;   -1,500
971,772; 2919,328;   -0,636;   -0,318
972,324; 3057,146;    0,091;   -0,500
972,876; 2993,783;    0,818;   -0,045
973,427; 3130,783;    1,909;   -1,045
973,979; 3090,419;   -0,727;   -2,500
974,530; 3126,874;    1,818;    1,318
975,082; 3150,965;   -0,545;    1,682
975,633; 3049,237;    1,091;    1,682
976,184; 3182,965;    0,909;    0,773
976,736; 2966,692;    0,091;    0,227
977,287; 2776,237;   -0,909;   -0,500
977,838; 2952,056;    0,909;   -0,318
978,389; 3014,510;   -1,000;   -0,500
978,940; 2872,874;    0,545;   -0,409
979,491; 2914,419;    0,091;   -0,500
980,042; 2879,601;    0,182;    3,045
980,593; 2927,146;   -2,545;    0,227
981,144; 2960,874;    2,545;   -0,500
981,695; 2919,419;    1,455;    1,500
982,246; 2904,965;   -0,273;    1,045
982,797; 3058,692;   -1,727;    0,682
983,347; 3145,146;    0,364;    0,591
983,898; 3323,328;    3,091;    0,409
984,449; 3153,692;    2,182;    0,773
984,999; 3067,874;    1,455;   -1,136
985,550; 2831,601;    0,182;   -0,318
986,100; 2843,328;   -0,455;   -0,318
986,651; 2893,965;   -0,818;    0,045
987,201; 2878,419;   -1,000;   -0,591
987,751; 2950,692;    0,818;    2,864
988,302; 2948,510;    2,636;    1,500
988,852; 2988,965;    0,455;   -1,136
989,402; 3033,783;    0,091;    0,682
989,952; 2934,056;   -2,182;    0,864
990,502; 3028,146;   -0,091;    0,682
991,052; 2983,419;   -0,727;    0,045
991,602; 2871,328;   -2,909;    1,318
992,152; 2864,965;    0,455;    0,682
992,702; 2841,783;    1,364;   -0,045
993,252; 2768,419;   -3,000;   -0,500
993,802; 2866,965;   -0,273;    1,318
994,352; 3094,965;   -1,545;    1,136
994,901; 3155,328;   -0,182;    3,227
995,451; 3074,874;   -0,182;    0,318
996,000; 3181,328;    1,636;    0,318
996,550; 2896,237;    2,273;    0,227
997,100; 2890,783;    1,273;   -0,045
997,649; 3182,419;    2,182;    0,955
998,198; 2805,237;    1,727;   -1,500
998,748; 2999,874;    1,091;   -2,318
999,297; 2922,237;   -0,818;   -0,409
999,846; 2977,692;    1,000;   -0,773
1000,395; 3009,510;   -0,818;    0,500
1000,945; 2954,419;    1,818;   -0,773
1001,494; 3055,874;    2,364;    0,682
1002,043; 3046,874;    4,636;    0,864
1002,592; 2886,965;   -1,091;    1,955
1003,141; 3037,237;   -0,455;   -0,682
1003,690; 2900,874;    1,727;    0,500
1004,238; 2985,328;    1,455;   -0,045
1004,787; 2616,146;    1,364;    1,227
1005,336; 2851,419;    0,364;    0,682
1005,885; 3010,601;    1,364;   -2,773
1006,433; 3126,510;    0,545;    0,955
1006,982; 3183,328;    0,455;    1,682
1007,531; 3087,874;   -1,818;   -0,227
1008,079; 3055,601;   -2,273;    0,500
1008,627; 3164,056;   -1,455;    0,409
1009,176; 2918,510;    0,000;   -1,955
1009,724; 2959,783;    1,091;    0,864
1010,273; 3017,965;    1,273;    0,500
1010,821; 3130,237;    0,091;    1,409
1011,369; 2883,146;   -1,364;    1,318
1011,917; 2875,419;   -1,364;   -0,591
1012,465; 3135,510;    1,273;   -1,591
1013,013; 3236,783;    2,091;   -1,682
1013,561; 3118,601;    0,455;   -0,773
1014,109; 3183,056;   -1,909;    1,682
1014,657; 3047,874;    0,364;    0,591
1015,205; 3142,965;    1,636;   -0,955
1015,753; 3186,692;   -0,545;   -1,409
1016,301; 3220,237;   -2,636;    3,045
1016,848; 3237,510;   -1,273;    0,409
1017,396; 3288,692;    2,545;    0,045
1017,944; 3398,237;    1,182;    1,864
1018,491; 3162,328;    0,273;    1,409
1019,039; 3327,510;    0,455;    0,591
1019,586; 3208,510;   -1,364;    1,682
1020,134; 3302,783;    0,455;    1,500
1020,681; 3337,692;    0,182;   -1,136
1021,228; 3355,692;    2,909;   -2,227
1021,776; 3166,783;    1,182;   -1,136
1022,323; 3415,692;    0,455;    0,773
1022,870; 3318,510;   -1,000;   -0,045
1023,417; 3217,510;    2,636;    1,864
1023,964; 3360,328;    2,636;    1,227
1024,511; 3187,692;    1,000;    0,773
1025,058; 2999,783;    3,182;   -0,045
1025,605; 3050,965;   -2,273;    3,136
1026,152; 3282,783;    1,727;   -0,591
1026,699; 3006,783;    1,818;    1,318
1027,245; 3167,601;   -0,091;    0,318
1027,792; 3379,783;   -1,000;    1,409
1028,339; 3257,692;    2,364;   -0,045
1028,885; 3121,965;    1,000;   -0,227
1029,432; 3041,692;   -0,091;    0,227
1029,978; 3102,692;   -1,000;   -1,591
1030,525; 3009,692;    1,000;    0,409
1031,071; 3247,056;   -1,364;    1,136
1031,618; 3356,874;    0,364;    1,682
1032,164; 3139,056;   -0,091;    3,045
1032,710; 3192,056;    1,636;   -1,500
1033,256; 3112,237;   -0,636;   -0,136
1033,803; 3077,510;   -0,545;    1,500
1034,349; 2799,146;   -1,364;    0,136
1034,895; 2968,965;    0,000;   -0,318
1035,441; 2939,419;   -0,818;    0,318
1035,987; 2941,692;   -2,364;   -0,682
1036,533; 2946,146;   -1,455;   -0,955
1037,078; 3148,419;    1,455;    1,682
1037,624; 2962,510;    2,455;   -0,955
1038,170; 2991,510;    0,455;   -0,318
1038,716; 2896,328;    1,636;   -0,409
1039,261; 2813,237;   -2,273;   -0,773
1039,807; 2754,692;   -0,091;    3,409
1040,352; 2826,510;   -1,909;   -0,318
1040,898; 2869,056;   -1,545;   -0,682
1041,443; 2764,328;   -1,455;   -2,591
1041,989; 2798,874;    1,091;    1,591
1042,534; 2679,601;   -0,364;    2,591
1043,079; 2777,965;    2,909;    0,955
1043,625; 2569,601;    1,818;    0,500
1044,170; 2618,510;   -1,364;    1,045
1044,715; 2879,692;    2,455;    0,955
1045,260; 2698,874;    2,182;   -0,955
1045,805; 2729,237;    1,182;   -0,591
1046,350; 2679,510;    1,364;   -0,409
1046,895; 2641,874;    2,909;    1,591
1047,440; 2603,237;    5,364;    0,409
1047,985; 2498,692;    2,818;   -0,955
1048,530; 2399,510;    1,545;    1,227
1049,074; 2472,692;    0,000;    0,318
1049,619; 2444,146;   -1,364;    1,955
1050,164; 2255,056;    0,455;    0,227
1050,708; 2291,692;   -0,455;    0,045
1051,253; 2677,146;    1,273;   -2,227
1051,797; 2385,146;    0,818;   -1,318
1052,342; 2371,419;   -1,182;    1,045
1052,886; 2362,601;    0,364;   -1,409
1053,430; 2254,601;   -1,364;    0,136
1053,975; 2271,419;   -0,818;   -0,318
1054,519; 2249,874;   -0,727;    3,227
1055,063; 2281,783;    0,909;    1,318
1055,607; 2159,601;   -0,182;    0,227
1056,151; 2182,237;    2,909;    1,682
1056,695; 2095,419;    2,273;   -1,136
1057,239; 2170,510;   -1,727;   -0,682
1057,783; 2174,237;    0,818;   -1,500
1058,327; 2122,692;    0,000;    1,409
1058,871; 2373,237;   -0,545;    1,318
1059,415; 2074,328;   -0,818;   -0,045
1059,958; 2342,328;    1,455;    2,591
1060,502; 2041,146;   -1,000;   -0,773
1061,046; 1945,783;    0,364;   -0,955
1061,589; 1919,328;   -3,000;   -1,136
1062,133; 1791,419;   -1,273;    1,864
1062,676; 1756,965;    1,182;    0,864
1063,220; 1760,328;    1,091;    0,500
1063,763; 1776,601;    0,909;    1,136
1064,306; 1874,056;   -0,909;    1,864
1064,849; 1746,692;   -0,909;    0,591
1065,393; 1757,056;    2,000;   -1,500
1065,936; 1867,692;    0,182;   -0,409
1066,479; 1746,692;   -1,455;    1,318
1067,022; 1774,419;   -0,273;   -0,227
1067,565; 1663,328;   -0,091;   -1,318
1068,108; 1690,783;    0,727;   -0,591
1068,651; 1653,692;   -0,636;    1,409
1069,194; 1600,783;   -0,455;   -1,682
1069,736; 1593,237;   -1,273;    0,955
1070,279; 1563,692;   -1,364;   -0,500
1070,822; 1635,237;   -2,000;   -0,318
1071,364; 1742,601;   -0,364;    1,318
1071,907; 1547,783;   -0,727;    3,227
1072,450; 1430,328;    0,000;   -0,045
1072,992; 1442,783;   -0,273;    3,136
1073,535; 1595,146;    2,091;    2,136
1074,077; 1365,419;   -0,727;    2,045
1074,619; 1340,510;   -1,364;    0,591
1075,161; 1371,056;   -1,091;    1,500
1075,704; 1568,965;    1,545;    1,227
1076,246; 1354,965;   -0,182;    0,682
1076,788; 1277,783;   -0,364;    1,773
1077,330; 1355,601;    1,273;    2,136
1077,872; 1319,056;    0,909;    0,955
1078,414; 1560,328;    2,727;    0,773
1078,956; 1276,874;    1,273;   -0,227
1079,498; 1546,237;    1,636;    0,318
1080,040; 1260,056;    1,909;   -1,318
1080,581; 1195,510;    1,636;   -0,318
1081,123; 1118,692;    0,091;   -0,773
1081,665; 1163,146;   -1,182;   -0,955
1082,206; 1470,510;    1,364;   -0,500
1082,748; 1317,237;    0,727;    2,045
1083,289; 1187,328;   -2,000;    1,318
1083,831; 1110,146;   -0,545;    0,227
1084,372; 1156,237;    0,000;    0,591
1084,913; 1157,965;    1,091;    0,864
1085,455; 1103,328;   -1,909;   -2,045
1085,996; 1080,146;   -2,273;    0,136
1086,537; 1106,510;   -0,091;    0,864
1087,078; 1152,965;   -0,909;   -2,136
1087,619; 1197,783;   -1,273;    0,227
1088,160; 1111,056;    0,000;    1,318
1088,701; 1085,965;   -1,091;    0,682
1089,242; 1032,328;    1,364;   -2,227
1089,783; 1130,056;   -0,273;    1,409
1090,324; 1096,328;    0,455;    0,682
1090,865;  982,328;    2,727;   -0,409
1091,405;  928,510;    0,727;    2,227
1091,946;  954,692;    0,182;   -0,955
1092,487;  879,328;    0,818;   -1,409
1093,027; 1064,783;   -1,364;   -1,500
1093,568;  908,874;   -0,364;    1,227
1094,108; 1024,328;    0,273;    1,773
1094,649;  952,419;   -1,182;    0,136
1095,189;  892,146;   -0,636;   -0,682
1095,729;  831,783;   -0,091;    0,955
1096,269;  837,692;    0,727;   -0,955
1096,810; 1161,601;   -1,364;    0,500
1097,350;  979,328;    1,364;   -0,773
1097,890;  885,510;    0,364;    1,227
1098,430; 1149,056;    2,364;    2,864
1098,970; 1019,783;    2,182;    1,682
1099,510;  869,965;    0,545;   -2,318
1100,050;  802,146;    1,000;   -1,591
1100,589;  766,783;   -0,727;   -0,318
1101,129;  905,783;    0,818;   -0,955
1101,669; 1059,965;    1,727;    2,136
1102,209;  870,692;   -0,091;    2,227
1102,748;  828,328;    0,000;    0,955
1103,288;  816,328;    1,273;   -1,227
1103,827;  836,601;    3,091;   -2,227
1104,367;  714,237;   -0,091;   -2,409
1104,906;  683,601;    1,364;   -1,136
1105,445;  756,328;    0,636;   -1,136
1105,985;  704,692;   -0,727;    1,500
1106,524;  751,965;   -1,727;   -0,682
1107,063;  732,601;   -2,727;    1,409
1107,602;  693,965;   -1,909;   -1,500
1108,141;  625,965;   -1,909;    1,500
1108,680;  731,874;   -3,455;   -0,591
1109,219;  653,056;   -0,909;   -0,500
1109,758;  653,328;    0,455;    0,682
1110,297;  636,419;    1,000;   -0,682
1110,836;  578,965;   -0,727;    0,955
1111,375;  744,419;   -2,545;    0,409
1111,913;  754,601;   -1,000;    0,773
1112,452;  701,328;   -0,273;    0,136
1112,991;  576,601;    1,091;    1,955
1113,529;  540,692;   -0,818;   -0,045
1114,068;  617,237;   -0,273;    2,955
1114,606;  510,146;   -0,364;   -0,955
1115,144;  673,510;   -1,273;    1,045
1115,683;  599,874;   -0,727;    0,318
1116,221;  648,783;   -0,455;   -0,864
1116,759;  564,510;    0,636;   -0,864
1117,297;  779,692;    0,000;    1,864
1117,836;  569,692;   -2,182;   -1,227
1118,374;  577,237;    0,182;   -0,682
1118,912;  526,601;    0,909;    2,682
1119,450;  518,601;    1,000;    0,864
1119,988;  563,601;    1,545;    2,136
1120,525; 1030,237;    5,091;    3,318
1121,063;  722,601;    1,182;    1,864
1121,601;  521,419;   -0,909;   -1,227
1122,139;  482,783;   -0,727;   -2,045
1122,676;  682,783;   -0,727;    2,773
1123,214;  613,510;   -1,182;    4,409
1123,751;  411,601;    1,727;    2,227
1124,289;  549,419;   -0,091;   -0,409
1124,826;  416,874;    1,727;    0,227
1125,364;  334,874;    1,727;   -0,955
1125,901;  536,601;    1,182;    1,227
1126,438;  649,510;    0,818;    0,955
1126,975;  370,874;   -0,727;   -0,773
1127,513;  451,419;    0,273;    2,136
1128,050;  344,692;    1,636;   -0,682
1128,587;  454,056;    2,000;   -0,227
1129,124;  497,601;    0,091;    1,318
1129,661;  349,419;    0,273;    0,227
1130,198;  523,237;    1,636;    0,773
1130,734;  480,965;    0,182;    1,409
1131,271;  325,783;   -0,909;    0,864
1131,808;  498,783;    2,909;    3,045
1132,345;  373,419;    1,545;    0,318
1132,881;  239,237;   -1,545;   -1,864
1133,418;  387,146;    0,727;   -1,136
1133,954;  322,328;    2,455;   -2,682
1134,491;  395,328;    1,364;   -0,773
1135,027;  291,328;    2,364;    0,864
1135,564;  380,146;    0,273;    2,955
1136,100;  374,328;    0,364;    2,136
1136,636;  252,146;   -1,273;   -1,045
1137,172;  355,692;    0,000;   -1,045
1137,708;  277,056;   -1,364;   -1,045
1138,245;  277,419;    1,273;   -1,227
1138,781;  225,056;    1,091;   -3,318
1139,317;  294,146;    1,273;   -1,409
1139,852;  285,783;    3,091;    0,136
1140,388;  418,510;   -1,182;   -0,409
1140,924;  301,510;   -1,091;   -2,227
1141,460;  225,692;   -1,636;    0,136
1141,996;  163,237;   -1,364;    2,682
1142,531;  213,146;    1,364;    3,318
1143,067;  428,328;    1,182;    1,045
1143,602;  489,146;   -0,091;   -0,318
1144,138;  336,510;   -2,636;    1,045
1144,673;  193,965;   -1,455;    1,409
1145,209;  265,510;   -1,909;   -0,318
1145,744;  184,146;   -0,727;    0,864
1146,279;  330,328;    1,818;   -0,136
1146,815;  236,146;    1,545;   -2,682
1147,350;  267,965;   -1,364;    0,045
1147,885;  189,328;   -0,818;   -1,318
1148,420;  197,328;   -2,273;    0,773
1148,955;  168,056;   -1,727;    1,864
1149,490;  207,419;   -0,909;   -1,591
1150,025;  187,692;    0,455;   -1,773
1150,560;  300,056;    1,091;   -0,955
1151,094;  260,874;    1,455;   -0,591
1151,629;  268,601;    1,636;    0,864
1152,164;  194,056;    1,364;    1,318
1152,698;  142,965;   -0,182;   -0,136
1153,233;  106,783;    0,091;   -0,682
1153,767;  159,237;   -3,000;   -2,318
1154,302;  206,146;   -1,455;    1,773
1154,836;  196,419;   -0,455;   -2,136
1155,371;  261,601;   -1,364;    3,682
1155,905;  209,965;   -0,636;    1,682
1156,439;  173,146;   -0,636;   -0,500
1156,973;  199,965;    0,364;    0,318
1157,507;  144,965;   -0,364;    0,682
1158,042;  172,510;   -0,727;    1,045
1158,576;  228,692;    0,182;    1,773
1159,110;  207,965;   -0,818;    2,409
1159,643;  183,510;    0,636;   -0,045
1160,177;  112,692;   -1,545;    1,500

