
Integration time [ms]:   0,040
Averaging Nr. [scans]: 11
Smoothing Nr. [pixels]: 0
Data measured with spectrometer [name]: 7318044SP
Wave   ;Sample   ;Dark     ;Reference
[nm]   ;[counts] ;[counts] ;[counts] 

186,757;   22,610;   31,551;    1,318
187,357;   68,092;   22,551;    0,955
187,958;   47,256;   15,460;   -1,591
188,558;   85,330;    8,915;   -1,227
189,159;   51,284;    6,733;   -4,500
189,759;   21,522;    7,278;   -3,591
190,360;   17,976;    2,824;   -2,136
190,960;   64,364;    2,915;   -4,136
191,560;   87,870;    3,189;   -6,591
192,161;  344,641;    4,372;   -3,500
192,761;  174,332;    4,010;   -3,227
193,361;  116,570;    1,556;   -3,773
193,962;  168,441;    2,010;   -2,682
194,562;   90,915;    1,189;   -3,955
195,162;  133,361;   -2,448;   -2,227
195,762;  309,235;   -3,176;   -0,045
196,362;  253,459;    1,370;   -2,500
196,963;  101,732;    2,006;   -0,864
197,563;  180,243;    1,551;   -0,955
198,163;  122,306;    0,096;   -0,682
198,763;  138,096;    1,733;   -0,500
199,363;  256,439;    3,096;   -0,500
199,963;  213,096;    0,369;    0,409
200,563;  173,082;    2,823;   -1,409
201,163;  147,988;    3,277;   -0,227
201,763;  255,698;    3,732;    0,318
202,363;  190,243;    1,459;    1,500
202,963;  306,726;    1,459;    1,045
203,563;  436,355;    0,277;    0,500
204,162;  272,733;    2,096;   -1,864
204,762;  257,975;    0,550;    0,591
205,362;  212,702;    3,004;    1,955
205,962;  329,803;    3,096;    1,955
206,562;  327,883;    1,823;    2,318
207,161;  286,527;   -0,087;    0,318
207,761;  453,551;    1,277;    2,409
208,361;  320,104;   -0,268;    1,409
208,960;  441,656;    0,459;    1,500
209,560;  511,712;    1,277;    1,591
210,160;  491,209;    0,550;    1,864
210,759;  448,387;    4,186;    1,227
211,359;  454,310;    1,459;    1,045
211,958;  730,219;    1,277;    2,045
212,558;  821,380;    1,732;    1,864
213,157;  651,789;    1,822;    1,500
213,757; 1115,513;    3,822;   -0,227
214,356;  810,034;    1,277;   -0,409
214,956; 1161,356;    3,095;    0,409
215,555;  772,258;    2,095;    2,136
216,154;  699,926;   -2,723;   -0,591
216,754;  702,282;    0,277;    0,773
217,353;  846,086;   -0,268;   -1,045
217,952;  695,209;   -0,178;    0,318
218,552;  944,213;    1,368;   -0,773
219,151;  852,923;    0,277;    0,955
219,750;  841,143;    0,004;   -0,227
220,349;  989,562;   -0,451;    1,045
220,948; 1052,248;   -1,360;    1,136
221,548; 1084,828;    0,913;    1,227
222,147; 1198,478;   -0,087;   -0,409
222,746; 1499,965;   -0,451;   -0,955
223,345; 1376,618;    0,731;    0,500
223,944; 1394,793;   -0,451;    0,773
224,543; 1587,384;    1,004;   -1,409
225,142; 1689,566;    0,094;    0,136
225,741; 1598,604;   -0,814;    1,045
226,340; 1639,199;   -0,451;   -0,955
226,939; 2105,744;   -0,996;   -0,136
227,538; 2075,353;   -0,360;   -0,773
228,137; 2237,230;   -0,814;    0,864
228,735; 2422,863;   -0,541;    1,227
229,334; 2158,674;   -0,905;   -0,227
229,933; 2537,744;    0,459;    0,591
230,532; 2664,520;    1,186;   -0,409
231,131; 2727,796;    1,732;    0,318
231,729; 2880,636;   -2,450;   -2,318
232,328; 3049,230;   -0,723;   -1,500
232,927; 3140,107;    1,004;   -0,500
233,525; 3290,104;    3,640;    0,045
234,124; 3518,216;    2,368;   -1,591
234,723; 3524,880;    0,913;   -1,045
235,321; 3696,996;    2,277;    0,136
235,920; 3961,275;    1,186;   -1,227
236,518; 4226,209;    3,459;    0,318
237,117; 4433,891;    0,004;   -0,227
237,715; 4604,737;    0,640;   -0,500
238,314; 4641,894;   -0,087;   -2,318
238,912; 4736,744;   -0,723;   -1,409
239,510; 4788,275;    0,459;   -1,227
240,109; 4978,747;    0,004;    3,773
240,707; 5000,915;   -0,996;    1,227
241,305; 5421,880;    0,550;    0,136
241,904; 5648,880;   -0,178;   -2,045
242,502; 5587,254;   -0,632;   -0,227
243,100; 5550,730;   -0,087;   -0,955
243,698; 5819,394;    0,732;    1,682
244,297; 5990,496;   -0,632;    0,682
244,895; 5808,443;   -0,269;   -2,318
245,493; 6155,083;    2,186;   -0,591
246,091; 6197,401;    1,368;   -1,318
246,689; 6192,125;    1,004;    0,591
247,287; 6367,908;    0,822;   -1,136
247,885; 6660,615;   -1,451;    1,227
248,483; 6753,964;    1,822;   -0,500
249,081; 6896,014;    0,185;    1,591
249,679; 7064,486;   -0,178;    1,682
250,277; 7318,318;   -1,723;    0,864
250,875; 7292,370;   -1,087;   -1,045
251,473; 7329,290;   -1,178;    0,500
252,071; 7559,419;    1,459;    1,045
252,669; 7708,430;   -1,814;    0,318
253,267; 7974,276;   -0,087;    0,773
253,864; 7926,908;   -0,360;    0,682
254,462; 7785,695;    1,640;    1,591
255,060; 7735,678;   -0,269;    1,318
255,658; 8078,520;    0,822;   -0,136
256,255; 8512,450;    0,186;   -2,045
256,853; 8394,979;   -0,269;    1,409
257,451; 8372,349;    0,822;    1,864
258,048; 8630,604;    1,822;    1,864
258,646; 8403,237;    1,731;   -1,045
259,243; 8610,706;   -0,087;    2,227
259,841; 8690,402;   -0,814;    0,318
260,438; 8552,769;   -0,087;    0,864
261,036; 9277,076;   -1,905;    1,409
261,633; 9155,255;   -0,087;    2,227
262,231; 8890,996;    2,731;   -0,045
262,828; 8974,779;   -0,905;    1,136
263,425; 9061,870;    0,913;   -0,591
264,023; 9358,405;    0,186;    0,045
264,620; 8878,230;   -0,360;   -0,318
265,217; 9244,433;   -2,087;    3,136
265,815; 9332,643;   -1,905;    2,136
266,412; 9087,167;    0,731;    0,136
267,009; 9140,618;   -1,451;    0,773
267,606; 9016,055;    0,822;   -0,955
268,203; 8998,213;   -0,269;   -0,591
268,801; 9287,185;    1,731;    0,591
269,398; 9606,566;   -0,360;    2,500
269,995; 9599,597;    0,277;    1,591
270,592; 9334,796;   -0,632;   -0,500
271,189; 9567,597;    0,186;    0,409
271,786; 9692,632;   -0,632;    1,227
272,383; 9522,356;   -1,087;    0,227
272,980; 9717,594;    0,277;    0,318
273,577;10191,482;    0,004;    1,227
274,174; 9741,436;    0,822;    2,591
274,771; 9720,066;   -0,814;   -0,773
275,367; 9898,660;    2,277;    1,409
275,964; 9859,947;    0,731;   -0,500
276,561; 9951,713;    1,549;   -1,045
277,158;10192,667;    0,095;   -1,773
277,755;10322,286;    2,185;    0,409
278,351; 9684,143;   -0,451;   -1,500
278,948;10003,070;   -0,815;    0,045
279,545; 9984,150;   -1,360;    2,318
280,141;10623,062;   -1,723;   -2,045
280,738;10539,604;   -0,451;   -0,136
281,334;10786,021;   -1,633;    0,591
281,931;10156,468;   -0,087;   -1,318
282,528;10248,028;    0,822;   -0,500
283,124;10981,786;   -1,087;   -0,500
283,721;10841,182;   -0,451;    1,409
284,317;10678,535;    0,185;    2,500
284,913;11223,975;   -1,360;    0,591
285,510;11425,612;    0,640;   -0,318
286,106;11419,535;   -2,269;   -0,955
286,703;11069,846;   -0,360;    1,955
287,299;11243,311;   -1,451;   -0,591
287,895;11426,716;    0,822;   -1,045
288,491;12015,839;    0,186;    2,136
289,088;11755,566;   -2,360;    2,409
289,684;11820,702;   -1,723;    1,500
290,280;11855,506;    0,368;    0,682
290,876;11954,104;    1,822;    5,500
291,472;11801,608;    1,276;    2,227
292,068;11931,542;    1,367;    0,227
292,665;11607,856;    2,095;    0,773
293,261;11190,695;    0,276;    2,136
293,857;11634,045;    2,913;    2,136
294,453;11545,922;    3,550;    0,955
295,049;11419,338;   -0,268;    1,955
295,644;11446,950;    0,095;    0,136
296,240;11344,314;   -0,905;   -0,136
296,836;11386,055;   -0,995;    0,318
297,432;11647,296;    1,096;   -0,500
298,028;11720,359;    0,732;    0,773
298,624;12140,883;    1,459;    1,864
299,220;12361,457;    2,368;    0,591
299,815;12033,198;    1,005;   -0,409
300,411;11826,520;    0,914;    1,773
301,007;11834,530;    1,368;    0,227
301,602;11889,848;   -0,541;   -2,318
302,198;12080,131;    0,732;   -0,773
302,794;12389,778;    1,187;   -0,500
303,389;12494,062;   -1,177;    1,045
303,985;12595,132;    0,550;    1,409
304,580;12562,411;    1,459;    1,591
305,176;12511,216;   -3,086;    0,136
305,771;12453,642;   -1,268;   -1,227
306,367;12303,817;    4,095;    0,136
306,962;12632,394;    0,641;    1,500
307,558;12356,058;   -0,450;    0,136
308,153;12320,946;    1,095;   -1,136
308,748;12561,258;   -0,814;    1,682
309,344;12507,121;   -0,632;   -1,318
309,939;12593,849;   -1,905;   -1,318
310,534;12856,712;   -0,086;   -1,682
311,130;12780,051;    0,459;   -2,500
311,725;12515,079;    1,004;   -0,500
312,320;12843,097;    2,459;    0,045
312,915;12689,534;    1,459;   -1,045
313,510;12779,751;    1,550;   -0,500
314,105;13263,180;    1,096;    1,409
314,700;12670,572;   -3,086;   -1,045
315,295;12290,139;   -0,904;    0,045
315,890;11826,841;    1,277;    0,864
316,485;12178,814;   -0,359;   -0,318
317,080;12302,674;   -3,086;    1,591
317,675;12892,918;    2,005;   -0,682
318,270;12347,603;    5,550;    3,318
318,865;12313,509;    3,278;    3,045
319,460;12168,635;   -0,904;    0,591
320,055;12384,446;   -0,541;   -1,227
320,650;12055,306;   -1,995;   -0,591
321,244;12108,009;   -0,177;   -1,409
321,839;13002,219;   -1,541;   -0,227
322,434;12916,369;   -1,086;   -1,591
323,029;12547,925;    1,732;    1,591
323,623;12349,439;    1,550;    0,773
324,218;12095,901;    2,368;    1,409
324,812;11993,236;    1,096;    1,591
325,407;11830,817;   -0,814;    2,045
326,002;11731,974;    0,277;   -0,409
326,596;12045,834;    0,914;    1,318
327,191;12229,502;    0,823;   -1,045
327,785;11776,834;   -0,813;   -0,227
328,379;12031,715;    1,368;    0,136
328,974;11838,202;    0,914;   -3,955
329,568;12024,726;    0,186;   -2,409
330,163;11826,600;    2,096;    1,045
330,757;12207,065;    2,459;    1,591
331,351;11521,422;    0,459;    0,682
331,945;11806,320;    0,914;    1,409
332,540;11395,880;   -1,723;   -0,591
333,134;11542,223;   -1,086;    0,773
333,728;11851,303;    0,005;    0,318
334,322;12149,013;   -1,177;   -0,864
334,916;11391,775;    0,277;    0,955
335,510;11758,992;   -0,450;   -0,136
336,105;12015,229;   -1,086;    1,591
336,699;11731,709;   -1,086;    0,591
337,293;11650,009;   -1,723;    0,318
337,887;11791,855;   -2,723;    1,955
338,481;11922,726;    0,459;    0,591
339,074;12033,590;   -0,359;    2,682
339,668;11845,723;   -1,632;    1,227
340,262;12126,621;    1,732;    3,227
340,856;11640,415;    1,822;   -0,682
341,450;10958,142;    1,004;    1,864
342,044;11867,191;    1,459;    0,136
342,637;11628,929;    0,913;   -2,136
343,231;11528,230;   -2,360;    0,682
343,825;11468,796;   -1,086;   -0,591
344,419;11439,341;   -1,995;    0,500
345,012;11216,159;    2,459;    4,045
345,606;11197,834;    4,641;    1,591
346,199;11049,729;   -1,813;   -0,227
346,793;10551,135;    1,914;    2,045
347,386;10722,656;   -0,813;   -1,136
347,980;10756,942;   -0,268;   -0,045
348,573;10546,582;    2,278;    0,409
349,167;10223,760;    5,278;    4,773
349,760;10564,526;    2,914;    2,682
350,354;10532,211;   -0,813;    1,136
350,947;10264,589;    1,096;    1,682
351,540; 9915,159;   -0,358;   -1,409
352,134; 9870,558;    1,096;    1,136
352,727; 9972,561;   -0,086;    1,136
353,320; 9745,788;    0,005;    0,591
353,913; 9584,477;   -1,995;    1,864
354,507; 9787,767;    0,823;   -1,227
355,100; 9759,656;    0,460;    0,864
355,693; 9030,980;    2,005;    2,409
356,286; 9093,827;    0,823;    2,773
356,879; 9432,169;   -0,722;    1,227
357,472; 9027,757;   -0,904;    1,500
358,065; 9232,488;   -0,722;    2,500
358,658; 9102,439;   -0,540;    2,318
359,251; 8775,355;   -1,631;   -0,591
359,844; 8290,477;   -1,904;   -1,136
360,437; 8447,813;   -2,995;    0,045
361,030; 8708,869;    1,369;   -0,682
361,623; 8298,624;    2,824;    0,318
362,215; 8336,508;   -0,086;    2,045
362,808; 8179,893;   -2,358;   -1,682
363,401; 8399,201;   -2,449;    0,136
363,994; 8098,865;   -0,631;   -1,500
364,586; 7967,158;    0,824;   -1,500
365,179; 8212,127;   -0,449;   -1,136
365,772; 7716,606;   -1,995;    2,045
366,364; 8020,193;    1,915;   -3,227
366,957; 8236,759;    2,279;   -0,045
367,549; 8269,749;    2,188;   -0,864
368,142; 7924,752;    1,825;   -1,500
368,734; 8097,336;    0,734;   -2,136
369,327; 8047,178;    1,643;   -0,500
369,919; 7974,486;   -1,538;    0,409
370,512; 7742,076;   -1,083;   -0,500
371,104; 7528,925;   -0,901;    1,591
371,696; 7696,872;    1,191;   -0,955
372,289; 7770,710;    0,373;    1,136
372,881; 7918,465;   -2,080;    1,318
373,473; 7881,139;   -2,170;    1,136
374,066; 7684,347;   -0,169;    0,500
374,658; 7536,730;    0,378;    1,136
375,250; 7849,151;    0,653;   -1,409
375,842; 7713,744;    0,473;   -0,045
376,434; 7599,123;   -0,435;   -0,409
377,026; 8189,100;    0,204;   -2,500
377,618; 8083,602;   -0,158;   -0,682
378,210; 7886,660;   -0,338;   -1,955
378,802; 7759,889;    0,754;   -0,591
379,394; 7751,189;    1,846;    0,682
379,986; 8312,177;    1,393;   -0,955
380,578; 8420,775;   -0,153;    0,773
381,170; 7737,783;   -0,972;    0,045
381,762; 7726,780;    0,755;    1,409
382,354; 7949,236;   -0,065;   -1,318
382,945; 8043,007;   -2,976;    0,318
383,537; 8170,635;   -2,705;   -1,955
384,129; 8190,930;   -2,160;   -1,136
384,721; 8369,007;   -0,252;    0,955
385,312; 8311,448;   -0,161;   -0,955
385,904; 8383,584;   -2,706;    1,591
386,496; 7762,010;   -0,979;    1,045
387,087; 7944,524;    1,022;    2,500
387,679; 7982,604;   -1,160;    0,045
388,270; 8083,887;    2,840;    2,045
388,862; 8185,520;    1,295;   -0,318
389,453; 8128,121;   -0,887;    1,045
390,045; 8389,272;   -0,705;   -2,682
390,636; 8293,964;    0,204;   -0,591
391,227; 8143,719;   -0,523;   -0,045
391,819; 8249,870;    0,204;    0,773
392,410; 8345,013;    1,022;    0,045
393,001; 8255,839;   -0,979;   -1,591
393,593; 8572,468;    1,930;   -0,045
394,184; 8425,846;    1,385;   -0,409
394,775; 8313,972;    1,839;    2,136
395,366; 8507,542;    1,385;    0,773
395,957; 8583,415;    0,113;    0,136
396,548; 8857,688;   -0,342;    2,682
397,139; 9165,821;   -2,433;    0,591
397,730; 8874,230;   -1,888;    0,955
398,321; 8944,769;   -1,252;    0,955
398,912; 8982,738;   -0,615;    0,136
399,503; 9062,398;   -3,524;   -1,409
400,094; 8491,759;    0,294;    1,682
400,685; 8357,332;   -0,433;    0,045
401,276; 8417,031;    0,930;   -0,955
401,867; 8733,098;   -0,888;    0,773
402,458; 8796,356;   -2,251;   -2,318
403,048; 8814,668;    1,112;    0,591
403,639; 8421,559;    0,840;    0,864
404,230; 8689,615;    2,476;    0,318
404,821; 8568,217;   -0,615;    0,045
405,411; 8713,947;    1,203;   -2,591
406,002; 8315,706;   -1,252;   -1,136
406,592; 8183,521;    2,294;    0,045
407,183; 8480,395;    0,566;   -1,500
407,774; 8404,318;    3,475;   -0,136
408,364; 8751,346;    0,930;    0,409
408,954; 8330,717;    0,384;    1,227
409,545; 8363,434;    1,021;    1,045
410,135; 7927,441;    1,293;    0,500
410,726; 8084,830;    1,838;    0,318
411,316; 8477,126;    0,111;    0,773
411,906; 8134,144;   -0,253;   -0,409
412,497; 7593,046;   -1,070;   -0,045
413,087; 8233,116;   -1,980;   -0,227
413,677; 8627,588;   -0,707;    3,864
414,267; 8480,543;    0,656;    1,409
414,857; 8493,746;   -2,980;    4,227
415,448; 8794,892;    0,839;    0,500
416,038; 8457,850;    0,020;   -0,591
416,628; 8413,305;   -0,889;    0,409
417,218; 7907,868;    0,565;    3,318
417,808; 8166,798;    0,202;   -0,409
418,398; 8636,106;    0,020;    2,682
418,988; 8649,183;    2,020;    0,591
419,578; 8945,578;   -0,707;    1,409
420,168; 9275,787;   -1,343;   -0,955
420,757; 8863,742;   -1,343;   -1,500
421,347; 8518,896;    0,111;   -0,227
421,937; 8693,372;    2,292;    1,409
422,527; 8661,417;    0,838;   -0,773
423,116; 8482,861;   -0,253;   -0,045
423,706; 8788,784;   -1,889;    0,318
424,296; 8757,686;    1,384;    0,682
424,885; 9212,959;   -0,071;   -3,045
425,475; 9496,739;    1,474;   -2,864
426,065; 9405,218;   -0,980;   -0,318
426,654; 9023,425;   -0,435;   -0,318
427,244; 9162,694;    0,020;    1,409
427,833; 8600,396;    1,383;   -0,500
428,423; 9095,809;   -0,526;    1,136
429,012; 9868,540;   -0,344;   -1,136
429,601; 9352,348;   -1,344;    0,136
430,191; 9601,379;    1,292;    4,318
430,780; 9232,239;   -0,344;   -0,409
431,369; 9149,079;    0,746;   -0,045
431,959; 9773,128;   -1,254;    0,500
432,548; 9568,897;   -1,163;   -0,045
433,137; 9699,212;   -1,254;   -1,318
433,726;10275,271;    0,292;    0,500
434,315; 9568,362;   -0,526;    2,409
434,905; 9668,170;   -1,254;    1,409
435,494; 9573,313;    0,746;    0,955
436,083;10041,984;   -0,981;   -0,955
436,672; 9925,117;    0,110;    0,500
437,261; 9472,618;    0,292;   -1,955
437,850; 9580,369;    1,383;    0,682
438,439; 9589,558;    3,291;    1,955
439,027; 9449,677;    3,655;    1,773
439,616; 9794,961;    2,927;    1,227
440,205; 9648,681;    0,200;   -2,136
440,794; 9767,524;    2,109;   -0,045
441,383;10019,307;   -1,346;   -0,591
441,971; 9855,202;   -2,436;    0,591
442,560; 9732,045;    0,563;   -1,773
443,149; 9464,792;    0,379;   -1,318
443,737; 9608,888;   -0,074;   -2,318
444,326; 9897,692;    0,018;    0,318
444,915; 9933,978;   -1,982;    0,864
445,503;10358,667;   -2,891;   -0,318
446,092; 9595,604;    0,382;    2,136
446,680;10196,930;    0,382;    0,318
447,269;10349,202;   -0,346;   -0,318
447,857;10116,818;    0,018;   -1,773
448,445;10197,510;    0,563;    1,318
449,034;10449,794;   -1,528;   -1,136
449,622;10576,433;   -1,073;    3,500
450,210; 9779,675;    2,017;    2,227
450,799;10370,427;    0,290;   -0,591
451,387;10308,668;    1,381;   -0,591
451,975; 9941,539;    2,654;    0,864
452,563;10032,080;    3,472;    2,318
453,151;10090,273;   -0,528;   -1,227
453,739;10001,840;   -1,347;    0,136
454,328; 9836,763;    2,381;   -2,136
454,916; 9572,032;    2,562;   -0,136
455,504; 9747,647;    1,017;    1,227
456,092; 9888,815;    0,017;   -1,591
456,679; 9910,340;    1,472;    0,682
457,267; 9828,319;    4,017;    1,045
457,855; 9986,966;    1,017;    1,409
458,443; 9767,686;   -0,165;    1,682
459,031; 9917,270;    0,108;    2,409
459,619;10373,375;   -1,801;    2,864
460,206;10498,801;    0,835;    2,045
460,794;10594,336;   -2,983;   -0,227
461,382;10819,109;   -0,529;   -0,864
461,970;10412,319;    1,198;    1,864
462,557;10423,162;   -0,711;   -0,682
463,145;10627,819;   -3,165;   -1,682
463,732;10766,568;    2,016;   -1,045
464,320;10724,865;   -0,075;   -3,045
464,907;10400,257;    2,743;   -0,773
465,495;10275,757;    0,743;   -1,227
466,082;10417,522;   -1,984;   -0,045
466,670;10296,991;   -2,529;    1,227
467,257;10748,026;   -1,711;    2,045
467,844;10877,816;   -0,075;    0,045
468,432;10913,225;    0,834;    3,500
469,019;10379,565;    0,925;   -1,773
469,606;10886,477;    0,470;    3,682
470,193;10729,663;   -1,439;    0,227
470,780;10280,621;   -2,075;    0,864
471,368;10613,079;   -1,257;   -0,773
471,955;10423,320;    1,379;   -0,682
472,542;10067,443;    0,652;   -1,136
473,129;10278,400;   -0,166;    0,136
473,716; 9983,072;    1,470;    0,591
474,303;10246,170;    0,652;   -0,864
474,890;10553,275;   -1,439;   -0,500
475,477;10576,562;   -1,621;    0,409
476,064;10464,391;    1,106;   -1,591
476,650;10393,572;    0,288;    0,318
477,237;10217,572;   -0,258;    0,955
477,824;10423,261;   -1,076;    0,864
478,411;10432,702;   -1,894;   -0,318
478,997;10633,328;    0,560;   -0,773
479,584;10723,674;    1,196;   -0,409
480,171;11433,723;   -0,440;   -0,773
480,757;11074,304;    2,651;    0,773
481,344;11374,335;    0,469;    0,409
481,931;10921,405;    1,105;    1,045
482,517;11993,923;   -1,258;    0,318
483,104;12621,915;    1,106;    2,864
483,690;12897,471;   -1,804;    0,045
484,276;13226,034;   -0,895;    0,227
484,863;12985,625;    2,469;    1,136
485,449;13613,552;   -0,077;    0,318
486,035;13550,779;   -1,986;   -0,136
486,622;13980,069;   -0,895;    0,045
487,208;13951,451;    1,378;    1,500
487,794;13740,367;    0,741;    0,318
488,380;13861,849;    0,105;   -1,409
488,967;13909,168;   -1,168;   -0,409
489,553;13957,052;   -1,895;   -1,409
490,139;14168,210;    1,559;    0,773
490,725;13551,864;    0,741;   -0,227
491,311;13058,906;    3,287;    3,045
491,897;12426,007;   -0,986;    1,500
492,483;12219,248;    0,105;    1,227
493,069;12021,444;    3,923;    0,864
493,655;12026,724;    1,650;    0,682
494,241;11926,584;    1,377;   -0,955
494,826;12355,049;    0,287;   -1,045
495,412;11797,080;    2,559;   -0,682
495,998;11923,805;   -0,805;   -0,318
496,584;12072,700;    0,377;    1,045
497,169;12070,888;    1,014;   -0,682
497,755;12024,438;    0,650;    1,227
498,341;12625,249;    0,559;    0,318
498,926;12211,091;    1,832;    1,955
499,512;12371,127;    1,286;    2,955
500,097;12503,008;    0,195;   -0,318
500,683;12442,057;   -0,350;    2,136
501,268;12808,368;   -0,169;   -0,955
501,854;12525,015;   -0,169;    1,227
502,439;12453,022;   -0,624;   -1,773
503,024;12650,375;    0,195;    0,500
503,610;12748,214;   -0,078;   -0,682
504,195;12738,557;    0,558;    1,955
504,780;12850,109;    2,922;    1,227
505,366;12691,634;    3,013;    2,864
505,951;12408,805;    0,740;    1,045
506,536;12403,089;   -3,260;   -3,682
507,121;12364,533;    0,285;   -0,318
507,706;12895,725;    2,376;    1,045
508,291;13339,900;    2,649;    1,136
508,876;12771,397;   -0,988;    2,591
509,461;12236,414;   -0,169;   -0,773
510,046;12663,977;    0,194;    0,318
510,631;12881,827;   -0,351;   -0,773
511,216;12541,208;    2,467;   -0,500
511,801;12914,704;   -0,442;    2,591
512,386;13256,005;    0,740;    0,500
512,971;13170,376;   -2,988;    0,955
513,555;12701,732;   -0,897;   -1,500
514,140;13541,879;   -0,442;   -3,136
514,725;13515,233;   -0,715;   -1,136
515,309;13645,484;   -0,533;    0,318
515,894;13089,267;   -0,624;   -2,227
516,479;13559,212;   -0,624;   -0,955
517,063;13412,635;    0,376;    1,227
517,648;13531,830;    1,012;   -1,136
518,232;13187,488;   -0,261;   -1,409
518,817;13524,191;   -0,079;    1,682
519,401;13710,502;    2,194;    0,591
519,985;13219,292;    1,103;    1,136
520,570;13108,660;    0,830;   -1,955
521,154;13401,314;    2,102;    0,591
521,738;13585,775;   -2,352;    2,409
522,323;14138,565;   -0,170;    1,682
522,907;13858,915;    0,466;   -0,136
523,491;13603,017;    0,557;    0,955
524,075;13581,901;    2,284;    0,591
524,659;13664,146;    1,466;    0,591
525,243;13151,646;    1,739;    0,409
525,827;13355,055;    0,648;   -0,045
526,411;14242,782;   -1,989;   -0,136
526,995;14462,058;   -0,352;    1,409
527,579;14049,643;   -0,443;   -1,045
528,163;14392,730;    0,375;   -1,500
528,747;14278,804;    2,466;   -0,773
529,331;14596,999;   -0,080;   -1,409
529,915;14809,041;    1,738;    0,955
530,499;14738,283;   -0,807;    1,227
531,082;14487,272;   -0,534;    1,591
531,666;13900,853;    1,374;    0,773
532,250;14549,052;    1,284;    2,682
532,833;14931,622;    0,920;    2,773
533,417;14789,024;   -1,807;    0,864
534,001;14750,122;    1,647;   -0,318
534,584;15421,591;    0,374;    0,500
535,168;15289,038;    0,465;    1,409
535,751;15363,161;    0,647;    0,045
536,334;14765,374;   -0,898;   -0,409
536,918;15378,031;    0,011;    1,591
537,501;15497,535;   -0,899;    1,318
538,085;15488,832;   -0,444;    1,045
538,668;15627,262;    0,829;    2,409
539,251;15989,874;    1,829;    3,773
539,834;15985,951;    0,101;    0,773
540,418;15917,717;   -1,990;    4,318
541,001;16026,657;   -0,990;    1,773
541,584;16059,882;    2,101;    2,227
542,167;15722,944;    1,374;    2,955
542,750;15890,644;    1,919;   -0,773
543,333;15506,546;    0,555;    2,136
543,916;16307,773;    0,192;    2,500
544,499;16888,958;   -1,354;    0,227
545,082;16882,210;    1,374;    3,591
545,665;17014,486;    1,919;    1,500
546,248;17398,455;    1,010;   -0,318
546,830;17028,770;   -0,445;    1,955
547,413;17439,728;    1,010;   -0,773
547,996;17973,924;    0,555;    0,500
548,579;17738,770;    0,919;    0,955
549,161;17519,658;    1,828;    2,682
549,744;17330,686;   -0,809;    0,409
550,326;17840,511;   -0,809;   -1,136
550,909;17673,075;    2,737;    0,591
551,492;17991,218;   -0,263;    0,227
552,074;17809,043;   -0,173;   -1,318
552,657;18373,742;    2,373;    0,045
553,239;18091,305;   -0,173;   -0,773
553,821;18018,417;   -1,082;    1,045
554,404;17543,162;    1,282;    1,136
554,986;17931,568;    0,464;    1,045
555,568;18508,858;    1,191;   -0,955
556,151;17740,743;    1,191;   -0,227
556,733;17910,641;   -0,264;   -0,864
557,315;18360,662;    0,100;    0,500
557,897;18183,162;    0,554;   -0,500
558,479;18324,292;   -1,991;    1,318
559,061;18511,670;   -0,719;   -0,864
559,643;18806,862;   -0,264;    0,045
560,225;19211,473;    1,645;    2,864
560,807;19221,316;    0,918;    0,318
561,389;18693,760;    0,554;    2,318
561,971;19472,621;    0,463;    2,136
562,553;19243,977;   -1,628;    1,591
563,135;19371,089;   -0,537;    1,136
563,717;18966,145;    3,372;    1,136
564,298;19674,848;    3,645;   -0,045
564,880;19411,785;    0,645;   -1,409
565,462;19638,785;    0,645;    1,318
566,043;20816,338;   -0,446;    2,318
566,625;20320,425;    1,918;    1,227
567,207;20117,124;    1,099;    1,682
567,788;21316,778;   -1,264;    1,500
568,370;22166,471;    1,917;   -0,500
568,951;21986,499;    0,190;    0,227
569,533;22854,883;   -0,628;   -0,500
570,114;23306,128;   -0,446;    0,682
570,695;23889,264;   -0,174;   -1,318
571,277;24362,670;   -0,265;   -1,682
571,858;25111,394;    2,008;   -1,136
572,439;25986,408;    1,554;   -1,045
573,021;26177,989;    2,099;   -2,773
573,602;26672,488;   -1,265;    0,318
574,183;27597,593;   -2,083;    2,227
574,764;27696,006;   -1,629;    0,409
575,345;28232,681;    0,917;   -0,136
575,926;28839,230;   -0,356;    0,136
576,507;28801,121;    1,099;   -0,227
577,088;29902,999;    3,099;    1,682
577,669;29947,034;    0,735;    1,955
578,250;30843,048;    0,644;   -1,045
578,831;31460,681;   -1,356;   -2,227
579,412;31685,646;   -0,810;    0,955
579,993;32518,989;    1,008;    0,227
580,573;32826,115;   -0,629;   -0,955
581,154;31805,978;    0,735;   -0,591
581,735;32731,817;    0,644;    0,773
582,315;32223,908;   -0,629;    2,136
582,896;32446,642;   -0,174;    1,227
583,477;31874,636;    0,189;    1,227
584,057;32075,139;    0,553;    0,955
584,638;32428,352;    2,553;    2,318
585,218;32445,496;   -0,538;    2,682
585,799;32573,681;    0,281;   -0,227
586,379;32523,090;    0,372;    1,591
586,959;31216,747;    0,735;    0,318
587,540;30529,940;   -0,629;    2,227
588,120;30088,524;    1,007;   -0,045
588,700;29136,748;    2,553;    2,136
589,281;29442,779;    0,462;   -0,955
589,861;29426,195;    0,099;   -1,682
590,441;29205,604;    2,371;   -2,682
591,021;28165,076;   -0,265;   -2,591
591,601;28344,915;   -0,537;    0,500
592,181;28364,842;   -0,719;   -0,773
592,761;27678,045;    0,007;    1,409
593,341;27602,440;   -0,901;    0,045
593,921;27659,240;   -0,265;    1,591
594,501;27537,961;   -0,538;    1,318
595,081;27356,083;    0,917;   -0,318
595,661;27752,272;   -1,447;    0,955
596,240;28260,856;   -0,537;    0,136
596,820;27925,366;    0,372;    1,955
597,400;28051,838;    2,008;    0,773
597,980;28255,586;    2,008;    1,045
598,559;28276,828;    2,735;   -0,227
599,139;28016,758;   -0,174;   -1,227
599,718;27922,394;   -0,174;   -0,409
600,298;28158,859;    0,735;    0,682
600,877;28436,960;    2,917;    1,409
601,457;28678,834;    2,281;    1,136
602,036;28530,730;    0,190;    2,045
602,616;28755,765;    0,644;    1,682
603,195;29083,740;   -0,355;    3,500
603,774;28659,820;   -0,901;    2,045
604,354;28538,614;    0,826;   -0,500
604,933;28026,632;    0,463;    1,864
605,512;28154,957;    3,554;    0,591
606,091;28204,775;   -0,537;    3,773
606,671;29051,534;    0,281;    0,773
607,250;28133,723;    1,644;    3,136
607,829;28387,006;    2,372;    3,227
608,408;28222,100;    1,190;    2,591
608,987;27213,991;    1,281;    3,409
609,566;27497,457;   -1,265;   -2,500
610,145;27625,428;   -1,082;    0,682
610,723;28052,474;    4,372;    6,864
611,302;27322,960;   -0,446;    1,682
611,881;26877,170;    5,008;   11,227
612,460;27687,876;    1,645;    3,955
613,039;28087,292;   -0,082;    2,045
613,617;26750,142;    1,736;    4,773
614,196;26943,544;    1,099;    1,227
614,775;27350,617;    1,009;    2,409
615,353;27258,547;    0,736;    0,864
615,932;26966,435;    0,100;    2,409
616,510;27552,341;    0,554;    0,591
617,089;27118,687;    7,100;   17,591
617,667;26860,984;    2,372;    6,136
618,246;26736,246;   -1,537;    1,318
618,824;26900,592;   -3,355;   -0,955
619,402;26451,051;   -2,900;   -1,773
619,981;26972,823;   -0,173;   -1,045
620,559;26809,669;    0,009;    1,682
621,137;26291,295;   -0,718;    1,864
621,715;26342,432;   -1,173;   -0,682
622,293;26279,442;   -0,537;   -0,773
622,871;26705,481;   -0,718;    0,500
623,450;26293,673;    0,373;   -0,864
624,028;26209,152;    0,191;   -0,955
624,606;25819,690;   -1,718;    1,682
625,183;26201,791;   -1,536;   -1,136
625,761;25805,333;    1,009;    1,136
626,339;26106,040;    1,373;    2,591
626,917;26479,078;   -0,172;   -0,045
627,495;26521,120;   -0,354;    1,318
628,073;25964,826;   -0,263;    2,864
628,650;25667,879;    0,100;    2,136
629,228;26082,236;    0,373;    4,409
629,806;25484,340;    2,282;    1,136
630,383;25768,977;    1,464;   -0,318
630,961;25561,190;    2,555;   -0,955
631,539;25305,393;    2,464;    0,227
632,116;24697,735;   11,373;   15,409
632,694;25287,074;    2,555;    6,500
633,271;25623,267;    0,828;    2,682
633,848;25517,406;    1,828;    2,045
634,426;25500,745;   -1,081;    1,773
635,003;24626,679;    1,101;   -0,409
635,580;24926,756;    1,192;    3,682
636,158;25520,459;    3,737;    1,227
636,735;25507,025;    0,555;   -0,500
637,312;25640,847;   -0,809;   -0,682
637,889;25742,787;   -4,354;   -0,682
638,466;25200,553;   -3,990;   -0,409
639,043;25211,119;    2,101;   -1,136
639,620;25493,084;   -2,262;   -0,955
640,197;25824,394;    1,100;    1,682
640,774;25927,812;   -0,172;    1,136
641,351;26329,684;    0,737;    1,136
641,928;25751,010;   -0,627;    1,409
642,505;25416,155;    0,828;   -0,500
643,082;25536,300;   -1,718;    1,227
643,658;24580,445;   -0,718;    1,500
644,235;25319,408;    1,191;    2,500
644,812;25664,735;    1,918;    0,773
645,388;25402,698;   -0,991;    1,409
645,965;25522,116;   -0,809;    1,682
646,542;25541,079;   -1,445;   -0,227
647,118;25538,769;    1,009;   -0,955
647,695;25837,096;   -0,263;    1,136
648,271;25697,422;   -0,536;    0,500
648,848;26074,022;    0,736;    2,227
649,424;25917,530;    0,827;    1,318
650,000;25600,584;   -0,354;   -1,045
650,577;25456,002;   -0,627;   -0,955
651,153;25913,147;   -1,809;    0,955
651,729;26937,655;    1,191;    0,864
652,305;27483,709;    0,645;    2,773
652,881;32579,036;   -0,082;    1,136
653,458;39412,545;    1,100;    0,227
654,034;42741,235;    0,282;    1,591
654,610;44018,743;    0,554;    0,773
655,186;45276,343;    0,645;    3,045
655,762;44846,579;   -0,991;    0,409
656,338;44795,542;    0,100;    0,136
656,913;45819,596;   -0,082;    0,409
657,489;44987,922;    0,827;   -0,318
658,065;44961,613;   -0,173;   -1,591
658,641;45653,849;   -0,900;   -0,864
659,217;44873,357;   -0,991;    0,409
659,792;44242,775;    0,645;   -0,409
660,368;44432,556;   -2,173;   -0,682
660,944;43837,428;   -2,082;    1,227
661,519;38722,664;   -0,628;    0,409
662,095;32835,354;   -1,719;    0,591
662,670;28647,408;    1,281;   -0,136
663,246;27714,826;    1,009;   -0,409
663,821;27128,698;    0,281;    1,682
664,396;26662,934;    0,009;    1,864
664,972;26967,988;    0,009;   -0,500
665,547;27242,042;    1,372;    0,136
666,122;27273,459;   -1,082;    0,318
666,698;27621,422;   -0,173;    0,318
667,273;26945,204;   -0,173;    0,136
667,848;27769,621;    2,372;    1,500
668,423;27545,675;    2,190;    2,318
668,998;28113,729;    2,827;   -0,682
669,573;28655,056;   -3,264;   -1,500
670,148;28407,474;   -1,446;   -0,682
670,723;28293,346;   -1,810;    0,318
671,298;28664,672;    2,372;    1,045
671,873;28827,635;   -0,082;   -0,136
672,448;28770,144;    0,645;    0,136
673,023;29146,289;   -1,992;   -0,227
673,597;29437,888;    0,827;    2,318
674,172;29225,488;   -0,355;    0,318
674,747;28649,451;    0,372;   -1,045
675,321;28476,323;   -0,628;    3,318
675,896;28072,013;    0,645;    1,045
676,471;29060,431;    2,645;    1,591
677,045;28822,030;   -1,264;    0,682
677,620;28876,084;    0,190;    1,136
678,194;29162,775;   -2,628;    1,136
678,769;28754,738;   -1,083;   -0,318
679,343;29043,337;   -0,628;    1,773
679,917;28889,028;   -1,446;    1,955
680,492;29011,082;    0,826;    3,227
681,066;29178,226;    3,372;    0,409
681,640;29176,008;    1,463;   -0,318
682,214;29991,334;    0,735;    0,500
682,788;29509,843;   -1,356;   -0,773
683,363;29484,806;   -1,810;    1,682
683,937;29171,587;   -1,719;   -0,318
684,511;29939,823;    0,463;   -0,591
685,085;29619,150;   -1,356;    0,318
685,659;29347,476;   -2,538;    0,864
686,232;29642,167;   -0,356;   -0,318
686,806;29320,675;   -0,901;    0,409
687,380;29997,638;   -0,174;    0,591
687,954;30204,329;   -1,174;    1,136
688,528;29868,746;   -0,719;    1,955
689,101;30694,528;   -3,992;    1,045
689,675;30274,491;   -0,356;   -0,136
690,249;29604,908;   -0,719;    0,409
690,822;29969,508;    0,280;    0,318
691,396;30030,653;   -0,265;    1,227
691,969;29448,707;    1,280;    0,136
692,543;29905,942;   -0,447;   -1,955
693,116;29599,996;   -0,265;   -1,409
693,690;29493,050;    0,099;    0,500
694,263;30049,195;   -1,083;    2,955
694,836;30089,795;    1,371;    3,591
695,410;28687,667;   -0,265;    1,773
695,983;29183,993;    0,189;    0,591
696,556;29142,320;   -0,447;   -1,045
697,129;29528,011;   -0,356;    1,409
697,703;29198,155;   -1,629;    1,955
698,276;29168,300;    1,462;   -0,773
698,849;28991,536;    1,280;    1,409
699,422;29294,136;   -1,083;    0,591
699,995;29064,189;    0,007;    0,136
700,568;29538,880;   -0,629;    3,045
701,140;29576,388;   -2,811;    1,682
701,713;29288,533;   -0,174;    2,409
702,286;28988,769;   -0,538;    0,864
702,859;28931,005;   -0,902;   -0,591
703,432;28050,877;    0,825;    0,682
704,004;28531,567;    0,462;    0,318
704,577;28414,167;   -0,629;    0,136
705,150;28998,948;    0,189;    2,500
705,722;28764,729;   -0,356;   -3,227
706,295;28587,783;   -0,175;   -0,591
706,867;28470,565;   -0,175;    1,955
707,440;28664,800;   -1,720;   -0,409
708,012;28968,672;    0,462;    0,591
708,584;28852,272;    2,462;    0,227
709,157;29069,871;    1,825;   -0,591
709,729;28770,562;    2,280;    2,045
710,301;29579,252;    0,734;    0,045
710,874;29589,306;   -1,447;   -0,227
711,446;28451,451;    0,371;    0,864
712,018;28382,868;    0,098;    0,500
712,590;28123,195;   -1,993;    1,682
713,162;28621,249;    0,825;    1,318
713,734;28885,576;    1,825;   -2,045
714,306;28781,539;   -1,902;   -0,409
714,878;27477,684;    0,825;    0,864
715,450;28297,738;    0,643;    0,864
716,022;28558,610;    1,552;    1,318
716,593;28703,482;    0,189;    0,591
717,165;28692,536;   -3,175;   -1,227
717,737;28381,317;    0,280;    0,409
718,309;28021,371;    0,280;   -0,045
718,880;27945,153;   -0,539;   -1,409
719,452;28147,934;   -0,175;   -1,591
720,024;27705,715;    0,734;   -0,591
720,595;28315,587;   -2,902;    0,955
721,167;27892,096;    0,370;   -2,045
721,738;27416,150;   -0,812;   -1,045
722,309;27375,022;   -0,993;   -1,227
722,881;27135,440;   -1,357;    0,773
723,452;27759,039;   -2,630;    2,864
724,023;28022,638;   -0,721;    2,682
724,595;27762,601;    0,007;    0,682
725,166;27505,019;    0,007;   -0,409
725,737;27151,982;    1,734;    0,227
726,308;27263,854;   -0,266;    0,318
726,879;27667,636;   -1,630;    1,227
727,450;27514,690;    0,552;   -0,045
728,021;27545,198;    3,097;    0,682
728,592;27297,979;    0,734;    0,500
729,163;27616,488;    0,643;   -0,136
729,734;27653,996;    0,188;   -0,227
730,305;28010,232;    1,734;    0,136
730,876;28358,741;    0,188;    2,955
731,447;28091,976;    2,188;    2,682
732,017;28161,485;    1,097;    1,864
732,588;27611,539;    0,734;    1,227
733,159;27861,229;    0,643;   -1,045
733,729;27668,556;    0,006;    0,409
734,300;26898,883;    0,915;    0,864
734,870;27348,300;    3,461;    0,591
735,441;27934,172;    0,370;   -0,591
736,011;27695,499;    0,643;   -1,591
736,582;27667,917;   -0,812;    0,045
737,152;27064,153;   -1,721;   -2,045
737,722;27508,752;   -0,267;   -0,682
738,293;27238,079;   -1,358;    1,318
738,863;27137,678;    2,461;    2,318
739,433;26912,914;    5,279;    0,318
740,003;27543,695;   -0,994;   -0,682
740,573;26960,476;    2,097;   -1,591
741,143;26936,440;   -1,085;    0,318
741,713;27747,221;    1,188;   -0,500
742,283;27409,275;    0,915;    1,591
742,853;27171,056;    1,915;    1,591
743,423;26573,019;    1,733;    0,045
743,993;26788,528;   -0,358;    1,500
744,563;26152,582;    0,097;   -0,864
745,133;26073,545;   -0,812;   -0,864
745,702;26726,326;   -0,267;    1,773
746,272;26005,562;   -0,176;    0,591
746,842;25766,070;   -1,358;   -0,591
747,411;26167,306;   -0,267;   -0,318
747,981;26312,451;    0,097;    0,500
748,551;26350,323;    2,278;   -1,045
749,120;26218,559;    0,642;   -0,227
749,690;26614,976;   -0,631;    2,409
750,259;26956,121;    1,369;    2,955
750,828;26918,994;    1,551;   -1,955
751,398;27198,502;    1,278;   -0,045
751,967;26669,738;    2,187;    0,409
752,536;26892,610;   -0,813;   -0,227
753,105;27312,482;    0,096;    0,227
753,675;27123,900;    0,096;    1,773
754,244;27047,226;   -0,904;    3,591
754,813;27006,735;    0,551;    1,227
755,382;26622,244;    0,460;    0,955
755,951;27241,661;    1,551;    3,682
756,520;26768,533;   -0,085;    1,864
757,089;27367,315;    0,278;    0,500
757,658;27494,914;    1,733;    1,227
758,227;27461,877;    1,096;    0,318
758,795;27774,295;    1,187;    1,136
759,364;28009,258;   -0,086;   -0,591
759,933;27016,312;   -1,176;   -0,045
760,501;26468,002;    0,733;   -1,318
761,070;26919,238;   -2,813;   -1,409
761,639;27653,110;   -1,904;    1,318
762,207;27058,800;    1,551;   -0,955
762,776;26970,400;    0,369;    0,864
763,344;26929,636;   -0,995;    0,591
763,913;25986,326;   -0,722;    1,409
764,481;26738,653;    1,005;   -0,136
765,049;26551,525;   -1,358;    1,409
765,618;26424,761;   -0,086;    0,318
766,186;26471,087;    0,278;    0,136
766,754;26631,141;    0,005;    1,864
767,322;25684,741;   -1,995;    0,409
767,890;25696,340;   -0,722;   -1,773
768,459;26086,485;   -2,177;   -0,318
769,027;26307,448;    1,641;    3,409
769,595;25242,775;    3,278;    2,591
770,163;25660,374;    3,823;    2,955
770,730;25411,701;    0,732;   -0,136
771,298;25267,755;    0,187;   -1,409
771,866;25353,082;   -1,541;    4,955
772,434;25650,772;   -0,631;   -1,864
773,002;25831,917;    0,005;    0,682
773,569;25549,244;    0,914;    1,682
774,137;25373,934;   -0,268;   -0,045
774,705;26094,170;    0,278;   -0,136
775,272;25560,587;    0,641;    0,682
775,840;25326,096;   -0,177;    2,682
776,407;24924,604;    0,277;    1,955
776,975;24527,658;   -0,632;    0,318
777,542;25489,985;   -1,086;   -0,045
778,110;25337,584;   -1,268;   -0,045
778,677;25012,729;   -2,359;   -0,864
779,244;24736,056;    2,186;    1,045
779,812;24897,655;    1,823;    0,864
780,379;24756,164;    0,005;    1,136
780,946;24998,945;    1,005;   -0,773
781,513;25319,636;   -1,450;    0,318
782,080;24728,508;   -0,086;    2,864
782,647;25440,016;   -0,268;    3,045
783,214;25052,707;   -0,177;    3,864
783,781;24654,124;   -0,723;   -0,682
784,348;24515,087;   -0,632;    1,500
784,915;24947,778;   -3,177;    0,318
785,482;24713,923;    1,368;    2,591
786,049;25149,613;    0,186;   -0,591
786,615;25260,485;    0,277;   -0,955
787,182;24970,630;    0,186;   -0,682
787,749;24640,411;   -2,814;    1,409
788,315;24001,465;   -1,632;   -0,409
788,882;24331,155;    1,550;   -1,227
789,448;25014,119;    1,732;   -0,955
790,015;25015,082;    1,095;    3,227
790,581;24554,681;    1,459;    0,227
791,148;24456,644;    0,641;    1,045
791,714;24645,425;   -0,541;    3,136
792,280;24329,479;    0,186;    1,591
792,847;23892,442;    0,550;    2,500
793,413;24493,587;   -0,269;   -0,318
793,979;24041,369;    3,459;   -1,318
794,545;24170,695;    4,459;    2,682
795,111;23531,567;    2,186;    1,318
795,678;23716,258;    0,731;   -1,682
796,244;23351,857;    3,368;    0,136
796,810;23926,911;    1,731;    0,773
797,375;23638,147;    0,549;   -2,136
797,941;23640,110;   -0,541;    0,591
798,507;23750,437;   -0,451;   -0,955
799,073;23377,763;   -0,360;    0,591
799,639;23354,454;   -2,632;    3,136
800,205;23407,326;    0,095;    2,682
800,770;22991,380;    0,640;    1,773
801,336;23095,434;    1,368;   -0,955
801,901;22759,852;    4,549;    3,136
802,467;23322,906;   -0,542;    2,045
803,033;22672,232;   -0,087;    0,864
803,598;22899,923;    1,913;   -1,045
804,163;22882,613;    1,095;   -0,318
804,729;22861,121;   -0,178;    1,136
805,294;23240,357;    0,822;    2,227
805,859;23034,684;    0,731;   -0,409
806,425;22497,920;    1,186;    2,682
806,990;22153,701;    2,186;    4,318
807,555;22653,937;   -1,451;    2,591
808,120;22587,082;    0,822;   -0,409
808,685;22623,499;    0,185;   -2,500
809,250;22147,190;    0,004;   -0,500
809,815;22424,334;    1,913;    0,682
810,380;22973,025;   -0,269;    1,591
810,945;23551,988;   -1,087;    2,045
811,510;22671,224;    2,094;    1,591
812,075;22363,823;   -0,633;   -1,409
812,640;22400,695;    2,003;    1,409
813,204;22512,295;    0,822;   -0,227
813,769;22946,621;    2,094;   -0,045
814,334;22365,403;    0,458;    0,864
814,898;22389,275;    0,367;    0,591
815,463;22247,238;    1,276;   -0,773
816,027;22256,565;   -0,724;   -2,318
816,592;22295,255;    0,640;   -2,045
817,156;21884,309;    2,094;    1,136
817,721;21772,908;    4,276;    2,318
818,285;21687,235;    2,912;    1,500
818,849;22322,380;   -1,451;    1,682
819,414;22181,798;   -0,269;    2,955
819,978;21753,942;   -1,269;    1,773
820,542;22347,269;    2,003;    0,500
821,106;22028,050;   -0,815;    0,682
821,670;22192,468;   -0,815;    2,591
822,234;21979,977;   -0,270;    1,409
822,798;21303,485;    0,003;    0,500
823,362;21274,994;   -0,633;    4,227
823,926;20579,775;    0,094;    1,136
824,490;20829,011;   -0,997;   -0,682
825,054;21252,065;   -0,088;   -1,136
825,618;20886,937;   -1,542;   -1,500
826,181;20793,809;    0,458;   -1,318
826,745;20734,045;    1,367;   -1,045
827,309;21056,826;    1,185;    1,318
827,872;20463,516;    1,367;    0,955
828,436;21460,116;    1,185;   -0,773
828,999;21491,806;   -0,997;    1,227
829,563;20308,224;   -0,179;    1,136
830,126;20127,460;   -0,179;   -0,591
830,690;20127,968;   -1,997;    2,864
831,253;19701,022;   -0,543;    2,227
831,816;19809,621;   -1,906;    0,500
832,380;19728,130;    0,185;    0,864
832,943;19931,366;   -1,361;   -0,500
833,506;19395,238;    2,639;   -1,227
834,069;20220,019;    3,912;   -0,955
834,632;20235,437;    1,730;    1,318
835,195;20176,218;    1,003;    0,955
835,758;19375,363;   -0,997;    1,955
836,321;19241,235;    0,730;   -1,045
836,884;19347,744;   -0,725;   -0,955
837,447;19339,434;   -2,816;    1,773
838,010;19648,215;    0,366;    3,227
838,573;19890,178;   -1,179;    0,773
839,135;19896,687;   -1,361;   -0,955
839,698;19348,832;    1,275;    0,409
840,261;18837,977;    1,003;   -0,227
840,823;18642,212;   -0,543;    0,864
841,386;18956,994;   -0,452;   -2,409
841,948;18904,139;   -1,361;    1,773
842,511;18598,829;    0,912;    1,682
843,073;18761,519;    1,912;    0,227
843,636;18500,210;   -0,361;   -0,227
844,198;18455,082;    0,911;    0,591
844,760;18619,227;    1,093;    1,955
845,322;18264,190;    0,548;    1,136
845,885;18710,425;    0,730;    0,591
846,447;19137,207;   -1,998;    0,227
847,009;18694,624;    1,911;   -0,682
847,571;19025,951;    0,820;   -2,045
848,133;19113,550;   -1,089;   -1,864
848,695;18911,514;   -0,543;    1,409
849,257;18504,567;   -1,089;   -1,682
849,819;18713,440;   -0,998;   -0,409
850,381;18687,130;   -0,725;   -0,864
850,942;19060,184;    1,093;   -0,591
851,504;19071,511;    1,184;    0,227
852,066;19075,746;    1,275;   -1,591
852,628;18613,073;   -0,180;    1,955
853,189;18159,309;    1,638;    2,682
853,751;18264,908;   -0,907;    1,409
854,312;18077,053;   -0,453;   -1,682
854,874;18568,016;   -2,089;   -0,773
855,435;19093,979;   -0,907;   -1,682
855,997;19288,852;   -1,816;   -0,136
856,558;18544,996;    0,366;    1,773
857,119;18653,687;    0,820;    2,864
857,681;18336,832;    0,002;    0,318
858,242;18384,340;    1,911;   -2,136
858,803;18790,303;    0,456;   -0,773
859,364;19379,994;    0,184;   -4,773
859,925;18687,320;   -2,453;   -0,955
860,486;18554,738;   -0,453;   -0,955
861,047;18238,337;   -0,544;   -1,227
861,608;18141,210;   -1,089;   -0,773
862,169;18272,536;    0,638;   -0,045
862,730;18026,408;    0,456;    1,409
863,291;18241,826;   -0,635;   -0,500
863,852;18651,335;   -0,635;    1,955
864,412;18107,207;   -0,271;   -0,864
864,973;16690,352;   -0,089;    0,500
865,534;16589,224;   -1,726;    0,227
866,094;18057,914;    1,820;    0,227
866,655;17692,514;    1,274;    3,318
867,215;17982,295;    0,274;    0,136
867,776;17811,894;    0,547;   -0,136
868,336;17942,039;   -1,453;    0,136
868,897;17513,457;    2,638;    1,682
869,457;17217,783;    1,365;    0,318
870,017;17346,928;    0,547;   -1,227
870,578;17887,164;   -0,817;    0,773
871,138;17598,400;   -2,089;   -0,955
871,698;17146,181;   -0,817;   -1,318
872,258;17026,235;   -0,453;   -2,864
872,818;17393,016;    2,729;    0,045
873,378;17378,525;    0,638;    1,045
873,938;16894,033;    0,547;    0,500
874,498;17221,542;    0,274;   -1,955
875,058;17164,596;    2,183;    1,773
875,618;17018,014;    1,910;   -2,682
876,177;16934,340;    1,274;    0,136
876,737;16502,031;   -0,090;    1,955
877,297;16579,448;    0,183;    1,955
877,856;16580,320;   -0,362;    0,318
878,416;16514,647;    1,183;   -0,136
878,976;16730,792;   -1,817;    0,409
879,535;16864,300;    0,092;    3,136
880,095;16622,264;   -0,544;    0,045
880,654;16754,227;   -1,090;    1,318
881,213;16854,917;    2,456;    1,500
881,773;16522,516;    2,637;    2,682
882,332;16884,843;    3,365;    5,136
882,891;16721,897;    3,092;    2,136
883,451;17154,042;   -1,272;    1,682
884,010;16605,460;   -2,908;   -0,409
884,569;16695,786;   -0,999;   -0,045
885,128;16885,840;    2,819;   -1,864
885,687;16951,985;    4,455;    0,682
886,246;16631,766;    1,455;    2,136
886,805;16426,366;    2,455;    2,045
887,364;16674,874;   -0,999;   -0,500
887,922;17054,201;   -1,181;    0,045
888,481;16523,982;   -1,545;    0,591
889,040;16816,582;    1,183;    2,136
889,599;17509,363;    2,455;    1,409
890,157;17618,690;    1,455;    2,409
890,716;17225,562;   -0,090;    0,227
891,274;17031,707;    0,092;   -1,136
891,833;17505,306;    1,546;    0,864
892,391;17389,451;   -0,454;    0,500
892,950;17442,323;    1,819;   -0,773
893,508;17794,832;    0,455;   -0,409
894,067;17116,158;    0,637;    0,136
894,625;17026,031;   -0,636;   -1,500
895,183;17263,266;   -0,363;   -0,682
895,741;17159,775;    1,728;   -1,773
896,299;16943,829;   -0,545;   -2,409
896,858;17159,610;    0,819;   -1,591
897,416;17318,391;    2,728;   -1,318
897,974;17073,536;    1,819;    0,318
898,532;17227,681;    6,091;    2,682
899,089;17141,281;    2,091;   -0,682
899,647;17180,335;   -1,454;    1,318
900,205;16928,116;    1,182;    1,045
900,763;17070,806;   -0,454;    0,227
901,321;17090,769;    2,364;   -1,409
901,878;16507,550;   -1,000;   -0,773
902,436;16385,150;   -1,363;    1,318
902,994;16767,295;    4,728;    3,682
903,551;16224,531;    0,728;    0,409
904,109;16591,857;    0,182;   -1,409
904,666;16186,275;    2,455;    1,045
905,224;16001,056;    0,182;   -0,409
905,781;15734,110;    0,727;   -0,318
906,338;15832,528;   -1,363;    1,045
906,895;15726,854;    0,637;    2,045
907,453;15689,272;    1,727;    1,136
908,010;15750,690;   -0,909;    0,409
908,567;15399,289;    1,273;    0,591
909,124;14849,070;    0,364;   -1,500
909,681;14943,670;   -2,909;    0,682
910,238;15079,178;    0,636;   -1,318
910,795;15367,778;   -0,273;   -1,136
911,352;15014,051;   -2,909;   -2,682
911,909;14458,141;   -1,364;   -0,864
912,466;14991,687;   -3,182;    1,500
913,022;14547,051;   -1,636;    0,500
913,579;14876,051;   -0,909;    2,045
914,136;14558,596;    1,636;    0,955
914,692;14901,232;    0,091;   -1,227
915,249;14515,505;    1,455;    0,409
915,806;14738,960;    0,182;    1,955
916,362;14488,596;    1,909;    1,864
916,918;14034,323;    2,000;    1,045
917,475;14025,323;   -1,182;    0,955
918,031;14082,051;    3,364;   -0,045
918,587;13561,960;   -0,909;   -0,318
919,144;13786,141;   -2,273;    0,227
919,700;14062,687;    1,727;    0,773
920,256;13605,505;    0,727;    0,045
920,812;13248,960;   -0,727;   -1,045
921,368;13274,141;   -1,727;   -1,045
921,924;12921,687;    0,182;   -0,136
922,480;12489,687;   -0,545;    1,227
923,036;13110,778;    1,273;    1,955
923,592;13037,505;    0,455;    0,318
924,148;12966,687;    0,455;   -0,955
924,704;12280,869;   -1,364;   -0,409
925,259;12525,596;   -0,273;    0,591
925,815;12301,323;    1,455;    0,500
926,371;11802,778;    2,909;    1,409
926,926;11696,596;    2,091;    0,591
927,482;11341,414;   -1,364;    0,773
928,037;11197,232;    0,909;    2,045
928,593;11509,687;    1,636;    1,045
929,148;11322,596;   -1,818;   -1,500
929,704;10856,596;   -1,455;   -0,500
930,259;11067,596;    0,091;   -0,136
930,814;10124,141;   -0,818;    1,955
931,369; 9778,505;    1,091;   -0,773
931,925; 9629,141;   -0,091;    0,136
932,480; 9590,687;   -2,818;   -2,591
933,035; 9468,141;    0,545;   -0,318
933,590; 9221,778;    0,364;   -1,773
934,145; 8834,960;   -1,364;   -0,318
934,700; 9182,687;    0,455;   -0,591
935,255; 9008,414;   -0,091;    0,045
935,809; 8336,869;    3,182;    0,864
936,364; 7429,141;   -0,455;   -0,136
936,919; 7416,778;    0,455;   -1,773
937,474; 7287,869;    1,455;    0,136
938,028; 7050,051;   -1,636;    1,136
938,583; 6564,960;    1,818;    4,682
939,138; 6800,869;    2,091;    2,136
939,692; 6230,323;    1,636;   -1,136
940,247; 5951,505;   -0,727;   -1,045
940,801; 5511,960;   -0,636;    0,227
941,355; 5364,960;   -0,364;    2,591
941,910; 5035,414;   -0,273;   -2,136
942,464; 5193,232;   -0,818;   -0,318
943,018; 4945,869;    1,000;   -0,227
943,572; 4900,232;    2,545;   -0,682
944,126; 4333,596;    0,091;   -0,409
944,681; 4247,141;    3,091;    0,227
945,235; 4215,323;    1,000;   -0,591
945,789; 4154,414;    0,364;   -1,864
946,342; 4242,960;    0,455;   -0,591
946,896; 4051,687;   -2,273;    0,955
947,450; 3829,596;    1,545;   -0,227
948,004; 4031,778;    1,727;   -0,045
948,558; 4026,778;    0,273;   -0,864
949,111; 3948,960;   -0,273;   -0,318
949,665; 3987,323;    1,636;   -0,682
950,219; 3869,960;   -0,091;   -1,045
950,772; 3947,596;   -1,909;    1,864
951,326; 3821,051;    0,545;   -0,955
951,879; 3912,232;    0,727;   -2,318
952,433; 3963,778;    0,000;    2,227
952,986; 3793,232;    2,909;    0,682
953,539; 3745,323;   -0,273;    0,591
954,093; 3693,232;    0,545;   -1,318
954,646; 3825,051;    0,909;    1,318
955,199; 3631,414;    0,000;   -0,500
955,752; 3523,323;   -0,455;    1,773
956,305; 3479,687;   -0,091;    2,955
956,858; 3639,141;    0,818;   -0,318
957,411; 3783,141;   -0,545;    2,136
957,964; 3626,232;    1,364;    2,136
958,517; 3647,051;   -1,545;    3,136
959,070; 3467,051;   -0,455;    1,955
959,623; 3552,051;    1,091;    1,500
960,176; 3319,596;    1,727;    2,045
960,728; 3294,232;   -2,727;    0,773
961,281; 3337,414;    0,545;    0,500
961,834; 3401,323;   -0,909;    0,864
962,386; 3286,051;    1,727;    1,045
962,939; 3216,687;    0,364;   -0,318
963,491; 3368,778;    0,455;    1,136
964,043; 3257,960;    1,182;    2,409
964,596; 3374,687;   -1,000;    2,227
965,148; 3213,505;   -1,000;    1,773
965,700; 3134,051;    1,091;   -0,227
966,253; 3272,232;   -0,636;    0,318
966,805; 3105,505;   -2,273;    0,773
967,357; 3171,869;    1,091;   -1,500
967,909; 3143,414;    0,455;   -1,227
968,461; 3233,505;    0,545;    3,136
969,013; 3172,869;   -0,182;   -0,864
969,565; 3250,232;   -0,455;   -1,136
970,117; 3327,960;   -0,364;    1,045
970,669; 3133,778;    0,182;   -0,136
971,220; 3009,051;   -0,455;   -1,500
971,772; 2928,778;   -0,636;   -0,318
972,324; 3045,323;    0,091;   -0,500
972,876; 3001,960;    0,818;   -0,045
973,427; 3153,505;    1,909;   -1,045
973,979; 3107,505;   -0,727;   -2,500
974,530; 3133,232;    1,818;    1,318
975,082; 3145,687;   -0,545;    1,682
975,633; 3042,323;    1,091;    1,682
976,184; 3180,869;    0,909;    0,773
976,736; 2959,323;    0,091;    0,227
977,287; 2776,141;   -0,909;   -0,500
977,838; 2948,596;    0,909;   -0,318
978,389; 3035,414;   -1,000;   -0,500
978,940; 2909,869;    0,545;   -0,409
979,491; 2904,869;    0,091;   -0,500
980,042; 2872,141;    0,182;    3,045
980,593; 2939,687;   -2,545;    0,227
981,144; 2963,960;    2,545;   -0,500
981,695; 2936,051;    1,455;    1,500
982,246; 2909,960;   -0,273;    1,045
982,797; 3059,687;   -1,727;    0,682
983,347; 3155,323;    0,364;    0,591
983,898; 3327,596;    3,091;    0,409
984,449; 3153,869;    2,182;    0,773
984,999; 3047,687;    1,455;   -1,136
985,550; 2838,687;    0,182;   -0,318
986,100; 2849,778;   -0,455;   -0,318
986,651; 2895,869;   -0,818;    0,045
987,201; 2881,505;   -1,000;   -0,591
987,751; 2963,323;    0,818;    2,864
988,302; 2954,960;    2,636;    1,500
988,852; 2962,505;    0,455;   -1,136
989,402; 3021,778;    0,091;    0,682
989,952; 2932,778;   -2,182;    0,864
990,502; 3027,414;   -0,091;    0,682
991,052; 3006,414;   -0,727;    0,045
991,602; 2873,414;   -2,909;    1,318
992,152; 2861,141;    0,455;    0,682
992,702; 2835,596;    1,364;   -0,045
993,252; 2765,869;   -3,000;   -0,500
993,802; 2861,323;   -0,273;    1,318
994,352; 3089,323;   -1,545;    1,136
994,901; 3167,051;   -0,182;    3,227
995,451; 3077,141;   -0,182;    0,318
996,000; 3174,778;    1,636;    0,318
996,550; 2899,869;    2,273;    0,227
997,100; 2870,869;    1,273;   -0,045
997,649; 3154,596;    2,182;    0,955
998,198; 2802,596;    1,727;   -1,500
998,748; 3007,869;    1,091;   -2,318
999,297; 2904,505;   -0,818;   -0,409
999,846; 2968,505;    1,000;   -0,773
1000,395; 3011,687;   -0,818;    0,500
1000,945; 2979,232;    1,818;   -0,773
1001,494; 3060,051;    2,364;    0,682
1002,043; 3050,960;    4,636;    0,864
1002,592; 2876,687;   -1,091;    1,955
1003,141; 3051,778;   -0,455;   -0,682
1003,690; 2889,051;    1,727;    0,500
1004,238; 2975,778;    1,455;   -0,045
1004,787; 2618,414;    1,364;    1,227
1005,336; 2864,051;    0,364;    0,682
1005,885; 2980,232;    1,364;   -2,773
1006,433; 3117,232;    0,545;    0,955
1006,982; 3189,687;    0,455;    1,682
1007,531; 3097,141;   -1,818;   -0,227
1008,079; 3031,141;   -2,273;    0,500
1008,627; 3159,141;   -1,455;    0,409
1009,176; 2919,414;    0,000;   -1,955
1009,724; 2981,960;    1,091;    0,864
1010,273; 3021,687;    1,273;    0,500
1010,821; 3109,141;    0,091;    1,409
1011,369; 2866,414;   -1,364;    1,318
1011,917; 2855,232;   -1,364;   -0,591
1012,465; 3133,414;    1,273;   -1,591
1013,013; 3226,687;    2,091;   -1,682
1013,561; 3122,051;    0,455;   -0,773
1014,109; 3164,414;   -1,909;    1,682
1014,657; 3053,960;    0,364;    0,591
1015,205; 3167,596;    1,636;   -0,955
1015,753; 3195,960;   -0,545;   -1,409
1016,301; 3229,232;   -2,636;    3,045
1016,848; 3243,505;   -1,273;    0,409
1017,396; 3278,869;    2,545;    0,045
1017,944; 3422,141;    1,182;    1,864
1018,491; 3158,414;    0,273;    1,409
1019,039; 3313,414;    0,455;    0,591
1019,586; 3214,505;   -1,364;    1,682
1020,134; 3317,960;    0,455;    1,500
1020,681; 3342,960;    0,182;   -1,136
1021,228; 3317,960;    2,909;   -2,227
1021,776; 3168,596;    1,182;   -1,136
1022,323; 3409,232;    0,455;    0,773
1022,870; 3332,960;   -1,000;   -0,045
1023,417; 3219,232;    2,636;    1,864
1023,964; 3368,960;    2,636;    1,227
1024,511; 3193,869;    1,000;    0,773
1025,058; 3020,414;    3,182;   -0,045
1025,605; 3054,960;   -2,273;    3,136
1026,152; 3292,869;    1,727;   -0,591
1026,699; 3010,414;    1,818;    1,318
1027,245; 3166,687;   -0,091;    0,318
1027,792; 3363,232;   -1,000;    1,409
1028,339; 3272,051;    2,364;   -0,045
1028,885; 3119,778;    1,000;   -0,227
1029,432; 3053,778;   -0,091;    0,227
1029,978; 3114,687;   -1,000;   -1,591
1030,525; 3014,141;    1,000;    0,409
1031,071; 3263,232;   -1,364;    1,136
1031,618; 3381,960;    0,364;    1,682
1032,164; 3155,596;   -0,091;    3,045
1032,710; 3196,323;    1,636;   -1,500
1033,256; 3100,323;   -0,636;   -0,136
1033,803; 3073,232;   -0,545;    1,500
1034,349; 2785,960;   -1,364;    0,136
1034,895; 2950,051;    0,000;   -0,318
1035,441; 2955,323;   -0,818;    0,318
1035,987; 2939,687;   -2,364;   -0,682
1036,533; 2932,051;   -1,455;   -0,955
1037,078; 3143,505;    1,455;    1,682
1037,624; 2959,141;    2,455;   -0,955
1038,170; 2994,141;    0,455;   -0,318
1038,716; 2925,960;    1,636;   -0,409
1039,261; 2834,596;   -2,273;   -0,773
1039,807; 2747,778;   -0,091;    3,409
1040,352; 2814,596;   -1,909;   -0,318
1040,898; 2866,051;   -1,545;   -0,682
1041,443; 2770,505;   -1,455;   -2,591
1041,989; 2807,687;    1,091;    1,591
1042,534; 2672,051;   -0,364;    2,591
1043,079; 2767,414;    2,909;    0,955
1043,625; 2575,960;    1,818;    0,500
1044,170; 2624,505;   -1,364;    1,045
1044,715; 2878,323;    2,455;    0,955
1045,260; 2691,778;    2,182;   -0,955
1045,805; 2738,414;    1,182;   -0,591
1046,350; 2665,505;    1,364;   -0,409
1046,895; 2642,960;    2,909;    1,591
1047,440; 2611,505;    5,364;    0,409
1047,985; 2487,778;    2,818;   -0,955
1048,530; 2411,505;    1,545;    1,227
1049,074; 2475,596;    0,000;    0,318
1049,619; 2453,778;   -1,364;    1,955
1050,164; 2263,778;    0,455;    0,227
1050,708; 2295,505;   -0,455;    0,045
1051,253; 2676,960;    1,273;   -2,227
1051,797; 2386,960;    0,818;   -1,318
1052,342; 2383,687;   -1,182;    1,045
1052,886; 2380,869;    0,364;   -1,409
1053,430; 2254,960;   -1,364;    0,136
1053,975; 2273,232;   -0,818;   -0,318
1054,519; 2253,323;   -0,727;    3,227
1055,063; 2295,141;    0,909;    1,318
1055,607; 2171,960;   -0,182;    0,227
1056,151; 2182,778;    2,909;    1,682
1056,695; 2094,778;    2,273;   -1,136
1057,239; 2173,505;   -1,727;   -0,682
1057,783; 2179,051;    0,818;   -1,500
1058,327; 2125,960;    0,000;    1,409
1058,871; 2347,051;   -0,545;    1,318
1059,415; 2061,323;   -0,818;   -0,045
1059,958; 2338,960;    1,455;    2,591
1060,502; 2043,778;   -1,000;   -0,773
1061,046; 1937,778;    0,364;   -0,955
1061,589; 1917,778;   -3,000;   -1,136
1062,133; 1793,051;   -1,273;    1,864
1062,676; 1742,596;    1,182;    0,864
1063,220; 1746,051;    1,091;    0,500
1063,763; 1786,323;    0,909;    1,136
1064,306; 1864,051;   -0,909;    1,864
1064,849; 1743,869;   -0,909;    0,591
1065,393; 1758,141;    2,000;   -1,500
1065,936; 1868,141;    0,182;   -0,409
1066,479; 1744,869;   -1,455;    1,318
1067,022; 1771,596;   -0,273;   -0,227
1067,565; 1659,141;   -0,091;   -1,318
1068,108; 1677,960;    0,727;   -0,591
1068,651; 1657,141;   -0,636;    1,409
1069,194; 1600,232;   -0,455;   -1,682
1069,736; 1606,323;   -1,273;    0,955
1070,279; 1572,778;   -1,364;   -0,500
1070,822; 1639,323;   -2,000;   -0,318
1071,364; 1741,141;   -0,364;    1,318
1071,907; 1554,141;   -0,727;    3,227
1072,450; 1437,232;    0,000;   -0,045
1072,992; 1427,141;   -0,273;    3,136
1073,535; 1591,141;    2,091;    2,136
1074,077; 1373,323;   -0,727;    2,045
1074,619; 1352,232;   -1,364;    0,591
1075,161; 1385,051;   -1,091;    1,500
1075,704; 1563,869;    1,545;    1,227
1076,246; 1348,687;   -0,182;    0,682
1076,788; 1272,869;   -0,364;    1,773
1077,330; 1354,960;    1,273;    2,136
1077,872; 1329,141;    0,909;    0,955
1078,414; 1559,778;    2,727;    0,773
1078,956; 1284,414;    1,273;   -0,227
1079,498; 1556,960;    1,636;    0,318
1080,040; 1252,323;    1,909;   -1,318
1080,581; 1179,505;    1,636;   -0,318
1081,123; 1100,960;    0,091;   -0,773
1081,665; 1151,596;   -1,182;   -0,955
1082,206; 1472,141;    1,364;   -0,500
1082,748; 1328,596;    0,727;    2,045
1083,289; 1196,869;   -2,000;    1,318
1083,831; 1119,596;   -0,545;    0,227
1084,372; 1158,051;    0,000;    0,591
1084,913; 1158,596;    1,091;    0,864
1085,455; 1120,778;   -1,909;   -2,045
1085,996; 1090,414;   -2,273;    0,136
1086,537; 1115,869;   -0,091;    0,864
1087,078; 1141,141;   -0,909;   -2,136
1087,619; 1193,505;   -1,273;    0,227
1088,160; 1109,141;    0,000;    1,318
1088,701; 1091,505;   -1,091;    0,682
1089,242; 1029,596;    1,364;   -2,227
1089,783; 1129,414;   -0,273;    1,409
1090,324; 1097,778;    0,455;    0,682
1090,865;  970,141;    2,727;   -0,409
1091,405;  930,596;    0,727;    2,227
1091,946;  972,323;    0,182;   -0,955
1092,487;  882,323;    0,818;   -1,409
1093,027; 1060,323;   -1,364;   -1,500
1093,568;  916,141;   -0,364;    1,227
1094,108; 1012,051;    0,273;    1,773
1094,649;  950,141;   -1,182;    0,136
1095,189;  879,505;   -0,636;   -0,682
1095,729;  838,505;   -0,091;    0,955
1096,269;  832,414;    0,727;   -0,955
1096,810; 1169,232;   -1,364;    0,500
1097,350;  989,141;    1,364;   -0,773
1097,890;  889,141;    0,364;    1,227
1098,430; 1155,505;    2,364;    2,864
1098,970; 1027,232;    2,182;    1,682
1099,510;  875,232;    0,545;   -2,318
1100,050;  805,596;    1,000;   -1,591
1100,589;  760,141;   -0,727;   -0,318
1101,129;  890,141;    0,818;   -0,955
1101,669; 1058,051;    1,727;    2,136
1102,209;  863,596;   -0,091;    2,227
1102,748;  823,414;    0,000;    0,955
1103,288;  819,051;    1,273;   -1,227
1103,827;  848,596;    3,091;   -2,227
1104,367;  716,505;   -0,091;   -2,409
1104,906;  684,869;    1,364;   -1,136
1105,445;  759,778;    0,636;   -1,136
1105,985;  698,051;   -0,727;    1,500
1106,524;  746,051;   -1,727;   -0,682
1107,063;  721,687;   -2,727;    1,409
1107,602;  693,596;   -1,909;   -1,500
1108,141;  621,141;   -1,909;    1,500
1108,680;  740,960;   -3,455;   -0,591
1109,219;  658,141;   -0,909;   -0,500
1109,758;  655,323;    0,455;    0,682
1110,297;  628,596;    1,000;   -0,682
1110,836;  586,505;   -0,727;    0,955
1111,375;  761,505;   -2,545;    0,409
1111,913;  774,505;   -1,000;    0,773
1112,452;  696,051;   -0,273;    0,136
1112,991;  565,596;    1,091;    1,955
1113,529;  536,596;   -0,818;   -0,045
1114,068;  612,869;   -0,273;    2,955
1114,606;  507,869;   -0,364;   -0,955
1115,144;  679,232;   -1,273;    1,045
1115,683;  608,505;   -0,727;    0,318
1116,221;  656,778;   -0,455;   -0,864
1116,759;  562,687;    0,636;   -0,864
1117,297;  765,051;    0,000;    1,864
1117,836;  568,869;   -2,182;   -1,227
1118,374;  589,414;    0,182;   -0,682
1118,912;  521,323;    0,909;    2,682
1119,450;  512,141;    1,000;    0,864
1119,988;  566,596;    1,545;    2,136
1120,525; 1022,687;    5,091;    3,318
1121,063;  725,687;    1,182;    1,864
1121,601;  524,596;   -0,909;   -1,227
1122,139;  491,869;   -0,727;   -2,045
1122,676;  696,960;   -0,727;    2,773
1123,214;  616,051;   -1,182;    4,409
1123,751;  420,778;    1,727;    2,227
1124,289;  559,141;   -0,091;   -0,409
1124,826;  424,505;    1,727;    0,227
1125,364;  341,505;    1,727;   -0,955
1125,901;  536,505;    1,182;    1,227
1126,438;  657,051;    0,818;    0,955
1126,975;  377,687;   -0,727;   -0,773
1127,513;  455,869;    0,273;    2,136
1128,050;  347,232;    1,636;   -0,682
1128,587;  450,323;    2,000;   -0,227
1129,124;  500,505;    0,091;    1,318
1129,661;  357,778;    0,273;    0,227
1130,198;  533,778;    1,636;    0,773
1130,734;  478,596;    0,182;    1,409
1131,271;  334,869;   -0,909;    0,864
1131,808;  512,141;    2,909;    3,045
1132,345;  377,778;    1,545;    0,318
1132,881;  233,687;   -1,545;   -1,864
1133,418;  391,960;    0,727;   -1,136
1133,954;  321,596;    2,455;   -2,682
1134,491;  403,687;    1,364;   -0,773
1135,027;  299,323;    2,364;    0,864
1135,564;  394,051;    0,273;    2,955
1136,100;  368,141;    0,364;    2,136
1136,636;  254,232;   -1,273;   -1,045
1137,172;  358,141;    0,000;   -1,045
1137,708;  281,323;   -1,364;   -1,045
1138,245;  282,960;    1,273;   -1,227
1138,781;  220,141;    1,091;   -3,318
1139,317;  296,414;    1,273;   -1,409
1139,852;  283,687;    3,091;    0,136
1140,388;  409,869;   -1,182;   -0,409
1140,924;  292,869;   -1,091;   -2,227
1141,460;  228,323;   -1,636;    0,136
1141,996;  164,141;   -1,364;    2,682
1142,531;  209,869;    1,364;    3,318
1143,067;  432,414;    1,182;    1,045
1143,602;  498,960;   -0,091;   -0,318
1144,138;  331,869;   -2,636;    1,045
1144,673;  186,778;   -1,455;    1,409
1145,209;  262,960;   -1,909;   -0,318
1145,744;  175,414;   -0,727;    0,864
1146,279;  327,869;    1,818;   -0,136
1146,815;  233,051;    1,545;   -2,682
1147,350;  279,232;   -1,364;    0,045
1147,885;  187,960;   -0,818;   -1,318
1148,420;  177,505;   -2,273;    0,773
1148,955;  170,232;   -1,727;    1,864
1149,490;  200,778;   -0,909;   -1,591
1150,025;  179,414;    0,455;   -1,773
1150,560;  293,778;    1,091;   -0,955
1151,094;  262,960;    1,455;   -0,591
1151,629;  275,414;    1,636;    0,864
1152,164;  185,960;    1,364;    1,318
1152,698;  154,141;   -0,182;   -0,136
1153,233;  104,960;    0,091;   -0,682
1153,767;  157,596;   -3,000;   -2,318
1154,302;  201,960;   -1,455;    1,773
1154,836;  200,505;   -0,455;   -2,136
1155,371;  266,505;   -1,364;    3,682
1155,905;  215,141;   -0,636;    1,682
1156,439;  171,141;   -0,636;   -0,500
1156,973;  214,505;    0,364;    0,318
1157,507;  140,687;   -0,364;    0,682
1158,042;  177,687;   -0,727;    1,045
1158,576;  230,051;    0,182;    1,773
1159,110;  221,596;   -0,818;    2,409
1159,643;  192,596;    0,636;   -0,045
1160,177;  124,414;   -1,545;    1,500

