
Integration time [ms]:   0,040
Averaging Nr. [scans]: 11
Smoothing Nr. [pixels]: 0
Data measured with spectrometer [name]: 7318044SP
Wave   ;Sample   ;Dark     ;Reference
[nm]   ;[counts] ;[counts] ;[counts] 

186,757;   24,408;   31,551;    1,318
187,357;   69,163;   22,551;    0,955
187,958;   34,600;   15,460;   -1,591
188,558;   86,947;    8,915;   -1,227
189,159;   48,447;    6,733;   -4,500
189,759;   25,230;    7,278;   -3,591
190,360;   26,048;    2,824;   -2,136
190,960;   67,891;    2,915;   -4,136
191,560;   86,307;    3,189;   -6,591
192,161;  339,261;    4,372;   -3,500
192,761;  171,499;    4,010;   -3,227
193,361;  119,646;    1,556;   -3,773
193,962;  171,607;    2,010;   -2,682
194,562;   94,534;    1,189;   -3,955
195,162;  123,160;   -2,448;   -2,227
195,762;  299,307;   -3,176;   -0,045
196,362;  244,349;    1,370;   -2,500
196,963;  101,167;    2,006;   -0,864
197,563;  184,496;    1,551;   -0,955
198,163;  119,468;    0,096;   -0,682
198,763;  140,531;    1,733;   -0,500
199,363;  249,055;    3,096;   -0,500
199,963;  205,258;    0,369;    0,409
200,563;  179,698;    2,823;   -1,409
201,163;  160,240;    3,277;   -0,227
201,763;  256,041;    3,732;    0,318
202,363;  188,132;    1,459;    1,500
202,963;  312,160;    1,459;    1,045
203,563;  433,062;    0,277;    0,500
204,162;  257,894;    2,096;   -1,864
204,762;  245,226;    0,550;    0,591
205,362;  215,954;    3,004;    1,955
205,962;  322,419;    3,096;    1,955
206,562;  321,499;    1,823;    2,318
207,161;  287,052;   -0,087;    0,318
207,761;  460,076;    1,277;    2,409
208,361;  318,447;   -0,268;    1,409
208,960;  429,908;    0,459;    1,500
209,560;  515,146;    1,277;    1,591
210,160;  488,188;    0,550;    1,864
210,759;  448,003;    4,186;    1,227
211,359;  449,653;    1,459;    1,045
211,958;  735,289;    1,277;    2,045
212,558;  828,450;    1,732;    1,864
213,157;  658,677;    1,822;    1,500
213,757; 1122,492;    3,822;   -0,227
214,356;  812,377;    1,277;   -0,409
214,956; 1162,335;    3,095;    0,409
215,555;  765,237;    2,095;    2,136
216,154;  695,814;   -2,723;   -0,591
216,754;  707,352;    0,277;    0,773
217,353;  848,429;   -0,268;   -1,045
217,952;  692,733;   -0,178;    0,318
218,552;  951,464;    1,368;   -0,773
219,151;  841,083;    0,277;    0,955
219,750;  838,212;    0,004;   -0,227
220,349;  984,086;   -0,451;    1,045
220,948; 1044,863;   -1,360;    1,136
221,548; 1083,625;    0,913;    1,227
222,147; 1200,275;   -0,087;   -0,409
222,746; 1504,307;   -0,451;   -0,955
223,345; 1380,415;    0,731;    0,500
223,944; 1385,226;   -0,451;    0,773
224,543; 1583,999;    1,004;   -1,409
225,142; 1690,726;    0,094;    0,136
225,741; 1601,128;   -0,814;    1,045
226,340; 1635,541;   -0,451;   -0,955
226,939; 2109,086;   -0,996;   -0,136
227,538; 2094,149;   -0,360;   -0,773
228,137; 2246,391;   -0,814;    0,864
228,735; 2425,660;   -0,541;    1,227
229,334; 2153,107;   -0,905;   -0,227
229,933; 2534,905;    0,459;    0,591
230,532; 2631,772;    1,186;   -0,409
231,131; 2706,957;    1,732;    0,318
231,729; 2901,160;   -2,450;   -2,318
232,328; 3042,572;   -0,723;   -1,500
232,927; 3131,541;    1,004;   -0,500
233,525; 3284,992;    3,640;    0,045
234,124; 3493,377;    2,368;   -1,591
234,723; 3518,314;    0,913;   -1,045
235,321; 3693,611;    2,277;    0,136
235,920; 3957,800;    1,186;   -1,227
236,518; 4207,642;    3,459;    0,318
237,117; 4419,688;    0,004;   -0,227
237,715; 4606,807;    0,640;   -0,500
238,314; 4627,146;   -0,087;   -2,318
238,912; 4729,905;   -0,723;   -1,409
239,510; 4789,254;    0,459;   -1,227
240,109; 4974,090;    0,004;    3,773
240,707; 5022,349;   -0,996;    1,227
241,305; 5415,950;    0,550;    0,136
241,904; 5624,768;   -0,178;   -2,045
242,502; 5602,597;   -0,632;   -0,227
243,100; 5541,618;   -0,087;   -0,955
243,698; 5787,464;    0,732;    1,682
244,297; 6012,475;   -0,632;    0,682
244,895; 5808,149;   -0,269;   -2,318
245,493; 6168,062;    2,186;   -0,591
246,091; 6211,926;    1,368;   -1,318
246,689; 6186,468;    1,004;    0,591
247,287; 6351,524;    0,822;   -1,136
247,885; 6654,866;   -1,451;    1,227
248,483; 6748,034;    1,822;   -0,500
249,081; 6869,447;    0,185;    1,591
249,679; 7073,646;   -0,178;    1,682
250,277; 7306,205;   -1,723;    0,864
250,875; 7288,167;   -1,087;   -1,045
251,473; 7304,723;   -1,178;    0,500
252,071; 7525,761;    1,459;    1,045
252,669; 7689,590;   -1,814;    0,318
253,267; 7953,709;   -0,087;    0,773
253,864; 7926,524;   -0,360;    0,682
254,462; 7778,674;    1,640;    1,591
255,060; 7741,111;   -0,269;    1,318
255,658; 8073,317;    0,822;   -0,136
256,255; 8554,156;    0,186;   -2,045
256,853; 8388,866;   -0,269;    1,409
257,451; 8346,055;    0,822;    1,864
258,048; 8634,856;    1,822;    1,864
258,646; 8387,579;    1,731;   -1,045
259,243; 8602,593;   -0,087;    2,227
259,841; 8646,107;   -0,814;    0,318
260,438; 8520,656;   -0,087;    0,864
261,036; 9265,146;   -1,905;    1,409
261,633; 9119,415;   -0,087;    2,227
262,231; 8864,702;    2,731;   -0,045
262,828; 8984,940;   -0,905;    1,136
263,425; 9048,667;    0,913;   -0,591
264,023; 9331,656;    0,186;    0,045
264,620; 8844,754;   -0,360;   -0,318
265,217; 9227,048;   -2,087;    3,136
265,815; 9303,258;   -1,905;    2,136
266,412; 9059,510;    0,731;    0,136
267,009; 9155,961;   -1,451;    0,773
267,606; 9052,398;    0,822;   -0,955
268,203; 8998,555;   -0,269;   -0,591
268,801; 9313,891;    1,731;    0,591
269,398; 9611,454;   -0,360;    2,500
269,995; 9582,849;    0,277;    1,591
270,592; 9356,321;   -0,632;   -0,500
271,189; 9538,121;    0,186;    0,409
271,786; 9659,702;   -0,632;    1,227
272,383; 9486,426;   -1,087;    0,227
272,980; 9698,118;    0,277;    0,318
273,577;10204,824;    0,004;    1,227
274,174; 9760,870;    0,822;    2,591
274,771; 9712,863;   -0,814;   -0,773
275,367; 9895,912;    2,277;    1,409
275,964; 9853,653;    0,731;   -0,500
276,561; 9941,146;    1,549;   -1,045
277,158;10187,282;    0,095;   -1,773
277,755;10267,356;    2,185;    0,409
278,351; 9687,212;   -0,451;   -1,500
278,948; 9998,139;   -0,815;    0,045
279,545;10018,038;   -1,360;    2,318
280,141;10656,496;   -1,723;   -2,045
280,738;10540,128;   -0,451;   -0,136
281,334;10767,090;   -1,633;    0,591
281,931;10160,901;   -0,087;   -1,318
282,528;10238,097;    0,822;   -0,500
283,124;10981,583;   -1,087;   -0,500
283,721;10885,978;   -0,451;    1,409
284,317;10669,331;    0,185;    2,500
284,913;11229,863;   -1,360;    0,591
285,510;11440,135;    0,640;   -0,318
286,106;11474,422;   -2,269;   -0,955
286,703;11061,642;   -0,360;    1,955
287,299;11260,835;   -1,451;   -0,591
287,895;11460,149;    0,822;   -1,045
288,491;12024,454;    0,186;    2,136
289,088;11775,726;   -2,360;    2,409
289,684;11845,863;   -1,723;    1,500
290,280;11836,303;    0,368;    0,682
290,876;11934,174;    1,822;    5,500
291,472;11793,041;    1,276;    2,227
292,068;11900,156;    1,367;    0,227
292,665;11628,653;    2,095;    0,773
293,261;11195,765;    0,276;    2,136
293,857;11645,024;    2,913;    2,136
294,453;11563,810;    3,550;    0,955
295,049;11391,045;   -0,268;    1,955
295,644;11429,747;    0,095;    0,136
296,240;11328,202;   -0,905;   -0,136
296,836;11390,670;   -0,995;    0,318
297,432;11657,093;    1,096;   -0,500
298,028;11729,611;    0,732;    0,773
298,624;12110,772;    1,459;    1,864
299,220;12393,891;    2,368;    0,591
299,815;12070,632;    1,005;   -0,409
300,411;11825,772;    0,914;    1,773
301,007;11845,055;    1,368;    0,227
301,602;11898,191;   -0,541;   -2,318
302,198;12076,475;    0,732;   -0,773
302,794;12412,849;    1,187;   -0,500
303,389;12528,768;   -1,177;    1,045
303,985;12605,656;    0,550;    1,409
304,580;12600,845;    1,459;    1,591
305,176;12535,104;   -3,086;    0,136
305,771;12461,349;   -1,268;   -1,227
306,367;12286,251;    4,095;    0,136
306,962;12639,100;    0,641;    1,500
307,558;12393,583;   -0,450;    0,136
308,153;12325,744;    1,095;   -1,136
308,748;12545,055;   -0,814;    1,682
309,344;12546,646;   -0,632;   -1,318
309,939;12563,282;   -1,905;   -1,318
310,534;12814,237;   -0,086;   -1,682
311,130;12777,212;    0,459;   -2,500
311,725;12499,877;    1,004;   -0,500
312,320;12839,440;    2,459;    0,045
312,915;12658,695;    1,459;   -1,045
313,510;12789,821;    1,550;   -0,500
314,105;13278,614;    1,096;    1,409
314,700;12662,552;   -3,086;   -1,045
315,295;12300,209;   -0,904;    0,045
315,890;11889,184;    1,277;    0,864
316,485;12248,702;   -0,359;   -0,318
317,080;12326,744;   -3,086;    1,591
317,675;12920,261;    2,005;   -0,682
318,270;12340,492;    5,550;    3,318
318,865;12310,761;    3,278;    3,045
319,460;12144,069;   -0,904;    0,591
320,055;12362,880;   -0,541;   -1,227
320,650;12027,286;   -1,995;   -0,591
321,244;12071,534;   -0,177;   -1,409
321,839;13009,380;   -1,541;   -0,227
322,434;12914,985;   -1,086;   -1,591
323,029;12527,541;    1,732;    1,591
323,623;12368,873;    1,550;    0,773
324,218;12123,607;    2,368;    1,409
324,812;12009,034;    1,096;    1,591
325,407;11785,251;   -0,814;    2,045
326,002;11715,863;    0,277;   -0,409
326,596;12040,450;    0,914;    1,318
327,191;12217,300;    0,823;   -1,045
327,785;11786,450;   -0,813;   -0,227
328,379;12019,604;    1,368;    0,136
328,974;11804,272;    0,914;   -3,955
329,568;11998,524;    0,186;   -2,409
330,163;11848,216;    2,096;    1,045
330,757;12201,226;    2,459;    1,591
331,351;11503,765;    0,459;    0,682
331,945;11786,027;    0,914;    1,409
332,540;11409,768;   -1,723;   -0,591
333,134;11589,475;   -1,086;    0,773
333,728;11829,191;    0,005;    0,318
334,322;12146,628;   -1,177;   -0,864
334,916;11406,482;    0,277;    0,955
335,510;11760,698;   -0,450;   -0,136
336,105;11966,845;   -1,086;    1,591
336,699;11688,870;   -1,086;    0,591
337,293;11616,625;   -1,723;    0,318
337,887;11779,835;   -2,723;    1,955
338,481;11890,887;    0,459;    0,591
339,074;12030,205;   -0,359;    2,682
339,668;11851,793;   -1,632;    1,227
340,262;12095,691;    1,732;    3,227
340,856;11602,031;    1,822;   -0,682
341,450;10961,394;    1,004;    1,864
342,044;11864,261;    1,459;    0,136
342,637;11642,817;    0,913;   -2,136
343,231;11503,663;   -2,360;    0,682
343,825;11450,139;   -1,086;   -0,591
344,419;11386,412;   -1,995;    0,500
345,012;11176,412;    2,459;    4,045
345,606;11195,541;    4,641;    1,591
346,199;11020,709;   -1,813;   -0,227
346,793;10540,296;    1,914;    2,045
347,386;10727,999;   -0,813;   -1,136
347,980;10731,468;   -0,268;   -0,045
348,573;10543,107;    2,278;    0,409
349,167;10211,831;    5,278;    4,773
349,760;10542,324;    2,914;    2,682
350,354;10525,737;   -0,813;    1,136
350,947;10254,751;    1,096;    1,682
351,540; 9934,321;   -0,358;   -1,409
352,134; 9897,810;    1,096;    1,136
352,727; 9957,541;   -0,086;    1,136
353,320; 9711,859;    0,005;    0,591
353,913; 9564,184;   -1,995;    1,864
354,507; 9809,111;    0,823;   -1,227
355,100; 9808,454;    0,460;    0,864
355,693; 9048,052;    2,005;    2,409
356,286; 9085,079;    0,823;    2,773
356,879; 9422,059;   -0,722;    1,227
357,472; 9034,919;   -0,904;    1,500
358,065; 9212,195;   -0,722;    2,500
358,658; 9121,964;   -0,540;    2,318
359,251; 8752,880;   -1,631;   -0,591
359,844; 8251,639;   -1,904;   -1,136
360,437; 8445,338;   -2,995;    0,045
361,030; 8691,485;    1,369;   -0,682
361,623; 8278,331;    2,824;    0,318
362,215; 8368,852;   -0,086;    2,045
362,808; 8199,146;   -2,358;   -1,682
363,401; 8404,272;   -2,449;    0,136
363,994; 8128,209;   -0,631;   -1,500
364,586; 8005,775;    0,824;   -1,500
365,179; 8199,380;   -0,449;   -1,136
365,772; 7723,314;   -1,995;    2,045
366,364; 8068,901;    1,915;   -3,227
366,957; 8239,195;    2,279;   -0,045
367,549; 8243,366;    2,188;   -0,864
368,142; 7897,006;    1,825;   -1,500
368,734; 8111,954;    0,734;   -2,136
369,327; 8029,069;    1,643;   -0,500
369,919; 7970,740;   -1,538;    0,409
370,512; 7768,877;   -1,083;   -0,500
371,104; 7545,181;   -0,901;    1,591
371,696; 7712,310;    1,191;   -0,955
372,289; 7791,422;    0,373;    1,136
372,881; 7959,177;   -2,080;    1,318
373,473; 7872,852;   -2,170;    1,136
374,066; 7667,153;   -0,169;    0,500
374,658; 7511,719;    0,378;    1,136
375,250; 7861,415;    0,653;   -1,409
375,842; 7721,191;    0,473;   -0,045
376,434; 7603,754;   -0,435;   -0,409
377,026; 8178,370;    0,204;   -2,500
377,618; 8079,237;   -0,158;   -0,682
378,210; 7881,024;   -0,338;   -1,955
378,802; 7749,254;    0,754;   -0,591
379,394; 7744,282;    1,846;    0,682
379,986; 8339,545;    1,393;   -0,955
380,578; 8430,506;   -0,153;    0,773
381,170; 7751,422;   -0,972;    0,045
381,762; 7708,873;    0,755;    1,409
382,354; 7937,782;   -0,065;   -1,318
382,945; 8043,552;   -2,976;    0,318
383,537; 8141,087;   -2,705;   -1,955
384,129; 8152,744;   -2,160;   -1,136
384,721; 8378,184;   -0,252;    0,955
385,312; 8325,261;   -0,161;   -0,955
385,904; 8383,034;   -2,706;    1,591
386,496; 7759,188;   -0,979;    1,045
387,087; 7902,793;    1,022;    2,500
387,679; 7942,419;   -1,160;    0,045
388,270; 8094,975;    2,840;    2,045
388,862; 8212,062;    1,295;   -0,318
389,453; 8110,300;   -0,887;    1,045
390,045; 8392,087;   -0,705;   -2,682
390,636; 8278,506;    0,204;   -0,591
391,227; 8159,898;   -0,523;   -0,045
391,819; 8262,594;    0,204;    0,773
392,410; 8325,282;    1,022;    0,045
393,001; 8263,744;   -0,979;   -1,591
393,593; 8570,101;    1,930;   -0,045
394,184; 8429,205;    1,385;   -0,409
394,775; 8349,695;    1,839;    2,136
395,366; 8534,538;    1,385;    0,773
395,957; 8565,775;    0,113;    0,136
396,548; 8875,594;   -0,342;    2,682
397,139; 9196,363;   -2,433;    0,591
397,730; 8908,499;   -1,888;    0,955
398,321; 8934,492;   -1,252;    0,955
398,912; 8954,915;   -0,615;    0,136
399,503; 9025,849;   -3,524;   -1,409
400,094; 8444,754;    0,294;    1,682
400,685; 8315,782;   -0,433;    0,045
401,276; 8406,482;    0,930;   -0,955
401,867; 8744,730;   -0,888;    0,773
402,458; 8813,171;   -2,251;   -2,318
403,048; 8777,209;    1,112;    0,591
403,639; 8410,555;    0,840;    0,864
404,230; 8648,157;    2,476;    0,318
404,821; 8614,303;   -0,615;    0,045
405,411; 8759,125;    1,203;   -2,591
406,002; 8316,884;   -1,252;   -1,136
406,592; 8170,517;    2,294;    0,045
407,183; 8451,027;    0,566;   -1,500
407,774; 8406,678;    3,475;   -0,136
408,364; 8746,342;    0,930;    0,409
408,954; 8328,531;    0,384;    1,227
409,545; 8361,884;    1,021;    1,045
410,135; 7924,345;    1,293;    0,500
410,726; 8068,279;    1,838;    0,318
411,316; 8492,394;    0,111;    0,773
411,906; 8111,321;   -0,253;   -0,409
412,497; 7624,132;   -1,070;   -0,045
413,087; 8238,838;   -1,980;   -0,227
413,677; 8634,401;   -0,707;    3,864
414,267; 8468,083;    0,656;    1,409
414,857; 8517,013;   -2,980;    4,227
415,448; 8797,433;    0,839;    0,500
416,038; 8447,391;    0,020;   -0,591
416,628; 8412,482;   -0,889;    0,409
417,218; 7901,317;    0,565;    3,318
417,808; 8168,066;    0,202;   -0,409
418,398; 8653,646;    0,020;    2,682
418,988; 8661,178;    2,020;    0,591
419,578; 8911,027;   -0,707;    1,409
420,168; 9245,146;   -1,343;   -0,955
420,757; 8851,646;   -1,343;   -1,500
421,347; 8528,527;    0,111;   -0,227
421,937; 8687,821;    2,292;    1,409
422,527; 8651,048;    0,838;   -0,773
423,116; 8458,129;   -0,253;   -0,045
423,706; 8762,143;   -1,889;    0,318
424,296; 8752,863;    1,384;    0,682
424,885; 9208,226;   -0,071;   -3,045
425,475; 9499,006;    1,474;   -2,864
426,065; 9389,122;   -0,980;   -0,318
426,654; 9002,237;   -0,435;   -0,318
427,244; 9162,052;    0,020;    1,409
427,833; 8607,391;    1,383;   -0,500
428,423; 9066,803;   -0,526;    1,136
429,012; 9842,534;   -0,344;   -1,136
429,601; 9354,160;   -1,344;    0,136
430,191; 9582,373;    1,292;    4,318
430,780; 9232,779;   -0,344;   -0,409
431,369; 9179,164;    0,746;   -0,045
431,959; 9785,849;   -1,254;    0,500
432,548; 9569,618;   -1,163;   -0,045
433,137; 9697,205;   -1,254;   -1,318
433,726;10225,901;    0,292;    0,500
434,315; 9594,992;   -0,526;    2,409
434,905; 9692,527;   -1,254;    1,409
435,494; 9547,761;    0,746;    0,955
436,083; 9994,160;   -0,981;   -0,955
436,672; 9893,020;    0,110;    0,500
437,261; 9468,247;    0,292;   -1,955
437,850; 9592,817;    1,383;    0,682
438,439; 9611,279;    3,291;    1,955
439,027; 9452,125;    3,655;    1,773
439,616; 9776,136;    2,927;    1,227
440,205; 9631,129;    0,200;   -2,136
440,794; 9787,880;    2,109;   -0,045
441,383;10019,573;   -1,346;   -0,591
441,971; 9853,559;   -2,436;    0,591
442,560; 9697,219;    0,563;   -1,773
443,149; 9479,328;    0,379;   -1,318
443,737; 9631,608;   -0,074;   -2,318
444,326; 9896,048;    0,018;    0,318
444,915; 9952,608;   -1,982;    0,864
445,503;10360,024;   -2,891;   -0,318
446,092; 9588,597;    0,382;    2,136
446,680;10144,195;    0,382;    0,318
447,269;10324,195;   -0,346;   -0,318
447,857;10107,083;    0,018;   -1,773
448,445;10180,321;    0,563;    1,318
449,034;10413,695;   -1,528;   -1,136
449,622;10547,426;   -1,073;    3,500
450,210; 9794,485;    2,017;    2,227
450,799;10354,691;    0,290;   -0,591
451,387;10339,115;    1,381;   -0,591
451,975; 9935,712;    2,654;    0,864
452,563;10044,982;    3,472;    2,318
453,151;10054,810;   -0,528;   -1,227
453,739;10009,468;   -1,347;    0,136
454,328; 9831,754;    2,381;   -2,136
454,916; 9566,115;    2,562;   -0,136
455,504; 9739,730;    1,017;    1,227
456,092; 9900,989;    0,017;   -1,591
456,679; 9885,786;    1,472;    0,682
457,267; 9846,765;    4,017;    1,045
457,855;10006,503;    1,017;    1,409
458,443; 9790,223;   -0,165;    1,682
459,031; 9912,534;    0,108;    2,409
459,619;10351,003;   -1,801;    2,864
460,206;10495,338;    0,835;    2,045
460,794;10568,146;   -2,983;   -0,227
461,382;10820,555;   -0,529;   -0,864
461,970;10408,583;    1,198;    1,864
462,557;10396,335;   -0,711;   -0,682
463,145;10596,992;   -3,165;   -1,682
463,732;10741,831;    2,016;   -1,045
464,320;10709,038;   -0,075;   -3,045
464,907;10363,884;    2,743;   -0,773
465,495;10254,656;    0,743;   -1,227
466,082;10422,240;   -1,984;   -0,045
466,670;10356,436;   -2,529;    1,227
467,257;10771,653;   -1,711;    2,045
467,844;10905,898;   -0,075;    0,045
468,432;10939,307;    0,834;    3,500
469,019;10373,464;    0,925;   -1,773
469,606;10889,195;    0,470;    3,682
470,193;10707,108;   -1,439;    0,227
470,780;10250,702;   -2,075;    0,864
471,368;10624,251;   -1,257;   -0,773
471,955;10377,129;    1,379;   -0,682
472,542;10064,978;    0,652;   -1,136
473,129;10299,754;   -0,166;    0,136
473,716;10029,789;    1,470;    0,591
474,303;10226,433;    0,652;   -0,864
474,890;10558,265;   -1,439;   -0,500
475,477;10581,370;   -1,621;    0,409
476,064;10427,380;    1,106;   -1,591
476,650;10395,562;    0,288;    0,318
477,237;10241,471;   -0,258;    0,955
477,824;10412,160;   -1,076;    0,864
478,411;10392,601;   -1,894;   -0,318
478,997;10585,135;    0,560;   -0,773
479,584;10668,209;    1,196;   -0,409
480,171;11443,076;   -0,440;   -0,773
480,757;11085,384;    2,651;    0,773
481,344;11388,324;    0,469;    0,409
481,931;10917,394;    1,105;    1,045
482,517;12011,821;   -1,258;    0,318
483,104;12624,723;    1,106;    2,864
483,690;12897,824;   -1,804;    0,045
484,276;13204,660;   -0,895;    0,227
484,863;12948,796;    2,469;    1,136
485,449;13550,723;   -0,077;    0,318
486,035;13536,859;   -1,986;   -0,136
486,622;13960,513;   -0,895;    0,045
487,208;13899,894;    1,378;    1,500
487,794;13731,447;    0,741;    0,318
488,380;13856,111;    0,105;   -1,409
488,967;13930,247;   -1,168;   -0,409
489,553;13995,859;   -1,895;   -1,409
490,139;14186,835;    1,559;    0,773
490,725;13554,943;    0,741;   -0,227
491,311;13079,985;    3,287;    3,045
491,897;12396,905;   -0,986;    1,500
492,483;12188,510;    0,105;    1,227
493,069;12024,342;    3,923;    0,864
493,655;12035,712;    1,650;    0,682
494,241;11911,754;    1,377;   -0,955
494,826;12373,310;    0,287;   -1,045
495,412;11820,887;    2,559;   -0,682
495,998;11949,611;   -0,805;   -0,318
496,584;12056,415;    0,377;    1,045
497,169;12060,422;    1,014;   -0,682
497,755;12012,062;    0,650;    1,227
498,341;12613,419;    0,559;    0,318
498,926;12148,261;    1,832;    1,955
499,512;12361,024;    1,286;    2,955
500,097;12493,268;    0,195;   -0,318
500,683;12416,681;   -0,350;    2,136
501,268;12804,174;   -0,169;   -0,955
501,854;12522,457;   -0,169;    1,227
502,439;12435,555;   -0,624;   -1,773
503,024;12661,817;    0,195;    0,500
503,610;12708,020;   -0,078;   -0,682
504,195;12716,545;    0,558;    1,955
504,780;12835,824;    2,922;    1,227
505,366;12674,621;    3,013;    2,864
505,951;12374,156;    0,740;    1,045
506,536;12413,531;   -3,260;   -3,682
507,121;12400,338;    0,285;   -0,318
507,706;12889,622;    2,376;    1,045
508,291;13316,978;    2,649;    1,136
508,876;12763,293;   -0,988;    2,591
509,461;12227,492;   -0,169;   -0,773
510,046;12643,055;    0,194;    0,318
510,631;12899,450;   -0,351;   -0,773
511,216;12532,377;    2,467;   -0,500
511,801;12946,601;   -0,442;    2,591
512,386;13243,810;    0,740;    0,500
512,971;13157,181;   -2,988;    0,955
513,555;12751,447;   -0,897;   -1,500
514,140;13534,684;   -0,442;   -3,136
514,725;13533,219;   -0,715;   -1,136
515,309;13657,926;   -0,533;    0,318
515,894;13086,163;   -0,624;   -2,227
516,479;13509,744;   -0,624;   -0,955
517,063;13360,985;    0,376;    1,227
517,648;13524,999;    1,012;   -1,136
518,232;13178,293;   -0,261;   -1,409
518,817;13508,632;   -0,079;    1,682
519,401;13743,398;    2,194;    0,591
519,985;13236,097;    1,103;    1,136
520,570;13123,101;    0,830;   -1,955
521,154;13397,936;    2,102;    0,591
521,738;13589,852;   -2,352;    2,409
522,323;14176,188;   -0,170;    1,682
522,907;13880,628;    0,466;   -0,136
523,491;13595,548;    0,557;    0,955
524,075;13579,796;    2,284;    0,591
524,659;13666,041;    1,466;    0,591
525,243;13144,723;    1,739;    0,409
525,827;13391,496;    0,648;   -0,045
526,411;14265,950;   -1,989;   -0,136
526,995;14470,772;   -0,352;    1,409
527,579;14036,447;   -0,443;   -1,045
528,163;14366,807;    0,375;   -1,500
528,747;14297,698;    2,466;   -0,773
529,331;14584,349;   -0,080;   -1,409
529,915;14762,845;    1,738;    0,955
530,499;14749,450;   -0,807;    1,227
531,082;14463,258;   -0,534;    1,591
531,666;13908,747;    1,374;    0,773
532,250;14584,856;    1,284;    2,682
532,833;14943,244;    0,920;    2,773
533,417;14783,010;   -1,807;    0,864
534,001;14790,289;    1,647;   -0,318
534,584;15495,576;    0,374;    0,500
535,168;15314,387;    0,465;    1,409
535,751;15358,055;    0,647;    0,045
536,334;14795,723;   -0,898;   -0,409
536,918;15401,017;    0,011;    1,591
537,501;15514,975;   -0,899;    1,318
538,085;15505,454;   -0,444;    1,045
538,668;15681,884;    0,829;    2,409
539,251;16017,132;    1,829;    3,773
539,834;16008,300;    0,101;    0,773
540,418;15972,702;   -1,990;    4,318
541,001;16077,006;   -0,990;    1,773
541,584;16068,957;    2,101;    2,227
542,167;15741,020;    1,374;    2,955
542,750;15876,719;    1,919;   -0,773
543,333;15477,621;    0,555;    2,136
543,916;16276,940;    0,192;    2,500
544,499;16860,398;   -1,354;    0,227
545,082;16914,559;    1,374;    3,591
545,665;17041,835;    1,919;    1,500
546,248;17392,621;    1,010;   -0,318
546,830;17015,754;   -0,445;    1,955
547,413;17434,349;    1,010;   -0,773
547,996;17971,635;    0,555;    0,500
548,579;17755,027;    0,919;    0,955
549,161;17536,097;    1,828;    2,682
549,744;17319,761;   -0,809;    0,409
550,326;17781,677;   -0,809;   -1,136
550,909;17618,786;    2,737;    0,591
551,492;18007,111;   -0,263;    0,227
552,074;17848,391;   -0,173;   -1,318
552,657;18398,363;    2,373;    0,045
553,239;18105,744;   -0,173;   -0,773
553,821;17984,674;   -1,082;    1,045
554,404;17514,600;    1,282;    1,136
554,986;17906,279;    0,464;    1,045
555,568;18519,660;    1,191;   -0,955
556,151;17749,090;    1,191;   -0,227
556,733;17932,170;   -0,264;   -0,864
557,315;18432,010;    0,100;    0,500
557,897;18192,873;    0,554;   -0,500
558,479;18318,275;   -1,991;    1,318
559,061;18520,198;   -0,719;   -0,864
559,643;18859,118;   -0,264;    0,045
560,225;19202,912;    1,645;    2,864
560,807;19196,936;    0,918;    0,318
561,389;18639,744;    0,554;    2,318
561,971;19469,422;    0,463;    2,136
562,553;19241,779;   -1,628;    1,591
563,135;19368,163;   -0,537;    1,136
563,717;18986,674;    3,372;    1,136
564,298;19729,922;    3,645;   -0,045
564,880;19453,496;    0,645;   -1,409
565,462;19597,587;    0,645;    1,318
566,043;20813,594;   -0,446;    2,318
566,625;20337,772;    1,918;    1,227
567,207;20179,380;    1,099;    1,682
567,788;21333,216;   -1,264;    1,500
568,370;22181,635;    1,917;   -0,500
568,951;22029,118;    0,190;    0,227
569,533;22909,321;   -0,628;   -0,500
570,114;23376,838;   -0,446;    0,682
570,695;23871,156;   -0,174;   -1,318
571,277;24365,198;   -0,265;   -1,682
571,858;25122,559;    2,008;   -1,136
572,439;25979,754;    1,554;   -1,045
573,021;26155,698;    2,099;   -2,773
573,602;26684,017;   -1,265;    0,318
574,183;27542,031;   -2,083;    2,227
574,764;27707,716;   -1,629;    0,409
575,345;28321,573;    0,917;   -0,136
575,926;28920,940;   -0,356;    0,136
576,507;28824,195;    1,099;   -0,227
577,088;30003,891;    3,099;    1,682
577,669;30008,017;    0,735;    1,955
578,250;30825,394;    0,644;   -1,045
578,831;31470,027;   -1,356;   -2,227
579,412;31630,174;   -0,810;    0,955
579,993;32505,153;    1,008;    0,227
580,573;32851,552;   -0,629;   -0,955
581,154;31848,961;    0,735;   -0,591
581,735;32755,709;    0,644;    0,773
582,315;32243,163;   -0,629;    2,136
582,896;32402,807;   -0,174;    1,227
583,477;31875,345;    0,189;    1,227
584,057;32105,121;    0,553;    0,955
584,638;32421,698;    2,553;    2,318
585,218;32396,751;   -0,538;    2,682
585,799;32560,663;    0,281;   -0,227
586,379;32490,709;    0,372;    1,591
586,959;31268,093;    0,735;    0,318
587,540;30554,104;   -0,629;    2,227
588,120;30080,233;    1,007;   -0,045
588,700;29049,003;    2,553;    2,136
589,281;29492,943;    0,462;   -0,955
589,861;29448,814;    0,099;   -1,682
590,441;29207,132;    2,371;   -2,682
591,021;28164,695;   -0,265;   -2,591
591,601;28352,170;   -0,537;    0,500
592,181;28340,461;   -0,719;   -0,773
592,761;27631,209;    0,007;    1,409
593,341;27592,422;   -0,901;    0,045
593,921;27621,132;   -0,265;    1,591
594,501;27511,852;   -0,538;    1,318
595,081;27379,702;    0,917;   -0,318
595,661;27710,709;   -1,447;    0,955
596,240;28267,656;   -0,537;    0,136
596,820;27918,985;    0,372;    1,955
597,400;28058,003;    2,008;    0,773
597,980;28237,933;    2,008;    1,045
598,559;28261,719;    2,735;   -0,227
599,139;28012,286;   -0,174;   -1,227
599,718;27921,195;   -0,174;   -0,409
600,298;28184,569;    0,735;    0,682
600,877;28402,852;    2,917;    1,409
601,457;28672,545;    2,281;    1,136
602,036;28529,712;    0,190;    2,045
602,616;28805,475;    0,644;    1,682
603,195;29125,268;   -0,355;    3,500
603,774;28699,621;   -0,901;    2,045
604,354;28544,688;    0,826;   -0,500
604,933;28022,251;    0,463;    1,864
605,512;28155,485;    3,554;    0,591
606,091;28227,667;   -0,537;    3,773
606,671;28993,335;    0,281;    0,773
607,250;28154,251;    1,644;    3,136
607,829;28411,625;    2,372;    3,227
608,408;28195,992;    1,190;    2,591
608,987;27238,975;    1,281;    3,409
609,566;27556,894;   -1,265;   -2,500
610,145;27650,321;   -1,082;    0,682
610,723;28069,639;    4,372;    6,864
611,302;27302,307;   -0,446;    1,682
611,881;26869,880;    5,008;   11,227
612,460;27693,587;    1,645;    3,955
613,039;28088,275;   -0,082;    2,045
613,617;26843,034;    1,736;    4,773
614,196;26983,800;    1,099;    1,227
614,775;27372,146;    1,009;    2,409
615,353;27316,349;    0,736;    0,864
615,932;27089,691;    0,100;    2,409
616,510;27622,870;    0,554;    0,591
617,089;27115,125;    7,100;   17,591
617,667;26866,331;    2,372;    6,136
618,246;26753,594;   -1,537;    1,318
618,824;26888,485;   -3,355;   -0,955
619,402;26459,489;   -2,900;   -1,773
619,981;26952,080;   -0,173;   -1,045
620,559;26765,562;    0,009;    1,682
621,137;26253,552;   -0,718;    1,864
621,715;26333,779;   -1,173;   -0,682
622,293;26311,880;   -0,537;   -0,773
622,871;26716,373;   -0,718;    0,500
623,450;26283,566;    0,373;   -0,864
624,028;26175,681;    0,191;   -0,955
624,606;25771,492;   -1,718;    1,682
625,183;26181,957;   -1,536;   -1,136
625,761;25809,681;    1,009;    1,136
626,339;26142,569;    1,373;    2,591
626,917;26502,789;   -0,172;   -0,045
627,495;26557,286;   -0,354;    1,318
628,073;26000,810;   -0,263;    2,864
628,650;25649,954;    0,100;    2,136
629,228;26111,583;    0,373;    4,409
629,806;25516,597;    2,282;    1,136
630,383;25758,961;    1,464;   -0,318
630,961;25557,901;    2,555;   -0,955
631,539;25306,559;    2,464;    0,227
632,116;24680,992;   11,373;   15,409
632,694;25235,513;    2,555;    6,500
633,271;25542,796;    0,828;    2,682
633,848;25481,118;    1,828;    2,045
634,426;25451,730;   -1,081;    1,773
635,003;24580,573;    1,101;   -0,409
635,580;24923,559;    1,192;    3,682
636,158;25518,352;    3,737;    1,227
636,735;25501,282;    0,555;   -0,500
637,312;25610,922;   -0,809;   -0,682
637,889;25739,135;   -4,354;   -0,682
638,466;25216,447;   -3,990;   -0,409
639,043;25251,740;    2,101;   -1,136
639,620;25573,160;   -2,262;   -0,955
640,197;25794,378;    1,100;    1,682
640,774;25911,069;   -0,172;    1,136
641,351;26357,850;    0,737;    1,136
641,928;25778,540;   -0,627;    1,409
642,505;25458,867;    0,828;   -0,500
643,082;25592,921;   -1,718;    1,227
643,658;24599,611;   -0,718;    1,500
644,235;25354,392;    1,191;    2,500
644,812;25698,355;    1,918;    0,773
645,388;25389,409;   -0,991;    1,409
645,965;25503,463;   -0,809;    1,682
646,542;25548,699;   -1,445;   -0,227
647,118;25529,935;    1,009;   -0,955
647,695;25793,080;   -0,263;    1,136
648,271;25737,134;   -0,536;    0,500
648,848;26058,824;    0,736;    2,227
649,424;25965,060;    0,827;    1,318
650,000;25670,023;   -0,354;   -1,045
650,577;25459,895;   -0,627;   -0,955
651,153;25939,676;   -1,809;    0,955
651,729;26930,639;    1,191;    0,864
652,305;27454,966;    0,645;    2,773
652,881;32546,383;   -0,082;    1,136
653,458;39389,165;    1,100;    0,227
654,034;42804,310;    0,282;    1,591
654,610;44013,909;    0,554;    0,773
655,186;45215,236;    0,645;    3,045
655,762;44907,562;   -0,991;    0,409
656,338;44864,707;    0,100;    0,136
656,913;45779,761;   -0,082;    0,409
657,489;44976,270;    0,827;   -0,318
658,065;44897,051;   -0,173;   -1,591
658,641;45554,196;   -0,900;   -0,864
659,217;44842,432;   -0,991;    0,409
659,792;44219,940;    0,645;   -0,409
660,368;44368,903;   -2,173;   -0,682
660,944;43838,593;   -2,082;    1,227
661,519;38708,647;   -0,628;    0,409
662,095;32847,338;   -1,719;    0,591
662,670;28666,483;    1,281;   -0,136
663,246;27726,627;    1,009;   -0,409
663,821;27137,409;    0,281;    1,682
664,396;26654,463;    0,009;    1,864
664,972;26926,426;    0,009;   -0,500
665,547;27236,298;    1,372;    0,136
666,122;27309,715;   -1,082;    0,318
666,698;27588,951;   -0,173;    0,318
667,273;26939,823;   -0,173;    0,136
667,848;27770,423;    2,372;    1,500
668,423;27580,022;    2,190;    2,318
668,998;28145,258;    2,827;   -0,682
669,573;28669,130;   -3,264;   -1,500
670,148;28498,366;   -1,446;   -0,682
670,723;28302,602;   -1,810;    0,318
671,298;28682,474;    2,372;    1,045
671,873;28808,800;   -0,082;   -0,136
672,448;28742,945;    0,645;    0,136
673,023;29063,727;   -1,992;   -0,227
673,597;29386,599;    0,827;    2,318
674,172;29245,380;   -0,355;    0,318
674,747;28678,707;    0,372;   -1,045
675,321;28520,851;   -0,628;    3,318
675,896;28110,542;    0,645;    1,045
676,471;29055,596;    2,645;    1,591
677,045;28866,922;   -1,264;    0,682
677,620;28856,249;    0,190;    1,136
678,194;29217,849;   -2,628;    1,136
678,769;28803,266;   -1,083;   -0,318
679,343;29097,593;   -0,628;    1,773
679,917;28941,465;   -1,446;    1,955
680,492;28989,973;    0,826;    3,227
681,066;29142,846;    3,372;    0,409
681,640;29212,536;    1,463;   -0,318
682,214;30043,317;    0,735;    0,500
682,788;29557,007;   -1,356;   -0,773
683,363;29474,243;   -1,810;    1,682
683,937;29188,388;   -1,719;   -0,318
684,511;29944,260;    0,463;   -0,591
685,085;29636,132;   -1,356;    0,318
685,659;29357,914;   -2,538;    0,864
686,232;29687,331;   -0,356;   -0,318
686,806;29338,476;   -0,901;    0,409
687,380;30017,439;   -0,174;    0,591
687,954;30175,039;   -1,174;    1,136
688,528;29873,002;   -0,719;    1,955
689,101;30683,692;   -3,992;    1,045
689,675;30286,291;   -0,356;   -0,136
690,249;29685,982;   -0,719;    0,409
690,822;29939,036;    0,280;    0,318
691,396;30063,908;   -0,265;    1,227
691,969;29520,144;    1,280;    0,136
692,543;29948,016;   -0,447;   -1,955
693,116;29585,888;   -0,265;   -1,409
693,690;29482,124;    0,099;    0,500
694,263;30007,541;   -1,083;    2,955
694,836;30078,141;    1,371;    3,591
695,410;28738,831;   -0,265;    1,773
695,983;29159,703;    0,189;    0,591
696,556;29170,757;   -0,447;   -1,045
697,129;29546,538;   -0,356;    1,409
697,703;29193,410;   -1,629;    1,955
698,276;29162,646;    1,462;   -0,773
698,849;28984,518;    1,280;    1,409
699,422;29314,845;   -1,083;    0,591
699,995;29043,172;    0,007;    0,136
700,568;29520,862;   -0,629;    3,045
701,140;29566,280;   -2,811;    1,682
701,713;29355,243;   -0,174;    2,409
702,286;29039,115;   -0,538;    0,864
702,859;28940,351;   -0,902;   -0,591
703,432;28161,223;    0,825;    0,682
704,004;28610,458;    0,462;    0,318
704,577;28487,422;   -0,629;    0,136
705,150;29062,839;    0,189;    2,500
705,722;28805,984;   -0,356;   -3,227
706,295;28604,402;   -0,175;   -0,591
706,867;28452,728;   -0,175;    1,955
707,440;28705,055;   -1,720;   -0,409
708,012;28985,200;    0,462;    0,591
708,584;28855,981;    2,462;    0,227
709,157;29087,217;    1,825;   -0,591
709,729;28750,453;    2,280;    2,045
710,301;29617,416;    0,734;    0,045
710,874;29652,924;   -1,447;   -0,227
711,446;28491,887;    0,371;    0,864
712,018;28359,396;    0,098;    0,500
712,590;28114,086;   -1,993;    1,682
713,162;28617,140;    0,825;    1,318
713,734;28867,648;    1,825;   -2,045
714,306;28779,339;   -1,902;   -0,409
714,878;27428,665;    0,825;    0,864
715,450;28302,447;    0,643;    0,864
716,022;28529,410;    1,552;    1,318
716,593;28692,736;    0,189;    0,591
717,165;28658,609;   -3,175;   -1,227
717,737;28378,753;    0,280;    0,409
718,309;27955,080;    0,280;   -0,045
718,880;27913,589;   -0,539;   -1,409
719,452;28199,824;   -0,175;   -1,591
720,024;27796,878;    0,734;   -0,591
720,595;28349,205;   -2,902;    0,955
721,167;27868,532;    0,370;   -2,045
721,738;27419,404;   -0,812;   -1,045
722,309;27388,821;   -0,993;   -1,227
722,881;27215,057;   -1,357;    0,773
723,452;27812,384;   -2,630;    2,864
724,023;27966,802;   -0,721;    2,682
724,595;27782,583;    0,007;    0,682
725,166;27483,728;    0,007;   -0,409
725,737;27211,054;    1,734;    0,227
726,308;27231,199;   -0,266;    0,318
726,879;27636,344;   -1,630;    1,227
727,450;27567,671;    0,552;   -0,045
728,021;27570,907;    3,097;    0,682
728,592;27319,415;    0,734;    0,500
729,163;27616,378;    0,643;   -0,136
729,734;27639,341;    0,188;   -0,227
730,305;28025,122;    1,734;    0,136
730,876;28355,449;    0,188;    2,955
731,447;28111,048;    2,188;    2,682
732,017;28214,193;    1,097;    1,864
732,588;27643,793;    0,734;    1,227
733,159;27877,210;    0,643;   -1,045
733,729;27641,446;    0,006;    0,409
734,300;26978,500;    0,915;    0,864
734,870;27330,463;    3,461;    0,591
735,441;27922,881;    0,370;   -0,591
736,011;27693,116;    0,643;   -1,591
736,582;27677,261;   -0,812;    0,045
737,152;27104,952;   -1,721;   -2,045
737,722;27528,006;   -0,267;   -0,682
738,293;27239,060;   -1,358;    1,318
738,863;27095,750;    2,461;    2,318
739,433;26948,895;    5,279;    0,318
740,003;27546,767;   -0,994;   -0,682
740,573;26990,275;    2,097;   -1,591
741,143;26932,329;   -1,085;    0,318
741,713;27689,474;    1,188;   -0,500
742,283;27470,437;    0,915;    1,591
742,853;27174,219;    1,915;    1,591
743,423;26568,182;    1,733;    0,045
743,993;26793,417;   -0,358;    1,500
744,563;26110,835;    0,097;   -0,864
745,133;26108,162;   -0,812;   -0,864
745,702;26694,125;   -0,267;    1,773
746,272;25970,906;   -0,176;    0,591
746,842;25714,687;   -1,358;   -0,591
747,411;26148,468;   -0,267;   -0,318
747,981;26339,886;    0,097;    0,500
748,551;26349,576;    2,278;   -1,045
749,120;26233,176;    0,642;   -0,227
749,690;26623,684;   -0,631;    2,409
750,259;26940,102;    1,369;    2,955
750,828;26887,065;    1,551;   -1,955
751,398;27153,210;    1,278;   -0,045
751,967;26724,627;    2,187;    0,409
752,536;26915,954;   -0,813;   -0,227
753,105;27299,462;    0,096;    0,227
753,675;27096,516;    0,096;    1,773
754,244;27025,752;   -0,904;    3,591
754,813;27047,079;    0,551;    1,227
755,382;26620,042;    0,460;    0,955
755,951;27224,278;    1,551;    3,682
756,520;26738,241;   -0,085;    1,864
757,089;27338,022;    0,278;    0,500
757,658;27515,803;    1,733;    1,227
758,227;27452,039;    1,096;    0,318
758,795;27751,548;    1,187;    1,136
759,364;27955,329;   -0,086;   -0,591
759,933;26981,019;   -1,176;   -0,045
760,501;26473,982;    0,733;   -1,318
761,070;26907,036;   -2,813;   -1,409
761,639;27661,454;   -1,904;    1,318
762,207;27025,053;    1,551;   -0,955
762,776;26985,107;    0,369;    0,864
763,344;26963,161;   -0,995;    0,591
763,913;26018,579;   -0,722;    1,409
764,481;26793,269;    1,005;   -0,136
765,049;26574,232;   -1,358;    1,409
765,618;26427,559;   -0,086;    0,318
766,186;26443,431;    0,278;    0,136
766,754;26618,939;    0,005;    1,864
767,322;25674,448;   -1,995;    0,409
767,890;25728,138;   -0,722;   -1,773
768,459;26093,192;   -2,177;   -0,318
769,027;26281,882;    1,641;    3,409
769,595;25252,755;    3,278;    2,591
770,163;25703,172;    3,823;    2,955
770,730;25430,317;    0,732;   -0,136
771,298;25234,462;    0,187;   -1,409
771,866;25361,789;   -1,541;    4,955
772,434;25691,297;   -0,631;   -1,864
773,002;25875,442;    0,005;    0,682
773,569;25525,496;    0,914;    1,682
774,137;25321,913;   -0,268;   -0,045
774,705;26096,786;    0,278;   -0,136
775,272;25575,749;    0,641;    0,682
775,840;25319,166;   -0,177;    2,682
776,407;24924,129;    0,277;    1,955
776,975;24530,456;   -0,632;    0,318
777,542;25492,237;   -1,086;   -0,045
778,110;25329,200;   -1,268;   -0,045
778,677;24982,709;   -2,359;   -0,864
779,244;24761,763;    2,186;    1,045
779,812;24908,999;    1,823;    0,864
780,379;24723,143;    0,005;    1,136
780,946;24966,379;    1,005;   -0,773
781,513;25333,888;   -1,450;    0,318
782,080;24730,578;   -0,086;    2,864
782,647;25454,996;   -0,268;    3,045
783,214;24997,140;   -0,177;    3,864
783,781;24612,467;   -0,723;   -0,682
784,348;24498,976;   -0,632;    1,500
784,915;24934,302;   -3,177;    0,318
785,482;24694,720;    1,368;    2,591
786,049;25134,774;    0,186;   -0,591
786,615;25239,191;    0,277;   -0,955
787,182;24993,791;    0,186;   -0,682
787,749;24657,572;   -2,814;    1,409
788,315;24035,899;   -1,632;   -0,409
788,882;24292,862;    1,550;   -1,227
789,448;25031,279;    1,732;   -0,955
790,015;25025,333;    1,095;    3,227
790,581;24584,024;    1,459;    0,227
791,148;24472,259;    0,641;    1,045
791,714;24669,586;   -0,541;    3,136
792,280;24354,458;    0,186;    1,591
792,847;23915,785;    0,550;    2,500
793,413;24461,203;   -0,269;   -0,318
793,979;24050,711;    3,459;   -1,318
794,545;24128,492;    4,459;    2,682
795,111;23519,546;    2,186;    1,318
795,678;23718,600;    0,731;   -1,682
796,244;23338,472;    3,368;    0,136
796,810;23893,526;    1,731;    0,773
797,375;23648,489;    0,549;   -2,136
797,941;23634,089;   -0,541;    0,591
798,507;23805,870;   -0,451;   -0,955
799,073;23310,924;   -0,360;    0,591
799,639;23334,069;   -2,632;    3,136
800,205;23358,305;    0,095;    2,682
800,770;22943,086;    0,640;    1,773
801,336;23061,503;    1,368;   -0,955
801,901;22754,557;    4,549;    3,136
802,467;23272,975;   -0,542;    2,045
803,033;22651,665;   -0,087;    0,864
803,598;22911,537;    1,913;   -1,045
804,163;22896,228;    1,095;   -0,318
804,729;22859,373;   -0,178;    1,136
805,294;23228,518;    0,822;    2,227
805,859;23075,026;    0,731;   -0,409
806,425;22554,716;    1,186;    2,682
806,990;22172,043;    2,186;    4,318
807,555;22643,642;   -1,451;    2,591
808,120;22557,151;    0,822;   -0,409
808,685;22591,569;    0,185;   -2,500
809,250;22123,804;    0,004;   -0,500
809,815;22464,586;    1,913;    0,682
810,380;22986,912;   -0,269;    1,591
810,945;23513,239;   -1,087;    2,045
811,510;22625,475;    2,094;    1,591
812,075;22315,256;   -0,633;   -1,409
812,640;22390,401;    2,003;    1,409
813,204;22454,364;    0,822;   -0,227
813,769;22880,509;    2,094;   -0,045
814,334;22319,381;    0,458;    0,864
814,898;22447,798;    0,367;    0,591
815,463;22328,398;    1,276;   -0,773
816,027;22309,179;   -0,724;   -2,318
816,592;22321,415;    0,640;   -2,045
817,156;21864,742;    2,094;    1,136
817,721;21747,068;    4,276;    2,318
818,285;21695,395;    2,912;    1,500
818,849;22345,267;   -1,451;    1,682
819,414;22214,230;   -0,269;    2,955
819,978;21812,557;   -1,269;    1,773
820,542;22372,338;    2,003;    0,500
821,106;22084,574;   -0,815;    0,682
821,670;22231,446;   -0,815;    2,591
822,234;21956,409;   -0,270;    1,409
822,798;21315,827;    0,003;    0,500
823,362;21299,335;   -0,633;    4,227
823,926;20608,753;    0,094;    1,136
824,490;20829,716;   -0,997;   -0,682
825,054;21260,861;   -0,088;   -1,136
825,618;20871,278;   -1,542;   -1,500
826,181;20820,241;    0,458;   -1,318
826,745;20761,568;    1,367;   -1,045
827,309;21130,076;    1,185;    1,318
827,872;20440,494;    1,367;    0,955
828,436;21423,730;    1,185;   -0,773
828,999;21440,966;   -0,997;    1,227
829,563;20293,474;   -0,179;    1,136
830,126;20121,619;   -0,179;   -0,591
830,690;20149,037;   -1,997;    2,864
831,253;19658,636;   -0,543;    2,227
831,816;19829,144;   -1,906;    0,500
832,380;19728,289;    0,185;    0,864
832,943;19942,343;   -1,361;   -0,500
833,506;19406,215;    2,639;   -1,227
834,069;20222,088;    3,912;   -0,955
834,632;20301,414;    1,730;    1,318
835,195;20188,923;    1,003;    0,955
835,758;19346,704;   -0,997;    1,955
836,321;19201,031;    0,730;   -1,045
836,884;19300,630;   -0,725;   -0,955
837,447;19330,775;   -2,816;    1,773
838,010;19630,011;    0,366;    3,227
838,573;19876,610;   -1,179;    0,773
839,135;19869,391;   -1,361;   -0,955
839,698;19323,264;    1,275;    0,409
840,261;18831,136;    1,003;   -0,227
840,823;18658,190;   -0,543;    0,864
841,386;18993,880;   -0,452;   -2,409
841,948;18882,479;   -1,361;    1,773
842,511;18590,806;    0,912;    1,682
843,073;18726,042;    1,912;    0,227
843,636;18521,823;   -0,361;   -0,227
844,198;18500,877;    0,911;    0,591
844,760;18636,840;    1,093;    1,955
845,322;18249,530;    0,548;    1,136
845,885;18745,402;    0,730;    0,591
846,447;19137,093;   -1,998;    0,227
847,009;18725,692;    1,911;   -0,682
847,571;19026,292;    0,820;   -2,045
848,133;19119,982;   -1,089;   -1,864
848,695;18961,854;   -0,543;    1,409
849,257;18516,635;   -1,089;   -1,682
849,819;18719,417;   -0,998;   -0,409
850,381;18691,471;   -0,725;   -0,864
850,942;19068,161;    1,093;   -0,591
851,504;19078,033;    1,184;    0,227
852,066;19068,360;    1,275;   -1,591
852,628;18592,050;   -0,180;    1,955
853,189;18161,104;    1,638;    2,682
853,751;18241,976;   -0,907;    1,409
854,312;18048,394;   -0,453;   -1,682
854,874;18588,720;   -2,089;   -0,773
855,435;19101,956;   -0,907;   -1,682
855,997;19272,828;   -1,816;   -0,136
856,558;18567,064;    0,366;    1,773
857,119;18652,391;    0,820;    2,864
857,681;18325,808;    0,002;    0,318
858,242;18400,317;    1,911;   -2,136
858,803;18829,644;    0,456;   -0,773
859,364;19382,516;    0,184;   -4,773
859,925;18689,388;   -2,453;   -0,955
860,486;18569,442;   -0,453;   -0,955
861,047;18304,405;   -0,544;   -1,227
861,608;18156,732;   -1,089;   -0,773
862,169;18234,513;    0,638;   -0,045
862,730;18035,112;    0,456;    1,409
863,291;18314,348;   -0,635;   -0,500
863,852;18663,129;   -0,635;    1,955
864,412;18122,638;   -0,271;   -0,864
864,973;16684,510;   -0,089;    0,500
865,534;16577,564;   -1,726;    0,227
866,094;18062,800;    1,820;    0,227
866,655;17713,490;    1,274;    3,318
867,215;17976,635;    0,274;    0,136
867,776;17852,961;    0,547;   -0,136
868,336;17942,834;   -1,453;    0,136
868,897;17442,524;    2,638;    1,682
869,457;17148,214;    1,365;    0,318
870,017;17382,723;    0,547;   -1,227
870,578;17912,777;   -0,817;    0,773
871,138;17606,376;   -2,089;   -0,955
871,698;17124,157;   -0,817;   -1,318
872,258;17003,575;   -0,453;   -2,864
872,818;17411,992;    2,729;    0,045
873,378;17351,046;    0,638;    1,045
873,938;16882,646;    0,547;    0,500
874,498;17263,245;    0,274;   -1,955
875,058;17174,663;    2,183;    1,773
875,618;17009,353;    1,910;   -2,682
876,177;16914,589;    1,274;    0,136
876,737;16499,007;   -0,090;    1,955
877,297;16552,424;    0,183;    1,955
877,856;16564,024;   -0,362;    0,318
878,416;16516,078;    1,183;   -0,136
878,976;16737,950;   -1,817;    0,409
879,535;16891,004;    0,092;    3,136
880,095;16619,058;   -0,544;    0,045
880,654;16749,657;   -1,090;    1,318
881,213;16869,802;    2,456;    1,500
881,773;16511,219;    2,637;    2,682
882,332;16868,546;    3,365;    5,136
882,891;16737,600;    3,092;    2,136
883,451;17152,563;   -1,272;    1,682
884,010;16583,617;   -2,908;   -0,409
884,569;16707,489;   -0,999;   -0,045
885,128;16869,543;    2,819;   -1,864
885,687;16996,415;    4,455;    0,682
886,246;16629,469;    1,455;    2,136
886,805;16406,069;    2,455;    2,045
887,364;16645,759;   -0,999;   -0,500
887,922;17034,449;   -1,181;    0,045
888,481;16511,867;   -1,545;    0,591
889,040;16857,648;    1,183;    2,136
889,599;17521,793;    2,455;    1,409
890,157;17599,574;    1,455;    2,409
890,716;17255,446;   -0,090;    0,227
891,274;17048,409;    0,092;   -1,136
891,833;17469,463;    1,546;    0,864
892,391;17348,699;   -0,454;    0,500
892,950;17442,390;    1,819;   -0,773
893,508;17803,443;    0,455;   -0,409
894,067;17127,770;    0,637;    0,136
894,625;17010,279;   -0,636;   -1,500
895,183;17278,696;   -0,363;   -0,682
895,741;17171,750;    1,728;   -1,773
896,299;17016,713;   -0,545;   -2,409
896,858;17170,767;    0,819;   -1,591
897,416;17294,458;    2,728;   -1,318
897,974;17053,239;    1,819;    0,318
898,532;17208,838;    6,091;    2,682
899,089;17130,256;    2,091;   -0,682
899,647;17163,219;   -1,454;    1,318
900,205;16915,818;    1,182;    1,045
900,763;17106,872;   -0,454;    0,227
901,321;17103,381;    2,364;   -1,409
901,878;16491,162;   -1,000;   -0,773
902,436;16374,489;   -1,363;    1,318
902,994;16804,543;    4,728;    3,682
903,551;16233,415;    0,728;    0,409
904,109;16581,469;    0,182;   -1,409
904,666;16180,704;    2,455;    1,045
905,224;15981,577;    0,182;   -0,409
905,781;15765,631;    0,727;   -0,318
906,338;15826,775;   -1,363;    1,045
906,895;15743,829;    0,637;    2,045
907,453;15680,338;    1,727;    1,136
908,010;15712,937;   -0,909;    0,409
908,567;15369,264;    1,273;    0,591
909,124;14839,772;    0,364;   -1,500
909,681;14969,281;   -2,909;    0,682
910,238;15066,699;    0,636;   -1,318
910,795;15424,025;   -0,273;   -1,136
911,352;15024,753;   -2,909;   -2,682
911,909;14435,571;   -1,364;   -0,864
912,466;14950,025;   -3,182;    1,500
913,022;14478,571;   -1,636;    0,500
913,579;14814,662;   -0,909;    2,045
914,136;14547,025;    1,636;    0,955
914,692;14873,207;    0,091;   -1,227
915,249;14494,116;    1,455;    0,409
915,806;14717,843;    0,182;    1,955
916,362;14473,843;    1,909;    1,864
916,918;14037,116;    2,000;    1,045
917,475;14025,025;   -1,182;    0,955
918,031;14060,934;    3,364;   -0,045
918,587;13531,025;   -0,909;   -0,318
919,144;13766,298;   -2,273;    0,227
919,700;14069,934;    1,727;    0,773
920,256;13631,207;    0,727;    0,045
920,812;13257,662;   -0,727;   -1,045
921,368;13256,480;   -1,727;   -1,045
921,924;12868,571;    0,182;   -0,136
922,480;12486,480;   -0,545;    1,227
923,036;13095,480;    1,273;    1,955
923,592;13019,571;    0,455;    0,318
924,148;12942,571;    0,455;   -0,955
924,704;12271,480;   -1,364;   -0,409
925,259;12485,025;   -0,273;    0,591
925,815;12271,389;    1,455;    0,500
926,371;11791,298;    2,909;    1,409
926,926;11678,389;    2,091;    0,591
927,482;11331,843;   -1,364;    0,773
928,037;11234,298;    0,909;    2,045
928,593;11516,298;    1,636;    1,045
929,148;11309,298;   -1,818;   -1,500
929,704;10827,298;   -1,455;   -0,500
930,259;11047,025;    0,091;   -0,136
930,814;10137,571;   -0,818;    1,955
931,369; 9783,207;    1,091;   -0,773
931,925; 9633,025;   -0,091;    0,136
932,480; 9588,934;   -2,818;   -2,591
933,035; 9482,662;    0,545;   -0,318
933,590; 9234,025;    0,364;   -1,773
934,145; 8864,753;   -1,364;   -0,318
934,700; 9189,480;    0,455;   -0,591
935,255; 9025,116;   -0,091;    0,045
935,809; 8310,843;    3,182;    0,864
936,364; 7441,843;   -0,455;   -0,136
936,919; 7408,298;    0,455;   -1,773
937,474; 7293,298;    1,455;    0,136
938,028; 7040,480;   -1,636;    1,136
938,583; 6549,207;    1,818;    4,682
939,138; 6803,025;    2,091;    2,136
939,692; 6232,843;    1,636;   -1,136
940,247; 5936,389;   -0,727;   -1,045
940,801; 5518,389;   -0,636;    0,227
941,355; 5386,207;   -0,364;    2,591
941,910; 5054,662;   -0,273;   -2,136
942,464; 5193,934;   -0,818;   -0,318
943,018; 4978,116;    1,000;   -0,227
943,572; 4901,480;    2,545;   -0,682
944,126; 4332,480;    0,091;   -0,409
944,681; 4214,116;    3,091;    0,227
945,235; 4188,843;    1,000;   -0,591
945,789; 4137,207;    0,364;   -1,864
946,342; 4252,389;    0,455;   -0,591
946,896; 4066,025;   -2,273;    0,955
947,450; 3828,934;    1,545;   -0,227
948,004; 4021,480;    1,727;   -0,045
948,558; 4009,571;    0,273;   -0,864
949,111; 3923,116;   -0,273;   -0,318
949,665; 3956,571;    1,636;   -0,682
950,219; 3841,753;   -0,091;   -1,045
950,772; 3931,207;   -1,909;    1,864
951,326; 3828,025;    0,545;   -0,955
951,879; 3954,571;    0,727;   -2,318
952,433; 3973,116;    0,000;    2,227
952,986; 3790,662;    2,909;    0,682
953,539; 3763,753;   -0,273;    0,591
954,093; 3686,843;    0,545;   -1,318
954,646; 3811,207;    0,909;    1,318
955,199; 3622,389;    0,000;   -0,500
955,752; 3522,207;   -0,455;    1,773
956,305; 3476,571;   -0,091;    2,955
956,858; 3646,025;    0,818;   -0,318
957,411; 3807,843;   -0,545;    2,136
957,964; 3645,116;    1,364;    2,136
958,517; 3627,389;   -1,545;    3,136
959,070; 3459,753;   -0,455;    1,955
959,623; 3543,480;    1,091;    1,500
960,176; 3302,934;    1,727;    2,045
960,728; 3286,116;   -2,727;    0,773
961,281; 3340,116;    0,545;    0,500
961,834; 3394,934;   -0,909;    0,864
962,386; 3299,843;    1,727;    1,045
962,939; 3239,571;    0,364;   -0,318
963,491; 3383,389;    0,455;    1,136
964,043; 3252,207;    1,182;    2,409
964,596; 3373,843;   -1,000;    2,227
965,148; 3210,025;   -1,000;    1,773
965,700; 3144,298;    1,091;   -0,227
966,253; 3295,934;   -0,636;    0,318
966,805; 3119,571;   -2,273;    0,773
967,357; 3168,934;    1,091;   -1,500
967,909; 3127,934;    0,455;   -1,227
968,461; 3230,025;    0,545;    3,136
969,013; 3169,662;   -0,182;   -0,864
969,565; 3254,389;   -0,455;   -1,136
970,117; 3306,207;   -0,364;    1,045
970,669; 3142,753;    0,182;   -0,136
971,220; 3015,662;   -0,455;   -1,500
971,772; 2940,843;   -0,636;   -0,318
972,324; 3054,116;    0,091;   -0,500
972,876; 2980,662;    0,818;   -0,045
973,427; 3129,753;    1,909;   -1,045
973,979; 3092,571;   -0,727;   -2,500
974,530; 3125,662;    1,818;    1,318
975,082; 3137,207;   -0,545;    1,682
975,633; 3034,571;    1,091;    1,682
976,184; 3183,753;    0,909;    0,773
976,736; 2969,207;    0,091;    0,227
977,287; 2780,207;   -0,909;   -0,500
977,838; 2953,662;    0,909;   -0,318
978,389; 3038,389;   -1,000;   -0,500
978,940; 2885,843;    0,545;   -0,409
979,491; 2888,298;    0,091;   -0,500
980,042; 2872,753;    0,182;    3,045
980,593; 2929,025;   -2,545;    0,227
981,144; 2968,662;    2,545;   -0,500
981,695; 2941,753;    1,455;    1,500
982,246; 2905,298;   -0,273;    1,045
982,797; 3057,571;   -1,727;    0,682
983,347; 3167,389;    0,364;    0,591
983,898; 3339,025;    3,091;    0,409
984,449; 3151,025;    2,182;    0,773
984,999; 3057,753;    1,455;   -1,136
985,550; 2848,298;    0,182;   -0,318
986,100; 2869,116;   -0,455;   -0,318
986,651; 2895,934;   -0,818;    0,045
987,201; 2878,389;   -1,000;   -0,591
987,751; 2959,116;    0,818;    2,864
988,302; 2947,934;    2,636;    1,500
988,852; 2960,934;    0,455;   -1,136
989,402; 3013,843;    0,091;    0,682
989,952; 2953,025;   -2,182;    0,864
990,502; 3044,934;   -0,091;    0,682
991,052; 2983,298;   -0,727;    0,045
991,602; 2849,116;   -2,909;    1,318
992,152; 2849,480;    0,455;    0,682
992,702; 2829,934;    1,364;   -0,045
993,252; 2771,934;   -3,000;   -0,500
993,802; 2871,843;   -0,273;    1,318
994,352; 3092,207;   -1,545;    1,136
994,901; 3154,207;   -0,182;    3,227
995,451; 3101,025;   -0,182;    0,318
996,000; 3176,571;    1,636;    0,318
996,550; 2883,116;    2,273;    0,227
997,100; 2879,389;    1,273;   -0,045
997,649; 3164,298;    2,182;    0,955
998,198; 2781,843;    1,727;   -1,500
998,748; 3001,298;    1,091;   -2,318
999,297; 2895,389;   -0,818;   -0,409
999,846; 2956,025;    1,000;   -0,773
1000,395; 3010,298;   -0,818;    0,500
1000,945; 2974,480;    1,818;   -0,773
1001,494; 3069,662;    2,364;    0,682
1002,043; 3046,571;    4,636;    0,864
1002,592; 2887,480;   -1,091;    1,955
1003,141; 3042,389;   -0,455;   -0,682
1003,690; 2891,298;    1,727;    0,500
1004,238; 2960,207;    1,455;   -0,045
1004,787; 2606,934;    1,364;    1,227
1005,336; 2848,571;    0,364;    0,682
1005,885; 2986,571;    1,364;   -2,773
1006,433; 3148,480;    0,545;    0,955
1006,982; 3193,571;    0,455;    1,682
1007,531; 3086,571;   -1,818;   -0,227
1008,079; 3053,025;   -2,273;    0,500
1008,627; 3178,662;   -1,455;    0,409
1009,176; 2909,025;    0,000;   -1,955
1009,724; 2957,843;    1,091;    0,864
1010,273; 3015,480;    1,273;    0,500
1010,821; 3118,207;    0,091;    1,409
1011,369; 2859,480;   -1,364;    1,318
1011,917; 2849,662;   -1,364;   -0,591
1012,465; 3116,843;    1,273;   -1,591
1013,013; 3223,025;    2,091;   -1,682
1013,561; 3116,025;    0,455;   -0,773
1014,109; 3170,025;   -1,909;    1,682
1014,657; 3048,389;    0,364;    0,591
1015,205; 3167,753;    1,636;   -0,955
1015,753; 3180,298;   -0,545;   -1,409
1016,301; 3225,116;   -2,636;    3,045
1016,848; 3230,662;   -1,273;    0,409
1017,396; 3287,662;    2,545;    0,045
1017,944; 3384,662;    1,182;    1,864
1018,491; 3151,571;    0,273;    1,409
1019,039; 3311,116;    0,455;    0,591
1019,586; 3206,389;   -1,364;    1,682
1020,134; 3305,571;    0,455;    1,500
1020,681; 3338,298;    0,182;   -1,136
1021,228; 3339,207;    2,909;   -2,227
1021,776; 3177,753;    1,182;   -1,136
1022,323; 3402,207;    0,455;    0,773
1022,870; 3313,207;   -1,000;   -0,045
1023,417; 3212,389;    2,636;    1,864
1023,964; 3376,298;    2,636;    1,227
1024,511; 3197,480;    1,000;    0,773
1025,058; 2997,662;    3,182;   -0,045
1025,605; 3048,207;   -2,273;    3,136
1026,152; 3287,753;    1,727;   -0,591
1026,699; 3010,662;    1,818;    1,318
1027,245; 3169,389;   -0,091;    0,318
1027,792; 3349,843;   -1,000;    1,409
1028,339; 3252,480;    2,364;   -0,045
1028,885; 3104,934;    1,000;   -0,227
1029,432; 3046,843;   -0,091;    0,227
1029,978; 3113,116;   -1,000;   -1,591
1030,525; 3019,571;    1,000;    0,409
1031,071; 3263,662;   -1,364;    1,136
1031,618; 3365,934;    0,364;    1,682
1032,164; 3159,753;   -0,091;    3,045
1032,710; 3196,116;    1,636;   -1,500
1033,256; 3110,207;   -0,636;   -0,136
1033,803; 3087,025;   -0,545;    1,500
1034,349; 2799,934;   -1,364;    0,136
1034,895; 2950,116;    0,000;   -0,318
1035,441; 2934,934;   -0,818;    0,318
1035,987; 2938,298;   -2,364;   -0,682
1036,533; 2938,753;   -1,455;   -0,955
1037,078; 3160,389;    1,455;    1,682
1037,624; 2959,753;    2,455;   -0,955
1038,170; 2992,207;    0,455;   -0,318
1038,716; 2902,934;    1,636;   -0,409
1039,261; 2807,843;   -2,273;   -0,773
1039,807; 2749,571;   -0,091;    3,409
1040,352; 2813,025;   -1,909;   -0,318
1040,898; 2861,207;   -1,545;   -0,682
1041,443; 2758,207;   -1,455;   -2,591
1041,989; 2800,389;    1,091;    1,591
1042,534; 2666,571;   -0,364;    2,591
1043,079; 2762,843;    2,909;    0,955
1043,625; 2571,571;    1,818;    0,500
1044,170; 2619,480;   -1,364;    1,045
1044,715; 2879,116;    2,455;    0,955
1045,260; 2710,480;    2,182;   -0,955
1045,805; 2734,025;    1,182;   -0,591
1046,350; 2654,025;    1,364;   -0,409
1046,895; 2624,753;    2,909;    1,591
1047,440; 2590,843;    5,364;    0,409
1047,985; 2478,025;    2,818;   -0,955
1048,530; 2406,116;    1,545;    1,227
1049,074; 2461,843;    0,000;    0,318
1049,619; 2443,480;   -1,364;    1,955
1050,164; 2245,116;    0,455;    0,227
1050,708; 2302,480;   -0,455;    0,045
1051,253; 2664,207;    1,273;   -2,227
1051,797; 2365,207;    0,818;   -1,318
1052,342; 2371,207;   -1,182;    1,045
1052,886; 2375,480;    0,364;   -1,409
1053,430; 2249,298;   -1,364;    0,136
1053,975; 2284,753;   -0,818;   -0,318
1054,519; 2262,843;   -0,727;    3,227
1055,063; 2271,480;    0,909;    1,318
1055,607; 2155,753;   -0,182;    0,227
1056,151; 2189,389;    2,909;    1,682
1056,695; 2093,934;    2,273;   -1,136
1057,239; 2158,207;   -1,727;   -0,682
1057,783; 2181,025;    0,818;   -1,500
1058,327; 2120,843;    0,000;    1,409
1058,871; 2357,843;   -0,545;    1,318
1059,415; 2061,480;   -0,818;   -0,045
1059,958; 2342,025;    1,455;    2,591
1060,502; 2048,116;   -1,000;   -0,773
1061,046; 1936,207;    0,364;   -0,955
1061,589; 1931,025;   -3,000;   -1,136
1062,133; 1798,662;   -1,273;    1,864
1062,676; 1741,389;    1,182;    0,864
1063,220; 1751,662;    1,091;    0,500
1063,763; 1781,025;    0,909;    1,136
1064,306; 1868,389;   -0,909;    1,864
1064,849; 1745,207;   -0,909;    0,591
1065,393; 1755,571;    2,000;   -1,500
1065,936; 1853,480;    0,182;   -0,409
1066,479; 1740,753;   -1,455;    1,318
1067,022; 1763,025;   -0,273;   -0,227
1067,565; 1662,207;   -0,091;   -1,318
1068,108; 1689,480;    0,727;   -0,591
1068,651; 1652,025;   -0,636;    1,409
1069,194; 1583,753;   -0,455;   -1,682
1069,736; 1599,207;   -1,273;    0,955
1070,279; 1571,298;   -1,364;   -0,500
1070,822; 1623,480;   -2,000;   -0,318
1071,364; 1720,843;   -0,364;    1,318
1071,907; 1535,025;   -0,727;    3,227
1072,450; 1437,753;    0,000;   -0,045
1072,992; 1428,389;   -0,273;    3,136
1073,535; 1585,025;    2,091;    2,136
1074,077; 1361,662;   -0,727;    2,045
1074,619; 1333,934;   -1,364;    0,591
1075,161; 1369,207;   -1,091;    1,500
1075,704; 1564,662;    1,545;    1,227
1076,246; 1354,753;   -0,182;    0,682
1076,788; 1270,934;   -0,364;    1,773
1077,330; 1343,025;    1,273;    2,136
1077,872; 1320,480;    0,909;    0,955
1078,414; 1537,662;    2,727;    0,773
1078,956; 1273,116;    1,273;   -0,227
1079,498; 1564,753;    1,636;    0,318
1080,040; 1256,753;    1,909;   -1,318
1080,581; 1193,389;    1,636;   -0,318
1081,123; 1112,934;    0,091;   -0,773
1081,665; 1151,843;   -1,182;   -0,955
1082,206; 1476,571;    1,364;   -0,500
1082,748; 1326,207;    0,727;    2,045
1083,289; 1192,116;   -2,000;    1,318
1083,831; 1094,662;   -0,545;    0,227
1084,372; 1145,843;    0,000;    0,591
1084,913; 1151,480;    1,091;    0,864
1085,455; 1112,934;   -1,909;   -2,045
1085,996; 1076,934;   -2,273;    0,136
1086,537; 1111,571;   -0,091;    0,864
1087,078; 1128,298;   -0,909;   -2,136
1087,619; 1194,389;   -1,273;    0,227
1088,160; 1109,753;    0,000;    1,318
1088,701; 1082,753;   -1,091;    0,682
1089,242; 1022,480;    1,364;   -2,227
1089,783; 1135,298;   -0,273;    1,409
1090,324; 1100,207;    0,455;    0,682
1090,865;  967,843;    2,727;   -0,409
1091,405;  924,116;    0,727;    2,227
1091,946;  959,116;    0,182;   -0,955
1092,487;  879,025;    0,818;   -1,409
1093,027; 1052,389;   -1,364;   -1,500
1093,568;  915,298;   -0,364;    1,227
1094,108; 1019,025;    0,273;    1,773
1094,649;  948,843;   -1,182;    0,136
1095,189;  883,116;   -0,636;   -0,682
1095,729;  839,298;   -0,091;    0,955
1096,269;  834,207;    0,727;   -0,955
1096,810; 1162,207;   -1,364;    0,500
1097,350;  987,843;    1,364;   -0,773
1097,890;  902,025;    0,364;    1,227
1098,430; 1147,116;    2,364;    2,864
1098,970; 1019,571;    2,182;    1,682
1099,510;  872,207;    0,545;   -2,318
1100,050;  798,843;    1,000;   -1,591
1100,589;  762,480;   -0,727;   -0,318
1101,129;  893,753;    0,818;   -0,955
1101,669; 1050,389;    1,727;    2,136
1102,209;  867,207;   -0,091;    2,227
1102,748;  834,116;    0,000;    0,955
1103,288;  816,298;    1,273;   -1,227
1103,827;  852,571;    3,091;   -2,227
1104,367;  718,207;   -0,091;   -2,409
1104,906;  689,753;    1,364;   -1,136
1105,445;  765,389;    0,636;   -1,136
1105,985;  712,025;   -0,727;    1,500
1106,524;  749,934;   -1,727;   -0,682
1107,063;  726,298;   -2,727;    1,409
1107,602;  698,298;   -1,909;   -1,500
1108,141;  616,934;   -1,909;    1,500
1108,680;  732,480;   -3,455;   -0,591
1109,219;  656,480;   -0,909;   -0,500
1109,758;  661,025;    0,455;    0,682
1110,297;  631,207;    1,000;   -0,682
1110,836;  575,934;   -0,727;    0,955
1111,375;  751,389;   -2,545;    0,409
1111,913;  763,843;   -1,000;    0,773
1112,452;  692,571;   -0,273;    0,136
1112,991;  572,025;    1,091;    1,955
1113,529;  527,116;   -0,818;   -0,045
1114,068;  602,480;   -0,273;    2,955
1114,606;  508,116;   -0,364;   -0,955
1115,144;  668,934;   -1,273;    1,045
1115,683;  607,025;   -0,727;    0,318
1116,221;  655,025;   -0,455;   -0,864
1116,759;  565,207;    0,636;   -0,864
1117,297;  770,207;    0,000;    1,864
1117,836;  555,298;   -2,182;   -1,227
1118,374;  578,025;    0,182;   -0,682
1118,912;  522,662;    0,909;    2,682
1119,450;  511,116;    1,000;    0,864
1119,988;  575,207;    1,545;    2,136
1120,525; 1017,571;    5,091;    3,318
1121,063;  717,116;    1,182;    1,864
1121,601;  528,025;   -0,909;   -1,227
1122,139;  478,025;   -0,727;   -2,045
1122,676;  686,298;   -0,727;    2,773
1123,214;  621,025;   -1,182;    4,409
1123,751;  420,298;    1,727;    2,227
1124,289;  562,843;   -0,091;   -0,409
1124,826;  425,207;    1,727;    0,227
1125,364;  351,298;    1,727;   -0,955
1125,901;  535,934;    1,182;    1,227
1126,438;  658,389;    0,818;    0,955
1126,975;  365,298;   -0,727;   -0,773
1127,513;  441,298;    0,273;    2,136
1128,050;  338,116;    1,636;   -0,682
1128,587;  450,480;    2,000;   -0,227
1129,124;  497,843;    0,091;    1,318
1129,661;  359,843;    0,273;    0,227
1130,198;  533,753;    1,636;    0,773
1130,734;  479,571;    0,182;    1,409
1131,271;  331,116;   -0,909;    0,864
1131,808;  504,116;    2,909;    3,045
1132,345;  375,480;    1,545;    0,318
1132,881;  233,480;   -1,545;   -1,864
1133,418;  379,753;    0,727;   -1,136
1133,954;  319,934;    2,455;   -2,682
1134,491;  406,389;    1,364;   -0,773
1135,027;  297,298;    2,364;    0,864
1135,564;  390,662;    0,273;    2,955
1136,100;  372,934;    0,364;    2,136
1136,636;  258,480;   -1,273;   -1,045
1137,172;  356,207;    0,000;   -1,045
1137,708;  274,298;   -1,364;   -1,045
1138,245;  275,480;    1,273;   -1,227
1138,781;  225,843;    1,091;   -3,318
1139,317;  302,389;    1,273;   -1,409
1139,852;  294,571;    3,091;    0,136
1140,388;  410,025;   -1,182;   -0,409
1140,924;  289,753;   -1,091;   -2,227
1141,460;  224,207;   -1,636;    0,136
1141,996;  159,843;   -1,364;    2,682
1142,531;  205,298;    1,364;    3,318
1143,067;  435,843;    1,182;    1,045
1143,602;  496,116;   -0,091;   -0,318
1144,138;  329,025;   -2,636;    1,045
1144,673;  190,934;   -1,455;    1,409
1145,209;  262,934;   -1,909;   -0,318
1145,744;  187,571;   -0,727;    0,864
1146,279;  328,116;    1,818;   -0,136
1146,815;  236,662;    1,545;   -2,682
1147,350;  277,025;   -1,364;    0,045
1147,885;  188,571;   -0,818;   -1,318
1148,420;  184,480;   -2,273;    0,773
1148,955;  169,934;   -1,727;    1,864
1149,490;  199,389;   -0,909;   -1,591
1150,025;  177,116;    0,455;   -1,773
1150,560;  294,843;    1,091;   -0,955
1151,094;  258,662;    1,455;   -0,591
1151,629;  267,207;    1,636;    0,864
1152,164;  194,207;    1,364;    1,318
1152,698;  150,207;   -0,182;   -0,136
1153,233;  106,934;    0,091;   -0,682
1153,767;  156,298;   -3,000;   -2,318
1154,302;  210,662;   -1,455;    1,773
1154,836;  199,753;   -0,455;   -2,136
1155,371;  259,389;   -1,364;    3,682
1155,905;  219,843;   -0,636;    1,682
1156,439;  181,389;   -0,636;   -0,500
1156,973;  211,662;    0,364;    0,318
1157,507;  143,934;   -0,364;    0,682
1158,042;  170,662;   -0,727;    1,045
1158,576;  229,934;    0,182;    1,773
1159,110;  210,571;   -0,818;    2,409
1159,643;  180,025;    0,636;   -0,045
1160,177;  113,480;   -1,545;    1,500

