
Integration time [ms]:   0,040
Averaging Nr. [scans]: 11
Smoothing Nr. [pixels]: 0
Data measured with spectrometer [name]: 7318044SP
Wave   ;Sample   ;Dark     ;Reference
[nm]   ;[counts] ;[counts] ;[counts] 

186,757;   16,860;   31,551;    1,318
187,357;   58,879;   22,551;    0,955
187,958;   37,252;   15,460;   -1,591
188,558;   87,929;    8,915;   -1,227
189,159;   49,911;    6,733;   -4,500
189,759;   13,230;    7,278;   -3,591
190,360;   17,103;    2,824;   -2,136
190,960;   69,898;    2,915;   -4,136
191,560;   87,254;    3,189;   -6,591
192,161;  358,939;    4,372;   -3,500
192,761;  180,991;    4,010;   -3,227
193,361;  115,186;    1,556;   -3,773
193,962;  171,389;    2,010;   -2,682
194,562;   91,688;    1,189;   -3,955
195,162;  141,673;   -2,448;   -2,227
195,762;  317,061;   -3,176;   -0,045
196,362;  259,279;    1,370;   -2,500
196,963;  106,766;    2,006;   -0,864
197,563;  190,122;    1,551;   -0,955
198,163;  116,255;    0,096;   -0,682
198,763;  140,199;    1,733;   -0,500
199,363;  255,833;    3,096;   -0,500
199,963;  221,355;    0,369;    0,409
200,563;  186,981;    2,823;   -1,409
201,163;  158,731;    3,277;   -0,227
201,763;  271,314;    3,732;    0,318
202,363;  191,739;    1,459;    1,500
202,963;  329,886;    1,459;    1,045
203,563;  442,258;    0,277;    0,500
204,162;  277,755;    2,096;   -1,864
204,762;  259,939;    0,550;    0,591
205,362;  224,633;    3,004;    1,955
205,962;  336,629;    3,096;    1,955
206,562;  340,390;    1,823;    2,318
207,161;  296,476;   -0,087;    0,318
207,761;  471,969;    1,277;    2,409
208,361;  343,685;   -0,268;    1,409
208,960;  455,768;    0,459;    1,500
209,560;  539,607;    1,277;    1,591
210,160;  510,640;    0,550;    1,864
210,759;  470,931;    4,186;    1,227
211,359;  479,130;    1,459;    1,045
211,958;  762,672;    1,277;    2,045
212,558;  849,972;    1,732;    1,864
213,157;  683,746;    1,822;    1,500
213,757; 1168,921;    3,822;   -0,227
214,356;  832,694;    1,277;   -0,409
214,956; 1194,079;    3,095;    0,409
215,555;  791,156;    2,095;    2,136
216,154;  736,553;   -2,723;   -0,591
216,754;  740,623;    0,277;    0,773
217,353;  885,821;   -0,268;   -1,045
217,952;  732,163;   -0,178;    0,318
218,552;  998,083;    1,368;   -0,773
219,151;  875,881;    0,277;    0,955
219,750;  872,423;    0,004;   -0,227
220,349; 1027,375;   -0,451;    1,045
220,948; 1075,160;   -1,360;    1,136
221,548; 1111,656;    0,913;    1,227
222,147; 1252,454;   -0,087;   -0,409
222,746; 1538,583;   -0,451;   -0,955
223,345; 1420,727;    0,731;    0,500
223,944; 1429,946;   -0,451;    0,773
224,543; 1611,626;    1,004;   -1,409
225,142; 1718,905;    0,094;    0,136
225,741; 1629,077;   -0,814;    1,045
226,340; 1660,618;   -0,451;   -0,955
226,939; 2138,342;   -0,996;   -0,136
227,538; 2091,443;   -0,360;   -0,773
228,137; 2259,587;   -0,814;    0,864
228,735; 2457,304;   -0,541;    1,227
229,334; 2155,737;   -0,905;   -0,227
229,933; 2537,735;    0,459;    0,591
230,532; 2650,153;    1,186;   -0,409
231,131; 2704,284;    1,732;    0,318
231,729; 2875,682;   -2,450;   -2,318
232,328; 2983,162;   -0,723;   -1,500
232,927; 3077,459;    1,004;   -0,500
233,525; 3232,666;    3,640;    0,045
234,124; 3456,937;    2,368;   -1,591
234,723; 3461,931;    0,913;   -1,045
235,321; 3639,340;    2,277;    0,136
235,920; 3908,147;    1,186;   -1,227
236,518; 4144,465;    3,459;    0,318
237,117; 4339,632;    0,004;   -0,227
237,715; 4523,259;    0,640;   -0,500
238,314; 4561,912;   -0,087;   -2,318
238,912; 4673,401;   -0,723;   -1,409
239,510; 4726,085;    0,459;   -1,227
240,109; 4948,044;    0,004;    3,773
240,707; 4995,609;   -0,996;    1,227
241,305; 5373,717;    0,550;    0,136
241,904; 5594,626;   -0,178;   -2,045
242,502; 5557,749;   -0,632;   -0,227
243,100; 5493,056;   -0,087;   -0,955
243,698; 5752,047;    0,732;    1,682
244,297; 5957,111;   -0,632;    0,682
244,895; 5778,592;   -0,269;   -2,318
245,493; 6160,846;    2,186;   -0,591
246,091; 6213,770;    1,368;   -1,318
246,689; 6196,486;    1,004;    0,591
247,287; 6359,805;    0,822;   -1,136
247,885; 6677,563;   -1,451;    1,227
248,483; 6737,125;    1,822;   -0,500
249,081; 6906,640;    0,185;    1,591
249,679; 7108,541;   -0,178;    1,682
250,277; 7334,580;   -1,723;    0,864
250,875; 7342,885;   -1,087;   -1,045
251,473; 7391,313;   -1,178;    0,500
252,071; 7587,488;    1,459;    1,045
252,669; 7742,855;   -1,814;    0,318
253,267; 8025,034;   -0,087;    0,773
253,864; 8009,169;   -0,360;    0,682
254,462; 7854,713;    1,640;    1,591
255,060; 7830,660;   -0,269;    1,318
255,658; 8176,036;    0,822;   -0,136
256,255; 8597,522;    0,186;   -2,045
256,853; 8458,927;   -0,269;    1,409
257,451; 8476,734;    0,822;    1,864
258,048; 8747,772;    1,822;    1,864
258,646; 8479,248;    1,731;   -1,045
259,243; 8695,472;   -0,087;    2,227
259,841; 8756,013;   -0,814;    0,318
260,438; 8621,177;   -0,087;    0,864
261,036; 9414,792;   -1,905;    1,409
261,633; 9274,058;   -0,087;    2,227
262,231; 9017,857;    2,731;   -0,045
262,828; 9090,354;   -0,905;    1,136
263,425; 9167,841;    0,913;   -0,591
264,023; 9463,297;    0,186;    0,045
264,620; 9012,954;   -0,360;   -0,318
265,217; 9373,683;   -2,087;    3,136
265,815; 9485,165;   -1,905;    2,136
266,412; 9243,614;    0,731;    0,136
267,009; 9313,723;   -1,451;    0,773
267,606; 9201,975;    0,822;   -0,955
268,203; 9165,232;   -0,269;   -0,591
268,801; 9474,423;    1,731;    0,591
269,398; 9792,720;   -0,360;    2,500
269,995; 9771,627;    0,277;    1,591
270,592; 9551,135;   -0,632;   -0,500
271,189; 9763,208;    0,186;    0,409
271,786; 9880,795;   -0,632;    1,227
272,383; 9694,268;   -1,087;    0,227
272,980; 9927,438;    0,277;    0,318
273,577;10447,462;    0,004;    1,227
274,174; 9997,265;    0,822;    2,591
274,771; 9982,309;   -0,814;   -0,773
275,367;10185,815;    2,277;    1,409
275,964;10119,919;    0,731;   -0,500
276,561;10192,977;    1,549;   -1,045
277,158;10445,268;    0,095;   -1,773
277,755;10608,277;    2,185;    0,409
278,351; 9990,965;   -0,451;   -1,500
278,948;10336,687;   -0,815;    0,045
279,545;10343,593;   -1,360;    2,318
280,141;10990,873;   -1,723;   -2,045
280,738;10937,470;   -0,451;   -0,136
281,334;11189,447;   -1,633;    0,591
281,931;10544,128;   -0,087;   -1,318
282,528;10640,563;    0,822;   -0,500
283,124;11375,622;   -1,087;   -0,500
283,721;11331,358;   -0,451;    1,409
284,317;11128,297;    0,185;    2,500
284,913;11719,982;   -1,360;    0,591
285,510;11938,891;    0,640;   -0,318
286,106;11959,901;   -2,269;   -0,955
286,703;11569,894;   -0,360;    1,955
287,299;11783,013;   -1,451;   -0,591
287,895;12010,624;    0,822;   -1,045
288,491;12612,175;    0,186;    2,136
289,088;12317,327;   -2,360;    2,409
289,684;12434,764;   -1,723;    1,500
290,280;12452,023;    0,368;    0,682
290,876;12574,546;    1,822;    5,500
291,472;12436,938;    1,276;    2,227
292,068;12553,740;    1,367;    0,227
292,665;12249,377;    2,095;    0,773
293,261;11851,593;    0,276;    2,136
293,857;12313,184;    2,913;    2,136
294,453;12215,179;    3,550;    0,955
295,049;12114,481;   -0,268;    1,955
295,644;12120,290;    0,095;    0,136
296,240;12034,075;   -0,905;   -0,136
296,836;12112,296;   -0,995;    0,318
297,432;12413,321;    1,096;   -0,500
298,028;12459,025;    0,732;    0,773
298,624;12864,510;    1,459;    1,864
299,220;13128,198;    2,368;    0,591
299,815;12806,394;    1,005;   -0,409
300,411;12619,117;    0,914;    1,773
301,007;12618,811;    1,368;    0,227
301,602;12679,193;   -0,541;   -2,318
302,198;12852,705;    0,732;   -0,773
302,794;13179,042;    1,187;   -0,500
303,389;13315,256;   -1,177;    1,045
303,985;13412,254;    0,550;    1,409
304,580;13386,849;    1,459;    1,591
305,176;13343,265;   -3,086;    0,136
305,771;13259,031;   -1,268;   -1,227
306,367;13158,889;    4,095;    0,136
306,962;13501,011;    0,641;    1,500
307,558;13228,034;   -0,450;    0,136
308,153;13156,185;    1,095;   -1,136
308,748;13405,723;   -0,814;    1,682
309,344;13389,469;   -0,632;   -1,318
309,939;13502,771;   -1,905;   -1,318
310,534;13742,665;   -0,086;   -1,682
311,130;13720,893;    0,459;   -2,500
311,725;13431,250;    1,004;   -0,500
312,320;13789,271;    2,459;    0,045
312,915;13621,403;    1,459;   -1,045
313,510;13709,386;    1,550;   -0,500
314,105;14182,126;    1,096;    1,409
314,700;13559,211;   -3,086;   -1,045
315,295;13108,668;   -0,904;    0,045
315,890;12661,899;    1,277;    0,864
316,485;13089,090;   -0,359;   -0,318
317,080;13168,759;   -3,086;    1,591
317,675;13762,009;    2,005;   -0,682
318,270;13151,667;    5,550;    3,318
318,865;13108,474;    3,278;    3,045
319,460;12946,522;   -0,904;    0,591
320,055;13189,709;   -0,541;   -1,227
320,650;12855,985;   -1,995;   -0,591
321,244;12896,853;   -0,177;   -1,409
321,839;13938,697;   -1,541;   -0,227
322,434;13834,089;   -1,086;   -1,591
323,029;13424,208;    1,732;    1,591
323,623;13254,905;    1,550;    0,773
324,218;12990,134;    2,368;    1,409
324,812;12895,416;    1,096;    1,591
325,407;12736,613;   -0,814;    2,045
326,002;12683,964;    0,277;   -0,409
326,596;12955,179;    0,914;    1,318
327,191;13155,638;    0,823;   -1,045
327,785;12685,270;   -0,813;   -0,227
328,379;12914,763;    1,368;    0,136
328,974;12774,615;    0,914;   -3,955
329,568;12975,551;    0,186;   -2,409
330,163;12805,082;    2,096;    1,045
330,757;13145,179;    2,459;    1,591
331,351;12443,278;    0,459;    0,682
331,945;12768,395;    0,914;    1,409
332,540;12357,652;   -1,723;   -0,591
333,134;12505,530;   -1,086;    0,773
333,728;12809,072;    0,005;    0,318
334,322;13141,503;   -1,177;   -0,864
334,916;12385,704;    0,277;    0,955
335,510;12740,108;   -0,450;   -0,136
336,105;13006,366;   -1,086;    1,591
336,699;12725,320;   -1,086;    0,591
337,293;12622,012;   -1,723;    0,318
337,887;12825,487;   -2,723;    1,955
338,481;12947,130;    0,459;    0,591
339,074;13071,420;   -0,359;    2,682
339,668;12870,697;   -1,632;    1,227
340,262;13182,120;    1,732;    3,227
340,856;12667,140;    1,822;   -0,682
341,450;11960,383;    1,004;    1,864
342,044;12934,739;    1,459;    0,136
342,637;12704,862;    0,913;   -2,136
343,231;12576,256;   -2,360;    0,682
343,825;12538,218;   -1,086;   -0,591
344,419;12487,368;   -1,995;    0,500
345,012;12252,579;    2,459;    4,045
345,606;12225,754;    4,641;    1,591
346,199;12032,650;   -1,813;   -0,227
346,793;11560,108;    1,914;    2,045
347,386;11738,463;   -0,813;   -1,136
347,980;11744,105;   -0,268;   -0,045
348,573;11509,538;    2,278;    0,409
349,167;11147,676;    5,278;    4,773
349,760;11532,641;    2,914;    2,682
350,354;11506,266;   -0,813;    1,136
350,947;11259,978;    1,096;    1,682
351,540;10891,808;   -0,358;   -1,409
352,134;10802,129;    1,096;    1,136
352,727;10904,416;   -0,086;    1,136
353,320;10643,943;    0,005;    0,591
353,913;10515,041;   -1,995;    1,864
354,507;10728,094;    0,823;   -1,227
355,100;10705,939;    0,460;    0,864
355,693; 9922,546;    2,005;    2,409
356,286; 9976,118;    0,823;    2,773
356,879;10323,298;   -0,722;    1,227
357,472; 9908,546;   -0,904;    1,500
358,065;10088,978;   -0,722;    2,500
358,658;10020,106;   -0,540;    2,318
359,251; 9653,763;   -1,631;   -0,591
359,844; 9069,037;   -1,904;   -1,136
360,437; 9263,472;   -2,995;    0,045
361,030; 9559,184;    1,369;   -0,682
361,623; 9111,113;    2,824;    0,318
362,215; 9196,708;   -0,086;    2,045
362,808; 9000,499;   -2,358;   -1,682
363,401; 9179,449;   -2,449;    0,136
363,994; 8904,683;   -0,631;   -1,500
364,586; 8832,954;    0,824;   -1,500
365,179; 9036,524;   -0,449;   -1,136
365,772; 8499,576;   -1,995;    2,045
366,364; 8838,119;    1,915;   -3,227
366,957; 9018,812;    2,279;   -0,045
367,549; 9066,900;    2,188;   -0,864
368,142; 8704,180;    1,825;   -1,500
368,734; 8883,955;    0,734;   -2,136
369,327; 8837,117;    1,643;   -0,500
369,919; 8779,460;   -1,538;    0,409
370,512; 8534,439;   -1,083;   -0,500
371,104; 8305,855;   -0,901;    1,591
371,696; 8493,714;    1,191;   -0,955
372,289; 8595,466;    0,373;    1,136
372,881; 8724,868;   -2,080;    1,318
373,473; 8651,607;   -2,170;    1,136
374,066; 8469,304;   -0,169;    0,500
374,658; 8268,246;    0,378;    1,136
375,250; 8633,395;    0,653;   -1,409
375,842; 8498,237;    0,473;   -0,045
376,434; 8378,142;   -0,435;   -0,409
377,026; 8987,589;    0,204;   -2,500
377,618; 8915,096;   -0,158;   -0,682
378,210; 8688,911;   -0,338;   -1,955
378,802; 8534,643;    0,754;   -0,591
379,394; 8540,467;    1,846;    0,682
379,986; 9162,846;    1,393;   -0,955
380,578; 9276,515;   -0,153;    0,773
381,170; 8582,852;   -0,972;    0,045
381,762; 8518,950;    0,755;    1,409
382,354; 8736,883;   -0,065;   -1,318
382,945; 8865,882;   -2,976;    0,318
383,537; 9002,332;   -2,705;   -1,955
384,129; 9012,235;   -2,160;   -1,136
384,721; 9198,898;   -0,252;    0,955
385,312; 9179,800;   -0,161;   -0,955
385,904; 9227,084;   -2,706;    1,591
386,496; 8550,723;   -0,979;    1,045
387,087; 8720,075;    1,022;    2,500
387,679; 8821,494;   -1,160;    0,045
388,270; 8913,704;    2,840;    2,045
388,862; 9041,272;    1,295;   -0,318
389,453; 8949,438;   -0,887;    1,045
390,045; 9252,768;   -0,705;   -2,682
390,636; 9165,084;    0,204;   -0,591
391,227; 8986,627;   -0,523;   -0,045
391,819; 9085,080;    0,204;    0,773
392,410; 9193,847;    1,022;    0,045
393,001; 9126,271;   -0,979;   -1,591
393,593; 9466,373;    1,930;   -0,045
394,184; 9303,292;    1,385;   -0,409
394,775; 9231,519;    1,839;    2,136
395,366; 9427,739;    1,385;    0,773
395,957; 9462,993;    0,113;    0,136
396,548; 9791,087;   -0,342;    2,682
397,139;10105,389;   -2,433;    0,591
397,730; 9812,866;   -1,888;    0,955
398,321; 9858,030;   -1,252;    0,955
398,912; 9917,057;   -0,615;    0,136
399,503; 9967,797;   -3,524;   -1,409
400,094; 9390,910;    0,294;    1,682
400,685; 9250,475;   -0,433;    0,045
401,276; 9330,300;    0,930;   -0,955
401,867; 9650,047;   -0,888;    0,773
402,458; 9756,244;   -2,251;   -2,318
403,048; 9719,394;    1,112;    0,591
403,639; 9304,974;    0,840;    0,864
404,230; 9563,267;    2,476;    0,318
404,821; 9471,070;   -0,615;    0,045
405,411; 9614,568;    1,203;   -2,591
406,002; 9199,813;   -1,252;   -1,136
406,592; 9042,715;    2,294;    0,045
407,183; 9335,917;    0,566;   -1,500
407,774; 9281,563;    3,475;   -0,136
408,364; 9623,252;    0,930;    0,409
408,954; 9194,972;    0,384;    1,227
409,545; 9246,121;    1,021;    1,045
410,135; 8772,692;    1,293;    0,500
410,726; 8927,438;    1,838;    0,318
411,316; 9331,568;    0,111;    0,773
411,906; 8954,017;   -0,253;   -0,409
412,497; 8418,658;   -1,070;   -0,045
413,087; 9064,929;   -1,980;   -0,227
413,677; 9475,290;   -0,707;    3,864
414,267; 9324,396;    0,656;    1,409
414,857; 9314,369;   -2,980;    4,227
415,448; 9638,106;    0,839;    0,500
416,038; 9257,648;    0,020;   -0,591
416,628; 9242,349;   -0,889;    0,409
417,218; 8669,192;    0,565;    3,318
417,808; 8929,255;    0,202;   -0,409
418,398; 9467,300;    0,020;    2,682
418,988; 9481,774;    2,020;    0,591
419,578; 9766,866;   -0,707;    1,409
420,168;10056,675;   -1,343;   -0,955
420,757; 9665,958;   -1,343;   -1,500
421,347; 9321,826;    0,111;   -0,227
421,937; 9507,373;    2,292;    1,409
422,527; 9496,057;    0,838;   -0,773
423,116; 9269,414;   -0,253;   -0,045
423,706; 9585,791;   -1,889;    0,318
424,296; 9578,497;    1,384;    0,682
424,885;10021,224;   -0,071;   -3,045
425,475;10348,747;    1,474;   -2,864
426,065;10231,123;   -0,980;   -0,318
426,654; 9820,899;   -0,435;   -0,318
427,244; 9952,460;    0,020;    1,409
427,833; 9395,476;    1,383;   -0,500
428,423; 9906,203;   -0,526;    1,136
429,012;10679,763;   -0,344;   -1,136
429,601;10121,491;   -1,344;    0,136
430,191;10371,794;    1,292;    4,318
430,780;10009,009;   -0,344;   -0,409
431,369; 9904,956;    0,746;   -0,045
431,959;10558,679;   -1,254;    0,500
432,548;10375,927;   -1,163;   -0,045
433,137;10491,418;   -1,254;   -1,318
433,726;11067,050;    0,292;    0,500
434,315;10357,202;   -0,526;    2,409
434,905;10411,752;   -1,254;    1,409
435,494;10288,573;    0,746;    0,955
436,083;10763,069;   -0,981;   -0,955
436,672;10677,833;    0,110;    0,500
437,261;10187,487;    0,292;   -1,955
437,850;10341,983;    1,383;    0,682
438,439;10318,524;    3,291;    1,955
439,027;10147,155;    3,655;    1,773
439,616;10491,674;    2,927;    1,227
440,205;10352,802;    0,200;   -2,136
440,794;10454,182;    2,109;   -0,045
441,383;10737,959;   -1,346;   -0,591
441,971;10576,098;   -2,436;    0,591
442,560;10400,932;    0,563;   -1,773
443,149;10175,234;    0,379;   -1,318
443,737;10300,319;   -0,074;   -2,318
444,326;10590,873;    0,018;    0,318
444,915;10663,399;   -1,982;    0,864
445,503;11080,919;   -2,891;   -0,318
446,092;10252,731;    0,382;    2,136
446,680;10812,618;    0,382;    0,318
447,269;10973,680;   -0,346;   -0,318
447,857;10720,074;    0,018;   -1,773
448,445;10817,000;    0,563;    1,318
449,034;11048,425;   -1,528;   -1,136
449,622;11191,163;   -1,073;    3,500
450,210;10365,529;    2,017;    2,227
450,799;10965,058;    0,290;   -0,591
451,387;10896,085;    1,381;   -0,591
451,975;10499,969;    2,654;    0,864
452,563;10559,107;    3,472;    2,318
453,151;10587,870;   -0,528;   -1,227
453,739;10565,090;   -1,347;    0,136
454,328;10394,645;    2,381;   -2,136
454,916;10061,122;    2,562;   -0,136
455,504;10255,542;    1,017;    1,227
456,092;10422,437;    0,017;   -1,591
456,679;10457,072;    1,472;    0,682
457,267;10371,830;    4,017;    1,045
457,855;10515,741;    1,017;    1,409
458,443;10263,633;   -0,165;    1,682
459,031;10383,837;    0,108;    2,409
459,619;10873,847;   -1,801;    2,864
460,206;10997,067;    0,835;    2,045
460,794;11068,341;   -2,983;   -0,227
461,382;11294,239;   -0,529;   -0,864
461,970;10868,716;    1,198;    1,864
462,557;10900,638;   -0,711;   -0,682
463,145;11128,942;   -3,165;   -1,682
463,732;11294,464;    2,016;   -1,045
464,320;11209,934;   -0,075;   -3,045
464,907;10833,532;    2,743;   -0,773
465,495;10702,826;    0,743;   -1,227
466,082;10871,664;   -1,984;   -0,045
466,670;10814,161;   -2,529;    1,227
467,257;11195,085;   -1,711;    2,045
467,844;11331,124;   -0,075;    0,045
468,432;11392,200;    0,834;    3,500
469,019;10848,464;    0,925;   -1,773
469,606;11314,441;    0,470;    3,682
470,193;11141,790;   -1,439;    0,227
470,780;10672,448;   -2,075;    0,864
471,368;11008,491;   -1,257;   -0,773
471,955;10803,123;    1,379;   -0,682
472,542;10414,251;    0,652;   -1,136
473,129;10608,789;   -0,166;    0,136
473,716;10347,408;    1,470;    0,591
474,303;10582,157;    0,652;   -0,864
474,890;10898,417;   -1,439;   -0,500
475,477;10927,794;   -1,621;    0,409
476,064;10799,193;    1,106;   -1,591
476,650;10732,099;    0,288;    0,318
477,237;10554,553;   -0,258;    0,955
477,824;10703,651;   -1,076;    0,864
478,411;10719,427;   -1,894;   -0,318
478,997;10925,762;    0,560;   -0,773
479,584;11005,774;    1,196;   -0,409
480,171;11711,010;   -0,440;   -0,773
480,757;11350,695;    2,651;    0,773
481,344;11670,179;    0,469;    0,409
481,931;11168,551;    1,105;    1,045
482,517;12340,372;   -1,258;    0,318
483,104;12976,740;    1,106;    2,864
483,690;13268,045;   -1,804;    0,045
484,276;13627,403;   -0,895;    0,227
484,863;13365,356;    2,469;    1,136
485,449;13966,413;   -0,077;    0,318
486,035;13954,489;   -1,986;   -0,136
486,622;14373,084;   -0,895;    0,045
487,208;14315,381;    1,378;    1,500
487,794;14169,616;    0,741;    0,318
488,380;14263,883;    0,105;   -1,409
488,967;14331,843;   -1,168;   -0,409
489,553;14412,252;   -1,895;   -1,409
490,139;14660,967;    1,559;    0,773
490,725;14000,747;    0,741;   -0,227
491,311;13466,842;    3,287;    3,045
491,897;12734,420;   -0,986;    1,500
492,483;12584,902;    0,105;    1,227
493,069;12393,883;    3,923;    0,864
493,655;12397,755;    1,650;    0,682
494,241;12283,304;    1,377;   -0,955
494,826;12764,605;    0,287;   -1,045
495,412;12257,094;    2,559;   -0,682
495,998;12379,636;   -0,805;   -0,318
496,584;12595,077;    0,377;    1,045
497,169;12598,432;    1,014;   -0,682
497,755;12546,781;    0,650;    1,227
498,341;13171,149;    0,559;    0,318
498,926;12772,012;    1,832;    1,955
499,512;12969,431;    1,286;    2,955
500,097;13147,615;    0,195;   -0,318
500,683;13124,488;   -0,350;    2,136
501,268;13522,543;   -0,169;   -0,955
501,854;13262,546;   -0,169;    1,227
502,439;13201,116;   -0,624;   -1,773
503,024;13453,415;    0,195;    0,500
503,610;13527,417;   -0,078;   -0,682
504,195;13572,204;    0,558;    1,955
504,780;13703,676;    2,922;    1,227
505,366;13564,249;    3,013;    2,864
505,951;13274,438;    0,740;    1,045
506,536;13323,863;   -3,260;   -3,682
507,121;13311,224;    0,285;   -0,318
507,706;13873,892;    2,376;    1,045
508,291;14294,540;    2,649;    1,136
508,876;13727,976;   -0,988;    2,591
509,461;13201,844;   -0,169;   -0,773
510,046;13646,290;    0,194;    0,318
510,631;13903,837;   -0,351;   -0,773
511,216;13554,224;    2,467;   -0,500
511,801;13933,043;   -0,442;    2,591
512,386;14277,979;    0,740;    0,500
512,971;14258,276;   -2,988;    0,955
513,555;13811,586;   -0,897;   -1,500
514,140;14638,240;   -0,442;   -3,136
514,725;14667,455;   -0,715;   -1,136
515,309;14807,936;   -0,533;    0,318
515,894;14195,165;   -0,624;   -2,227
516,479;14666,271;   -0,624;   -0,955
517,063;14536,721;    0,376;    1,227
517,648;14670,491;    1,012;   -1,136
518,232;14339,772;   -0,261;   -1,409
518,817;14697,760;   -0,079;    1,682
519,401;14943,480;    2,194;    0,591
519,985;14420,122;    1,103;    1,136
520,570;14271,257;    0,830;   -1,955
521,154;14607,099;    2,102;    0,591
521,738;14774,214;   -2,352;    2,409
522,323;15331,762;   -0,170;    1,682
522,907;15084,240;    0,466;   -0,136
523,491;14776,181;    0,557;    0,955
524,075;14801,532;    2,284;    0,591
524,659;14914,839;    1,466;    0,591
525,243;14351,007;    1,739;    0,409
525,827;14586,781;    0,648;   -0,045
526,411;15474,021;   -1,989;   -0,136
526,995;15708,275;   -0,352;    1,409
527,579;15311,759;   -0,443;   -1,045
528,163;15629,054;    0,375;   -1,500
528,747;15529,910;    2,466;   -0,773
529,331;15883,618;   -0,080;   -1,409
529,915;16089,655;    1,738;    0,955
530,499;16006,348;   -0,807;    1,227
531,082;15731,556;   -0,534;    1,591
531,666;15135,910;    1,374;    0,773
532,250;15872,079;    1,284;    2,682
532,833;16252,550;    0,920;    2,773
533,417;16098,969;   -1,807;    0,864
534,001;16110,568;    1,647;   -0,318
534,584;16797,825;    0,374;    0,500
535,168;16625,440;    0,465;    1,409
535,751;16743,954;    0,647;    0,045
536,334;16138,868;   -0,898;   -0,409
536,918;16726,870;    0,011;    1,591
537,501;16840,291;   -0,899;    1,318
538,085;16844,456;   -0,444;    1,045
538,668;17053,626;    0,829;    2,409
539,251;17422,613;    1,829;    3,773
539,834;17423,571;    0,101;    0,773
540,418;17353,811;   -1,990;    4,318
541,001;17471,783;   -0,990;    1,773
541,584;17502,521;    2,101;    2,227
542,167;17190,433;    1,374;    2,955
542,750;17321,926;    1,919;   -0,773
543,333;16920,152;    0,555;    2,136
543,916;17747,315;    0,192;    2,500
544,499;18381,388;   -1,354;    0,227
545,082;18382,113;    1,374;    3,591
545,665;18523,607;    1,919;    1,500
546,248;18915,333;    1,010;   -0,318
546,830;18568,974;   -0,445;    1,955
547,413;19019,184;    1,010;   -0,773
547,996;19509,379;    0,555;    0,500
548,579;19313,072;    0,919;    0,955
549,161;19096,342;    1,828;    2,682
549,744;18875,671;   -0,809;    0,409
550,326;19377,056;   -0,809;   -1,136
550,909;19167,898;    2,737;    0,591
551,492;19564,719;   -0,263;    0,227
552,074;19381,926;   -0,173;   -1,318
552,657;19951,539;    2,373;    0,045
553,239;19660,228;   -0,173;   -0,773
553,821;19565,289;   -1,082;    1,045
554,404;19088,495;    1,282;    1,136
554,986;19473,713;    0,464;    1,045
555,568;20148,130;    1,191;   -0,955
556,151;19298,844;    1,191;   -0,227
556,733;19481,569;   -0,264;   -0,864
557,315;20004,636;    0,100;    0,500
557,897;19812,105;    0,554;   -0,500
558,479;19955,342;   -1,991;    1,318
559,061;20099,661;   -0,719;   -0,864
559,643;20444,569;   -0,264;    0,045
560,225;20802,764;    1,645;    2,864
560,807;20842,842;    0,918;    0,318
561,389;20304,599;    0,554;    2,318
561,971;21148,730;    0,463;    2,136
562,553;20914,614;   -1,628;    1,591
563,135;21055,435;   -0,537;    1,136
563,717;20653,026;    3,372;    1,136
564,298;21403,712;    3,645;   -0,045
564,880;21204,680;    0,645;   -1,409
565,462;21368,953;    0,645;    1,318
566,043;22612,273;   -0,446;    2,318
566,625;22190,898;    1,918;    1,227
567,207;22042,362;    1,099;    1,682
567,788;23256,779;   -1,264;    1,500
568,370;24136,829;    1,917;   -0,500
568,951;24056,274;    0,190;    0,227
569,533;24986,978;   -0,628;   -0,500
570,114;25440,039;   -0,446;    0,682
570,695;26038,180;   -0,174;   -1,318
571,277;26672,671;   -0,265;   -1,682
571,858;27526,417;    2,008;   -1,136
572,439;28496,063;    1,554;   -1,045
573,021;28713,933;    2,099;   -2,773
573,602;29251,704;   -1,265;    0,318
574,183;30328,535;   -2,083;    2,227
574,764;30476,379;   -1,629;    0,409
575,345;31125,041;    0,917;   -0,136
575,926;31736,957;   -0,356;    0,136
576,507;31692,239;    1,099;   -0,227
577,088;32900,841;    3,099;    1,682
577,669;32943,555;    0,735;    1,955
578,250;33866,535;    0,644;   -1,045
578,831;34640,044;   -1,356;   -2,227
579,412;34856,724;   -0,810;    0,955
579,993;35742,449;    1,008;    0,227
580,573;36142,675;   -0,629;   -0,955
581,154;35108,417;    0,735;   -0,591
581,735;36021,237;    0,644;    0,773
582,315;35485,328;   -0,629;    2,136
582,896;35754,288;   -0,174;    1,227
583,477;35093,543;    0,189;    1,227
584,057;35285,324;    0,553;    0,955
584,638;35645,722;    2,553;    2,318
585,218;35612,394;   -0,538;    2,682
585,799;35751,888;    0,281;   -0,227
586,379;35662,023;    0,372;    1,591
586,959;34217,421;    0,735;    0,318
587,540;33364,547;   -0,629;    2,227
588,120;32973,151;    1,007;   -0,045
588,700;31905,214;    2,553;    2,136
589,281;32284,699;    0,462;   -0,955
589,861;32227,342;    0,099;   -1,682
590,441;32001,811;    2,371;   -2,682
591,021;30867,802;   -0,265;   -2,591
591,601;31060,528;   -0,537;    0,500
592,181;31026,974;   -0,719;   -0,773
592,761;30294,470;    0,007;    1,409
593,341;30186,922;   -0,901;    0,045
593,921;30237,898;   -0,265;    1,591
594,501;30105,182;   -0,538;    1,318
595,081;29915,820;    0,917;   -0,318
595,661;30274,357;   -1,447;    0,955
596,240;30789,380;   -0,537;    0,136
596,820;30522,030;    0,372;    1,955
597,400;30748,723;    2,008;    0,773
597,980;30921,238;    2,008;    1,045
598,559;30829,418;    2,735;   -0,227
599,139;30502,119;   -0,174;   -1,227
599,718;30461,573;   -0,174;   -0,409
600,298;30737,998;    0,735;    0,682
600,877;31023,270;    2,917;    1,409
601,457;31246,556;    2,281;    1,136
602,036;31186,608;    0,190;    2,045
602,616;31441,591;    0,644;    1,682
603,195;31798,728;   -0,355;    3,500
603,774;31353,303;   -0,901;    2,045
604,354;31234,563;    0,826;   -0,500
604,933;30676,314;    0,463;    1,864
605,512;30764,106;    3,554;    0,591
606,091;30823,619;   -0,537;    3,773
606,671;31619,897;    0,281;    0,773
607,250;30690,918;    1,644;    3,136
607,829;30935,855;    2,372;    3,227
608,408;30732,746;    1,190;    2,591
608,987;29730,689;    1,281;    3,409
609,566;30051,004;   -1,265;   -2,500
610,145;30142,244;   -1,082;    0,682
610,723;30540,229;    4,372;    6,864
611,302;29826,230;   -0,446;    1,682
611,881;29283,315;    5,008;   11,227
612,460;30114,222;    1,645;    3,955
613,039;30511,589;   -0,082;    2,045
613,617;29245,023;    1,736;    4,773
614,196;29445,620;    1,099;    1,227
614,775;29757,989;    1,009;    2,409
615,353;29648,565;    0,736;    0,864
615,932;29400,472;    0,100;    2,409
616,510;30031,978;    0,554;    0,591
617,089;29484,289;    7,100;   17,591
617,667;29156,028;    2,372;    6,136
618,246;29039,571;   -1,537;    1,318
618,824;29226,398;   -3,355;   -0,955
619,402;28762,409;   -2,900;   -1,773
619,981;29295,998;   -0,173;   -1,045
620,559;29083,323;    0,009;    1,682
621,137;28507,353;   -0,718;    1,864
621,715;28597,065;   -1,173;   -0,682
622,293;28492,399;   -0,537;   -0,773
622,871;28926,818;   -0,718;    0,500
623,450;28532,028;    0,373;   -0,864
624,028;28414,892;    0,191;   -0,955
624,606;28058,354;   -1,718;    1,682
625,183;28382,444;   -1,536;   -1,136
625,761;28008,979;    1,009;    1,136
626,339;28347,282;    1,373;    2,591
626,917;28745,574;   -0,172;   -0,045
627,495;28703,458;   -0,354;    1,318
628,073;28064,060;   -0,263;    2,864
628,650;27790,917;    0,100;    2,136
629,228;28224,474;    0,373;    4,409
629,806;27581,938;    2,282;    1,136
630,383;27892,542;    1,464;   -0,318
630,961;27656,791;    2,555;   -0,955
631,539;27398,033;    2,464;    0,227
632,116;26808,336;   11,373;   15,409
632,694;27336,109;    2,555;    6,500
633,271;27652,894;    0,828;    2,682
633,848;27594,952;    1,828;    2,045
634,426;27569,390;   -1,081;    1,773
635,003;26647,519;    1,101;   -0,409
635,580;26995,386;    1,192;    3,682
636,158;27611,922;    3,737;    1,227
636,735;27545,018;    0,555;   -0,500
637,312;27692,425;   -0,809;   -0,682
637,889;27822,576;   -4,354;   -0,682
638,466;27242,504;   -3,990;   -0,409
639,043;27243,412;    2,101;   -1,136
639,620;27599,549;   -2,262;   -0,955
640,197;27943,995;    1,100;    1,682
640,774;28025,794;   -0,172;    1,136
641,351;28429,320;    0,737;    1,136
641,928;27818,119;   -0,627;    1,409
642,505;27509,282;    0,828;   -0,500
643,082;27586,081;   -1,718;    1,227
643,658;26575,698;   -0,718;    1,500
644,235;27315,315;    1,191;    2,500
644,812;27686,023;    1,918;    0,773
645,388;27392,277;   -0,991;    1,409
645,965;27510,803;   -0,809;    1,682
646,542;27578,875;   -1,445;   -0,227
647,118;27563,856;    1,009;   -0,955
647,695;27882,928;   -0,263;    1,136
648,271;27788,636;   -0,536;    0,500
648,848;28117,617;    0,736;    2,227
649,424;27938,416;    0,827;    1,318
650,000;27761,760;   -0,354;   -1,045
650,577;27533,286;   -0,627;   -0,955
651,153;28033,722;   -1,809;    0,955
651,729;29130,793;    1,191;    0,864
652,305;29864,138;    0,645;    2,773
652,881;35947,482;   -0,082;    1,136
653,458;43381,918;    1,100;    0,227
654,034;46907,990;    0,282;    1,591
654,610;48207,061;    0,554;    0,773
655,186;49518,315;    0,645;    3,045
655,762;49187,569;   -0,991;    0,409
656,338;49210,186;    0,100;    0,136
656,913;50138,985;   -0,082;    0,409
657,489;49426,602;    0,827;   -0,318
658,065;49400,128;   -0,173;   -1,591
658,641;50111,382;   -0,900;   -0,864
659,217;49320,454;   -0,991;    0,409
659,792;48782,344;    0,645;   -0,409
660,368;48928,961;   -2,173;   -0,682
660,944;48016,123;   -2,082;    1,227
661,519;41858,286;   -0,628;    0,409
662,095;35248,721;   -1,719;    0,591
662,670;30899,339;    1,281;   -0,136
663,246;29922,683;    1,009;   -0,409
663,821;29275,119;    0,281;    1,682
664,396;28789,008;    0,009;    1,864
664,972;29097,989;    0,009;   -0,500
665,547;29375,607;    1,372;    0,136
666,122;29444,406;   -1,082;    0,318
666,698;29801,205;   -0,173;    0,318
667,273;29078,458;   -0,173;    0,136
667,848;29949,166;    2,372;    1,500
668,423;29840,329;    2,190;    2,318
668,998;30356,037;    2,827;   -0,682
669,573;30943,200;   -3,264;   -1,500
670,148;30697,817;   -1,446;   -0,682
670,723;30526,889;   -1,810;    0,318
671,298;30989,142;    2,372;    1,045
671,873;31130,941;   -0,082;   -0,136
672,448;31010,104;    0,645;    0,136
673,023;31310,630;   -1,992;   -0,227
673,597;31741,429;    0,827;    2,318
674,172;31504,137;   -0,355;    0,318
674,747;30936,846;    0,372;   -1,045
675,321;30737,826;   -0,628;    3,318
675,896;30323,716;    0,645;    1,045
676,471;31401,697;    2,645;    1,591
677,045;31156,860;   -1,264;    0,682
677,620;31212,386;    0,190;    1,136
678,194;31515,094;   -2,628;    1,136
678,769;31054,166;   -1,083;   -0,318
679,343;31336,147;   -0,628;    1,773
679,917;31197,310;   -1,446;    1,955
680,492;31284,109;    0,826;    3,227
681,066;31412,635;    3,372;    0,409
681,640;31408,707;    1,463;   -0,318
682,214;32362,960;    0,735;    0,500
682,788;31877,850;   -1,356;   -0,773
683,363;31808,558;   -1,810;    1,682
683,937;31501,175;   -1,719;   -0,318
684,511;32293,611;    0,463;   -0,591
685,085;31962,864;   -1,356;    0,318
685,659;31652,027;   -2,538;    0,864
686,232;32009,826;   -0,356;   -0,318
686,806;31672,171;   -0,901;    0,409
687,380;32345,333;   -0,174;    0,591
687,954;32516,496;   -1,174;    1,136
688,528;32250,840;   -0,719;    1,955
689,101;33014,094;   -3,992;    1,045
689,675;32652,984;   -0,356;   -0,136
690,249;31985,692;   -0,719;    0,409
690,822;32282,037;    0,280;    0,318
691,396;32383,836;   -0,265;    1,227
691,969;31784,998;    1,280;    0,136
692,543;32283,161;   -0,447;   -1,955
693,116;31949,233;   -0,265;   -1,409
693,690;31789,941;    0,099;    0,500
694,263;32373,831;   -1,083;    2,955
694,836;32399,902;    1,371;    3,591
695,410;31036,974;   -0,265;    1,773
695,983;31508,864;    0,189;    0,591
696,556;31475,845;   -0,447;   -1,045
697,129;31819,371;   -0,356;    1,409
697,703;31455,898;   -1,629;    1,955
698,276;31380,878;    1,462;   -0,773
698,849;31214,587;    1,280;    1,409
699,422;31563,204;   -1,083;    0,591
699,995;31288,094;    0,007;    0,136
700,568;31821,347;   -0,629;    3,045
701,140;31799,237;   -2,811;    1,682
701,713;31571,491;   -0,174;    2,409
702,286;31349,744;   -0,538;    0,864
702,859;31179,816;   -0,902;   -0,591
703,432;30322,706;    0,825;    0,682
704,004;30803,778;    0,462;    0,318
704,577;30688,668;   -0,629;    0,136
705,150;31286,103;    0,189;    2,500
705,722;31085,448;   -0,356;   -3,227
706,295;30836,065;   -0,175;   -0,591
706,867;30674,591;   -0,175;    1,955
707,440;30913,299;   -1,720;   -0,409
708,012;31198,553;    0,462;    0,591
708,584;31107,443;    2,462;    0,227
709,157;31371,424;    1,825;   -0,591
709,729;30989,132;    2,280;    2,045
710,301;31865,113;    0,734;    0,045
710,874;31904,912;   -1,447;   -0,227
711,446;30749,802;    0,371;    0,864
712,018;30633,510;    0,098;    0,500
712,590;30358,581;   -1,993;    1,682
713,162;30895,744;    0,825;    1,318
713,734;31138,179;    1,825;   -2,045
714,306;31032,069;   -1,902;   -0,409
714,878;29705,778;    0,825;    0,864
715,450;30560,486;    0,643;    0,864
716,022;30768,285;    1,552;    1,318
716,593;30887,629;    0,189;    0,591
717,165;30790,974;   -3,175;   -1,227
717,737;30565,136;    0,280;    0,409
718,309;30188,299;    0,280;   -0,045
718,880;30143,643;   -0,539;   -1,409
719,452;30341,352;   -0,175;   -1,591
720,024;29976,332;    0,734;   -0,591
720,595;30465,222;   -2,902;    0,955
721,167;30035,112;    0,370;   -2,045
721,738;29566,639;   -0,812;   -1,045
722,309;29553,710;   -0,993;   -1,227
722,881;29331,509;   -1,357;    0,773
723,452;29952,763;   -2,630;    2,864
724,023;30132,744;   -0,721;    2,682
724,595;29877,725;    0,007;    0,682
725,166;29605,251;    0,007;   -0,409
725,737;29314,868;    1,734;    0,227
726,308;29334,031;   -0,266;    0,318
726,879;29835,193;   -1,630;    1,227
727,450;29706,811;    0,552;   -0,045
728,021;29609,246;    3,097;    0,682
728,592;29430,954;    0,734;    0,500
729,163;29775,571;    0,643;   -0,136
729,734;29818,643;    0,188;   -0,227
730,305;30179,079;    1,734;    0,136
730,876;30525,969;    0,188;    2,955
731,447;30294,949;    2,188;    2,682
732,017;30388,203;    1,097;    1,864
732,588;29810,093;    0,734;    1,227
733,159;30019,619;    0,643;   -1,045
733,729;29852,691;    0,006;    0,409
734,300;29136,035;    0,915;    0,864
734,870;29539,834;    3,461;    0,591
735,441;30115,270;    0,370;   -0,591
736,011;29912,978;    0,643;   -1,591
736,582;29867,141;   -0,812;    0,045
737,152;29256,758;   -1,721;   -2,045
737,722;29696,557;   -0,267;   -0,682
738,293;29385,720;   -1,358;    1,318
738,863;29270,700;    2,461;    2,318
739,433;29077,772;    5,279;    0,318
740,003;29694,117;   -0,994;   -0,682
740,573;29139,734;    2,097;   -1,591
741,143;29061,715;   -1,085;    0,318
741,713;29839,241;    1,188;   -0,500
742,283;29533,404;    0,915;    1,591
742,853;29284,203;    1,915;    1,591
743,423;28678,184;    1,733;    0,045
743,993;28867,255;   -0,358;    1,500
744,563;28224,600;    0,097;   -0,864
745,133;28181,671;   -0,812;   -0,864
745,702;28813,107;   -0,267;    1,773
746,272;28046,179;   -0,176;    0,591
746,842;27793,250;   -1,358;   -0,591
747,411;28214,413;   -0,267;   -0,318
747,981;28415,394;    0,097;    0,500
748,551;28416,466;    2,278;   -1,045
749,120;28294,628;    0,642;   -0,227
749,690;28717,064;   -0,631;    2,409
750,259;29048,226;    1,369;    2,955
750,828;28981,116;    1,551;   -1,955
751,398;29237,188;    1,278;   -0,045
751,967;28779,442;    2,187;    0,409
752,536;28936,332;   -0,813;   -0,227
753,105;29353,222;    0,096;    0,227
753,675;29192,657;    0,096;    1,773
754,244;29130,001;   -0,904;    3,591
754,813;29193,255;    0,551;    1,227
755,382;28797,145;    0,460;    0,955
755,951;29375,944;    1,551;    3,682
756,520;28869,107;   -0,085;    1,864
757,089;29485,906;    0,278;    0,500
757,658;29703,886;    1,733;    1,227
758,227;29662,504;    1,096;    0,318
758,795;29956,848;    1,187;    1,136
759,364;30190,374;   -0,086;   -0,591
759,933;29172,537;   -1,176;   -0,045
760,501;28618,791;    0,733;   -1,318
761,070;29133,135;   -2,813;   -1,409
761,639;29855,571;   -1,904;    1,318
762,207;29163,006;    1,551;   -0,955
762,776;29142,078;    0,369;    0,864
763,344;29081,877;   -0,995;    0,591
763,913;28123,130;   -0,722;    1,409
764,481;28813,293;    1,005;   -0,136
765,049;28582,001;   -1,358;    1,409
765,618;28462,437;   -0,086;    0,318
766,186;28514,599;    0,278;    0,136
766,754;28701,216;    0,005;    1,864
767,322;27713,925;   -1,995;    0,409
767,890;27807,360;   -0,722;   -1,773
768,459;28209,704;   -2,177;   -0,318
769,027;28332,140;    1,641;    3,409
769,595;27251,393;    3,278;    2,591
770,163;27658,829;    3,823;    2,955
770,730;27392,264;    0,732;   -0,136
771,298;27200,336;    0,187;   -1,409
771,866;27342,226;   -1,541;    4,955
772,434;27696,207;   -0,631;   -1,864
773,002;27822,915;    0,005;    0,682
773,569;27479,896;    0,914;    1,682
774,137;27331,058;   -0,268;   -0,045
774,705;28047,766;    0,278;   -0,136
775,272;27577,293;    0,641;    0,682
775,840;27277,092;   -0,177;    2,682
776,407;26893,709;    0,277;    1,955
776,975;26499,235;   -0,632;    0,318
777,542;27400,216;   -1,086;   -0,045
778,110;27233,288;   -1,268;   -0,045
778,677;26910,632;   -2,359;   -0,864
779,244;26660,159;    2,186;    1,045
779,812;26802,594;    1,823;    0,864
780,379;26632,939;    0,005;    1,136
780,946;26905,828;    1,005;   -0,773
781,513;27299,991;   -1,450;    0,318
782,080;26627,336;   -0,086;    2,864
782,647;27364,680;   -0,268;    3,045
783,214;26969,570;   -0,177;    3,864
783,781;26560,005;   -0,723;   -0,682
784,348;26408,168;   -0,632;    1,500
784,915;26845,513;   -3,177;    0,318
785,482;26679,857;    1,368;    2,591
786,049;27039,474;    0,186;   -0,591
786,615;27181,455;    0,277;   -0,955
787,182;26921,163;    0,186;   -0,682
787,749;26585,417;   -2,814;    1,409
788,315;25924,943;   -1,632;   -0,409
788,882;26222,742;    1,550;   -1,227
789,448;26944,268;    1,732;   -0,955
790,015;26872,613;    1,095;    3,227
790,581;26428,412;    1,459;    0,227
791,148;26372,666;    0,641;    1,045
791,714;26569,010;   -0,541;    3,136
792,280;26217,536;    0,186;    1,591
792,847;25754,517;    0,550;    2,500
793,413;26336,134;   -0,269;   -0,318
793,979;25847,933;    3,459;   -1,318
794,545;25976,369;    4,459;    2,682
795,111;25374,350;    2,186;    1,318
795,678;25549,330;    0,731;   -1,682
796,244;25190,675;    3,368;    0,136
796,810;25706,747;    1,731;    0,773
797,375;25439,728;    0,549;   -2,136
797,941;25415,981;   -0,541;    0,591
798,507;25579,598;   -0,451;   -0,955
799,073;25112,216;   -0,360;    0,591
799,639;25136,651;   -2,632;    3,136
800,205;25198,359;    0,095;    2,682
800,770;24711,613;    0,640;    1,773
801,336;24814,593;    1,368;   -0,955
801,901;24531,574;    4,549;    3,136
802,467;25035,192;   -0,542;    2,045
803,033;24372,809;   -0,087;    0,864
803,598;24658,971;    1,913;   -1,045
804,163;24632,407;    1,095;   -0,318
804,729;24651,388;   -0,178;    1,136
805,294;25064,550;    0,822;    2,227
805,859;24775,895;    0,731;   -0,409
806,425;24231,148;    1,186;    2,682
806,990;23886,038;    2,186;    4,318
807,555;24421,928;   -1,451;    2,591
808,120;24317,727;    0,822;   -0,409
808,685;24328,435;    0,185;   -2,500
809,250;23757,689;    0,004;   -0,500
809,815;24122,488;    1,913;    0,682
810,380;24684,832;   -0,269;    1,591
810,945;25269,177;   -1,087;    2,045
811,510;24332,794;    2,094;    1,591
812,075;24048,775;   -0,633;   -1,409
812,640;24118,574;    2,003;    1,409
813,204;24141,373;    0,822;   -0,227
813,769;24633,899;    2,094;   -0,045
814,334;24064,062;    0,458;    0,864
814,898;24096,770;    0,367;    0,591
815,463;23941,387;    1,276;   -0,773
816,027;23900,186;   -0,724;   -2,318
816,592;24006,349;    0,640;   -2,045
817,156;23506,966;    2,094;    1,136
817,721;23409,493;    4,276;    2,318
818,285;23289,928;    2,912;    1,500
818,849;23972,182;   -1,451;    1,682
819,414;23841,162;   -0,269;    2,955
819,978;23383,143;   -1,269;    1,773
820,542;24011,942;    2,003;    0,500
821,106;23659,923;   -0,815;    0,682
821,670;23774,359;   -0,815;    2,591
822,234;23520,976;   -0,270;    1,409
822,798;22860,866;    0,003;    0,500
823,362;22795,483;   -0,633;    4,227
823,926;22114,282;    0,094;    1,136
824,490;22370,535;   -0,997;   -0,682
825,054;22870,425;   -0,088;   -1,136
825,618;22474,497;   -1,542;   -1,500
826,181;22415,114;    0,458;   -1,318
826,745;22343,277;    1,367;   -1,045
827,309;22706,894;    1,185;    1,318
827,872;22000,330;    1,367;    0,955
828,436;23003,674;    1,185;   -0,773
828,999;23050,928;   -0,997;    1,227
829,563;21842,636;   -0,179;    1,136
830,126;21671,253;   -0,179;   -0,591
830,690;21669,507;   -1,997;    2,864
831,253;21218,851;   -0,543;    2,227
831,816;21337,650;   -1,906;    0,500
832,380;21235,813;    0,185;    0,864
832,943;21479,885;   -1,361;   -0,500
833,506;20960,865;    2,639;   -1,227
834,069;21759,119;    3,912;   -0,955
834,632;21775,736;    1,730;    1,318
835,195;21681,990;    1,003;    0,955
835,758;20846,880;   -0,997;    1,955
836,321;20740,497;    0,730;   -1,045
836,884;20825,205;   -0,725;   -0,955
837,447;20805,913;   -2,816;    1,773
838,010;21090,712;    0,366;    3,227
838,573;21363,966;   -1,179;    0,773
839,135;21348,037;   -1,361;   -0,955
839,698;20797,746;    1,275;    0,409
840,261;20295,999;    1,003;   -0,227
840,823;20098,889;   -0,543;    0,864
841,386;20406,870;   -0,452;   -2,409
841,948;20283,760;   -1,361;    1,773
842,511;20001,377;    0,912;    1,682
843,073;20167,449;    1,912;    0,227
843,636;19931,702;   -0,361;   -0,227
844,198;19886,138;    0,911;    0,591
844,760;19999,482;    1,093;    1,955
845,322;19683,827;    0,548;    1,136
845,885;20169,080;    0,730;    0,591
846,447;20569,061;   -1,998;    0,227
847,009;20157,042;    1,911;   -0,682
847,571;20434,932;    0,820;   -2,045
848,133;20541,095;   -1,089;   -1,864
848,695;20372,803;   -0,543;    1,409
849,257;19964,420;   -1,089;   -1,682
849,819;20140,583;   -0,998;   -0,409
850,381;20148,291;   -0,725;   -0,864
850,942;20541,272;    1,093;   -0,591
851,504;20510,798;    1,184;    0,227
852,066;20525,052;    1,275;   -1,591
852,628;19994,578;   -0,180;    1,955
853,189;19511,559;    1,638;    2,682
853,751;19672,176;   -0,907;    1,409
854,312;19484,975;   -0,453;   -1,682
854,874;19977,410;   -2,089;   -0,773
855,435;20533,573;   -0,907;   -1,682
855,997;20718,008;   -1,816;   -0,136
856,558;19993,535;    0,366;    1,773
857,119;20024,879;    0,820;    2,864
857,681;19717,133;    0,002;    0,318
858,242;19806,295;    1,911;   -2,136
858,803;20224,822;    0,456;   -0,773
859,364;20772,621;    0,184;   -4,773
859,925;20091,692;   -2,453;   -0,955
860,486;19993,582;   -0,453;   -0,955
861,047;19672,381;   -0,544;   -1,227
861,608;19485,362;   -1,089;   -0,773
862,169;19600,343;    0,638;   -0,045
862,730;19333,960;    0,456;    1,409
863,291;19621,850;   -0,635;   -0,500
863,852;20041,922;   -0,635;    1,955
864,412;19461,085;   -0,271;   -0,864
864,973;17976,793;   -0,089;    0,500
865,534;17833,046;   -1,726;    0,227
866,094;19428,664;    1,820;    0,227
866,655;19084,463;    1,274;    3,318
867,215;19324,625;    0,274;    0,136
867,776;19183,515;    0,547;   -0,136
868,336;19286,042;   -1,453;    0,136
868,897;18770,750;    2,638;    1,682
869,457;18453,458;    1,365;    0,318
870,017;18695,802;    0,547;   -1,227
870,578;19200,056;   -0,817;    0,773
871,138;18895,037;   -2,089;   -0,955
871,698;18450,199;   -0,817;   -1,318
872,258;18343,271;   -0,453;   -2,864
872,818;18742,797;    2,729;    0,045
873,378;18656,142;    0,638;    1,045
873,938;18141,214;    0,547;    0,500
874,498;18503,376;    0,274;   -1,955
875,058;18414,721;    2,183;    1,773
875,618;18295,338;    1,910;   -2,682
876,177;18212,319;    1,274;    0,136
876,737;17802,754;   -0,090;    1,955
877,297;17813,826;    0,183;    1,955
877,856;17834,170;   -0,362;    0,318
878,416;17756,515;    1,183;   -0,136
878,976;18026,950;   -1,817;    0,409
879,535;18153,840;    0,092;    3,136
880,095;17854,730;   -0,544;    0,045
880,654;18040,075;   -1,090;    1,318
881,213;18127,056;    2,456;    1,500
881,773;17739,764;    2,637;    2,682
882,332;18108,472;    3,365;    5,136
882,891;17932,271;    3,092;    2,136
883,451;18421,433;   -1,272;    1,682
884,010;17870,505;   -2,908;   -0,409
884,569;17949,122;   -0,999;   -0,045
885,128;18053,376;    2,819;   -1,864
885,687;18199,357;    4,455;    0,682
886,246;17863,429;    1,455;    2,136
886,805;17628,046;    2,455;    2,045
887,364;17916,208;   -0,999;   -0,500
887,922;18327,644;   -1,181;    0,045
888,481;17808,897;   -1,545;    0,591
889,040;18093,787;    1,183;    2,136
889,599;18835,132;    2,455;    1,409
890,157;18860,113;    1,455;    2,409
890,716;18538,184;   -0,090;    0,227
891,274;18366,165;    0,092;   -1,136
891,833;18847,964;    1,546;    0,864
892,391;18696,036;   -0,454;    0,500
892,950;18736,835;    1,819;   -0,773
893,508;19135,180;    0,455;   -0,409
894,067;18386,706;    0,637;    0,136
894,625;18314,687;   -0,636;   -1,500
895,183;18557,213;   -0,363;   -0,682
895,741;18457,558;    1,728;   -1,773
896,299;18298,357;   -0,545;   -2,409
896,858;18464,519;    0,819;   -1,591
897,416;18606,136;    2,728;   -1,318
897,974;18323,117;    1,819;    0,318
898,532;18504,825;    6,091;    2,682
899,089;18371,988;    2,091;   -0,682
899,647;18416,696;   -1,454;    1,318
900,205;18080,859;    1,182;    1,045
900,763;18280,840;   -0,454;    0,227
901,321;18278,002;    2,364;   -1,409
901,878;17716,710;   -1,000;   -0,773
902,436;17597,419;   -1,363;    1,318
902,994;18024,309;    4,728;    3,682
903,551;17389,198;    0,728;    0,409
904,109;17767,816;    0,182;   -1,409
904,666;17310,069;    2,455;    1,045
905,224;17143,323;    0,182;   -0,409
905,781;16893,940;    0,727;   -0,318
906,338;16978,285;   -1,363;    1,045
906,895;16930,993;    0,637;    2,045
907,453;16863,519;    1,727;    1,136
908,010;16858,682;   -0,909;    0,409
908,567;16463,753;    1,273;    0,591
909,124;15936,280;    0,364;   -1,500
909,681;16028,079;   -2,909;    0,682
910,238;16170,787;    0,636;   -1,318
910,795;16522,677;   -0,273;   -1,136
911,352;16103,586;   -2,909;   -2,682
911,909;15525,131;   -1,364;   -0,864
912,466;16040,222;   -3,182;    1,500
913,022;15548,313;   -1,636;    0,500
913,579;15922,404;   -0,909;    2,045
914,136;15602,677;    1,636;    0,955
914,692;15956,495;    0,091;   -1,227
915,249;15546,949;    1,455;    0,409
915,806;15806,313;    0,182;    1,955
916,362;15528,040;    1,909;    1,864
916,918;15084,859;    2,000;    1,045
917,475;15043,313;   -1,182;    0,955
918,031;15111,404;    3,364;   -0,045
918,587;14523,677;   -0,909;   -0,318
919,144;14743,949;   -2,273;    0,227
919,700;15081,313;    1,727;    0,773
920,256;14671,949;    0,727;    0,045
920,812;14228,131;   -0,727;   -1,045
921,368;14234,859;   -1,727;   -1,045
921,924;13862,859;    0,182;   -0,136
922,480;13469,131;   -0,545;    1,227
923,036;14084,949;    1,273;    1,955
923,592;14005,677;    0,455;    0,318
924,148;13926,222;    0,455;   -0,955
924,704;13202,222;   -1,364;   -0,409
925,259;13418,131;   -0,273;    0,591
925,815;13237,222;    1,455;    0,500
926,371;12694,313;    2,909;    1,409
926,926;12565,949;    2,091;    0,591
927,482;12201,404;   -1,364;    0,773
928,037;12083,131;    0,909;    2,045
928,593;12379,313;    1,636;    1,045
929,148;12152,040;   -1,818;   -1,500
929,704;11636,495;   -1,455;   -0,500
930,259;11876,586;    0,091;   -0,136
930,814;10901,404;   -0,818;    1,955
931,369;10550,131;    1,091;   -0,773
931,925;10408,677;   -0,091;    0,136
932,480;10316,586;   -2,818;   -2,591
933,035;10177,131;    0,545;   -0,318
933,590; 9959,313;    0,364;   -1,773
934,145; 9531,222;   -1,364;   -0,318
934,700; 9853,495;    0,455;   -0,591
935,255; 9666,768;   -0,091;    0,045
935,809; 8913,586;    3,182;    0,864
936,364; 8010,586;   -0,455;   -0,136
936,919; 7947,313;    0,455;   -1,773
937,474; 7808,222;    1,455;    0,136
938,028; 7575,404;   -1,636;    1,136
938,583; 7067,222;    1,818;    4,682
939,138; 7297,404;    2,091;    2,136
939,692; 6688,040;    1,636;   -1,136
940,247; 6409,131;   -0,727;   -1,045
940,801; 5912,040;   -0,636;    0,227
941,355; 5810,586;   -0,364;    2,591
941,910; 5420,677;   -0,273;   -2,136
942,464; 5552,040;   -0,818;   -0,318
943,018; 5319,222;    1,000;   -0,227
943,572; 5268,040;    2,545;   -0,682
944,126; 4655,859;    0,091;   -0,409
944,681; 4524,495;    3,091;    0,227
945,235; 4523,313;    1,000;   -0,591
945,789; 4464,949;    0,364;   -1,864
946,342; 4561,768;    0,455;   -0,591
946,896; 4364,404;   -2,273;    0,955
947,450; 4123,313;    1,545;   -0,227
948,004; 4303,040;    1,727;   -0,045
948,558; 4288,768;    0,273;   -0,864
949,111; 4237,404;   -0,273;   -0,318
949,665; 4263,313;    1,636;   -0,682
950,219; 4122,677;   -0,091;   -1,045
950,772; 4204,949;   -1,909;    1,864
951,326; 4091,586;    0,545;   -0,955
951,879; 4201,859;    0,727;   -2,318
952,433; 4232,222;    0,000;    2,227
952,986; 4053,313;    2,909;    0,682
953,539; 4041,949;   -0,273;    0,591
954,093; 3956,313;    0,545;   -1,318
954,646; 4091,313;    0,909;    1,318
955,199; 3883,859;    0,000;   -0,500
955,752; 3768,768;   -0,455;    1,773
956,305; 3713,859;   -0,091;    2,955
956,858; 3907,859;    0,818;   -0,318
957,411; 4083,040;   -0,545;    2,136
957,964; 3905,768;    1,364;    2,136
958,517; 3897,404;   -1,545;    3,136
959,070; 3709,495;   -0,455;    1,955
959,623; 3782,949;    1,091;    1,500
960,176; 3536,859;    1,727;    2,045
960,728; 3514,768;   -2,727;    0,773
961,281; 3575,222;    0,545;    0,500
961,834; 3646,768;   -0,909;    0,864
962,386; 3533,495;    1,727;    1,045
962,939; 3465,222;    0,364;   -0,318
963,491; 3612,949;    0,455;    1,136
964,043; 3471,586;    1,182;    2,409
964,596; 3608,404;   -1,000;    2,227
965,148; 3440,949;   -1,000;    1,773
965,700; 3361,040;    1,091;   -0,227
966,253; 3532,040;   -0,636;    0,318
966,805; 3339,768;   -2,273;    0,773
967,357; 3393,859;    1,091;   -1,500
967,909; 3354,495;    0,455;   -1,227
968,461; 3484,495;    0,545;    3,136
969,013; 3406,677;   -0,182;   -0,864
969,565; 3476,404;   -0,455;   -1,136
970,117; 3515,586;   -0,364;    1,045
970,669; 3371,222;    0,182;   -0,136
971,220; 3228,495;   -0,455;   -1,500
971,772; 3139,677;   -0,636;   -0,318
972,324; 3270,040;    0,091;   -0,500
972,876; 3220,859;    0,818;   -0,045
973,427; 3373,586;    1,909;   -1,045
973,979; 3335,222;   -0,727;   -2,500
974,530; 3384,677;    1,818;    1,318
975,082; 3368,677;   -0,545;    1,682
975,633; 3244,677;    1,091;    1,682
976,184; 3404,859;    0,909;    0,773
976,736; 3182,313;    0,091;    0,227
977,287; 2964,040;   -0,909;   -0,500
977,838; 3159,495;    0,909;   -0,318
978,389; 3217,586;   -1,000;   -0,500
978,940; 3099,040;    0,545;   -0,409
979,491; 3107,768;    0,091;   -0,500
980,042; 3082,222;    0,182;    3,045
980,593; 3138,859;   -2,545;    0,227
981,144; 3168,313;    2,545;   -0,500
981,695; 3121,222;    1,455;    1,500
982,246; 3104,949;   -0,273;    1,045
982,797; 3268,040;   -1,727;    0,682
983,347; 3383,768;    0,364;    0,591
983,898; 3554,586;    3,091;    0,409
984,449; 3338,768;    2,182;    0,773
984,999; 3261,768;    1,455;   -1,136
985,550; 3018,040;    0,182;   -0,318
986,100; 3067,495;   -0,455;   -0,318
986,651; 3100,949;   -0,818;    0,045
987,201; 3092,768;   -1,000;   -0,591
987,751; 3186,949;    0,818;    2,864
988,302; 3156,949;    2,636;    1,500
988,852; 3180,404;    0,455;   -1,136
989,402; 3228,768;    0,091;    0,682
989,952; 3137,586;   -2,182;    0,864
990,502; 3239,131;   -0,091;    0,682
991,052; 3211,313;   -0,727;    0,045
991,602; 3067,222;   -2,909;    1,318
992,152; 3049,313;    0,455;    0,682
992,702; 3031,404;    1,364;   -0,045
993,252; 2963,131;   -3,000;   -0,500
993,802; 3045,040;   -0,273;    1,318
994,352; 3274,677;   -1,545;    1,136
994,901; 3363,495;   -0,182;    3,227
995,451; 3290,859;   -0,182;    0,318
996,000; 3401,131;    1,636;    0,318
996,550; 3106,495;    2,273;    0,227
997,100; 3099,859;    1,273;   -0,045
997,649; 3404,586;    2,182;    0,955
998,198; 3004,495;    1,727;   -1,500
998,748; 3189,222;    1,091;   -2,318
999,297; 3086,495;   -0,818;   -0,409
999,846; 3131,859;    1,000;   -0,773
1000,395; 3206,040;   -0,818;    0,500
1000,945; 3153,677;    1,818;   -0,773
1001,494; 3265,313;    2,364;    0,682
1002,043; 3248,131;    4,636;    0,864
1002,592; 3059,222;   -1,091;    1,955
1003,141; 3233,313;   -0,455;   -0,682
1003,690; 3091,313;    1,727;    0,500
1004,238; 3183,586;    1,455;   -0,045
1004,787; 2806,222;    1,364;    1,227
1005,336; 3037,949;    0,364;    0,682
1005,885; 3196,313;    1,364;   -2,773
1006,433; 3351,677;    0,545;    0,955
1006,982; 3389,131;    0,455;    1,682
1007,531; 3282,495;   -1,818;   -0,227
1008,079; 3255,313;   -2,273;    0,500
1008,627; 3390,404;   -1,455;    0,409
1009,176; 3112,313;    0,000;   -1,955
1009,724; 3145,768;    1,091;    0,864
1010,273; 3196,222;    1,273;    0,500
1010,821; 3322,495;    0,091;    1,409
1011,369; 3061,131;   -1,364;    1,318
1011,917; 3032,131;   -1,364;   -0,591
1012,465; 3309,859;    1,273;   -1,591
1013,013; 3434,495;    2,091;   -1,682
1013,561; 3312,677;    0,455;   -0,773
1014,109; 3366,859;   -1,909;    1,682
1014,657; 3219,768;    0,364;    0,591
1015,205; 3350,040;    1,636;   -0,955
1015,753; 3394,222;   -0,545;   -1,409
1016,301; 3431,313;   -2,636;    3,045
1016,848; 3435,586;   -1,273;    0,409
1017,396; 3483,404;    2,545;    0,045
1017,944; 3609,949;    1,182;    1,864
1018,491; 3373,586;    0,273;    1,409
1019,039; 3515,404;    0,455;    0,591
1019,586; 3419,404;   -1,364;    1,682
1020,134; 3529,677;    0,455;    1,500
1020,681; 3561,222;    0,182;   -1,136
1021,228; 3557,131;    2,909;   -2,227
1021,776; 3382,404;    1,182;   -1,136
1022,323; 3588,040;    0,455;    0,773
1022,870; 3516,677;   -1,000;   -0,045
1023,417; 3417,040;    2,636;    1,864
1023,964; 3569,949;    2,636;    1,227
1024,511; 3405,222;    1,000;    0,773
1025,058; 3184,677;    3,182;   -0,045
1025,605; 3250,040;   -2,273;    3,136
1026,152; 3467,677;    1,727;   -0,591
1026,699; 3176,313;    1,818;    1,318
1027,245; 3344,313;   -0,091;    0,318
1027,792; 3563,677;   -1,000;    1,409
1028,339; 3449,495;    2,364;   -0,045
1028,885; 3292,677;    1,000;   -0,227
1029,432; 3239,222;   -0,091;    0,227
1029,978; 3301,222;   -1,000;   -1,591
1030,525; 3194,040;    1,000;    0,409
1031,071; 3423,222;   -1,364;    1,136
1031,618; 3557,222;    0,364;    1,682
1032,164; 3332,949;   -0,091;    3,045
1032,710; 3390,586;    1,636;   -1,500
1033,256; 3290,495;   -0,636;   -0,136
1033,803; 3264,586;   -0,545;    1,500
1034,349; 2988,495;   -1,364;    0,136
1034,895; 3141,495;    0,000;   -0,318
1035,441; 3133,131;   -0,818;    0,318
1035,987; 3129,859;   -2,364;   -0,682
1036,533; 3123,131;   -1,455;   -0,955
1037,078; 3336,222;    1,455;    1,682
1037,624; 3131,404;    2,455;   -0,955
1038,170; 3158,768;    0,455;   -0,318
1038,716; 3079,040;    1,636;   -0,409
1039,261; 2969,859;   -2,273;   -0,773
1039,807; 2912,949;   -0,091;    3,409
1040,352; 2987,859;   -1,909;   -0,318
1040,898; 3044,040;   -1,545;   -0,682
1041,443; 2945,949;   -1,455;   -2,591
1041,989; 2941,677;    1,091;    1,591
1042,534; 2819,313;   -0,364;    2,591
1043,079; 2928,949;    2,909;    0,955
1043,625; 2716,677;    1,818;    0,500
1044,170; 2770,313;   -1,364;    1,045
1044,715; 3028,495;    2,455;    0,955
1045,260; 2851,040;    2,182;   -0,955
1045,805; 2901,677;    1,182;   -0,591
1046,350; 2808,040;    1,364;   -0,409
1046,895; 2784,313;    2,909;    1,591
1047,440; 2718,040;    5,364;    0,409
1047,985; 2622,495;    2,818;   -0,955
1048,530; 2534,586;    1,545;    1,227
1049,074; 2600,768;    0,000;    0,318
1049,619; 2575,949;   -1,364;    1,955
1050,164; 2383,586;    0,455;    0,227
1050,708; 2415,404;   -0,455;    0,045
1051,253; 2781,859;    1,273;   -2,227
1051,797; 2483,859;    0,818;   -1,318
1052,342; 2507,131;   -1,182;    1,045
1052,886; 2523,222;    0,364;   -1,409
1053,430; 2375,404;   -1,364;    0,136
1053,975; 2402,313;   -0,818;   -0,318
1054,519; 2360,131;   -0,727;    3,227
1055,063; 2386,222;    0,909;    1,318
1055,607; 2264,040;   -0,182;    0,227
1056,151; 2300,222;    2,909;    1,682
1056,695; 2220,131;    2,273;   -1,136
1057,239; 2276,040;   -1,727;   -0,682
1057,783; 2292,768;    0,818;   -1,500
1058,327; 2227,404;    0,000;    1,409
1058,871; 2458,131;   -0,545;    1,318
1059,415; 2157,222;   -0,818;   -0,045
1059,958; 2434,677;    1,455;    2,591
1060,502; 2146,222;   -1,000;   -0,773
1061,046; 2041,949;    0,364;   -0,955
1061,589; 2019,131;   -3,000;   -1,136
1062,133; 1901,495;   -1,273;    1,864
1062,676; 1843,768;    1,182;    0,864
1063,220; 1851,313;    1,091;    0,500
1063,763; 1872,040;    0,909;    1,136
1064,306; 1955,859;   -0,909;    1,864
1064,849; 1834,131;   -0,909;    0,591
1065,393; 1850,040;    2,000;   -1,500
1065,936; 1963,495;    0,182;   -0,409
1066,479; 1840,859;   -1,455;    1,318
1067,022; 1847,040;   -0,273;   -0,227
1067,565; 1740,131;   -0,091;   -1,318
1068,108; 1767,404;    0,727;   -0,591
1068,651; 1752,768;   -0,636;    1,409
1069,194; 1678,677;   -0,455;   -1,682
1069,736; 1676,677;   -1,273;    0,955
1070,279; 1658,040;   -1,364;   -0,500
1070,822; 1702,859;   -2,000;   -0,318
1071,364; 1804,040;   -0,364;    1,318
1071,907; 1630,131;   -0,727;    3,227
1072,450; 1504,222;    0,000;   -0,045
1072,992; 1507,404;   -0,273;    3,136
1073,535; 1662,222;    2,091;    2,136
1074,077; 1443,495;   -0,727;    2,045
1074,619; 1409,949;   -1,364;    0,591
1075,161; 1444,859;   -1,091;    1,500
1075,704; 1640,495;    1,545;    1,227
1076,246; 1415,040;   -0,182;    0,682
1076,788; 1342,040;   -0,364;    1,773
1077,330; 1417,313;    1,273;    2,136
1077,872; 1382,131;    0,909;    0,955
1078,414; 1617,859;    2,727;    0,773
1078,956; 1336,949;    1,273;   -0,227
1079,498; 1619,949;    1,636;    0,318
1080,040; 1314,859;    1,909;   -1,318
1080,581; 1257,949;    1,636;   -0,318
1081,123; 1178,040;    0,091;   -0,773
1081,665; 1226,222;   -1,182;   -0,955
1082,206; 1532,404;    1,364;   -0,500
1082,748; 1388,222;    0,727;    2,045
1083,289; 1259,586;   -2,000;    1,318
1083,831; 1167,040;   -0,545;    0,227
1084,372; 1203,313;    0,000;    0,591
1084,913; 1203,131;    1,091;    0,864
1085,455; 1174,949;   -1,909;   -2,045
1085,996; 1138,768;   -2,273;    0,136
1086,537; 1151,040;   -0,091;    0,864
1087,078; 1195,222;   -0,909;   -2,136
1087,619; 1241,495;   -1,273;    0,227
1088,160; 1150,040;    0,000;    1,318
1088,701; 1133,222;   -1,091;    0,682
1089,242; 1070,131;    1,364;   -2,227
1089,783; 1173,040;   -0,273;    1,409
1090,324; 1134,404;    0,455;    0,682
1090,865; 1019,677;    2,727;   -0,409
1091,405;  975,131;    0,727;    2,227
1091,946; 1002,040;    0,182;   -0,955
1092,487;  918,677;    0,818;   -1,409
1093,027; 1111,222;   -1,364;   -1,500
1093,568;  939,859;   -0,364;    1,227
1094,108; 1070,222;    0,273;    1,773
1094,649;  999,040;   -1,182;    0,136
1095,189;  916,859;   -0,636;   -0,682
1095,729;  858,495;   -0,091;    0,955
1096,269;  871,313;    0,727;   -0,955
1096,810; 1205,949;   -1,364;    0,500
1097,350; 1025,222;    1,364;   -0,773
1097,890;  921,586;    0,364;    1,227
1098,430; 1195,677;    2,364;    2,864
1098,970; 1059,495;    2,182;    1,682
1099,510;  914,404;    0,545;   -2,318
1100,050;  832,131;    1,000;   -1,591
1100,589;  808,040;   -0,727;   -0,318
1101,129;  936,677;    0,818;   -0,955
1101,669; 1081,404;    1,727;    2,136
1102,209;  911,131;   -0,091;    2,227
1102,748;  869,222;    0,000;    0,955
1103,288;  849,222;    1,273;   -1,227
1103,827;  880,495;    3,091;   -2,227
1104,367;  747,859;   -0,091;   -2,409
1104,906;  717,040;    1,364;   -1,136
1105,445;  796,859;    0,636;   -1,136
1105,985;  739,677;   -0,727;    1,500
1106,524;  783,768;   -1,727;   -0,682
1107,063;  758,040;   -2,727;    1,409
1107,602;  721,404;   -1,909;   -1,500
1108,141;  650,586;   -1,909;    1,500
1108,680;  761,404;   -3,455;   -0,591
1109,219;  690,677;   -0,909;   -0,500
1109,758;  684,677;    0,455;    0,682
1110,297;  660,768;    1,000;   -0,682
1110,836;  601,586;   -0,727;    0,955
1111,375;  778,495;   -2,545;    0,409
1111,913;  794,768;   -1,000;    0,773
1112,452;  726,586;   -0,273;    0,136
1112,991;  597,586;    1,091;    1,955
1113,529;  555,495;   -0,818;   -0,045
1114,068;  629,949;   -0,273;    2,955
1114,606;  527,222;   -0,364;   -0,955
1115,144;  700,768;   -1,273;    1,045
1115,683;  629,586;   -0,727;    0,318
1116,221;  682,586;   -0,455;   -0,864
1116,759;  584,313;    0,636;   -0,864
1117,297;  798,313;    0,000;    1,864
1117,836;  590,131;   -2,182;   -1,227
1118,374;  612,313;    0,182;   -0,682
1118,912;  549,859;    0,909;    2,682
1119,450;  528,677;    1,000;    0,864
1119,988;  596,222;    1,545;    2,136
1120,525; 1057,404;    5,091;    3,318
1121,063;  747,495;    1,182;    1,864
1121,601;  549,768;   -0,909;   -1,227
1122,139;  501,586;   -0,727;   -2,045
1122,676;  710,040;   -0,727;    2,773
1123,214;  640,768;   -1,182;    4,409
1123,751;  440,586;    1,727;    2,227
1124,289;  579,677;   -0,091;   -0,409
1124,826;  429,859;    1,727;    0,227
1125,364;  354,586;    1,727;   -0,955
1125,901;  554,859;    1,182;    1,227
1126,438;  676,495;    0,818;    0,955
1126,975;  389,313;   -0,727;   -0,773
1127,513;  465,495;    0,273;    2,136
1128,050;  363,040;    1,636;   -0,682
1128,587;  479,131;    2,000;   -0,227
1129,124;  514,859;    0,091;    1,318
1129,661;  368,677;    0,273;    0,227
1130,198;  553,040;    1,636;    0,773
1130,734;  497,404;    0,182;    1,409
1131,271;  343,677;   -0,909;    0,864
1131,808;  525,495;    2,909;    3,045
1132,345;  383,768;    1,545;    0,318
1132,881;  250,586;   -1,545;   -1,864
1133,418;  404,404;    0,727;   -1,136
1133,954;  330,040;    2,455;   -2,682
1134,491;  417,677;    1,364;   -0,773
1135,027;  313,495;    2,364;    0,864
1135,564;  414,404;    0,273;    2,955
1136,100;  396,040;    0,364;    2,136
1136,636;  273,040;   -1,273;   -1,045
1137,172;  382,859;    0,000;   -1,045
1137,708;  299,040;   -1,364;   -1,045
1138,245;  293,586;    1,273;   -1,227
1138,781;  242,222;    1,091;   -3,318
1139,317;  323,313;    1,273;   -1,409
1139,852;  293,949;    3,091;    0,136
1140,388;  427,131;   -1,182;   -0,409
1140,924;  308,586;   -1,091;   -2,227
1141,460;  231,677;   -1,636;    0,136
1141,996;  160,677;   -1,364;    2,682
1142,531;  225,222;    1,364;    3,318
1143,067;  455,404;    1,182;    1,045
1143,602;  518,313;   -0,091;   -0,318
1144,138;  348,495;   -2,636;    1,045
1144,673;  203,040;   -1,455;    1,409
1145,209;  273,949;   -1,909;   -0,318
1145,744;  186,495;   -0,727;    0,864
1146,279;  344,404;    1,818;   -0,136
1146,815;  248,677;    1,545;   -2,682
1147,350;  289,495;   -1,364;    0,045
1147,885;  195,040;   -0,818;   -1,318
1148,420;  193,768;   -2,273;    0,773
1148,955;  177,586;   -1,727;    1,864
1149,490;  206,222;   -0,909;   -1,591
1150,025;  179,404;    0,455;   -1,773
1150,560;  298,949;    1,091;   -0,955
1151,094;  273,313;    1,455;   -0,591
1151,629;  289,677;    1,636;    0,864
1152,164;  206,677;    1,364;    1,318
1152,698;  153,131;   -0,182;   -0,136
1153,233;  106,949;    0,091;   -0,682
1153,767;  159,404;   -3,000;   -2,318
1154,302;  223,404;   -1,455;    1,773
1154,836;  206,586;   -0,455;   -2,136
1155,371;  276,859;   -1,364;    3,682
1155,905;  219,949;   -0,636;    1,682
1156,439;  187,313;   -0,636;   -0,500
1156,973;  220,677;    0,364;    0,318
1157,507;  149,404;   -0,364;    0,682
1158,042;  184,131;   -0,727;    1,045
1158,576;  233,222;    0,182;    1,773
1159,110;  224,677;   -0,818;    2,409
1159,643;  194,040;    0,636;   -0,045
1160,177;  120,949;   -1,545;    1,500

