
Integration time [ms]:   0,040
Averaging Nr. [scans]: 11
Smoothing Nr. [pixels]: 0
Data measured with spectrometer [name]: 7318044SP
Wave   ;Sample   ;Dark     ;Reference
[nm]   ;[counts] ;[counts] ;[counts] 

186,757;   13,049;   31,551;    1,318
187,357;   50,703;   22,551;    0,955
187,958;   23,894;   15,460;   -1,591
188,558;   68,754;    8,915;   -1,227
189,159;   30,008;    6,733;   -4,500
189,759;    4,600;    7,278;   -3,591
190,360;    1,197;    2,824;   -2,136
190,960;   39,534;    2,915;   -4,136
191,560;   62,430;    3,189;   -6,591
192,161;  302,284;    4,372;   -3,500
192,761;  136,414;    4,010;   -3,227
193,361;   71,426;    1,556;   -3,773
193,962;  113,090;    2,010;   -2,682
194,562;   38,315;    1,189;   -3,955
195,162;   64,308;   -2,448;   -2,227
195,762;  194,609;   -3,176;   -0,045
196,362;  145,464;    1,370;   -2,500
196,963;   29,680;    2,006;   -0,864
197,563;   83,492;    1,551;   -0,955
198,163;   43,082;    0,096;   -0,682
198,763;   50,207;    1,733;   -0,500
199,363;  127,660;    3,096;   -0,500
199,963;   86,002;    0,369;    0,409
200,563;   70,356;    2,823;   -1,409
201,163;   50,652;    3,277;   -0,227
201,763;  105,780;    3,732;    0,318
202,363;   62,297;    1,459;    1,500
202,963;  128,172;    1,459;    1,045
203,563;  213,452;    0,277;    0,500
204,162;   97,950;    2,096;   -1,864
204,762;   91,409;    0,550;    0,591
205,362;   52,285;    3,004;    1,955
205,962;  117,641;    3,096;    1,955
206,562;  118,859;    1,823;    2,318
207,161;   87,220;   -0,087;    0,318
207,761;  220,347;    1,277;    2,409
208,361;  108,426;   -0,268;    1,409
208,960;  183,691;    0,459;    1,500
209,560;  208,078;    1,277;    1,591
210,160;  211,292;    0,550;    1,864
210,759;  165,400;    4,186;    1,227
211,359;  172,238;    1,459;    1,045
211,958;  378,960;    1,277;    2,045
212,558;  426,169;    1,732;    1,864
213,157;  299,944;    1,822;    1,500
213,757;  615,666;    3,822;   -0,227
214,356;  366,256;    1,277;   -0,409
214,956;  625,548;    3,095;    0,409
215,555;  333,446;    2,095;    2,136
216,154;  288,389;   -2,723;   -0,591
216,754;  280,368;    0,277;    0,773
217,353;  364,019;   -0,268;   -1,045
217,952;  225,728;   -0,178;    0,318
218,552;  439,284;    1,368;   -0,773
219,151;  321,264;    0,277;    0,955
219,750;  311,353;    0,004;   -0,227
220,349;  295,485;   -0,451;    1,045
220,948;  454,635;   -1,360;    1,136
221,548;  362,038;    0,913;    1,227
222,147;  437,018;   -0,087;   -0,409
222,746;  672,876;   -0,451;   -0,955
223,345;  517,565;    0,731;    0,500
223,944;  513,419;   -0,451;    0,773
224,543;  574,917;    1,004;   -1,409
225,142;  657,109;    0,094;    0,136
225,741;  567,733;   -0,814;    1,045
226,340;  531,820;   -0,451;   -0,955
226,939;  806,633;   -0,996;   -0,136
227,538;  578,099;   -0,360;   -0,773
228,137;  779,423;   -0,814;    0,864
228,735;  713,140;   -0,541;    1,227
229,334;  536,118;   -0,905;   -0,227
229,933;  844,480;    0,459;    0,591
230,532;  892,716;    1,186;   -0,409
231,131;  985,482;    1,732;    0,318
231,729;  834,972;   -2,450;   -2,318
232,328;  720,906;   -0,723;   -1,500
232,927;  709,657;    1,004;   -0,500
233,525;  695,140;    3,640;    0,045
234,124;  798,500;    2,368;   -1,591
234,723;  668,131;    0,913;   -1,045
235,321;  694,995;    2,277;    0,136
235,920;  785,710;    1,186;   -1,227
236,518; 1040,575;    3,459;    0,318
237,117;  843,742;    0,004;   -0,227
237,715;  856,822;    0,640;   -0,500
238,314;  962,566;   -0,087;   -2,318
238,912; 1191,872;   -0,723;   -1,409
239,510; 1017,284;    0,459;   -1,227
240,109; 1235,333;    0,004;    3,773
240,707; 1197,807;   -0,996;    1,227
241,305; 1080,370;    0,550;    0,136
241,904; 1287,006;   -0,178;   -2,045
242,502; 1420,402;   -0,632;   -0,227
243,100; 1316,528;   -0,087;   -0,955
243,698; 1395,063;    0,732;    1,682
244,297; 1480,311;   -0,632;    0,682
244,895; 1522,065;   -0,269;   -2,318
245,493; 1847,501;    2,186;   -0,591
246,091; 1834,152;    1,368;   -1,318
246,689; 1799,232;    1,004;    0,591
247,287; 1848,824;    0,822;   -1,136
247,885; 2012,947;   -1,451;    1,227
248,483; 2050,871;    1,822;   -0,500
249,081; 2185,116;    0,185;    1,591
249,679; 2347,289;   -0,178;    1,682
250,277; 2433,690;   -1,723;    0,864
250,875; 2523,812;   -1,087;   -1,045
251,473; 2533,059;   -1,178;    0,500
252,071; 2723,325;    1,459;    1,045
252,669; 2821,965;   -1,814;    0,318
253,267; 2930,874;   -0,087;    0,773
253,864; 2878,097;   -0,360;    0,682
254,462; 3057,551;    1,640;    1,591
255,060; 2935,316;   -0,269;    1,318
255,658; 3089,601;    0,822;   -0,136
256,255; 3440,904;    0,186;   -2,045
256,853; 3437,038;   -0,269;    1,409
257,451; 3421,116;    0,822;    1,864
258,048; 3858,245;    1,822;    1,864
258,646; 3527,541;    1,731;   -1,045
259,243; 3704,038;   -0,087;    2,227
259,841; 3722,851;   -0,814;    0,318
260,438; 3653,742;   -0,087;    0,864
261,036; 4088,446;   -1,905;    1,409
261,633; 4075,350;   -0,087;    2,227
262,231; 3943,694;    2,731;   -0,045
262,828; 4047,735;   -0,905;    1,136
263,425; 4114,405;    0,913;   -0,591
264,023; 4349,952;    0,186;    0,045
264,620; 4066,519;   -0,360;   -0,318
265,217; 4363,612;   -2,087;    3,136
265,815; 4390,549;   -1,905;    2,136
266,412; 4368,633;    0,731;    0,136
267,009; 4420,378;   -1,451;    0,773
267,606; 4480,995;    0,822;   -0,955
268,203; 4369,250;   -0,269;   -0,591
268,801; 4561,988;    1,731;    0,591
269,398; 4745,104;   -0,360;    2,500
269,995; 4770,372;    0,277;    1,591
270,592; 4627,243;   -0,632;   -0,500
271,189; 4726,683;    0,186;    0,409
271,786; 4839,541;   -0,632;    1,227
272,383; 4869,468;   -1,087;    0,227
272,980; 4881,002;    0,277;    0,318
273,577; 5182,479;    0,004;    1,227
274,174; 4825,010;    0,822;    2,591
274,771; 4821,965;   -0,814;   -0,773
275,367; 5092,559;    2,277;    1,409
275,964; 5056,027;    0,731;   -0,500
276,561; 5094,542;    1,549;   -1,045
277,158; 5175,744;    0,095;   -1,773
277,755; 5380,843;    2,185;    0,409
278,351; 4920,166;   -0,451;   -1,500
278,948; 5177,344;   -0,815;    0,045
279,545; 5134,432;   -1,360;    2,318
280,141; 5749,619;   -1,723;   -2,045
280,738; 5606,671;   -0,451;   -0,136
281,334; 5693,558;   -1,633;    0,591
281,931; 5281,695;   -0,087;   -1,318
282,528; 5443,221;    0,822;   -0,500
283,124; 6001,551;   -1,087;   -0,500
283,721; 5944,107;   -0,451;    1,409
284,317; 5797,501;    0,185;    2,500
284,913; 6334,367;   -1,360;    0,591
285,510; 6586,186;    0,640;   -0,318
286,106; 6600,558;   -2,269;   -0,955
286,703; 6218,006;   -0,360;    1,955
287,299; 6468,305;   -1,451;   -0,591
287,895; 6689,099;    0,822;   -1,045
288,491; 7190,104;    0,186;    2,136
289,088; 7103,621;   -2,360;    2,409
289,684; 7211,510;   -1,723;    1,500
290,280; 7285,678;    0,368;    0,682
290,876; 7477,202;    1,822;    5,500
291,472; 7422,414;    1,276;    2,227
292,068; 7591,670;    1,367;    0,227
292,665; 7403,487;    2,095;    0,773
293,261; 7211,795;    0,276;    2,136
293,857; 7649,748;    2,913;    2,136
294,453; 7637,015;    3,550;    0,955
295,049; 7652,313;   -0,268;    1,955
295,644; 7755,851;    0,095;    0,136
296,240; 7726,363;   -0,905;   -0,136
296,836; 7884,855;   -0,995;    0,318
297,432; 8229,515;    1,096;   -0,500
298,028; 8382,037;    0,732;    0,773
298,624; 8730,887;    1,459;    1,864
299,220; 9007,212;    2,368;    0,591
299,815; 8793,317;    1,005;   -0,409
300,411; 8699,859;    0,914;    1,773
301,007; 8742,096;    1,368;    0,227
301,602; 8811,752;   -0,541;   -2,318
302,198; 9016,080;    0,732;   -0,773
302,794; 9366,509;    1,187;   -0,500
303,389; 9511,178;   -1,177;    1,045
303,985; 9609,085;    0,550;    1,409
304,580; 9632,681;    1,459;    1,591
305,176; 9624,097;   -3,086;    0,136
305,771; 9555,500;   -1,268;   -1,227
306,367; 9507,905;    4,095;    0,136
306,962; 9763,206;    0,641;    1,500
307,558; 9499,320;   -0,450;    0,136
308,153; 9464,017;    1,095;   -1,136
308,748; 9625,465;   -0,814;    1,682
309,344; 9633,939;   -0,632;   -1,318
309,939; 9740,240;   -1,905;   -1,318
310,534; 9898,226;   -0,086;   -1,682
311,130; 9813,816;    0,459;   -2,500
311,725; 9548,356;    1,004;   -0,500
312,320; 9836,648;    2,459;    0,045
312,915; 9697,691;    1,459;   -1,045
313,510; 9749,219;    1,550;   -0,500
314,105;10148,230;    1,096;    1,409
314,700; 9503,406;   -3,086;   -1,045
315,295; 9169,681;   -0,904;    0,045
315,890; 8751,912;    1,277;    0,864
316,485; 8996,559;   -0,359;   -0,318
317,080; 9074,864;   -3,086;    1,591
317,675; 9554,114;    2,005;   -0,682
318,270; 9075,406;    5,550;    3,318
318,865; 9033,032;    3,278;    3,045
319,460; 8827,809;   -0,904;    0,591
320,055; 8990,993;   -0,541;   -1,227
320,650; 8681,269;   -1,995;   -0,591
321,244; 8728,137;   -0,177;   -1,409
321,839; 9557,893;   -1,541;   -0,227
322,434; 9435,285;   -1,086;   -1,591
323,029; 9139,221;    1,732;    1,591
323,623; 8957,737;    1,550;    0,773
324,218; 8803,055;    2,368;    1,409
324,812; 8733,702;    1,096;    1,591
325,407; 8582,809;   -0,814;    2,045
326,002; 8550,887;    0,277;   -0,409
326,596; 8864,374;    0,914;    1,318
327,191; 9017,016;    0,823;   -1,045
327,785; 8708,738;   -0,813;   -0,227
328,379; 8980,504;    1,368;    0,136
328,974; 8804,811;    0,914;   -3,955
329,568; 9099,383;    0,186;   -2,409
330,163; 9000,094;    2,096;    1,045
330,757; 9344,557;    2,459;    1,591
331,351; 8779,019;    0,459;    0,682
331,945; 9182,681;    0,914;    1,409
332,540; 8900,302;   -1,723;   -0,591
333,134; 9094,908;   -1,086;    0,773
333,728; 9378,269;    0,005;    0,318
334,322; 9711,062;   -1,177;   -0,864
334,916; 9083,265;    0,277;    0,955
335,510; 9510,395;   -0,450;   -0,136
336,105; 9821,652;   -1,086;    1,591
336,699; 9609,607;   -1,086;    0,591
337,293; 9613,119;   -1,723;    0,318
337,887; 9823,955;   -2,723;    1,955
338,481; 9995,962;    0,459;    0,591
339,074;10225,709;   -0,359;    2,682
339,668;10122,076;   -1,632;    1,227
340,262;10445,862;    1,732;    3,227
340,856; 9985,429;    1,822;   -0,682
341,450; 9434,764;    1,004;    1,864
342,044;10342,119;    1,459;    0,136
342,637;10206,514;    0,913;   -2,136
343,231;10144,548;   -2,360;    0,682
343,825;10161,324;   -1,086;   -0,591
344,419;10195,290;   -1,995;    0,500
345,012;10095,501;    2,459;    4,045
345,606;10143,766;    4,641;    1,591
346,199;10004,570;   -1,813;   -0,227
346,793; 9578,210;    1,914;    2,045
347,386; 9781,839;   -0,813;   -1,136
347,980; 9802,025;   -0,268;   -0,045
348,573; 9618,911;    2,278;    0,409
349,167; 9376,776;    5,278;    4,773
349,760; 9722,013;    2,914;    2,682
350,354; 9730,635;   -0,813;    1,136
350,947; 9474,348;    1,096;    1,682
351,540; 9171,997;   -0,358;   -1,409
352,134; 9162,047;    1,096;    1,136
352,727; 9225,426;   -0,086;    1,136
353,320; 8990,498;    0,005;    0,591
353,913; 8873,232;   -1,995;    1,864
354,507; 9085,740;    0,823;   -1,227
355,100; 9070,039;    0,460;    0,864
355,693; 8369,735;    2,005;    2,409
356,286; 8386,672;    0,823;    2,773
356,879; 8743,489;   -0,722;    1,227
357,472; 8334,918;   -0,904;    1,500
358,065; 8500,532;   -0,722;    2,500
358,658; 8435,114;   -0,540;    2,318
359,251; 8092,954;   -1,631;   -0,591
359,844; 7577,499;   -1,904;   -1,136
360,437; 7769,209;   -2,995;    0,045
361,030; 7972,102;    1,369;   -0,682
361,623; 7598,211;    2,824;    0,318
362,215; 7662,806;   -0,086;    2,045
362,808; 7454,597;   -2,358;   -1,682
363,401; 7646,728;   -2,449;    0,136
363,994; 7397,780;   -0,631;   -1,500
364,586; 7311,140;    0,824;   -1,500
365,179; 7481,709;   -0,449;   -1,136
365,772; 6976,856;   -1,995;    2,045
366,364; 7265,031;    1,915;   -3,227
366,957; 7453,994;    2,279;   -0,045
367,549; 7439,991;    2,188;   -0,864
368,142; 7102,542;    1,825;   -1,500
368,734; 7279,769;    0,734;   -2,136
369,327; 7245,384;    1,643;   -0,500
369,919; 7150,997;   -1,538;    0,409
370,512; 6932,973;   -1,083;   -0,500
371,104; 6741,201;   -0,901;    1,591
371,696; 6904,509;    1,191;   -0,955
372,289; 6981,893;    0,373;    1,136
372,881; 7103,651;   -2,080;    1,318
373,473; 7024,021;   -2,170;    1,136
374,066; 6833,798;   -0,169;    0,500
374,658; 6665,543;    0,378;    1,136
375,250; 6983,133;    0,653;   -1,409
375,842; 6856,504;    0,473;   -0,045
376,434; 6731,579;   -0,435;   -0,409
377,026; 7264,009;    0,204;   -2,500
377,618; 7174,136;   -0,158;   -0,682
378,210; 6988,846;   -0,338;   -1,955
378,802; 6811,749;    0,754;   -0,591
379,394; 6841,474;    1,846;    0,682
379,986; 7360,484;    1,393;   -0,955
380,578; 7422,060;   -0,153;    0,773
381,170; 6821,858;   -0,972;    0,045
381,762; 6767,054;    0,755;    1,409
382,354; 6954,272;   -0,065;   -1,318
382,945; 7050,192;   -2,976;    0,318
383,537; 7175,565;   -2,705;   -1,955
384,129; 7185,387;   -2,160;   -1,136
384,721; 7374,780;   -0,252;    0,955
385,312; 7285,140;   -0,161;   -0,955
385,904; 7384,240;   -2,706;    1,591
386,496; 6800,877;   -0,979;    1,045
387,087; 6939,952;    1,022;    2,500
387,679; 6944,097;   -1,160;    0,045
388,270; 7093,396;    2,840;    2,045
388,862; 7191,874;    1,295;   -0,318
389,453; 7073,403;   -0,887;    1,045
390,045; 7337,642;   -0,705;   -2,682
390,636; 7231,229;    0,204;   -0,591
391,227; 7132,320;   -0,523;   -0,045
391,819; 7235,319;    0,204;    0,773
392,410; 7286,997;    1,022;    0,045
393,001; 7232,062;   -0,979;   -1,591
393,593; 7512,074;    1,930;   -0,045
394,184; 7376,083;    1,385;   -0,409
394,775; 7262,219;    1,839;    2,136
395,366; 7462,709;    1,385;    0,773
395,957; 7498,324;    0,113;    0,136
396,548; 7742,784;   -0,342;    2,682
397,139; 8038,266;   -2,433;    0,591
397,730; 7785,654;   -1,888;    0,955
398,321; 7850,638;   -1,252;    0,955
398,912; 7869,939;   -0,615;    0,136
399,503; 7947,770;   -3,524;   -1,409
400,094; 7397,156;    0,294;    1,682
400,685; 7260,902;   -0,433;    0,045
401,276; 7304,634;    0,930;   -0,955
401,867; 7595,928;   -0,888;    0,773
402,458; 7652,488;   -2,251;   -2,318
403,048; 7645,912;    1,112;    0,591
403,639; 7269,581;    0,840;    0,864
404,230; 7523,786;    2,476;    0,318
404,821; 7450,861;   -0,615;    0,045
405,411; 7563,723;    1,203;   -2,591
406,002; 7144,422;   -1,252;   -1,136
406,592; 7027,325;    2,294;    0,045
407,183; 7266,712;    0,566;   -1,500
407,774; 7146,085;    3,475;   -0,136
408,364; 7432,318;    0,930;    0,409
408,954; 7030,220;    0,384;    1,227
409,545; 7052,188;    1,021;    1,045
410,135; 6591,305;    1,293;    0,500
410,726; 6694,601;    1,838;    0,318
411,316; 7015,091;    0,111;    0,773
411,906; 6653,179;   -0,253;   -0,409
412,497; 6176,817;   -1,070;   -0,045
413,087; 6688,906;   -1,980;   -0,227
413,677; 6999,907;   -0,707;    3,864
414,267; 6804,013;    0,656;    1,409
414,857; 6718,531;   -2,980;    4,227
415,448; 6935,902;    0,839;    0,500
416,038; 6618,990;    0,020;   -0,591
416,628; 6532,239;   -0,889;    0,409
417,218; 6059,900;    0,565;    3,318
417,808; 6262,055;    0,202;   -0,409
418,398; 6534,736;    0,020;    2,682
418,988; 6477,756;    2,020;    0,591
419,578; 6637,120;   -0,707;    1,409
420,168; 6855,200;   -1,343;   -0,955
420,757; 6458,209;   -1,343;   -1,500
421,347; 6083,173;    0,111;   -0,227
421,937; 6162,629;    2,292;    1,409
422,527; 6104,313;    0,838;   -0,773
423,116; 5914,578;   -0,253;   -0,045
423,706; 6081,501;   -1,889;    0,318
424,296; 5941,752;    1,384;    0,682
424,885; 6308,479;   -0,071;   -3,045
425,475; 6480,912;    1,474;   -2,864
426,065; 6296,107;   -0,980;   -0,318
426,654; 5950,067;   -0,435;   -0,318
427,244; 6050,262;    0,020;    1,409
427,833; 5522,187;    1,383;   -0,500
428,423; 5787,916;   -0,526;    1,136
429,012; 6320,750;   -0,344;   -1,136
429,601; 5860,570;   -1,344;    0,136
430,191; 5959,871;    1,292;    4,318
430,780; 5568,449;   -0,344;   -0,409
431,369; 5550,217;    0,746;   -0,045
431,959; 5928,395;   -1,254;    0,500
432,548; 5643,824;   -1,163;   -0,045
433,137; 5638,680;   -1,254;   -1,318
433,726; 6024,675;    0,292;    0,500
434,315; 5483,010;   -0,526;    2,409
434,905; 5462,289;   -1,254;    1,409
435,494; 5366,928;    0,746;    0,955
436,083; 5539,149;   -0,981;   -0,955
436,672; 5355,641;    0,110;    0,500
437,261; 5041,478;    0,292;   -1,955
437,850; 5168,156;    1,383;    0,682
438,439; 5051,790;    3,291;    1,955
439,027; 4904,603;    3,655;    1,773
439,616; 5022,305;    2,927;    1,227
440,205; 4731,523;    0,200;   -2,136
440,794; 4603,722;    2,109;   -0,045
441,383; 4649,137;   -1,346;   -0,591
441,971; 4450,276;   -2,436;    0,591
442,560; 4240,839;    0,563;   -1,773
443,149; 3956,705;    0,379;   -1,318
443,737; 4047,231;   -0,074;   -2,318
444,326; 4104,871;    0,018;    0,318
444,915; 4039,670;   -1,982;    0,864
445,503; 4172,007;   -2,891;   -0,318
446,092; 3830,274;    0,382;    2,136
446,680; 4007,798;    0,382;    0,318
447,269; 3969,315;   -0,346;   -0,318
447,857; 3727,165;    0,018;   -1,773
448,445; 3695,456;    0,563;    1,318
449,034; 3731,153;   -1,528;   -1,136
449,622; 3672,618;   -1,073;    3,500
450,210; 3539,986;    2,017;    2,227
450,799; 3658,789;    0,290;   -0,591
451,387; 3422,090;    1,381;   -0,591
451,975; 3253,699;    2,654;    0,864
452,563; 3352,200;    3,472;    2,318
453,151; 3131,147;   -0,528;   -1,227
453,739; 3026,915;   -1,347;    0,136
454,328; 3065,378;    2,381;   -2,136
454,916; 2844,310;    2,562;   -0,136
455,504; 2836,729;    1,017;    1,227
456,092; 2822,624;    0,017;   -1,591
456,679; 2668,350;    1,472;    0,682
457,267; 3159,473;    4,017;    1,045
457,855; 2776,840;    1,017;    1,409
458,443; 2422,914;   -0,165;    1,682
459,031; 2759,300;    0,108;    2,409
459,619; 2775,763;   -1,801;    2,864
460,206; 2582,711;    0,835;    2,045
460,794; 2637,531;   -2,983;   -0,227
461,382; 2742,704;   -0,529;   -0,864
461,970; 2507,909;    1,198;    1,864
462,557; 2479,921;   -0,711;   -0,682
463,145; 2641,133;   -3,165;   -1,682
463,732; 2811,566;    2,016;   -1,045
464,320; 2532,675;   -0,075;   -3,045
464,907; 2580,363;    2,743;   -0,773
465,495; 2400,660;    0,743;   -1,227
466,082; 2314,040;   -1,984;   -0,045
466,670; 2167,538;   -2,529;    1,227
467,257; 2252,281;   -1,711;    2,045
467,844; 2392,320;   -0,075;    0,045
468,432; 2359,669;    0,834;    3,500
469,019; 2145,844;    0,925;   -1,773
469,606; 2258,093;    0,470;    3,682
470,193; 2246,990;   -1,439;    0,227
470,780; 2138,555;   -2,075;    0,864
471,368; 2059,963;   -1,257;   -0,773
471,955; 2080,412;    1,379;   -0,682
472,542; 1886,542;    0,652;   -1,136
473,129; 1753,443;   -0,166;    0,136
473,716; 1646,516;    1,470;    0,591
474,303; 1673,992;    0,652;   -0,864
474,890; 1694,801;   -1,439;   -0,500
475,477; 1799,360;   -1,621;    0,409
476,064; 1624,125;    1,106;   -1,591
476,650; 1662,120;    0,288;    0,318
477,237; 1528,120;   -0,258;    0,955
477,824; 1459,036;   -1,076;    0,864
478,411; 1281,902;   -1,894;   -0,318
478,997; 1262,966;    0,560;   -0,773
479,584; 1152,253;    1,196;   -0,409
480,171; 1536,306;   -0,440;   -0,773
480,757; 1598,811;    2,651;    0,773
481,344; 1366,839;    0,469;    0,409
481,931; 1087,398;    1,105;    1,045
482,517; 1439,853;   -1,258;    0,318
483,104; 1542,855;    1,106;    2,864
483,690; 1368,069;   -1,804;    0,045
484,276; 1302,247;   -0,895;    0,227
484,863; 1629,472;    2,469;    1,136
485,449; 1365,803;   -0,077;    0,318
486,035; 1223,880;   -1,986;   -0,136
486,622; 1441,019;   -0,895;    0,045
487,208; 1285,317;    1,378;    1,500
487,794; 1124,372;    0,741;    0,318
488,380; 1140,912;    0,105;   -1,409
488,967; 1131,056;   -1,168;   -0,409
489,553; 1166,282;   -1,895;   -1,409
490,139; 1320,906;    1,559;    0,773
490,725; 1124,960;    0,741;   -0,227
491,311; 1149,963;    3,287;    3,045
491,897; 1009,359;   -0,986;    1,500
492,483; 1052,569;    0,105;    1,227
493,069; 1898,731;    3,923;    0,864
493,655; 1383,787;    1,650;    0,682
494,241; 1227,972;    1,377;   -0,955
494,826; 1365,817;    0,287;   -1,045
495,412; 1435,215;    2,559;   -0,682
495,998; 1399,669;   -0,805;   -0,318
496,584; 1520,382;    0,377;    1,045
497,169; 1506,556;    1,014;   -0,682
497,755; 1472,544;    0,650;    1,227
498,341; 2005,091;    0,559;    0,318
498,926; 2154,228;    1,832;    1,955
499,512; 1995,015;    1,286;    2,955
500,097; 1978,288;    0,195;   -0,318
500,683; 2152,160;   -0,350;    2,136
501,268; 2415,397;   -0,169;   -0,955
501,854; 2591,401;   -0,169;    1,227
502,439; 2673,518;   -0,624;   -1,773
503,024; 2933,816;    0,195;    0,500
503,610; 3242,363;   -0,078;   -0,682
504,195; 3378,151;    0,558;    1,955
504,780; 3765,440;    2,922;    1,227
505,366; 4057,376;    3,013;    2,864
505,951; 4133,388;    0,740;    1,045
506,536; 4442,721;   -3,260;   -3,682
507,121; 4702,263;    0,285;   -0,318
507,706; 5346,023;    2,376;    1,045
508,291; 5831,126;    2,649;    1,136
508,876; 5789,111;   -0,988;    2,591
509,461; 5823,705;   -0,169;   -0,773
510,046; 6513,241;    0,194;    0,318
510,631; 7037,423;   -0,351;   -0,773
511,216; 7109,903;    2,467;   -0,500
511,801; 7803,901;   -0,442;    2,591
512,386; 8356,475;    0,740;    0,500
512,971; 8650,956;   -2,988;    0,955
513,555; 8639,992;   -0,897;   -1,500
514,140; 9628,737;   -0,442;   -3,136
514,725; 9947,863;   -0,715;   -1,136
515,309;10377,072;   -0,533;    0,318
515,894;10214,755;   -0,624;   -2,227
516,479;10933,952;   -0,624;   -0,955
517,063;11024,402;    0,376;    1,227
517,648;11419,444;    1,012;   -1,136
518,232;11339,456;   -0,261;   -1,409
518,817;11926,989;   -0,079;    1,682
519,401;12380,528;    2,194;    0,591
519,985;12063,715;    1,103;    1,136
520,570;12141,487;    0,830;   -1,955
521,154;12639,693;    2,102;    0,591
521,738;12968,629;   -2,352;    2,409
522,323;13674,993;   -0,170;    1,682
522,907;13533,563;    0,466;   -0,136
523,491;13380,050;    0,557;    0,955
524,075;13540,219;    2,284;    0,591
524,659;13776,526;    1,466;    0,591
525,243;13328,784;    1,739;    0,409
525,827;13638,832;    0,648;   -0,045
526,411;14606,617;   -1,989;   -0,136
526,995;14906,962;   -0,352;    1,409
527,579;14569,267;   -0,443;   -1,045
528,163;14948,108;    0,375;   -1,500
528,747;14912,145;    2,466;   -0,773
529,331;15280,671;   -0,080;   -1,409
529,915;15583,345;    1,738;    0,955
530,499;15594,857;   -0,807;    1,227
531,082;15321,064;   -0,534;    1,591
531,666;14750,238;    1,374;    0,773
532,250;15554,406;    1,284;    2,682
532,833;15904,332;    0,920;    2,773
533,417;15773,751;   -1,807;    0,864
534,001;15837,534;    1,647;   -0,318
534,584;16560,337;    0,374;    0,500
535,168;16395,952;    0,465;    1,409
535,751;16515,464;    0,647;    0,045
536,334;15967,833;   -0,898;   -0,409
536,918;16583,835;    0,011;    1,591
537,501;16725,075;   -0,899;    1,318
538,085;16687,514;   -0,444;    1,045
538,668;16896,865;    0,829;    2,409
539,251;17263,943;    1,829;    3,773
539,834;17277,810;    0,101;    0,773
540,418;17244,597;   -1,990;    4,318
541,001;17381,933;   -0,990;    1,773
541,584;17352,219;    2,101;    2,227
542,167;17068,401;    1,374;    2,955
542,750;17201,077;    1,919;   -0,773
543,333;16825,396;    0,555;    2,136
543,916;17630,376;    0,192;    2,500
544,499;18309,540;   -1,354;    0,227
545,082;18296,447;    1,374;    3,591
545,665;18451,578;    1,919;    1,500
546,248;18881,668;    1,010;   -0,318
546,830;18494,763;   -0,445;    1,955
547,413;18937,793;    1,010;   -0,773
547,996;19478,716;    0,555;    0,500
548,579;19241,682;    0,919;    0,955
549,161;19040,226;    1,828;    2,682
549,744;18846,828;   -0,809;    0,409
550,326;19311,122;   -0,809;   -1,136
550,909;19150,602;    2,737;    0,591
551,492;19533,331;   -0,263;    0,227
552,074;19342,176;   -0,173;   -1,318
552,657;19928,334;    2,373;    0,045
553,239;19670,569;   -0,173;   -0,773
553,821;19568,083;   -1,082;    1,045
554,404;19061,108;    1,282;    1,136
554,986;19473,600;    0,464;    1,045
555,568;20112,017;    1,191;   -0,955
556,151;19313,550;    1,191;   -0,227
556,733;19501,001;   -0,264;   -0,864
557,315;20001,797;    0,100;    0,500
557,897;19838,175;    0,554;   -0,500
558,479;19914,776;   -1,991;    1,318
559,061;20056,097;   -0,719;   -0,864
559,643;20408,459;   -0,264;    0,045
560,225;20818,379;    1,645;    2,864
560,807;20836,913;    0,918;    0,318
561,389;20290,580;    0,554;    2,318
561,971;21163,259;    0,463;    2,136
562,553;20937,323;   -1,628;    1,591
563,135;21070,597;   -0,537;    1,136
563,717;20678,644;    3,372;    1,136
564,298;21453,148;    3,645;   -0,045
564,880;21172,483;    0,645;   -1,409
565,462;21395,574;    0,645;    1,318
566,043;22586,346;   -0,446;    2,318
566,625;22110,063;    1,918;    1,227
567,207;22040,619;    1,099;    1,682
567,788;23285,217;   -1,264;    1,500
568,370;24152,723;    1,917;   -0,500
568,951;24024,167;    0,190;    0,227
569,533;24969,873;   -0,628;   -0,500
570,114;25456,749;   -0,446;    0,682
570,695;26055,893;   -0,174;   -1,318
571,277;26689,930;   -0,265;   -1,682
571,858;27527,493;    2,008;   -1,136
572,439;28476,230;    1,554;   -1,045
573,021;28693,103;    2,099;   -2,773
573,602;29267,600;   -1,265;    0,318
574,183;30291,069;   -2,083;    2,227
574,764;30499,821;   -1,629;    0,409
575,345;31097,393;    0,917;   -0,136
575,926;31706,308;   -0,356;    0,136
576,507;31683,862;    1,099;   -0,227
577,088;32905,283;    3,099;    1,682
577,669;33002,998;    0,735;    1,955
578,250;33871,433;    0,644;   -1,045
578,831;34620,307;   -1,356;   -2,227
579,412;34895,712;   -0,810;    0,955
579,993;35765,256;    1,008;    0,227
580,573;36014,937;   -0,629;   -0,955
581,154;34978,042;    0,735;   -0,591
581,735;35950,953;    0,644;    0,773
582,315;35507,862;   -0,629;    2,136
582,896;35727,639;   -0,174;    1,227
583,477;35100,714;    0,189;    1,227
584,057;35300,768;    0,553;    0,955
584,638;35630,165;    2,553;    2,318
585,218;35654,019;   -0,538;    2,682
585,799;35774,240;    0,281;   -0,227
586,379;35653,101;    0,372;    1,591
586,959;34289,500;    0,735;    0,318
587,540;33461,992;   -0,629;    2,227
588,120;32945,780;    1,007;   -0,045
588,700;31886,204;    2,553;    2,136
589,281;32302,142;    0,462;   -0,955
589,861;32251,876;    0,099;   -1,682
590,441;31997,527;    2,371;   -2,682
591,021;30887,882;   -0,265;   -2,591
591,601;31094,878;   -0,537;    0,500
592,181;31083,960;   -0,719;   -0,773
592,761;30304,733;    0,007;    1,409
593,341;30201,365;   -0,901;    0,045
593,921;30228,704;   -0,265;    1,591
594,501;30140,080;   -0,538;    1,318
595,081;29926,625;    0,917;   -0,318
595,661;30309,345;   -1,447;    0,955
596,240;30831,458;   -0,537;    0,136
596,820;30622,379;    0,372;    1,955
597,400;30756,165;    2,008;    0,773
597,980;30939,406;    2,008;    1,045
598,559;30896,224;    2,735;   -0,227
599,139;30514,379;   -0,174;   -1,227
599,718;30491,925;   -0,174;   -0,409
600,298;30732,713;    0,735;    0,682
600,877;31087,256;    2,917;    1,409
601,457;31306,360;    2,281;    1,136
602,036;31188,504;    0,190;    2,045
602,616;31478,668;    0,644;    1,682
603,195;31826,622;   -0,355;    3,500
603,774;31341,743;   -0,901;    2,045
604,354;31194,640;    0,826;   -0,500
604,933;30654,574;    0,463;    1,864
605,512;30775,547;    3,554;    0,591
606,091;30851,513;   -0,537;    3,773
606,671;31645,791;    0,281;    0,773
607,250;30701,813;    1,644;    3,136
607,829;30944,567;    2,372;    3,227
608,408;30756,822;    1,190;    2,591
608,987;29757,672;    1,281;    3,409
609,566;30093,901;   -1,265;   -2,500
610,145;30174,136;   -1,082;    0,682
610,723;30544,030;    4,372;    6,864
611,302;29775,303;   -0,446;    1,682
611,881;29252,571;    5,008;   11,227
612,460;30095,660;    1,645;    3,955
613,039;30537,298;   -0,082;    2,045
613,617;29201,007;    1,736;    4,773
614,196;29388,512;    1,099;    1,227
614,775;29756,425;    1,009;    2,409
615,353;29736,909;    0,736;    0,864
615,932;29379,090;    0,100;    2,409
616,510;29976,141;    0,554;    0,591
617,089;29515,451;    7,100;   17,591
617,667;29225,918;    2,372;    6,136
618,246;29074,642;   -1,537;    1,318
618,824;29207,924;   -3,355;   -0,955
619,402;28765,753;   -2,900;   -1,773
619,981;29269,523;   -0,173;   -1,045
620,559;29083,029;    0,009;    1,682
621,137;28533,241;   -0,718;    1,864
621,715;28635,409;   -1,173;   -0,682
622,293;28534,469;   -0,537;   -0,773
622,871;28911,434;   -0,718;    0,500
623,450;28519,733;    0,373;   -0,864
624,028;28359,234;    0,191;   -0,955
624,606;27982,605;   -1,718;    1,682
625,183;28407,876;   -1,536;   -1,136
625,761;27988,956;    1,009;    1,136
626,339;28314,261;    1,373;    2,591
626,917;28729,096;   -0,172;   -0,045
627,495;28728,980;   -0,354;    1,318
628,073;28161,944;   -0,263;    2,864
628,650;27857,076;    0,100;    2,136
629,228;28336,815;    0,373;    4,409
629,806;27642,915;    2,282;    1,136
630,383;27896,700;    1,464;   -0,318
630,961;27681,131;    2,555;   -0,955
631,539;27398,008;    2,464;    0,227
632,116;26816,404;   11,373;   15,409
632,694;27345,358;    2,555;    6,500
633,271;27656,322;    0,828;    2,682
633,848;27596,199;    1,828;    2,045
634,426;27587,363;   -1,081;    1,773
635,003;26674,036;    1,101;   -0,409
635,580;27045,720;    1,192;    3,682
636,158;27618,440;    3,737;    1,227
636,735;27591,538;    0,555;   -0,500
637,312;27721,219;   -0,809;   -0,682
637,889;27852,094;   -4,354;   -0,682
638,466;27287,111;   -3,990;   -0,409
639,043;27271,744;    2,101;   -1,136
639,620;27611,335;   -2,262;   -0,955
640,197;27926,606;    1,100;    1,682
640,774;27999,132;   -0,172;    1,136
641,351;28471,477;    0,737;    1,136
641,928;27871,367;   -0,627;    1,409
642,505;27531,348;    0,828;   -0,500
643,082;27578,874;   -1,718;    1,227
643,658;26553,946;   -0,718;    1,500
644,235;27347,927;    1,191;    2,500
644,812;27676,181;    1,918;    0,773
645,388;27441,798;   -0,991;    1,409
645,965;27543,779;   -0,809;    1,682
646,542;27581,851;   -1,445;   -0,227
647,118;27572,287;    1,009;   -0,955
647,695;27904,268;   -0,263;    1,136
648,271;27805,249;   -0,536;    0,500
648,848;28133,412;    0,736;    2,227
649,424;27990,938;    0,827;    1,318
650,000;27715,464;   -0,354;   -1,045
650,577;27473,809;   -0,627;   -0,955
651,153;27975,336;   -1,809;    0,955
651,729;29122,407;    1,191;    0,864
652,305;29929,843;    0,645;    2,773
652,881;35960,188;   -0,082;    1,136
653,458;43404,714;    1,100;    0,227
654,034;46910,604;    0,282;    1,591
654,610;48199,676;    0,554;    0,773
655,186;49550,748;    0,645;    3,045
655,762;49163,729;   -0,991;    0,409
656,338;49193,710;    0,100;    0,136
656,913;50226,237;   -0,082;    0,409
657,489;49464,036;    0,827;   -0,318
658,065;49385,471;   -0,173;   -1,591
658,641;50084,907;   -0,900;   -0,864
659,217;49314,797;   -0,991;    0,409
659,792;48771,414;    0,645;   -0,409
660,368;48967,395;   -2,173;   -0,682
660,944;47957,922;   -2,082;    1,227
661,519;41773,085;   -0,628;    0,409
662,095;35213,520;   -1,719;    0,591
662,670;30852,138;    1,281;   -0,136
663,246;29896,028;    1,009;   -0,409
663,821;29336,281;    0,281;    1,682
664,396;28859,990;    0,009;    1,864
664,972;29136,971;    0,009;   -0,500
665,547;29455,588;    1,372;    0,136
666,122;29486,933;   -1,082;    0,318
666,698;29825,186;   -0,173;    0,318
667,273;29116,258;   -0,173;    0,136
667,848;29906,148;    2,372;    1,500
668,423;29769,038;    2,190;    2,318
668,998;30386,383;    2,827;   -0,682
669,573;30913,728;   -3,264;   -1,500
670,148;30756,618;   -1,446;   -0,682
670,723;30543,053;   -1,810;    0,318
671,298;30923,307;    2,372;    1,045
671,873;31088,288;   -0,082;   -0,136
672,448;31040,815;    0,645;    0,136
673,023;31369,159;   -1,992;   -0,227
673,597;31723,686;    0,827;    2,318
674,172;31458,758;   -0,355;    0,318
674,747;30882,284;    0,372;   -1,045
675,321;30758,447;   -0,628;    3,318
675,896;30335,428;    0,645;    1,045
676,471;31356,591;    2,645;    1,591
677,045;31112,481;   -1,264;    0,682
677,620;31181,916;    0,190;    1,136
678,194;31483,716;   -2,628;    1,136
678,769;31078,060;   -1,083;   -0,318
679,343;31352,496;   -0,628;    1,773
679,917;31191,022;   -1,446;    1,955
680,492;31295,003;    0,826;    3,227
681,066;31473,348;    3,372;    0,409
681,640;31497,874;    1,463;   -0,318
682,214;32335,037;    0,735;    0,500
682,788;31867,200;   -1,356;   -0,773
683,363;31800,090;   -1,810;    1,682
683,937;31495,707;   -1,719;   -0,318
684,511;32286,052;    0,463;   -0,591
685,085;32010,397;   -1,356;    0,318
685,659;31685,196;   -2,538;    0,864
686,232;32024,722;   -0,356;   -0,318
686,806;31700,431;   -0,901;    0,409
687,380;32308,139;   -0,174;    0,591
687,954;32558,575;   -1,174;    1,136
688,528;32278,828;   -0,719;    1,955
689,101;33009,082;   -3,992;    1,045
689,675;32634,154;   -0,356;   -0,136
690,249;32016,408;   -0,719;    0,409
690,822;32292,389;    0,280;    0,318
691,396;32425,370;   -0,265;    1,227
691,969;31806,896;    1,280;    0,136
692,543;32272,968;   -0,447;   -1,955
693,116;31906,313;   -0,265;   -1,409
693,690;31827,203;    0,099;    0,500
694,263;32360,275;   -1,083;    2,955
694,836;32473,892;    1,371;    3,591
695,410;31063,691;   -0,265;    1,773
695,983;31562,763;    0,189;    0,591
696,556;31461,471;   -0,447;   -1,045
697,129;31861,180;   -0,356;    1,409
697,703;31534,524;   -1,629;    1,955
698,276;31389,142;    1,462;   -0,773
698,849;31266,214;    1,280;    1,409
699,422;31616,831;   -1,083;    0,591
699,995;31360,267;    0,007;    0,136
700,568;31878,338;   -0,629;    3,045
701,140;31906,774;   -2,811;    1,682
701,713;31615,846;   -0,174;    2,409
702,286;31304,554;   -0,538;    0,864
702,859;31236,717;   -0,902;   -0,591
703,432;30319,789;    0,825;    0,682
704,004;30862,770;    0,462;    0,318
704,577;30752,478;   -0,629;    0,136
705,150;31328,550;    0,189;    2,500
705,722;31048,622;   -0,356;   -3,227
706,295;30832,512;   -0,175;   -0,591
706,867;30720,857;   -0,175;    1,955
707,440;30964,020;   -1,720;   -0,409
708,012;31256,092;    0,462;    0,591
708,584;31164,982;    2,462;    0,227
709,157;31389,599;    1,825;   -0,591
709,729;31022,489;    2,280;    2,045
710,301;31900,016;    0,734;    0,045
710,874;31928,724;   -1,447;   -0,227
711,446;30773,341;    0,371;    0,864
712,018;30661,413;    0,098;    0,500
712,590;30395,758;   -1,993;    1,682
713,162;30950,284;    0,825;    1,318
713,734;31204,902;    1,825;   -2,045
714,306;31036,610;   -1,902;   -0,409
714,878;29710,136;    0,825;    0,864
715,450;30561,299;    0,643;    0,864
716,022;30767,917;    1,552;    1,318
716,593;30959,898;    0,189;    0,591
717,165;30881,788;   -3,175;   -1,227
717,737;30561,132;    0,280;    0,409
718,309;30206,295;    0,280;   -0,045
718,880;30141,549;   -0,539;   -1,409
719,452;30335,257;   -0,175;   -1,591
720,024;29924,420;    0,734;   -0,591
720,595;30547,583;   -2,902;    0,955
721,167;30077,927;    0,370;   -2,045
721,738;29627,181;   -0,812;   -1,045
722,309;29616,799;   -0,993;   -1,227
722,881;29389,780;   -1,357;    0,773
723,452;29993,215;   -2,630;    2,864
724,023;30164,196;   -0,721;    2,682
724,595;29904,086;    0,007;    0,682
725,166;29614,522;    0,007;   -0,409
725,737;29315,594;    1,734;    0,227
726,308;29374,847;   -0,266;    0,318
726,879;29820,465;   -1,630;    1,227
727,450;29716,718;    0,552;   -0,045
728,021;29696,972;    3,097;    0,682
728,592;29469,771;    0,734;    0,500
729,163;29818,934;    0,643;   -0,136
729,734;29875,552;    0,188;   -0,227
730,305;30195,805;    1,734;    0,136
730,876;30550,332;    0,188;    2,955
731,447;30266,313;    2,188;    2,682
732,017;30383,203;    1,097;    1,864
732,588;29825,093;    0,734;    1,227
733,159;30117,529;    0,643;   -1,045
733,729;29844,600;    0,006;    0,409
734,300;29151,491;    0,915;    0,864
734,870;29541,108;    3,461;    0,591
735,441;30097,998;    0,370;   -0,591
736,011;29888,070;    0,643;   -1,591
736,582;29786,415;   -0,812;    0,045
737,152;29270,396;   -1,721;   -2,045
737,722;29688,649;   -0,267;   -0,682
738,293;29397,267;   -1,358;    1,318
738,863;29307,611;    2,461;    2,318
739,433;29110,501;    5,279;    0,318
740,003;29745,664;   -0,994;   -0,682
740,573;29120,554;    2,097;   -1,591
741,143;29012,081;   -1,085;    0,318
741,713;29831,335;    1,188;   -0,500
742,283;29547,770;    0,915;    1,591
742,853;29301,297;    1,915;    1,591
743,423;28679,096;    1,733;    0,045
743,993;28830,895;   -0,358;    1,500
744,563;28259,512;    0,097;   -0,864
745,133;28164,311;   -0,812;   -0,864
745,702;28857,474;   -0,267;    1,773
746,272;28109,364;   -0,176;    0,591
746,842;27807,527;   -1,358;   -0,591
747,411;28215,963;   -0,267;   -0,318
747,981;28430,489;    0,097;    0,500
748,551;28468,016;    2,278;   -1,045
749,120;28341,179;    0,642;   -0,227
749,690;28769,705;   -0,631;    2,409
750,259;29057,504;    1,369;    2,955
750,828;29006,212;    1,551;   -1,955
751,398;29268,284;    1,278;   -0,045
751,967;28876,174;    2,187;    0,409
752,536;29037,065;   -0,813;   -0,227
753,105;29428,955;    0,096;    0,227
753,675;29215,299;    0,096;    1,773
754,244;29141,371;   -0,904;    3,591
754,813;29202,989;    0,551;    1,227
755,382;28756,061;    0,460;    0,955
755,951;29354,678;    1,551;    3,682
756,520;28848,568;   -0,085;    1,864
757,089;29502,822;    0,278;    0,500
757,658;29637,621;    1,733;    1,227
758,227;29645,329;    1,096;    0,318
758,795;29930,128;    1,187;    1,136
759,364;30140,655;   -0,086;   -0,591
759,933;29132,818;   -1,176;   -0,045
760,501;28628,799;    0,733;   -1,318
761,070;29132,507;   -2,813;   -1,409
761,639;29829,124;   -1,904;    1,318
762,207;29257,742;    1,551;   -0,955
762,776;29150,359;    0,369;    0,864
763,344;29067,795;   -0,995;    0,591
763,913;28096,321;   -0,722;    1,409
764,481;28840,848;    1,005;   -0,136
765,049;28635,283;   -1,358;    1,409
765,618;28456,082;   -0,086;    0,318
766,186;28512,700;    0,278;    0,136
766,754;28761,772;    0,005;    1,864
767,322;27721,753;   -1,995;    0,409
767,890;27770,097;   -0,722;   -1,773
768,459;28155,987;   -2,177;   -0,318
769,027;28404,786;    1,641;    3,409
769,595;27301,495;    3,278;    2,591
770,163;27737,112;    3,823;    2,955
770,730;27455,548;    0,732;   -0,136
771,298;27258,892;    0,187;   -1,409
771,866;27324,782;   -1,541;    4,955
772,434;27699,673;   -0,631;   -1,864
773,002;27895,835;    0,005;    0,682
773,569;27499,816;    0,914;    1,682
774,137;27298,161;   -0,268;   -0,045
774,705;28074,778;    0,278;   -0,136
775,272;27598,032;    0,641;    0,682
775,840;27325,013;   -0,177;    2,682
776,407;26874,358;    0,277;    1,955
776,975;26464,975;   -0,632;    0,318
777,542;27489,047;   -1,086;   -0,045
778,110;27280,392;   -1,268;   -0,045
778,677;26894,191;   -2,359;   -0,864
779,244;26661,990;    2,186;    1,045
779,812;26813,607;    1,823;    0,864
780,379;26636,316;    0,005;    1,136
780,946;26896,206;    1,005;   -0,773
781,513;27228,005;   -1,450;    0,318
782,080;26599,531;   -0,086;    2,864
782,647;27355,967;   -0,268;    3,045
783,214;26915,403;   -0,177;    3,864
783,781;26591,202;   -0,723;   -0,682
784,348;26408,546;   -0,632;    1,500
784,915;26845,436;   -3,177;    0,318
785,482;26706,690;    1,368;    2,591
786,049;27094,944;    0,186;   -0,591
786,615;27206,198;    0,277;   -0,955
787,182;26892,633;    0,186;   -0,682
787,749;26591,796;   -2,814;    1,409
788,315;25910,322;   -1,632;   -0,409
788,882;26226,304;    1,550;   -1,227
789,448;26948,012;    1,732;   -0,955
790,015;26965,720;    1,095;    3,227
790,581;26471,610;    1,459;    0,227
791,148;26400,591;    0,641;    1,045
791,714;26628,481;   -0,541;    3,136
792,280;26268,553;    0,186;    1,591
792,847;25800,625;    0,550;    2,500
793,413;26377,970;   -0,269;   -0,318
793,979;25910,133;    3,459;   -1,318
794,545;26016,114;    4,459;    2,682
795,111;25380,913;    2,186;    1,318
795,678;25589,257;    0,731;   -1,682
796,244;25192,511;    3,368;    0,136
796,810;25754,492;    1,731;    0,773
797,375;25418,564;    0,549;   -2,136
797,941;25441,727;   -0,541;    0,591
798,507;25616,799;   -0,451;   -0,955
799,073;25171,871;   -0,360;    0,591
799,639;25151,670;   -2,632;    3,136
800,205;25150,651;    0,095;    2,682
800,770;24678,359;    0,640;    1,773
801,336;24844,249;    1,368;   -0,955
801,901;24517,048;    4,549;    3,136
802,467;25081,120;   -0,542;    2,045
803,033;24411,829;   -0,087;    0,864
803,598;24620,355;    1,913;   -1,045
804,163;24616,427;    1,095;   -0,318
804,729;24611,317;   -0,178;    1,136
805,294;24993,116;    0,822;    2,227
805,859;24834,279;    0,731;   -0,409
806,425;24282,987;    1,186;    2,682
806,990;23892,968;    2,186;    4,318
807,555;24422,859;   -1,451;    2,591
808,120;24312,840;    0,822;   -0,409
808,685;24308,821;    0,185;   -2,500
809,250;23817,529;    0,004;   -0,500
809,815;24145,873;    1,913;    0,682
810,380;24698,764;   -0,269;    1,591
810,945;25310,108;   -1,087;    2,045
811,510;24419,180;    2,094;    1,591
812,075;24126,616;   -0,633;   -1,409
812,640;24148,778;    2,003;    1,409
813,204;24156,759;    0,822;   -0,227
813,769;24672,740;    2,094;   -0,045
814,334;24071,903;    0,458;    0,864
814,898;24094,339;    0,367;    0,591
815,463;23926,138;    1,276;   -0,773
816,027;23924,301;   -0,724;   -2,318
816,592;23940,282;    0,640;   -2,045
817,156;23476,172;    2,094;    1,136
817,721;23448,608;    4,276;    2,318
818,285;23336,770;    2,912;    1,500
818,849;23978,024;   -1,451;    1,682
819,414;23849,369;   -0,269;    2,955
819,978;23404,168;   -1,269;    1,773
820,542;24018,149;    2,003;    0,500
821,106;23720,221;   -0,815;    0,682
821,670;23817,202;   -0,815;    2,591
822,234;23544,546;   -0,270;    1,409
822,798;22850,437;    0,003;    0,500
823,362;22831,054;   -0,633;    4,227
823,926;22162,308;    0,094;    1,136
824,490;22413,561;   -0,997;   -0,682
825,054;22828,906;   -0,088;   -1,136
825,618;22456,433;   -1,542;   -1,500
826,181;22420,504;    0,458;   -1,318
826,745;22343,031;    1,367;   -1,045
827,309;22685,830;    1,185;    1,318
827,872;22004,993;    1,367;    0,955
828,436;23027,338;    1,185;   -0,773
828,999;23038,955;   -0,997;    1,227
829,563;21779,300;   -0,179;    1,136
830,126;21674,553;   -0,179;   -0,591
830,690;21651,443;   -1,997;    2,864
831,253;21203,424;   -0,543;    2,227
831,816;21371,496;   -1,906;    0,500
832,380;21273,023;    0,185;    0,864
832,943;21460,095;   -1,361;   -0,500
833,506;20892,348;    2,639;   -1,227
834,069;21750,148;    3,912;   -0,955
834,632;21795,674;    1,730;    1,318
835,195;21701,019;    1,003;    0,955
835,758;20861,454;   -0,997;    1,955
836,321;20767,617;    0,730;   -1,045
836,884;20824,598;   -0,725;   -0,955
837,447;20809,397;   -2,816;    1,773
838,010;21072,469;    0,366;    3,227
838,573;21376,359;   -1,179;    0,773
839,135;21345,249;   -1,361;   -0,955
839,698;20787,958;    1,275;    0,409
840,261;20293,939;    1,003;   -0,227
840,823;20107,465;   -0,543;    0,864
841,386;20372,810;   -0,452;   -2,409
841,948;20252,336;   -1,361;    1,773
842,511;19990,772;    0,912;    1,682
843,073;20164,935;    1,912;    0,227
843,636;19936,643;   -0,361;   -0,227
844,198;19893,715;    0,911;    0,591
844,760;20012,150;    1,093;    1,955
845,322;19720,404;    0,548;    1,136
845,885;20113,840;    0,730;    0,591
846,447;20532,275;   -1,998;    0,227
847,009;20123,893;    1,911;   -0,682
847,571;20470,964;    0,820;   -2,045
848,133;20559,764;   -1,089;   -1,864
848,695;20341,108;   -0,543;    1,409
849,257;19951,908;   -1,089;   -1,682
849,819;20116,161;   -0,998;   -0,409
850,381;20143,233;   -0,725;   -0,864
850,942;20554,396;    1,093;   -0,591
851,504;20566,650;    1,184;    0,227
852,066;20528,994;    1,275;   -1,591
852,628;20018,975;   -0,180;    1,955
853,189;19536,684;    1,638;    2,682
853,751;19648,392;   -0,907;    1,409
854,312;19487,373;   -0,453;   -1,682
854,874;20003,172;   -2,089;   -0,773
855,435;20553,517;   -0,907;   -1,682
855,997;20726,407;   -1,816;   -0,136
856,558;19978,752;    0,366;    1,773
857,119;20112,642;    0,820;    2,864
857,681;19765,441;    0,002;    0,318
858,242;19786,604;    1,911;   -2,136
858,803;20224,494;    0,456;   -0,773
859,364;20814,111;    0,184;   -4,773
859,925;20131,638;   -2,453;   -0,955
860,486;20002,073;   -0,453;   -0,955
861,047;19674,054;   -0,544;   -1,227
861,608;19505,399;   -1,089;   -0,773
862,169;19632,289;    0,638;   -0,045
862,730;19398,997;    0,456;    1,409
863,291;19646,342;   -0,635;   -0,500
863,852;20004,141;   -0,635;    1,955
864,412;19437,304;   -0,271;   -0,864
864,973;17957,921;   -0,089;    0,500
865,534;17867,448;   -1,726;    0,227
866,094;19369,429;    1,820;    0,227
866,655;19052,046;    1,274;    3,318
867,215;19326,027;    0,274;    0,136
867,776;19140,281;    0,547;   -0,136
868,336;19286,807;   -1,453;    0,136
868,897;18783,879;    2,638;    1,682
869,457;18488,224;    1,365;    0,318
870,017;18666,023;    0,547;   -1,227
870,578;19228,549;   -0,817;    0,773
871,138;18963,530;   -2,089;   -0,955
871,698;18477,693;   -0,817;   -1,318
872,258;18336,583;   -0,453;   -2,864
872,818;18722,837;    2,729;    0,045
873,378;18669,454;    0,638;    1,045
873,938;18169,981;    0,547;    0,500
874,498;18522,962;    0,274;   -1,955
875,058;18436,034;    2,183;    1,773
875,618;18296,651;    1,910;   -2,682
876,177;18196,359;    1,274;    0,136
876,737;17756,795;   -0,090;    1,955
877,297;17825,049;    0,183;    1,955
877,856;17865,666;   -0,362;    0,318
878,416;17805,465;    1,183;   -0,136
878,976;17994,901;   -1,817;    0,409
879,535;18155,155;    0,092;    3,136
880,095;17898,408;   -0,544;    0,045
880,654;17993,662;   -1,090;    1,318
881,213;18125,643;    2,456;    1,500
881,773;17727,988;    2,637;    2,682
882,332;18139,423;    3,365;    5,136
882,891;17949,222;    3,092;    2,136
883,451;18475,385;   -1,272;    1,682
884,010;17890,184;   -2,908;   -0,409
884,569;17981,165;   -0,999;   -0,045
885,128;18132,874;    2,819;   -1,864
885,687;18249,127;    4,455;    0,682
886,246;17889,018;    1,455;    2,136
886,805;17655,271;    2,455;    2,045
887,364;17940,616;   -0,999;   -0,500
887,922;18314,324;   -1,181;    0,045
888,481;17830,032;   -1,545;    0,591
889,040;18134,377;    1,183;    2,136
889,599;18846,904;    2,455;    1,409
890,157;18931,248;    1,455;    2,409
890,716;18577,047;   -0,090;    0,227
891,274;18379,210;    0,092;   -1,136
891,833;18780,373;    1,546;    0,864
892,391;18699,172;   -0,454;    0,500
892,950;18772,335;    1,819;   -0,773
893,508;19155,589;    0,455;   -0,409
894,067;18468,570;    0,637;    0,136
894,625;18372,096;   -0,636;   -1,500
895,183;18556,077;   -0,363;   -0,682
895,741;18466,331;    1,728;   -1,773
896,299;18322,585;   -0,545;   -2,409
896,858;18455,111;    0,819;   -1,591
897,416;18614,183;    2,728;   -1,318
897,974;18323,346;    1,819;    0,318
898,532;18501,327;    6,091;    2,682
899,089;18388,035;    2,091;   -0,682
899,647;18410,471;   -1,454;    1,318
900,205;18118,997;    1,182;    1,045
900,763;18311,160;   -0,454;    0,227
901,321;18297,505;    2,364;   -1,409
901,878;17677,304;   -1,000;   -0,773
902,436;17609,194;   -1,363;    1,318
902,994;18034,902;    4,728;    3,682
903,551;17418,247;    0,728;    0,409
904,109;17803,592;    0,182;   -1,409
904,666;17388,573;    2,455;    1,045
905,224;17197,644;    0,182;   -0,409
905,781;16924,262;    0,727;   -0,318
906,338;16983,061;   -1,363;    1,045
906,895;16913,497;    0,637;    2,045
907,453;16874,569;    1,727;    1,136
908,010;16893,095;   -0,909;    0,409
908,567;16537,894;    1,273;    0,591
909,124;15970,057;    0,364;   -1,500
909,681;16050,129;   -2,909;    0,682
910,238;16189,019;    0,636;   -1,318
910,795;16484,818;   -0,273;   -1,136
911,352;16089,091;   -2,909;   -2,682
911,909;15526,636;   -1,364;   -0,864
912,466;16064,909;   -3,182;    1,500
913,022;15559,455;   -1,636;    0,500
913,579;15916,091;   -0,909;    2,045
914,136;15558,000;    1,636;    0,955
914,692;15930,636;    0,091;   -1,227
915,249;15541,273;    1,455;    0,409
915,806;15778,545;    0,182;    1,955
916,362;15527,909;    1,909;    1,864
916,918;15074,091;    2,000;    1,045
917,475;15061,273;   -1,182;    0,955
918,031;15093,818;    3,364;   -0,045
918,587;14514,091;   -0,909;   -0,318
919,144;14741,545;   -2,273;    0,227
919,700;15106,727;    1,727;    0,773
920,256;14651,636;    0,727;    0,045
920,812;14238,818;   -0,727;   -1,045
921,368;14262,182;   -1,727;   -1,045
921,924;13900,182;    0,182;   -0,136
922,480;13448,364;   -0,545;    1,227
923,036;14052,455;    1,273;    1,955
923,592;13984,455;    0,455;    0,318
924,148;13907,000;    0,455;   -0,955
924,704;13210,364;   -1,364;   -0,409
925,259;13435,545;   -0,273;    0,591
925,815;13206,000;    1,455;    0,500
926,371;12691,818;    2,909;    1,409
926,926;12578,455;    2,091;    0,591
927,482;12213,000;   -1,364;    0,773
928,037;12046,455;    0,909;    2,045
928,593;12369,455;    1,636;    1,045
929,148;12168,182;   -1,818;   -1,500
929,704;11641,727;   -1,455;   -0,500
930,259;11885,000;    0,091;   -0,136
930,814;10934,545;   -0,818;    1,955
931,369;10560,636;    1,091;   -0,773
931,925;10409,636;   -0,091;    0,136
932,480;10337,455;   -2,818;   -2,591
933,035;10211,455;    0,545;   -0,318
933,590; 9925,182;    0,364;   -1,773
934,145; 9528,455;   -1,364;   -0,318
934,700; 9888,273;    0,455;   -0,591
935,255; 9670,364;   -0,091;    0,045
935,809; 8942,455;    3,182;    0,864
936,364; 7993,727;   -0,455;   -0,136
936,919; 7949,909;    0,455;   -1,773
937,474; 7858,545;    1,455;    0,136
938,028; 7621,091;   -1,636;    1,136
938,583; 7055,727;    1,818;    4,682
939,138; 7305,273;    2,091;    2,136
939,692; 6709,818;    1,636;   -1,136
940,247; 6423,545;   -0,727;   -1,045
940,801; 5931,545;   -0,636;    0,227
941,355; 5804,636;   -0,364;    2,591
941,910; 5447,909;   -0,273;   -2,136
942,464; 5540,909;   -0,818;   -0,318
943,018; 5324,364;    1,000;   -0,227
943,572; 5273,273;    2,545;   -0,682
944,126; 4663,909;    0,091;   -0,409
944,681; 4534,545;    3,091;    0,227
945,235; 4519,364;    1,000;   -0,591
945,789; 4475,091;    0,364;   -1,864
946,342; 4561,000;    0,455;   -0,591
946,896; 4373,545;   -2,273;    0,955
947,450; 4101,909;    1,545;   -0,227
948,004; 4304,455;    1,727;   -0,045
948,558; 4310,364;    0,273;   -0,864
949,111; 4242,364;   -0,273;   -0,318
949,665; 4265,909;    1,636;   -0,682
950,219; 4111,636;   -0,091;   -1,045
950,772; 4199,818;   -1,909;    1,864
951,326; 4130,364;    0,545;   -0,955
951,879; 4234,182;    0,727;   -2,318
952,433; 4249,455;    0,000;    2,227
952,986; 4067,364;    2,909;    0,682
953,539; 4036,364;   -0,273;    0,591
954,093; 3944,545;    0,545;   -1,318
954,646; 4084,545;    0,909;    1,318
955,199; 3881,455;    0,000;   -0,500
955,752; 3760,545;   -0,455;    1,773
956,305; 3715,000;   -0,091;    2,955
956,858; 3896,636;    0,818;   -0,318
957,411; 4075,818;   -0,545;    2,136
957,964; 3901,455;    1,364;    2,136
958,517; 3905,091;   -1,545;    3,136
959,070; 3742,182;   -0,455;    1,955
959,623; 3787,636;    1,091;    1,500
960,176; 3564,273;    1,727;    2,045
960,728; 3546,273;   -2,727;    0,773
961,281; 3585,545;    0,545;    0,500
961,834; 3636,182;   -0,909;    0,864
962,386; 3532,182;    1,727;    1,045
962,939; 3471,818;    0,364;   -0,318
963,491; 3626,364;    0,455;    1,136
964,043; 3482,182;    1,182;    2,409
964,596; 3613,273;   -1,000;    2,227
965,148; 3460,455;   -1,000;    1,773
965,700; 3368,273;    1,091;   -0,227
966,253; 3512,636;   -0,636;    0,318
966,805; 3333,182;   -2,273;    0,773
967,357; 3409,182;    1,091;   -1,500
967,909; 3365,273;    0,455;   -1,227
968,461; 3485,273;    0,545;    3,136
969,013; 3392,727;   -0,182;   -0,864
969,565; 3492,000;   -0,455;   -1,136
970,117; 3528,364;   -0,364;    1,045
970,669; 3363,545;    0,182;   -0,136
971,220; 3219,818;   -0,455;   -1,500
971,772; 3142,455;   -0,636;   -0,318
972,324; 3263,364;    0,091;   -0,500
972,876; 3217,182;    0,818;   -0,045
973,427; 3363,455;    1,909;   -1,045
973,979; 3322,636;   -0,727;   -2,500
974,530; 3374,727;    1,818;    1,318
975,082; 3375,273;   -0,545;    1,682
975,633; 3255,364;    1,091;    1,682
976,184; 3398,091;    0,909;    0,773
976,736; 3191,000;    0,091;    0,227
977,287; 2984,182;   -0,909;   -0,500
977,838; 3171,273;    0,909;   -0,318
978,389; 3243,000;   -1,000;   -0,500
978,940; 3100,364;    0,545;   -0,409
979,491; 3126,455;    0,091;   -0,500
980,042; 3085,182;    0,182;    3,045
980,593; 3141,273;   -2,545;    0,227
981,144; 3188,091;    2,545;   -0,500
981,695; 3153,727;    1,455;    1,500
982,246; 3105,727;   -0,273;    1,045
982,797; 3266,909;   -1,727;    0,682
983,347; 3388,364;    0,364;    0,591
983,898; 3553,636;    3,091;    0,409
984,449; 3355,818;    2,182;    0,773
984,999; 3289,273;    1,455;   -1,136
985,550; 3055,909;    0,182;   -0,318
986,100; 3090,000;   -0,455;   -0,318
986,651; 3104,091;   -0,818;    0,045
987,201; 3082,727;   -1,000;   -0,591
987,751; 3173,091;    0,818;    2,864
988,302; 3160,091;    2,636;    1,500
988,852; 3190,455;    0,455;   -1,136
989,402; 3223,182;    0,091;    0,682
989,952; 3142,818;   -2,182;    0,864
990,502; 3254,182;   -0,091;    0,682
991,052; 3190,727;   -0,727;    0,045
991,602; 3061,545;   -2,909;    1,318
992,152; 3050,364;    0,455;    0,682
992,702; 3049,636;    1,364;   -0,045
993,252; 2959,364;   -3,000;   -0,500
993,802; 3051,909;   -0,273;    1,318
994,352; 3275,091;   -1,545;    1,136
994,901; 3374,636;   -0,182;    3,227
995,451; 3288,818;   -0,182;    0,318
996,000; 3394,091;    1,636;    0,318
996,550; 3104,273;    2,273;    0,227
997,100; 3094,818;    1,273;   -0,045
997,649; 3374,909;    2,182;    0,955
998,198; 2999,545;    1,727;   -1,500
998,748; 3198,909;    1,091;   -2,318
999,297; 3102,909;   -0,818;   -0,409
999,846; 3161,000;    1,000;   -0,773
1000,395; 3205,636;   -0,818;    0,500
1000,945; 3156,091;    1,818;   -0,773
1001,494; 3260,818;    2,364;    0,682
1002,043; 3247,909;    4,636;    0,864
1002,592; 3075,455;   -1,091;    1,955
1003,141; 3233,364;   -0,455;   -0,682
1003,690; 3080,545;    1,727;    0,500
1004,238; 3186,636;    1,455;   -0,045
1004,787; 2796,636;    1,364;    1,227
1005,336; 3034,818;    0,364;    0,682
1005,885; 3194,273;    1,364;   -2,773
1006,433; 3342,091;    0,545;    0,955
1006,982; 3371,909;    0,455;    1,682
1007,531; 3306,000;   -1,818;   -0,227
1008,079; 3250,545;   -2,273;    0,500
1008,627; 3394,727;   -1,455;    0,409
1009,176; 3115,000;    0,000;   -1,955
1009,724; 3159,091;    1,091;    0,864
1010,273; 3201,818;    1,273;    0,500
1010,821; 3329,091;    0,091;    1,409
1011,369; 3056,636;   -1,364;    1,318
1011,917; 3027,182;   -1,364;   -0,591
1012,465; 3326,455;    1,273;   -1,591
1013,013; 3458,182;    2,091;   -1,682
1013,561; 3314,909;    0,455;   -0,773
1014,109; 3371,455;   -1,909;    1,682
1014,657; 3240,091;    0,364;    0,591
1015,205; 3367,000;    1,636;   -0,955
1015,753; 3411,091;   -0,545;   -1,409
1016,301; 3450,818;   -2,636;    3,045
1016,848; 3443,273;   -1,273;    0,409
1017,396; 3481,364;    2,545;    0,045
1017,944; 3609,545;    1,182;    1,864
1018,491; 3361,273;    0,273;    1,409
1019,039; 3495,000;    0,455;    0,591
1019,586; 3414,545;   -1,364;    1,682
1020,134; 3519,091;    0,455;    1,500
1020,681; 3552,455;    0,182;   -1,136
1021,228; 3562,727;    2,909;   -2,227
1021,776; 3394,182;    1,182;   -1,136
1022,323; 3607,273;    0,455;    0,773
1022,870; 3527,818;   -1,000;   -0,045
1023,417; 3417,727;    2,636;    1,864
1023,964; 3575,000;    2,636;    1,227
1024,511; 3403,364;    1,000;    0,773
1025,058; 3181,818;    3,182;   -0,045
1025,605; 3243,818;   -2,273;    3,136
1026,152; 3491,091;    1,727;   -0,591
1026,699; 3206,273;    1,818;    1,318
1027,245; 3377,273;   -0,091;    0,318
1027,792; 3584,727;   -1,000;    1,409
1028,339; 3471,000;    2,364;   -0,045
1028,885; 3315,909;    1,000;   -0,227
1029,432; 3248,818;   -0,091;    0,227
1029,978; 3307,636;   -1,000;   -1,591
1030,525; 3216,455;    1,000;    0,409
1031,071; 3451,909;   -1,364;    1,136
1031,618; 3563,545;    0,364;    1,682
1032,164; 3324,000;   -0,091;    3,045
1032,710; 3378,364;    1,636;   -1,500
1033,256; 3280,182;   -0,636;   -0,136
1033,803; 3280,273;   -0,545;    1,500
1034,349; 2981,091;   -1,364;    0,136
1034,895; 3142,818;    0,000;   -0,318
1035,441; 3126,091;   -0,818;    0,318
1035,987; 3105,091;   -2,364;   -0,682
1036,533; 3099,000;   -1,455;   -0,955
1037,078; 3330,909;    1,455;    1,682
1037,624; 3126,455;    2,455;   -0,955
1038,170; 3160,818;    0,455;   -0,318
1038,716; 3069,182;    1,636;   -0,409
1039,261; 2985,364;   -2,273;   -0,773
1039,807; 2914,727;   -0,091;    3,409
1040,352; 2974,273;   -1,909;   -0,318
1040,898; 3029,727;   -1,545;   -0,682
1041,443; 2925,091;   -1,455;   -2,591
1041,989; 2944,000;    1,091;    1,591
1042,534; 2846,273;   -0,364;    2,591
1043,079; 2931,273;    2,909;    0,955
1043,625; 2733,545;    1,818;    0,500
1044,170; 2788,091;   -1,364;    1,045
1044,715; 3039,455;    2,455;    0,955
1045,260; 2852,455;    2,182;   -0,955
1045,805; 2911,455;    1,182;   -0,591
1046,350; 2812,182;    1,364;   -0,409
1046,895; 2775,364;    2,909;    1,591
1047,440; 2734,636;    5,364;    0,409
1047,985; 2630,636;    2,818;   -0,955
1048,530; 2535,182;    1,545;    1,227
1049,074; 2613,636;    0,000;    0,318
1049,619; 2583,545;   -1,364;    1,955
1050,164; 2375,636;    0,455;    0,227
1050,708; 2416,636;   -0,455;    0,045
1051,253; 2804,182;    1,273;   -2,227
1051,797; 2497,182;    0,818;   -1,318
1052,342; 2500,364;   -1,182;    1,045
1052,886; 2507,182;    0,364;   -1,409
1053,430; 2396,818;   -1,364;    0,136
1053,975; 2395,364;   -0,818;   -0,318
1054,519; 2362,636;   -0,727;    3,227
1055,063; 2387,909;    0,909;    1,318
1055,607; 2271,182;   -0,182;    0,227
1056,151; 2296,364;    2,909;    1,682
1056,695; 2197,636;    2,273;   -1,136
1057,239; 2276,182;   -1,727;   -0,682
1057,783; 2300,000;    0,818;   -1,500
1058,327; 2226,273;    0,000;    1,409
1058,871; 2451,909;   -0,545;    1,318
1059,415; 2158,091;   -0,818;   -0,045
1059,958; 2447,000;    1,455;    2,591
1060,502; 2149,364;   -1,000;   -0,773
1061,046; 2058,000;    0,364;   -0,955
1061,589; 2008,455;   -3,000;   -1,136
1062,133; 1890,727;   -1,273;    1,864
1062,676; 1831,818;    1,182;    0,864
1063,220; 1830,636;    1,091;    0,500
1063,763; 1852,909;    0,909;    1,136
1064,306; 1949,273;   -0,909;    1,864
1064,849; 1827,636;   -0,909;    0,591
1065,393; 1846,273;    2,000;   -1,500
1065,936; 1949,000;    0,182;   -0,409
1066,479; 1852,727;   -1,455;    1,318
1067,022; 1853,909;   -0,273;   -0,227
1067,565; 1750,727;   -0,091;   -1,318
1068,108; 1778,636;    0,727;   -0,591
1068,651; 1745,909;   -0,636;    1,409
1069,194; 1682,000;   -0,455;   -1,682
1069,736; 1670,909;   -1,273;    0,955
1070,279; 1646,364;   -1,364;   -0,500
1070,822; 1712,091;   -2,000;   -0,318
1071,364; 1807,182;   -0,364;    1,318
1071,907; 1625,182;   -0,727;    3,227
1072,450; 1500,455;    0,000;   -0,045
1072,992; 1507,818;   -0,273;    3,136
1073,535; 1655,000;    2,091;    2,136
1074,077; 1440,091;   -0,727;    2,045
1074,619; 1411,727;   -1,364;    0,591
1075,161; 1445,273;   -1,091;    1,500
1075,704; 1639,091;    1,545;    1,227
1076,246; 1409,909;   -0,182;    0,682
1076,788; 1345,364;   -0,364;    1,773
1077,330; 1413,364;    1,273;    2,136
1077,872; 1381,636;    0,909;    0,955
1078,414; 1616,727;    2,727;    0,773
1078,956; 1338,273;    1,273;   -0,227
1079,498; 1603,455;    1,636;    0,318
1080,040; 1299,727;    1,909;   -1,318
1080,581; 1250,455;    1,636;   -0,318
1081,123; 1184,818;    0,091;   -0,773
1081,665; 1231,727;   -1,182;   -0,955
1082,206; 1532,909;    1,364;   -0,500
1082,748; 1379,455;    0,727;    2,045
1083,289; 1257,364;   -2,000;    1,318
1083,831; 1152,727;   -0,545;    0,227
1084,372; 1200,364;    0,000;    0,591
1084,913; 1211,364;    1,091;    0,864
1085,455; 1165,182;   -1,909;   -2,045
1085,996; 1145,091;   -2,273;    0,136
1086,537; 1165,091;   -0,091;    0,864
1087,078; 1200,636;   -0,909;   -2,136
1087,619; 1251,091;   -1,273;    0,227
1088,160; 1164,273;    0,000;    1,318
1088,701; 1134,818;   -1,091;    0,682
1089,242; 1062,727;    1,364;   -2,227
1089,783; 1184,364;   -0,273;    1,409
1090,324; 1140,545;    0,455;    0,682
1090,865; 1007,636;    2,727;   -0,409
1091,405;  969,182;    0,727;    2,227
1091,946; 1003,000;    0,182;   -0,955
1092,487;  932,909;    0,818;   -1,409
1093,027; 1116,818;   -1,364;   -1,500
1093,568;  959,636;   -0,364;    1,227
1094,108; 1065,818;    0,273;    1,773
1094,649;  992,545;   -1,182;    0,136
1095,189;  925,545;   -0,636;   -0,682
1095,729;  870,636;   -0,091;    0,955
1096,269;  870,909;    0,727;   -0,955
1096,810; 1206,455;   -1,364;    0,500
1097,350; 1022,182;    1,364;   -0,773
1097,890;  921,909;    0,364;    1,227
1098,430; 1190,182;    2,364;    2,864
1098,970; 1069,273;    2,182;    1,682
1099,510;  909,818;    0,545;   -2,318
1100,050;  842,182;    1,000;   -1,591
1100,589;  807,455;   -0,727;   -0,318
1101,129;  939,818;    0,818;   -0,955
1101,669; 1097,364;    1,727;    2,136
1102,209;  920,182;   -0,091;    2,227
1102,748;  874,909;    0,000;    0,955
1103,288;  853,273;    1,273;   -1,227
1103,827;  889,727;    3,091;   -2,227
1104,367;  755,182;   -0,091;   -2,409
1104,906;  714,455;    1,364;   -1,136
1105,445;  793,636;    0,636;   -1,136
1105,985;  733,636;   -0,727;    1,500
1106,524;  783,364;   -1,727;   -0,682
1107,063;  765,182;   -2,727;    1,409
1107,602;  730,455;   -1,909;   -1,500
1108,141;  651,545;   -1,909;    1,500
1108,680;  771,000;   -3,455;   -0,591
1109,219;  688,909;   -0,909;   -0,500
1109,758;  698,000;    0,455;    0,682
1110,297;  670,727;    1,000;   -0,682
1110,836;  610,273;   -0,727;    0,955
1111,375;  783,818;   -2,545;    0,409
1111,913;  788,909;   -1,000;    0,773
1112,452;  718,727;   -0,273;    0,136
1112,991;  594,455;    1,091;    1,955
1113,529;  564,636;   -0,818;   -0,045
1114,068;  633,636;   -0,273;    2,955
1114,606;  529,364;   -0,364;   -0,955
1115,144;  710,818;   -1,273;    1,045
1115,683;  627,545;   -0,727;    0,318
1116,221;  683,000;   -0,455;   -0,864
1116,759;  588,364;    0,636;   -0,864
1117,297;  798,455;    0,000;    1,864
1117,836;  596,909;   -2,182;   -1,227
1118,374;  614,727;    0,182;   -0,682
1118,912;  545,636;    0,909;    2,682
1119,450;  529,818;    1,000;    0,864
1119,988;  586,000;    1,545;    2,136
1120,525; 1060,000;    5,091;    3,318
1121,063;  756,091;    1,182;    1,864
1121,601;  548,000;   -0,909;   -1,227
1122,139;  510,091;   -0,727;   -2,045
1122,676;  718,091;   -0,727;    2,773
1123,214;  642,364;   -1,182;    4,409
1123,751;  434,273;    1,727;    2,227
1124,289;  578,364;   -0,091;   -0,409
1124,826;  436,000;    1,727;    0,227
1125,364;  362,091;    1,727;   -0,955
1125,901;  561,818;    1,182;    1,227
1126,438;  685,818;    0,818;    0,955
1126,975;  396,273;   -0,727;   -0,773
1127,513;  464,091;    0,273;    2,136
1128,050;  349,455;    1,636;   -0,682
1128,587;  469,909;    2,000;   -0,227
1129,124;  519,273;    0,091;    1,318
1129,661;  370,273;    0,273;    0,227
1130,198;  556,909;    1,636;    0,773
1130,734;  497,182;    0,182;    1,409
1131,271;  332,636;   -0,909;    0,864
1131,808;  516,182;    2,909;    3,045
1132,345;  384,000;    1,545;    0,318
1132,881;  248,091;   -1,545;   -1,864
1133,418;  399,545;    0,727;   -1,136
1133,954;  328,727;    2,455;   -2,682
1134,491;  420,091;    1,364;   -0,773
1135,027;  309,909;    2,364;    0,864
1135,564;  407,545;    0,273;    2,955
1136,100;  382,364;    0,364;    2,136
1136,636;  267,818;   -1,273;   -1,045
1137,172;  381,636;    0,000;   -1,045
1137,708;  295,727;   -1,364;   -1,045
1138,245;  303,727;    1,273;   -1,227
1138,781;  245,818;    1,091;   -3,318
1139,317;  314,727;    1,273;   -1,409
1139,852;  300,545;    3,091;    0,136
1140,388;  428,455;   -1,182;   -0,409
1140,924;  318,000;   -1,091;   -2,227
1141,460;  239,455;   -1,636;    0,136
1141,996;  170,818;   -1,364;    2,682
1142,531;  223,091;    1,364;    3,318
1143,067;  458,636;    1,182;    1,045
1143,602;  520,273;   -0,091;   -0,318
1144,138;  344,364;   -2,636;    1,045
1144,673;  201,727;   -1,455;    1,409
1145,209;  267,091;   -1,909;   -0,318
1145,744;  191,636;   -0,727;    0,864
1146,279;  347,455;    1,818;   -0,136
1146,815;  246,091;    1,545;   -2,682
1147,350;  291,818;   -1,364;    0,045
1147,885;  202,182;   -0,818;   -1,318
1148,420;  189,818;   -2,273;    0,773
1148,955;  173,818;   -1,727;    1,864
1149,490;  205,091;   -0,909;   -1,591
1150,025;  190,364;    0,455;   -1,773
1150,560;  310,364;    1,091;   -0,955
1151,094;  269,636;    1,455;   -0,591
1151,629;  282,545;    1,636;    0,864
1152,164;  199,182;    1,364;    1,318
1152,698;  160,455;   -0,182;   -0,136
1153,233;  115,455;    0,091;   -0,682
1153,767;  167,545;   -3,000;   -2,318
1154,302;  213,727;   -1,455;    1,773
1154,836;  211,545;   -0,455;   -2,136
1155,371;  273,091;   -1,364;    3,682
1155,905;  226,818;   -0,636;    1,682
1156,439;  186,636;   -0,636;   -0,500
1156,973;  221,455;    0,364;    0,318
1157,507;  146,909;   -0,364;    0,682
1158,042;  181,545;   -0,727;    1,045
1158,576;  238,364;    0,182;    1,773
1159,110;  228,455;   -0,818;    2,409
1159,643;  190,273;    0,636;   -0,045
1160,177;  122,909;   -1,545;    1,500

