
Integration time [ms]:   0,040
Averaging Nr. [scans]: 11
Smoothing Nr. [pixels]: 0
Data measured with spectrometer [name]: 7318044SP
Wave   ;Sample   ;Dark     ;Reference
[nm]   ;[counts] ;[counts] ;[counts] 

186,757;    3,187;   31,551;    1,318
187,357;   30,221;   22,551;    0,955
187,958;   11,673;   15,460;   -1,591
188,558;   45,040;    8,915;   -1,227
189,159;   15,442;    6,733;   -4,500
189,759;   -9,202;    7,278;   -3,591
190,360;   -6,307;    2,824;   -2,136
190,960;   19,738;    2,915;   -4,136
191,560;   24,626;    3,189;   -6,591
192,161;  221,514;    4,372;   -3,500
192,761;   90,626;    4,010;   -3,227
193,361;   40,976;    1,556;   -3,773
193,962;   66,932;    2,010;   -2,682
194,562;    5,656;    1,189;   -3,955
195,162;   14,931;   -2,448;   -2,227
195,762;  124,489;   -3,176;   -0,045
196,362;   81,465;    1,370;   -2,500
196,963;    8,743;    2,006;   -0,864
197,563;   47,841;    1,551;   -0,955
198,163;    8,992;    0,096;   -0,682
198,763;   20,127;    1,733;   -0,500
199,363;   56,869;    3,096;   -0,500
199,963;   33,593;    0,369;    0,409
200,563;   14,121;    2,823;   -1,409
201,163;   -4,583;    3,277;   -0,227
201,763;   27,230;    3,732;    0,318
202,363;    2,415;    1,459;    1,500
202,963;   28,189;    1,459;    1,045
203,563;   80,948;    0,277;    0,500
204,162;   23,152;    2,096;   -1,864
204,762;   15,778;    0,550;    0,591
205,362;   -7,046;    3,004;    1,955
205,962;   18,434;    3,096;    1,955
206,562;   12,588;    1,823;    2,318
207,161;   -2,981;   -0,087;    0,318
207,761;   70,340;    1,277;    2,409
208,361;   10,209;   -0,268;    1,409
208,960;   27,086;    0,459;    1,500
209,560;   23,181;    1,277;    1,591
210,160;   31,240;    0,550;    1,864
210,759;   16,345;    4,186;    1,227
211,359;   -4,076;    1,459;    1,045
211,958;   81,643;    1,277;    2,045
212,558;  103,837;    1,732;    1,864
213,157;   38,250;    1,822;    1,500
213,757;  160,548;    3,822;   -0,227
214,356;   60,484;    1,277;   -0,409
214,956;  146,229;    3,095;    0,409
215,555;   40,644;    2,095;    2,136
216,154;    2,487;   -2,723;   -0,591
216,754;    1,067;    0,277;    0,773
217,353;   19,221;   -0,268;   -1,045
217,952;  -12,013;   -0,178;    0,318
218,552;   37,333;    1,368;   -0,773
219,151;    8,243;    0,277;    0,955
219,750;    4,057;    0,004;   -0,227
220,349;  -10,959;   -0,451;    1,045
220,948;   49,619;   -1,360;    1,136
221,548;    5,345;    0,913;    1,227
222,147;   11,910;   -0,087;   -0,409
222,746;   82,761;   -0,451;   -0,955
223,345;   30,766;    0,731;    0,500
223,944;   25,068;   -0,451;    0,773
224,543;   30,109;    1,004;   -1,409
225,142;    9,035;    0,094;    0,136
225,741;   18,014;   -0,814;    1,045
226,340;   14,589;   -0,451;   -0,955
226,939;   61,399;   -0,996;   -0,136
227,538;    7,727;   -0,360;   -0,773
228,137;   67,421;   -0,814;    0,864
228,735;   46,802;   -0,541;    1,227
229,334;   -6,528;   -0,905;   -0,227
229,933;   69,032;    0,459;    0,591
230,532;   63,693;    1,186;   -0,409
231,131;  101,673;    1,732;    0,318
231,729;   44,391;   -2,450;   -2,318
232,328;   14,782;   -0,723;   -1,500
232,927;   24,388;    1,004;   -0,500
233,525;   21,510;    3,640;    0,045
234,124;   30,214;    2,368;   -1,591
234,723;   -1,833;    0,913;   -1,045
235,321;   -0,223;    2,277;    0,136
235,920;    4,828;    1,186;   -1,227
236,518;   70,347;    3,459;    0,318
237,117;    7,122;    0,004;   -0,227
237,715;   15,612;    0,640;   -0,500
238,314;   23,914;   -0,087;   -2,318
238,912;   74,666;   -0,723;   -1,409
239,510;   40,826;    0,459;   -1,227
240,109;   79,004;    0,004;    3,773
240,707;   57,803;   -0,996;    1,227
241,305;   -2,565;    0,550;    0,136
241,904;   30,162;   -0,178;   -2,045
242,502;   92,747;   -0,632;   -0,227
243,100;   42,010;   -0,087;   -0,955
243,698;    7,955;    0,732;    1,682
244,297;   21,364;   -0,632;    0,682
244,895;   18,903;   -0,269;   -2,318
245,493;   84,161;    2,186;   -0,591
246,091;   85,387;    1,368;   -1,318
246,689;   53,131;    1,004;    0,591
247,287;   43,578;    0,822;   -1,136
247,885;   24,963;   -1,451;    1,227
248,483;   13,389;    1,822;   -0,500
249,081;   37,612;    0,185;    1,591
249,679;   39,796;   -0,178;    1,682
250,277;   -2,099;   -1,723;    0,864
250,875;   41,629;   -1,087;   -1,045
251,473;   18,947;   -1,178;    0,500
252,071;   54,389;    1,459;    1,045
252,669;   19,886;   -1,814;    0,318
253,267;    6,303;   -0,087;    0,773
253,864;   22,488;   -0,360;    0,682
254,462;   68,741;    1,640;    1,591
255,060;    8,736;   -0,269;    1,318
255,658;    3,886;    0,822;   -0,136
256,255;   13,414;    0,186;   -2,045
256,853;   31,235;   -0,269;    1,409
257,451;    8,559;    0,822;    1,864
258,048;  162,008;    1,822;    1,864
258,646;   69,213;    1,731;   -1,045
259,243;   99,599;   -0,087;    2,227
259,841;   51,572;   -0,814;    0,318
260,438;    4,375;   -0,087;    0,864
261,036;   41,190;   -1,905;    1,409
261,633;    4,761;   -0,087;    2,227
262,231;   -5,856;    2,731;   -0,045
262,828;  -14,236;   -0,905;    1,136
263,425;    4,497;    0,913;   -0,591
264,023;    5,464;    0,186;    0,045
264,620;   49,975;   -0,360;   -0,318
265,217;   93,142;   -2,087;    3,136
265,815;   18,010;   -1,905;    2,136
266,412;   42,471;    0,731;    0,136
267,009;   33,031;   -1,451;    0,773
267,606;   67,577;    0,822;   -0,955
268,203;   16,146;   -0,269;   -0,591
268,801;   23,564;    1,731;    0,591
269,398;    3,845;   -0,360;    2,500
269,995;   41,492;    0,277;    1,591
270,592;   24,951;   -0,632;   -0,500
271,189;   -6,312;    0,186;    0,409
271,786;  -10,950;   -0,632;    1,227
272,383;   48,337;   -1,087;    0,227
272,980;    9,245;    0,277;    0,318
273,577;    3,157;    0,004;    1,227
274,174;   -6,978;    0,822;    2,591
274,771;   40,977;   -0,814;   -0,773
275,367;  175,720;    2,277;    1,409
275,964;   81,381;    0,731;   -0,500
276,561;   14,653;    1,549;   -1,045
277,158;  -15,931;    0,095;   -1,773
277,755;   65,158;    2,185;    0,409
278,351;   35,957;   -0,451;   -1,500
278,948;   50,605;   -0,815;    0,045
279,545;   35,926;   -1,360;    2,318
280,141;   69,991;   -1,723;   -2,045
280,738;   72,829;   -0,451;   -0,136
281,334;   20,208;   -1,633;    0,591
281,931;    5,890;   -0,087;   -1,318
282,528;   56,637;    0,822;   -0,500
283,124;   75,741;   -1,087;   -0,500
283,721;   68,323;   -0,451;    1,409
284,317;   23,559;    0,185;    2,500
284,913;   74,264;   -1,360;    0,591
285,510;  124,627;    0,640;   -0,318
286,106;   87,371;   -2,269;   -0,955
286,703;   39,995;   -0,360;    1,955
287,299;   17,935;   -1,451;   -0,591
287,895;    8,727;    0,822;   -1,045
288,491;    0,481;    0,186;    2,136
289,088;   37,575;   -2,360;    2,409
289,684;   39,795;   -1,723;    1,500
290,280;   90,770;    0,368;    0,682
290,876;   71,331;    1,822;    5,500
291,472;   49,730;    1,276;    2,227
292,068;   62,792;    1,367;    0,227
292,665;   21,935;    2,095;    0,773
293,261;   -1,892;    0,276;    2,136
293,857;   54,532;    2,913;    2,136
294,453;   29,777;    3,550;    0,955
295,049;  102,952;   -0,268;    1,955
295,644;   43,992;    0,095;    0,136
296,240;    2,895;   -0,905;   -0,136
296,836;   35,364;   -0,995;    0,318
297,432;   69,697;    1,096;   -0,500
298,028;   61,565;    0,732;    0,773
298,624;   31,767;    1,459;    1,864
299,220;   35,624;    2,368;    0,591
299,815;   29,922;    1,005;   -0,409
300,411;   60,861;    0,914;    1,773
301,007;   73,616;    1,368;    0,227
301,602;   22,123;   -0,541;   -2,318
302,198;   73,151;    0,732;   -0,773
302,794;   23,651;    1,187;   -0,500
303,389;   -4,582;   -1,177;    1,045
303,985;   11,978;    0,550;    1,409
304,580;   68,577;    1,459;    1,591
305,176;   21,018;   -3,086;    0,136
305,771;  -17,657;   -1,268;   -1,227
306,367;  135,016;    4,095;    0,136
306,962;   52,578;    0,641;    1,500
307,558;   71,528;   -0,450;    0,136
308,153;   51,728;    1,095;   -1,136
308,748;    7,624;   -0,814;    1,682
309,344;  126,586;   -0,632;   -1,318
309,939;  112,947;   -1,905;   -1,318
310,534;   31,176;   -0,086;   -1,682
311,130;   18,111;    0,459;   -2,500
311,725;    6,519;    1,004;   -0,500
312,320;   20,337;    2,459;    0,045
312,915;   52,795;    1,459;   -1,045
313,510;  128,527;    1,550;   -0,500
314,105;   27,275;    1,096;    1,409
314,700;   -5,408;   -3,086;   -1,045
315,295;   16,304;   -0,904;    0,045
315,890;    7,157;    1,277;    0,864
316,485;   39,303;   -0,359;   -0,318
317,080;    3,907;   -3,086;    1,591
317,675;  116,138;    2,005;   -0,682
318,270;  215,065;    5,550;    3,318
318,865;  144,810;    3,278;    3,045
319,460;   77,098;   -0,904;    0,591
320,055;   16,849;   -0,541;   -1,227
320,650;   16,092;   -1,995;   -0,591
321,244;   19,672;   -0,177;   -1,409
321,839;   12,359;   -1,541;   -0,227
322,434;   27,428;   -1,086;   -1,591
323,029;   17,459;    1,732;    1,591
323,623;    5,170;    1,550;    0,773
324,218;   93,124;    2,368;    1,409
324,812;   57,361;    1,096;    1,591
325,407;   43,098;   -0,814;    2,045
326,002;  106,221;    0,277;   -0,409
326,596;   77,462;    0,914;    1,318
327,191;   19,580;    0,823;   -1,045
327,785;   17,189;   -0,813;   -0,227
328,379;    7,877;    1,368;    0,136
328,974;   21,447;    0,914;   -3,955
329,568;   35,550;    0,186;   -2,409
330,163;   76,994;    2,096;    1,045
330,757;   15,591;    2,459;    1,591
331,351;   -3,560;    0,459;    0,682
331,945;   -6,605;    0,914;    1,409
332,540;   38,060;   -1,723;   -0,591
333,134;   30,259;   -1,086;    0,773
333,728;   41,853;    0,005;    0,318
334,322;    2,754;   -1,177;   -0,864
334,916;    4,864;    0,277;    0,955
335,510;   59,317;   -0,450;   -0,136
336,105;   43,216;   -1,086;    1,591
336,699;    2,099;   -1,086;    0,591
337,293;   31,965;   -1,723;    0,318
337,887;   13,543;   -2,723;    1,955
338,481;   59,829;    0,459;    0,591
339,074;   99,790;   -0,359;    2,682
339,668;   85,942;   -1,632;    1,227
340,262;  341,994;    1,732;    3,227
340,856;  145,122;    1,822;   -0,682
341,450;   31,125;    1,004;    1,864
342,044;   59,874;    1,459;    0,136
342,637;  108,731;    0,913;   -2,136
343,231;   62,881;   -2,360;    0,682
343,825;   48,662;   -1,086;   -0,591
344,419;   51,020;   -1,995;    0,500
345,012;  341,471;    2,459;    4,045
345,606;  229,822;    4,641;    1,591
346,199;   70,070;   -1,813;   -0,227
346,793;  140,677;    1,914;    2,045
347,386;   55,444;   -0,813;   -1,136
347,980;   15,816;   -0,268;   -0,045
348,573;   68,975;    2,278;    0,409
349,167;  278,805;    5,278;    4,773
349,760;  166,250;    2,914;    2,682
350,354;  155,626;   -0,813;    1,136
350,947;  182,836;    1,096;    1,682
351,540;  127,986;   -0,358;   -1,409
352,134;   58,092;    1,096;    1,136
352,727;   67,266;   -0,086;    1,136
353,320;   78,668;    0,005;    0,591
353,913;   39,498;   -1,995;    1,864
354,507;  174,049;    0,823;   -1,227
355,100;   92,970;    0,460;    0,864
355,693;  401,423;    2,005;    2,409
356,286;  219,928;    0,823;    2,773
356,879;  117,761;   -0,722;    1,227
357,472;  131,279;   -0,904;    1,500
358,065;  155,893;   -0,722;    2,500
358,658;   57,778;   -0,540;    2,318
359,251;   41,744;   -1,631;   -0,591
359,844;  159,672;   -1,904;   -1,136
360,437;  206,548;   -2,995;    0,045
361,030;   86,901;    1,369;   -0,682
361,623;   99,480;    2,824;    0,318
362,215;  259,060;   -0,086;    2,045
362,808;  136,412;   -2,358;   -1,682
363,401;   92,774;   -2,449;    0,136
363,994;  240,449;   -0,631;   -1,500
364,586;  107,608;    0,824;   -1,500
365,179;   75,214;   -0,449;   -1,136
365,772;    0,750;   -1,995;    2,045
366,364;   90,522;    1,915;   -3,227
366,957;  105,674;    2,279;   -0,045
367,549;   81,087;    2,188;   -0,864
368,142;   88,879;    1,825;   -1,500
368,734;   58,125;    0,734;   -2,136
369,327;   12,542;    1,643;   -0,500
369,919;   53,993;   -1,538;    0,409
370,512;   65,114;   -1,083;   -0,500
371,104;  267,019;   -0,901;    1,591
371,696;  281,884;    1,191;   -0,955
372,289;  166,668;    0,373;    1,136
372,881;  125,400;   -2,080;    1,318
373,473;   46,269;   -2,170;    1,136
374,066;  118,708;   -0,169;    0,500
374,658;   99,893;    0,378;    1,136
375,250;   40,888;    0,653;   -1,409
375,842;   80,654;    0,473;   -0,045
376,434;   42,412;   -0,435;   -0,409
377,026;   21,794;    0,204;   -2,500
377,618;   65,648;   -0,158;   -0,682
378,210;    6,823;   -0,338;   -1,955
378,802;   -1,019;    0,754;   -0,591
379,394;  362,980;    1,846;    0,682
379,986;  129,728;    1,393;   -0,955
380,578;   32,001;   -0,153;    0,773
381,170;  283,635;   -0,972;    0,045
381,762;  194,422;    0,755;    1,409
382,354;  159,481;   -0,065;   -1,318
382,945;   70,786;   -2,976;    0,318
383,537;   25,269;   -2,705;   -1,955
384,129;   27,944;   -2,160;   -1,136
384,721;  134,578;   -0,252;    0,955
385,312;   71,934;   -0,161;   -0,955
385,904;  139,878;   -2,706;    1,591
386,496;   78,098;   -0,979;    1,045
387,087;  197,599;    1,022;    2,500
387,679;  137,187;   -1,160;    0,045
388,270;  114,491;    2,840;    2,045
388,862;   84,059;    1,295;   -0,318
389,453;   76,231;   -0,887;    1,045
390,045;   84,206;   -0,705;   -2,682
390,636;  -26,446;    0,204;   -0,591
391,227;   36,698;   -0,523;   -0,045
391,819;   16,043;    0,204;    0,773
392,410;  249,425;    1,022;    0,045
393,001;   73,049;   -0,979;   -1,591
393,593;  127,817;    1,930;   -0,045
394,184;  176,015;    1,385;   -0,409
394,775;   59,750;    1,839;    2,136
395,366;  -11,021;    1,385;    0,773
395,957;  152,869;    0,113;    0,136
396,548;   53,151;   -0,342;    2,682
397,139;  161,291;   -2,433;    0,591
397,730;   81,625;   -1,888;    0,955
398,321;   96,486;   -1,252;    0,955
398,912;   44,737;   -0,615;    0,136
399,503;   28,342;   -3,524;   -1,409
400,094;   66,001;    0,294;    1,682
400,685;   69,761;   -0,433;    0,045
401,276;   25,262;    0,930;   -0,955
401,867;    5,209;   -0,888;    0,773
402,458;  -38,001;   -2,251;   -2,318
403,048;  100,362;    1,112;    0,591
403,639;   54,075;    0,840;    0,864
404,230;  151,261;    2,476;    0,318
404,821;  200,705;   -0,615;    0,045
405,411;  113,057;    1,203;   -2,591
406,002;   35,806;   -1,252;   -1,136
406,592;  240,468;    2,294;    0,045
407,183;  112,836;    0,566;   -1,500
407,774;   91,580;    3,475;   -0,136
408,364;   46,619;    0,930;    0,409
408,954;  149,951;    0,384;    1,227
409,545;  147,002;    1,021;    1,045
410,135;  121,340;    1,293;    0,500
410,726;   64,416;    1,838;    0,318
411,316;  234,373;    0,111;    0,773
411,906;   89,747;   -0,253;   -0,409
412,497;  101,588;   -1,070;   -0,045
413,087;   42,694;   -1,980;   -0,227
413,677;  -17,469;   -0,707;    3,864
414,267;  -19,243;    0,656;    1,409
414,857;  -41,527;   -2,980;    4,227
415,448;  -40,004;    0,839;    0,500
416,038;  -13,156;    0,020;   -0,591
416,628;   32,219;   -0,889;    0,409
417,218;   78,045;    0,565;    3,318
417,808;  219,942;    0,202;   -0,409
418,398;  103,677;    0,020;    2,682
418,988;    3,112;    2,020;    0,591
419,578;   85,586;   -0,707;    1,409
420,168;   12,622;   -1,343;   -0,955
420,757;  147,839;   -1,343;   -1,500
421,347;   50,371;    0,111;   -0,227
421,937;   23,356;    2,292;    1,409
422,527;  154,770;    0,838;   -0,773
423,116;  274,992;   -0,253;   -0,045
423,706;   24,653;   -1,889;    0,318
424,296;  -11,676;    1,384;    0,682
424,885;   96,960;   -0,071;   -3,045
425,475;   68,248;    1,474;   -2,864
426,065;  -27,966;   -0,980;   -0,318
426,654;  -38,711;   -0,435;   -0,318
427,244;  200,295;    0,020;    1,409
427,833;  167,597;    1,383;   -0,500
428,423;   47,635;   -0,526;    1,136
429,012;   50,172;   -0,344;   -1,136
429,601;  177,411;   -1,344;    0,136
430,191;   67,245;    1,292;    4,318
430,780;   -8,787;   -0,344;   -0,409
431,369;  155,030;    0,746;   -0,045
431,959;   47,514;   -1,254;    0,500
432,548;    2,760;   -1,163;   -0,045
433,137;  -51,809;   -1,254;   -1,318
433,726;    3,891;    0,292;    0,500
434,315;   28,166;   -0,526;    2,409
434,905;  130,595;   -1,254;    1,409
435,494;  127,418;    0,746;    0,955
436,083;    6,144;   -0,981;   -0,955
436,672;   92,756;    0,110;    0,500
437,261;   46,263;    0,292;   -1,955
437,850;  252,319;    1,383;    0,682
438,439;  296,842;    3,291;    1,955
439,027;  405,977;    3,655;    1,773
439,616;  325,568;    2,927;    1,227
440,205;  111,233;    0,200;   -2,136
440,794;   74,846;    2,109;   -0,045
441,383;   16,029;   -1,346;   -0,591
441,971;   -9,357;   -2,436;    0,591
442,560;    4,528;    0,563;   -1,773
443,149;  -82,013;    0,379;   -1,318
443,737;  -45,206;   -0,074;   -2,318
444,326;   -9,705;    0,018;    0,318
444,915;   34,405;   -1,982;    0,864
445,503;   35,321;   -2,891;   -0,318
446,092;  275,093;    0,382;    2,136
446,680;  219,290;    0,382;    0,318
447,269;  124,020;   -0,346;   -0,318
447,857;  106,223;    0,018;   -1,773
448,445;   70,218;    0,563;    1,318
449,034;   10,709;   -1,528;   -1,136
449,622;   13,874;   -1,073;    3,500
450,210;  271,409;    2,017;    2,227
450,799;  192,107;    0,290;   -0,591
451,387;  165,540;    1,381;   -0,591
451,975;  149,001;    2,654;    0,864
452,563;  218,467;    3,472;    2,318
453,151;   53,879;   -0,528;   -1,227
453,739;   92,333;   -1,347;    0,136
454,328;  188,895;    2,381;   -2,136
454,916;  123,281;    2,562;   -0,136
455,504;  151,381;    1,017;    1,227
456,092;   43,083;    0,017;   -1,591
456,679;   12,553;    1,472;    0,682
457,267;  392,483;    4,017;    1,045
457,855;   96,798;    1,017;    1,409
458,443;  -33,705;   -0,165;    1,682
459,031;  114,461;    0,108;    2,409
459,619;   71,842;   -1,801;    2,864
460,206;  -19,197;    0,835;    2,045
460,794;  -17,686;   -2,983;   -0,227
461,382;   31,642;   -0,529;   -0,864
461,970;   42,684;    1,198;    1,864
462,557;  -30,984;   -0,711;   -0,682
463,145;   67,180;   -3,165;   -1,682
463,732;  303,631;    2,016;   -1,045
464,320;   90,335;   -0,075;   -3,045
464,907;  219,555;    2,743;   -0,773
465,495;  134,071;    0,743;   -1,227
466,082;   63,592;   -1,984;   -0,045
466,670;   88,706;   -2,529;    1,227
467,257;  -11,193;   -1,711;    2,045
467,844;   88,495;   -0,075;    0,045
468,432;   63,815;    0,834;    3,500
469,019;   21,310;    0,925;   -1,773
469,606;  108,105;    0,470;    3,682
470,193;  128,463;   -1,439;    0,227
470,780;   87,300;   -2,075;    0,864
471,368;   27,652;   -1,257;   -0,773
471,955;  122,352;    1,379;   -0,682
472,542;   81,748;    0,652;   -1,136
473,129;  -21,867;   -0,166;    0,136
473,716;  -12,408;    1,470;    0,591
474,303;   19,831;    0,652;   -0,864
474,890;   22,140;   -1,439;   -0,500
475,477;  121,347;   -1,621;    0,409
476,064;   29,122;    1,106;   -1,591
476,650;  146,114;    0,288;    0,318
477,237;   56,841;   -0,258;    0,955
477,824;   40,490;   -1,076;    0,864
478,411;  -39,896;   -1,894;   -0,318
478,997;  -51,654;    0,560;   -0,773
479,584;  -91,285;    1,196;   -0,409
480,171;   67,376;   -0,440;   -0,773
480,757;  127,846;    2,651;    0,773
481,344;   23,408;    0,469;    0,409
481,931;  -61,643;    1,105;    1,045
482,517;   57,213;   -1,258;    0,318
483,104;  146,782;    1,106;    2,864
483,690;   12,457;   -1,804;    0,045
484,276;   -5,077;   -0,895;    0,227
484,863;  192,782;    2,469;    1,136
485,449;   55,887;   -0,077;    0,318
486,035;    2,479;   -1,986;   -0,136
486,622;   87,385;   -0,895;    0,045
487,208;    5,756;    1,378;    1,500
487,794;  -54,363;    0,741;    0,318
488,380;  -46,137;    0,105;   -1,409
488,967;  -52,624;   -1,168;   -0,409
489,553;  -32,416;   -1,895;   -1,409
490,139;   41,616;    1,559;    0,773
490,725;  -31,651;    0,741;   -0,227
491,311;   13,773;    3,287;    3,045
491,897;   -7,460;   -0,986;    1,500
492,483;   -6,209;    0,105;    1,227
493,069;  400,901;    3,923;    0,864
493,655;  139,782;    1,650;    0,682
494,241;   24,025;    1,377;   -0,955
494,826;   34,056;    0,287;   -1,045
495,412;   90,262;    2,559;   -0,682
495,998;    2,751;   -0,805;   -0,318
496,584;   60,180;    0,377;    1,045
497,169;   76,785;    1,014;   -0,682
497,755;   12,688;    0,650;    1,227
498,341;  136,893;    0,559;    0,318
498,926;  246,503;    1,832;    1,955
499,512;    7,809;    1,286;    2,955
500,097;   14,847;    0,195;   -0,318
500,683;   39,507;   -0,350;    2,136
501,268;  -12,684;   -0,169;   -0,955
501,854;   10,540;   -0,169;    1,227
502,439;   -1,032;   -0,624;   -1,773
503,024;    9,378;    0,195;    0,500
503,610;   39,545;   -0,078;   -0,682
504,195;   -6,347;    0,558;    1,955
504,780;   87,429;    2,922;    1,227
505,366;  159,804;    3,013;    2,864
505,951;   98,060;    0,740;    1,045
506,536;   25,097;   -3,260;   -3,682
507,121;   73,055;    0,285;   -0,318
507,706;   25,731;    2,376;    1,045
508,291;  -18,230;    2,649;    1,136
508,876;  -31,421;   -0,988;    2,591
509,461;   14,939;   -0,169;   -0,773
510,046;   58,760;    0,194;    0,318
510,631;   69,415;   -0,351;   -0,773
511,216;  -10,305;    2,467;   -0,500
511,801;   41,385;   -0,442;    2,591
512,386;   60,071;    0,740;    0,500
512,971;   69,045;   -2,988;    0,955
513,555;   92,619;   -0,897;   -1,500
514,140;   56,888;   -0,442;   -3,136
514,725;  162,587;   -0,715;   -1,136
515,309;   80,144;   -0,533;    0,318
515,894;   10,773;   -0,624;   -2,227
516,479;   49,874;   -0,624;   -0,955
517,063;   45,665;    0,376;    1,227
517,648;    5,142;    1,012;   -1,136
518,232;  -12,220;   -0,261;   -1,409
518,817;   77,812;   -0,079;    1,682
519,401;  193,891;    2,194;    0,591
519,985;  195,664;    1,103;    1,136
520,570;   87,835;    0,830;   -1,955
521,154;  214,297;    2,102;    0,591
521,738;  424,908;   -2,352;    2,409
522,323;  273,673;   -0,170;    1,682
522,907;  335,571;    0,466;   -0,136
523,491;  283,338;    0,557;    0,955
524,075;  303,097;    2,284;    0,591
524,659;  647,868;    1,466;    0,591
525,243;  646,460;    1,739;    0,409
525,827;  657,692;    0,648;   -0,045
526,411;  822,413;   -1,989;   -0,136
526,995; 1146,762;   -0,352;    1,409
527,579; 1335,855;   -0,443;   -1,045
528,163; 1458,878;    0,375;   -1,500
528,747; 1829,509;    2,466;   -0,773
529,331; 2022,074;   -0,080;   -1,409
529,915; 2066,595;    1,738;    0,955
530,499; 2420,207;   -0,807;    1,227
531,082; 2689,980;   -0,534;    1,591
531,666; 2883,002;    1,374;    0,773
532,250; 3308,723;    1,284;    2,682
532,833; 3768,063;    0,920;    2,773
533,417; 3953,053;   -1,807;    0,864
534,001; 4223,115;    1,647;   -0,318
534,584; 4883,871;    0,374;    0,500
535,168; 5060,723;    0,465;    1,409
535,751; 5501,009;    0,647;    0,045
536,334; 5343,491;   -0,898;   -0,409
536,918; 6040,658;    0,011;    1,591
537,501; 6311,782;   -0,899;    1,318
538,085; 6617,480;   -0,444;    1,045
538,668; 6928,693;    0,829;    2,409
539,251; 7467,271;    1,829;    3,773
539,834; 7722,521;    0,101;    0,773
540,418; 7969,975;   -1,990;    4,318
541,001; 8225,815;   -0,990;    1,773
541,584; 8347,256;    2,101;    2,227
542,167; 8310,931;    1,374;    2,955
542,750; 8527,619;    1,919;   -0,773
543,333; 8338,483;    0,555;    2,136
543,916; 9173,158;    0,192;    2,500
544,499; 9694,143;   -1,354;    0,227
545,082; 9858,158;    1,374;    3,591
545,665;10080,138;    1,919;    1,500
546,248;10444,119;    1,010;   -0,318
546,830;10308,453;   -0,445;    1,955
547,413;10722,761;    1,010;   -0,773
547,996;11265,241;    0,555;    0,500
548,579;11138,379;    0,919;    0,955
549,161;11080,030;    1,828;    2,682
549,744;10946,441;   -0,809;    0,409
550,326;11482,953;   -0,809;   -1,136
550,909;11379,324;    2,737;    0,591
551,492;11771,874;   -0,263;    0,227
552,074;11684,030;   -0,173;   -1,318
552,657;12263,533;    2,373;    0,045
553,239;12065,538;   -0,173;   -0,773
553,821;12048,427;   -1,082;    1,045
554,404;11672,526;    1,282;    1,136
554,986;12064,138;    0,464;    1,045
555,568;12593,689;    1,191;   -0,955
556,151;12054,175;    1,191;   -0,227
556,733;12200,860;   -0,264;   -0,864
557,315;12615,493;    0,100;    0,500
557,897;12415,810;    0,554;   -0,500
558,479;12593,255;   -1,991;    1,318
559,061;12787,649;   -0,719;   -0,864
559,643;13112,047;   -0,264;    0,045
560,225;13342,249;    1,645;    2,864
560,807;13394,683;    0,918;    0,318
561,389;12988,465;    0,554;    2,318
561,971;13686,358;    0,463;    2,136
562,553;13547,929;   -1,628;    1,591
563,135;13695,642;   -0,537;    1,136
563,717;13374,634;    3,372;    1,136
564,298;13946,033;    3,645;   -0,045
564,880;13710,816;    0,645;   -1,409
565,462;13885,725;    0,645;    1,318
566,043;14896,316;   -0,446;    2,318
566,625;14522,333;    1,918;    1,227
567,207;14370,570;    1,099;    1,682
567,788;15269,029;   -1,264;    1,500
568,370;15952,212;    1,917;   -0,500
568,951;15776,430;    0,190;    0,227
569,533;16523,972;   -0,628;   -0,500
570,114;16921,095;   -0,446;    0,682
570,695;17373,608;   -0,174;   -1,318
571,277;17703,493;   -0,265;   -1,682
571,858;18338,234;    2,008;   -1,136
572,439;19035,797;    1,554;   -1,045
573,021;19147,366;    2,099;   -2,773
573,602;19579,226;   -1,265;    0,318
574,183;20376,160;   -2,083;    2,227
574,764;20356,914;   -1,629;    0,409
575,345;20839,453;    0,917;   -0,136
575,926;21309,609;   -0,356;    0,136
576,507;21273,334;    1,099;   -0,227
577,088;22282,946;    3,099;    1,682
577,669;22319,868;    0,735;    1,955
578,250;23023,251;    0,644;   -1,045
578,831;23466,007;   -1,356;   -2,227
579,412;23629,627;   -0,810;    0,955
579,993;24412,369;    1,008;    0,227
580,573;24692,195;   -0,629;   -0,955
581,154;23714,512;    0,735;   -0,591
581,735;24605,769;    0,644;    0,773
582,315;24166,951;   -0,629;    2,136
582,896;24358,460;   -0,174;    1,227
583,477;23861,866;    0,189;    1,227
584,057;24161,345;    0,553;    0,955
584,638;24441,824;    2,553;    2,318
585,218;24476,743;   -0,538;    2,682
585,799;24596,450;    0,281;   -0,227
586,379;24570,218;    0,372;    1,591
586,959;23506,936;    0,735;    0,318
587,540;22999,803;   -0,629;    2,227
588,120;22628,256;    1,007;   -0,045
588,700;21875,311;    2,553;    2,136
589,281;22260,782;    0,462;   -0,955
589,861;22192,795;    0,099;   -1,682
590,441;21971,020;    2,371;   -2,682
591,021;21085,205;   -0,265;   -2,591
591,601;21343,272;   -0,537;    0,500
592,181;21463,729;   -0,719;   -0,773
592,761;20840,646;    0,007;    1,409
593,341;20822,656;   -0,901;    0,045
593,921;20808,376;   -0,265;    1,591
594,501;20754,779;   -0,538;    1,318
595,081;20602,162;    0,917;   -0,318
595,661;20975,130;   -1,447;    0,955
596,240;21443,933;   -0,537;    0,136
596,820;21129,284;    0,372;    1,955
597,400;21200,024;    2,008;    0,773
597,980;21401,004;    2,008;    1,045
598,559;21426,894;    2,735;   -0,227
599,139;21221,337;   -0,174;   -1,227
599,718;21110,518;   -0,174;   -0,409
600,298;21393,373;    0,735;    0,682
600,877;21672,225;    2,917;    1,409
601,457;21865,030;    2,281;    1,136
602,036;21814,471;    0,190;    2,045
602,616;21995,203;    0,644;    1,682
603,195;22316,138;   -0,355;    3,500
603,774;21889,556;   -0,901;    2,045
604,354;21709,043;    0,826;   -0,500
604,933;21316,778;    0,463;    1,864
605,512;21455,240;    3,554;    0,591
606,091;21486,416;   -0,537;    3,773
606,671;22286,898;    0,281;    0,773
607,250;21517,409;    1,644;    3,136
607,829;21678,713;    2,372;    3,227
608,408;21620,425;    1,190;    2,591
608,987;20738,957;    1,281;    3,409
609,566;20969,204;   -1,265;   -2,500
610,145;21142,773;   -1,082;    0,682
610,723;21524,729;    4,372;    6,864
611,302;20846,203;   -0,446;    1,682
611,881;20428,156;    5,008;   11,227
612,460;21171,989;    1,645;    3,955
613,039;21538,175;   -0,082;    2,045
613,617;20393,032;    1,736;    4,773
614,196;20547,014;    1,099;    1,227
614,775;20941,730;    1,009;    2,409
615,353;20902,622;    0,736;    0,864
615,932;20681,818;    0,100;    2,409
616,510;21224,657;    0,554;    0,591
617,089;20822,652;    7,100;   17,591
617,667;20623,165;    2,372;    6,136
618,246;20487,850;   -1,537;    1,318
618,824;20662,211;   -3,355;   -0,955
619,402;20251,103;   -2,900;   -1,773
619,981;20709,690;   -0,173;   -1,045
620,559;20560,911;    0,009;    1,682
621,137;20156,510;   -0,718;    1,864
621,715;20158,103;   -1,173;   -0,682
622,293;20113,685;   -0,537;   -0,773
622,871;20550,766;   -0,718;    0,500
623,450;20208,888;    0,373;   -0,864
624,028;20106,861;    0,191;   -0,955
624,606;19795,802;   -1,718;    1,682
625,183;20122,381;   -1,536;   -1,136
625,761;19851,489;    1,009;    1,136
626,339;20152,783;    1,373;    2,591
626,917;20418,486;   -0,172;   -0,045
627,495;20511,186;   -0,354;    1,318
628,073;20013,650;   -0,263;    2,864
628,650;19699,123;    0,100;    2,136
629,228;20137,981;    0,373;    4,409
629,806;19575,634;    2,282;    1,136
630,383;19817,628;    1,464;   -0,318
630,961;19690,659;    2,555;   -0,955
631,539;19425,547;    2,464;    0,227
632,116;18944,931;   11,373;   15,409
632,694;19421,503;    2,555;    6,500
633,271;19645,713;    0,828;    2,682
633,848;19646,473;    1,828;    2,045
634,426;19626,496;   -1,081;    1,773
635,003;18832,544;    1,101;   -0,409
635,580;19153,158;    1,192;    3,682
636,158;19658,108;    3,737;    1,227
636,735;19614,010;    0,555;   -0,500
637,312;19717,090;   -0,809;   -0,682
637,889;19784,285;   -4,354;   -0,682
638,466;19402,534;   -3,990;   -0,409
639,043;19372,510;    2,101;   -1,136
639,620;19650,776;   -2,262;   -0,955
640,197;19929,381;    1,100;    1,682
640,774;20057,929;   -0,172;    1,136
641,351;20409,567;    0,737;    1,136
641,928;19940,933;   -0,627;    1,409
642,505;19627,299;    0,828;   -0,500
643,082;19742,574;   -1,718;    1,227
643,658;18870,122;   -0,718;    1,500
644,235;19510,397;    1,191;    2,500
644,812;19797,491;    1,918;    0,773
645,388;19580,220;   -0,991;    1,409
645,965;19607,950;   -0,809;    1,682
646,542;19724,498;   -1,445;   -0,227
647,118;19764,864;    1,009;   -0,955
647,695;19977,684;   -0,263;    1,136
648,271;19935,232;   -0,536;    0,500
648,848;20151,144;    0,736;    2,227
649,424;20044,692;    0,827;    1,318
650,000;19749,058;   -0,354;   -1,045
650,577;19621,333;   -0,627;   -0,955
651,153;20010,517;   -1,809;    0,955
651,729;20931,065;    1,191;    0,864
652,305;21411,340;    0,645;    2,773
652,881;25744,615;   -0,082;    1,136
653,458;31186,163;    1,100;    0,227
654,034;33633,165;    0,282;    1,591
654,610;34548,258;    0,554;    0,773
655,186;35631,079;    0,645;    3,045
655,762;35233,536;   -0,991;    0,409
656,338;35251,811;    0,100;    0,136
656,913;36201,722;   -0,082;    0,409
657,489;35523,361;    0,827;   -0,318
658,065;35546,364;   -0,173;   -1,591
658,641;36215,275;   -0,900;   -0,864
659,217;35595,550;   -0,991;    0,409
659,792;35067,825;    0,645;   -0,409
660,368;35254,828;   -2,173;   -0,682
660,944;34760,194;   -2,082;    1,227
661,519;30245,923;   -0,628;    0,409
662,095;25480,835;   -1,719;    0,591
662,670;22275,746;    1,281;   -0,136
663,246;21593,021;    1,009;   -0,409
663,821;21155,569;    0,281;    1,682
664,396;20693,390;    0,009;    1,864
664,972;20896,210;    0,009;   -0,500
665,547;21248,667;    1,372;    0,136
666,122;21326,124;   -1,082;    0,318
666,698;21551,217;   -0,173;    0,318
667,273;20917,765;   -0,173;    0,136
667,848;21659,313;    2,372;    1,500
668,423;21493,406;    2,190;    2,318
668,998;21933,136;    2,827;   -0,682
669,573;22432,502;   -3,264;   -1,500
670,148;22258,232;   -1,446;   -0,682
670,723;22048,416;   -1,810;    0,318
671,298;22422,782;    2,372;    1,045
671,873;22467,784;   -0,082;   -0,136
672,448;22411,150;    0,645;    0,136
673,023;22678,153;   -1,992;   -0,227
673,597;23037,428;    0,827;    2,318
674,172;22888,339;   -0,355;    0,318
674,747;22327,523;    0,372;   -1,045
675,321;22151,435;   -0,628;    3,318
675,896;21788,619;    0,645;    1,045
676,471;22701,258;    2,645;    1,591
677,045;22460,351;   -1,264;    0,682
677,620;22457,717;    0,190;    1,136
678,194;22730,629;   -2,628;    1,136
678,769;22398,267;   -1,083;   -0,318
679,343;22682,997;   -0,628;    1,773
679,917;22557,272;   -1,446;    1,955
680,492;22580,729;    0,826;    3,227
681,066;22715,550;    3,372;    0,409
681,640;22751,734;    1,463;   -0,318
682,214;23513,554;    0,735;    0,500
682,788;23081,648;   -1,356;   -0,773
683,363;22989,105;   -1,810;    1,682
683,937;22669,380;   -1,719;   -0,318
684,511;23344,837;    0,463;   -0,591
685,085;23150,203;   -1,356;    0,318
685,659;22875,660;   -2,538;    0,864
686,232;23194,753;   -0,356;   -0,318
686,806;22883,119;   -0,901;    0,409
687,380;23433,212;   -0,174;    0,591
687,954;23639,396;   -1,174;    1,136
688,528;23341,308;   -0,719;    1,955
689,101;24103,401;   -3,992;    1,045
689,675;23700,403;   -0,356;   -0,136
690,249;23115,224;   -0,719;    0,409
690,822;23454,954;    0,280;    0,318
691,396;23597,683;   -0,265;    1,227
691,969;23004,958;    1,280;    0,136
692,543;23448,961;   -0,447;   -1,955
693,116;23164,509;   -0,265;   -1,409
693,690;23050,602;    0,099;    0,500
694,263;23577,604;   -1,083;    2,955
694,836;23609,698;    1,371;    3,591
695,410;22374,700;   -0,265;    1,773
695,983;22768,248;    0,189;    0,591
696,556;22733,614;   -0,447;   -1,045
697,129;23050,343;   -0,356;    1,409
697,703;22738,073;   -1,629;    1,955
698,276;22746,894;    1,462;   -0,773
698,849;22591,714;    1,280;    1,409
699,422;22947,262;   -1,083;    0,591
699,995;22703,446;    0,007;    0,136
700,568;23165,903;   -0,629;    3,045
701,140;23140,269;   -2,811;    1,682
701,713;22929,272;   -0,174;    2,409
702,286;22715,638;   -0,538;    0,864
702,859;22555,095;   -0,902;   -0,591
703,432;21860,097;    0,825;    0,682
704,004;22261,827;    0,462;    0,318
704,577;22110,829;   -0,629;    0,136
705,150;22676,195;    0,189;    2,500
705,722;22455,652;   -0,356;   -3,227
706,295;22293,200;   -0,175;   -0,591
706,867;22221,657;   -0,175;    1,955
707,440;22392,932;   -1,720;   -0,409
708,012;22612,480;    0,462;    0,591
708,584;22560,027;    2,462;    0,227
709,157;22778,484;    1,825;   -0,591
709,729;22508,305;    2,280;    2,045
710,301;23289,307;    0,734;    0,045
710,874;23280,219;   -1,447;   -0,227
711,446;22184,312;    0,371;    0,864
712,018;22101,405;    0,098;    0,500
712,590;21844,499;   -1,993;    1,682
713,162;22380,410;    0,825;    1,318
713,734;22561,503;    1,825;   -2,045
714,306;22487,142;   -1,902;   -0,409
714,878;21303,963;    0,825;    0,864
715,450;22104,874;    0,643;    0,864
716,022;22356,786;    1,552;    1,318
716,593;22502,424;    0,189;    0,591
717,165;22458,790;   -3,175;   -1,227
717,737;22184,702;    0,280;    0,409
718,309;21841,522;    0,280;   -0,045
718,880;21860,434;   -0,539;   -1,409
719,452;22045,073;   -0,175;   -1,591
720,024;21710,075;    0,734;   -0,591
720,595;22177,986;   -2,902;    0,955
721,167;21822,443;    0,370;   -2,045
721,738;21428,809;   -0,812;   -1,045
722,309;21483,357;   -0,993;   -1,227
722,881;21276,723;   -1,357;    0,773
723,452;21793,544;   -2,630;    2,864
724,023;21961,728;   -0,721;    2,682
724,595;21724,549;    0,007;    0,682
725,166;21441,278;    0,007;   -0,409
725,737;21164,462;    1,734;    0,227
726,308;21250,101;   -0,266;    0,318
726,879;21690,194;   -1,630;    1,227
727,450;21544,470;    0,552;   -0,045
728,021;21499,563;    3,097;    0,682
728,592;21341,202;    0,734;    0,500
729,163;21669,931;    0,643;   -0,136
729,734;21687,024;    0,188;   -0,227
730,305;21981,572;    1,734;    0,136
730,876;22307,302;    0,188;    2,955
731,447;22110,304;    2,188;    2,682
732,017;22140,852;    1,097;    1,864
732,588;21704,491;    0,734;    1,227
733,159;21910,130;    0,643;   -1,045
733,729;21607,950;    0,006;    0,409
734,300;21023,680;    0,915;    0,864
734,870;21380,864;    3,461;    0,591
735,441;21872,412;    0,370;   -0,591
736,011;21708,596;    0,643;   -1,591
736,582;21627,780;   -0,812;    0,045
737,152;21072,783;   -1,721;   -2,045
737,722;21549,331;   -0,267;   -0,682
738,293;21267,878;   -1,358;    1,318
738,863;21235,153;    2,461;    2,318
739,433;21131,065;    5,279;    0,318
740,003;21661,976;   -0,994;   -0,682
740,573;21112,797;    2,097;   -1,591
741,143;21110,618;   -1,085;    0,318
741,713;21805,074;    1,188;   -0,500
742,283;21557,168;    0,915;    1,591
742,853;21356,261;    1,915;    1,591
743,423;20841,718;    1,733;    0,045
743,993;20914,811;   -0,358;    1,500
744,563;20410,268;    0,097;   -0,864
745,133;20369,634;   -0,812;   -0,864
745,702;20993,000;   -0,267;    1,773
746,272;20262,821;   -0,176;    0,591
746,842;20132,005;   -1,358;   -0,591
747,411;20496,189;   -0,267;   -0,318
747,981;20594,919;    0,097;    0,500
748,551;20618,558;    2,278;   -1,045
749,120;20556,924;    0,642;   -0,227
749,690;20875,744;   -0,631;    2,409
750,259;21160,746;    1,369;    2,955
750,828;21060,567;    1,551;   -1,955
751,398;21329,024;    1,278;   -0,045
751,967;20940,481;    2,187;    0,409
752,536;21073,301;   -0,813;   -0,227
753,105;21486,849;    0,096;    0,227
753,675;21231,579;    0,096;    1,773
754,244;21182,127;   -0,904;    3,591
754,813;21203,220;    0,551;    1,227
755,382;20778,313;    0,460;    0,955
755,951;21318,770;    1,551;    3,682
756,520;20956,954;   -0,085;    1,864
757,089;21429,048;    0,278;    0,500
757,658;21554,868;    1,733;    1,227
758,227;21564,507;    1,096;    0,318
758,795;21835,873;    1,187;    1,136
759,364;22068,966;   -0,086;   -0,591
759,933;21158,151;   -1,176;   -0,045
760,501;20703,607;    0,733;   -1,318
761,070;21136,883;   -2,813;   -1,409
761,639;21834,158;   -1,904;    1,318
762,207;21265,251;    1,551;   -0,955
762,776;21147,526;    0,369;    0,864
763,344;21114,801;   -0,995;    0,591
763,913;20179,076;   -0,722;    1,409
764,481;20893,351;    1,005;   -0,136
765,049;20765,717;   -1,358;    1,409
765,618;20624,629;   -0,086;    0,318
766,186;20730,995;    0,278;    0,136
766,754;20942,270;    0,005;    1,864
767,322;19994,272;   -1,995;    0,409
767,890;19991,820;   -0,722;   -1,773
768,459;20444,913;   -2,177;   -0,318
769,027;20624,916;    1,641;    3,409
769,595;19646,464;    3,278;    2,591
770,163;20067,921;    3,823;    2,955
770,730;19861,559;    0,732;   -0,136
771,298;19684,107;    0,187;   -1,409
771,866;19799,564;   -1,541;    4,955
772,434;20137,839;   -0,631;   -1,864
773,002;20279,478;    0,005;    0,682
773,569;19976,935;    0,914;    1,682
774,137;19795,846;   -0,268;   -0,045
774,705;20494,576;    0,278;   -0,136
775,272;20087,397;    0,641;    0,682
775,840;19912,672;   -0,177;    2,682
776,407;19444,583;    0,277;    1,955
776,975;19042,858;   -0,632;    0,318
777,542;19989,497;   -1,086;   -0,045
778,110;19811,045;   -1,268;   -0,045
778,677;19499,956;   -2,359;   -0,864
779,244;19300,050;    2,186;    1,045
779,812;19454,779;    1,823;    0,864
780,379;19324,963;    0,005;    1,136
780,946;19547,784;    1,005;   -0,773
781,513;19797,059;   -1,450;    0,318
782,080;19240,334;   -0,086;    2,864
782,647;19919,427;   -0,268;    3,045
783,214;19600,884;   -0,177;    3,864
783,781;19257,432;   -0,723;   -0,682
784,348;19116,798;   -0,632;    1,500
784,915;19519,710;   -3,177;    0,318
785,482;19319,712;    1,368;    2,591
786,049;19753,624;    0,186;   -0,591
786,615;19866,262;    0,277;   -0,955
787,182;19607,719;    0,186;   -0,682
787,749;19334,358;   -2,814;    1,409
788,315;18714,088;   -1,632;   -0,409
788,882;18990,545;    1,550;   -1,227
789,448;19651,638;    1,732;   -0,955
790,015;19605,822;    1,095;    3,227
790,581;19236,279;    1,459;    0,227
791,148;19176,190;    0,641;    1,045
791,714;19310,920;   -0,541;    3,136
792,280;18994,286;    0,186;    1,591
792,847;18707,925;    0,550;    2,500
793,413;19144,927;   -0,269;   -0,318
793,979;18792,020;    3,459;   -1,318
794,545;18894,841;    4,459;    2,682
795,111;18387,934;    2,186;    1,318
795,678;18533,028;    0,731;   -1,682
796,244;18207,303;    3,368;    0,136
796,810;18683,760;    1,731;    0,773
797,375;18445,217;    0,549;   -2,136
797,941;18416,492;   -0,541;    0,591
798,507;18543,221;   -0,451;   -0,955
799,073;18148,678;   -0,360;    0,591
799,639;18201,772;   -2,632;    3,136
800,205;18222,774;    0,095;    2,682
800,770;17870,413;    0,640;    1,773
801,336;17872,688;    1,368;   -0,955
801,901;17712,690;    4,549;    3,136
802,467;18204,783;   -0,542;    2,045
803,033;17586,331;   -0,087;    0,864
803,598;17788,243;    1,913;   -1,045
804,163;17834,881;    1,095;   -0,318
804,729;17831,520;   -0,178;    1,136
805,294;18148,341;    0,822;    2,227
805,859;17943,161;    0,731;   -0,409
806,425;17561,982;    1,186;    2,682
806,990;17228,439;    2,186;    4,318
807,555;17543,896;   -1,451;    2,591
808,120;17528,353;    0,822;   -0,409
808,685;17559,810;    0,185;   -2,500
809,250;17139,994;    0,004;   -0,500
809,815;17422,633;    1,913;    0,682
810,380;17893,271;   -0,269;    1,591
810,945;18397,455;   -1,087;    2,045
811,510;17611,731;    2,094;    1,591
812,075;17389,551;   -0,633;   -1,409
812,640;17421,463;    2,003;    1,409
813,204;17491,738;    0,822;   -0,227
813,769;17921,558;    2,094;   -0,045
814,334;17421,379;    0,458;    0,864
814,898;17488,927;    0,367;    0,591
815,463;17327,929;    1,276;   -0,773
816,027;17303,386;   -0,724;   -2,318
816,592;17417,570;    0,640;   -2,045
817,156;17014,391;    2,094;    1,136
817,721;16943,302;    4,276;    2,318
818,285;16900,032;    2,912;    1,500
818,849;17477,852;   -1,451;    1,682
819,414;17302,218;   -0,269;    2,955
819,978;16893,312;   -1,269;    1,773
820,542;17499,223;    2,003;    0,500
821,106;17260,953;   -0,815;    0,682
821,670;17343,955;   -0,815;    2,591
822,234;17084,230;   -0,270;    1,409
822,798;16542,687;    0,003;    0,500
823,362;16521,417;   -0,633;    4,227
823,926;15974,692;    0,094;    1,136
824,490;16168,967;   -0,997;   -0,682
825,054;16515,242;   -0,088;   -1,136
825,618;16231,790;   -1,542;   -1,500
826,181;16206,429;    0,458;   -1,318
826,745;16134,431;    1,367;   -1,045
827,309;16443,252;    1,185;    1,318
827,872;15883,254;    1,367;    0,955
828,436;16822,347;    1,185;   -0,773
828,999;16873,077;   -0,997;    1,227
829,563;15857,716;   -0,179;    1,136
830,126;15692,900;   -0,179;   -0,591
830,690;15735,993;   -1,997;    2,864
831,253;15256,723;   -0,543;    2,227
831,816;15395,362;   -1,906;    0,500
832,380;15342,364;    0,185;    0,864
832,943;15605,275;   -1,361;   -0,500
833,506;15116,460;    2,639;   -1,227
834,069;15821,008;    3,912;   -0,955
834,632;15916,101;    1,730;    1,318
835,195;15832,012;    1,003;    0,955
835,758;15078,469;   -0,997;    1,955
836,321;14966,290;    0,730;   -1,045
836,884;15048,474;   -0,725;   -0,955
837,447;15053,567;   -2,816;    1,773
838,010;15318,479;    0,366;    3,227
838,573;15623,481;   -1,179;    0,773
839,135;15582,029;   -1,361;   -0,955
839,698;15089,486;    1,275;    0,409
840,261;14658,306;    1,003;   -0,227
840,823;14527,854;   -0,543;    0,864
841,386;14778,584;   -0,452;   -2,409
841,948;14741,314;   -1,361;    1,773
842,511;14442,680;    0,912;    1,682
843,073;14602,682;    1,912;    0,227
843,636;14394,593;   -0,361;   -0,227
844,198;14359,687;    0,911;    0,591
844,760;14482,689;    1,093;    1,955
845,322;14167,873;    0,548;    1,136
845,885;14523,239;    0,730;    0,591
846,447;14933,969;   -1,998;    0,227
847,009;14647,153;    1,911;   -0,682
847,571;14846,974;    0,820;   -2,045
848,133;14947,158;   -1,089;   -1,864
848,695;14753,706;   -0,543;    1,409
849,257;14380,617;   -1,089;   -1,682
849,819;14557,710;   -0,998;   -0,409
850,381;14559,804;   -0,725;   -0,864
850,942;14875,261;    1,093;   -0,591
851,504;14869,899;    1,184;    0,227
852,066;14841,175;    1,275;   -1,591
852,628;14497,995;   -0,180;    1,955
853,189;14027,452;    1,638;    2,682
853,751;14171,636;   -0,907;    1,409
854,312;14007,820;   -0,453;   -1,682
854,874;14481,186;   -2,089;   -0,773
855,435;14931,007;   -0,907;   -1,682
855,997;15105,464;   -1,816;   -0,136
856,558;14460,103;    0,366;    1,773
857,119;14561,832;    0,820;    2,864
857,681;14244,016;    0,002;    0,318
858,242;14280,110;    1,911;   -2,136
858,803;14690,749;    0,456;   -0,773
859,364;15245,296;    0,184;   -4,773
859,925;14625,935;   -2,453;   -0,955
860,486;14457,574;   -0,453;   -0,955
861,047;14217,576;   -0,544;   -1,227
861,608;14111,851;   -1,089;   -0,773
862,169;14229,763;    0,638;   -0,045
862,730;13990,856;    0,456;    1,409
863,291;14257,404;   -0,635;   -0,500
863,852;14594,588;   -0,635;    1,955
864,412;14102,954;   -0,271;   -0,864
864,973;12847,411;   -0,089;    0,500
865,534;12760,959;   -1,726;    0,227
866,094;14078,234;    1,820;    0,227
866,655;13774,145;    1,274;    3,318
867,215;14015,966;    0,274;    0,136
867,776;13877,423;    0,547;   -0,136
868,336;13943,062;   -1,453;    0,136
868,897;13571,610;    2,638;    1,682
869,457;13339,339;    1,365;    0,318
870,017;13512,251;    0,547;   -1,227
870,578;13995,071;   -0,817;    0,773
871,138;13688,346;   -2,089;   -0,955
871,698;13249,803;   -0,817;   -1,318
872,258;13130,351;   -0,453;   -2,864
872,818;13565,172;    2,729;    0,045
873,378;13527,538;    0,638;    1,045
873,938;13102,904;    0,547;    0,500
874,498;13363,179;    0,274;   -1,955
875,058;13344,636;    2,183;    1,773
875,618;13192,365;    1,910;   -2,682
876,177;13089,186;    1,274;    0,136
876,737;12752,552;   -0,090;    1,955
877,297;12828,918;    0,183;    1,955
877,856;12850,648;   -0,362;    0,318
878,416;12808,195;    1,183;   -0,136
878,976;12986,561;   -1,817;    0,409
879,535;13147,200;    0,092;    3,136
880,095;12939,021;   -0,544;    0,045
880,654;13071,841;   -1,090;    1,318
881,213;13193,025;    2,456;    1,500
881,773;12820,119;    2,637;    2,682
882,332;13208,121;    3,365;    5,136
882,891;13014,124;    3,092;    2,136
883,451;13419,035;   -1,272;    1,682
884,010;12882,401;   -2,908;   -0,409
884,569;12996,040;   -0,999;   -0,045
885,128;13125,588;    2,819;   -1,864
885,687;13241,590;    4,455;    0,682
886,246;12992,683;    1,455;    2,136
886,805;12750,049;    2,455;    2,045
887,364;12933,143;   -0,999;   -0,500
887,922;13273,963;   -1,181;    0,045
888,481;12818,693;   -1,545;    0,591
889,040;13061,331;    1,183;    2,136
889,599;13666,970;    2,455;    1,409
890,157;13710,791;    1,455;    2,409
890,716;13369,793;   -0,090;    0,227
891,274;13219,432;    0,092;   -1,136
891,833;13609,252;    1,546;    0,864
892,391;13488,800;   -0,454;    0,500
892,950;13527,075;    1,819;   -0,773
893,508;13860,714;    0,455;   -0,409
894,067;13223,898;    0,637;    0,136
894,625;13167,264;   -0,636;   -1,500
895,183;13356,903;   -0,363;   -0,682
895,741;13329,360;    1,728;   -1,773
896,299;13165,453;   -0,545;   -2,409
896,858;13298,456;    0,819;   -1,591
897,416;13426,004;    2,728;   -1,318
897,974;13191,915;    1,819;    0,318
898,532;13418,372;    6,091;    2,682
899,089;13261,102;    2,091;   -0,682
899,647;13315,922;   -1,454;    1,318
900,205;13152,743;    1,182;    1,045
900,763;13292,745;   -0,454;    0,227
901,321;13297,929;    2,364;   -1,409
901,878;12765,204;   -1,000;   -0,773
902,436;12670,934;   -1,363;    1,318
902,994;13153,209;    4,728;    3,682
903,551;12622,848;    0,728;    0,409
904,109;12974,668;    0,182;   -1,409
904,666;12592,216;    2,455;    1,045
905,224;12403,855;    0,182;   -0,409
905,781;12278,857;    0,727;   -0,318
906,338;12322,951;   -1,363;    1,045
906,895;12251,680;    0,637;    2,045
907,453;12174,410;    1,727;    1,136
908,010;12235,958;   -0,909;    0,409
908,567;11922,597;    1,273;    0,591
909,124;11440,963;    0,364;   -1,500
909,681;11522,965;   -2,909;    0,682
910,238;11708,786;    0,636;   -1,318
910,795;12039,152;   -0,273;   -1,136
911,352;11657,242;   -2,909;   -2,682
911,909;11160,606;   -1,364;   -0,864
912,466;11631,242;   -3,182;    1,500
913,022;11159,788;   -1,636;    0,500
913,579;11503,970;   -0,909;    2,045
914,136;11283,061;    1,636;    0,955
914,692;11607,061;    0,091;   -1,227
915,249;11206,788;    1,455;    0,409
915,806;11437,879;    0,182;    1,955
916,362;11269,152;    1,909;    1,864
916,918;10864,970;    2,000;    1,045
917,475;10864,788;   -1,182;    0,955
918,031;10919,242;    3,364;   -0,045
918,587;10433,970;   -0,909;   -0,318
919,144;10686,879;   -2,273;    0,227
919,700;10922,606;    1,727;    0,773
920,256;10514,970;    0,727;    0,045
920,812;10234,333;   -0,727;   -1,045
921,368;10282,242;   -1,727;   -1,045
921,924; 9943,061;    0,182;   -0,136
922,480; 9602,152;   -0,545;    1,227
923,036;10194,515;    1,273;    1,955
923,592;10144,606;    0,455;    0,318
924,148;10062,061;    0,455;   -0,955
924,704; 9486,242;   -1,364;   -0,409
925,259; 9756,879;   -0,273;    0,591
925,815; 9538,606;    1,455;    0,500
926,371; 9093,242;    2,909;    1,409
926,926; 9057,879;    2,091;    0,591
927,482; 8746,333;   -1,364;    0,773
928,037; 8655,424;    0,909;    2,045
928,593; 8956,879;    1,636;    1,045
929,148; 8801,606;   -1,818;   -1,500
929,704; 8360,152;   -1,455;   -0,500
930,259; 8534,788;    0,091;   -0,136
930,814; 7779,242;   -0,818;    1,955
931,369; 7506,424;    1,091;   -0,773
931,925; 7410,515;   -0,091;    0,136
932,480; 7367,970;   -2,818;   -2,591
933,035; 7353,333;    0,545;   -0,318
933,590; 7147,879;    0,364;   -1,773
934,145; 6810,788;   -1,364;   -0,318
934,700; 7100,333;    0,455;   -0,591
935,255; 6968,061;   -0,091;    0,045
935,809; 6445,879;    3,182;    0,864
936,364; 5703,333;   -0,455;   -0,136
936,919; 5726,424;    0,455;   -1,773
937,474; 5628,606;    1,455;    0,136
938,028; 5425,970;   -1,636;    1,136
938,583; 5060,879;    1,818;    4,682
939,138; 5279,424;    2,091;    2,136
939,692; 4788,515;    1,636;   -1,136
940,247; 4598,424;   -0,727;   -1,045
940,801; 4280,606;   -0,636;    0,227
941,355; 4187,788;   -0,364;    2,591
941,910; 3871,788;   -0,273;   -2,136
942,464; 4011,152;   -0,818;   -0,318
943,018; 3909,788;    1,000;   -0,227
943,572; 3846,515;    2,545;   -0,682
944,126; 3383,424;    0,091;   -0,409
944,681; 3283,970;    3,091;    0,227
945,235; 3254,970;    1,000;   -0,591
945,789; 3196,970;    0,364;   -1,864
946,342; 3376,879;    0,455;   -0,591
946,896; 3138,242;   -2,273;    0,955
947,450; 2920,333;    1,545;   -0,227
948,004; 3170,606;    1,727;   -0,045
948,558; 3127,697;    0,273;   -0,864
949,111; 3058,788;   -0,273;   -0,318
949,665; 3166,879;    1,636;   -0,682
950,219; 3063,333;   -0,091;   -1,045
950,772; 3081,788;   -1,909;    1,864
951,326; 3012,697;    0,545;   -0,955
951,879; 3071,152;    0,727;   -2,318
952,433; 3130,333;    0,000;    2,227
952,986; 2938,606;    2,909;    0,682
953,539; 2895,333;   -0,273;    0,591
954,093; 2836,788;    0,545;   -1,318
954,646; 2993,606;    0,909;    1,318
955,199; 2821,879;    0,000;   -0,500
955,752; 2774,424;   -0,455;    1,773
956,305; 2709,788;   -0,091;    2,955
956,858; 2858,788;    0,818;   -0,318
957,411; 2995,152;   -0,545;    2,136
957,964; 2832,333;    1,364;    2,136
958,517; 2804,333;   -1,545;    3,136
959,070; 2681,697;   -0,455;    1,955
959,623; 2844,515;    1,091;    1,500
960,176; 2626,424;    1,727;    2,045
960,728; 2613,333;   -2,727;    0,773
961,281; 2647,697;    0,545;    0,500
961,834; 2655,242;   -0,909;    0,864
962,386; 2582,061;    1,727;    1,045
962,939; 2514,606;    0,364;   -0,318
963,491; 2647,061;    0,455;    1,136
964,043; 2534,879;    1,182;    2,409
964,596; 2663,333;   -1,000;    2,227
965,148; 2516,606;   -1,000;    1,773
965,700; 2427,788;    1,091;   -0,227
966,253; 2583,697;   -0,636;    0,318
966,805; 2459,606;   -2,273;    0,773
967,357; 2478,152;    1,091;   -1,500
967,909; 2482,788;    0,455;   -1,227
968,461; 2516,879;    0,545;    3,136
969,013; 2466,788;   -0,182;   -0,864
969,565; 2561,697;   -0,455;   -1,136
970,117; 2722,788;   -0,364;    1,045
970,669; 2472,606;    0,182;   -0,136
971,220; 2328,061;   -0,455;   -1,500
971,772; 2288,788;   -0,636;   -0,318
972,324; 2429,152;    0,091;   -0,500
972,876; 2336,788;    0,818;   -0,045
973,427; 2504,333;    1,909;   -1,045
973,979; 2481,970;   -0,727;   -2,500
974,530; 2437,879;    1,818;    1,318
975,082; 2425,333;   -0,545;    1,682
975,633; 2355,697;    1,091;    1,682
976,184; 2516,152;    0,909;    0,773
976,736; 2351,333;    0,091;    0,227
977,287; 2209,970;   -0,909;   -0,500
977,838; 2339,242;    0,909;   -0,318
978,389; 2378,697;   -1,000;   -0,500
978,940; 2229,333;    0,545;   -0,409
979,491; 2260,424;    0,091;   -0,500
980,042; 2250,152;    0,182;    3,045
980,593; 2278,879;   -2,545;    0,227
981,144; 2376,788;    2,545;   -0,500
981,695; 2380,970;    1,455;    1,500
982,246; 2327,970;   -0,273;    1,045
982,797; 2392,788;   -1,727;    0,682
983,347; 2514,424;    0,364;    0,591
983,898; 2719,606;    3,091;    0,409
984,449; 2561,152;    2,182;    0,773
984,999; 2407,697;    1,455;   -1,136
985,550; 2239,152;    0,182;   -0,318
986,100; 2209,879;   -0,455;   -0,318
986,651; 2250,333;   -0,818;    0,045
987,201; 2246,424;   -1,000;   -0,591
987,751; 2309,061;    0,818;    2,864
988,302; 2313,152;    2,636;    1,500
988,852; 2340,606;    0,455;   -1,136
989,402; 2416,424;    0,091;    0,682
989,952; 2342,697;   -2,182;    0,864
990,502; 2379,061;   -0,091;    0,682
991,052; 2317,606;   -0,727;    0,045
991,602; 2232,152;   -2,909;    1,318
992,152; 2228,606;    0,455;    0,682
992,702; 2238,515;    1,364;   -0,045
993,252; 2164,788;   -3,000;   -0,500
993,802; 2278,788;   -0,273;    1,318
994,352; 2443,879;   -1,545;    1,136
994,901; 2460,242;   -0,182;    3,227
995,451; 2403,879;   -0,182;    0,318
996,000; 2482,515;    1,636;    0,318
996,550; 2252,424;    2,273;    0,227
997,100; 2256,879;    1,273;   -0,045
997,649; 2526,242;    2,182;    0,955
998,198; 2191,152;    1,727;   -1,500
998,748; 2394,061;    1,091;   -2,318
999,297; 2262,152;   -0,818;   -0,409
999,846; 2371,152;    1,000;   -0,773
1000,395; 2378,606;   -0,818;    0,500
1000,945; 2406,515;    1,818;   -0,773
1001,494; 2464,606;    2,364;    0,682
1002,043; 2429,333;    4,636;    0,864
1002,592; 2255,879;   -1,091;    1,955
1003,141; 2394,788;   -0,455;   -0,682
1003,690; 2310,697;    1,727;    0,500
1004,238; 2332,152;    1,455;   -0,045
1004,787; 2004,788;    1,364;    1,227
1005,336; 2285,970;    0,364;    0,682
1005,885; 2361,970;    1,364;   -2,773
1006,433; 2449,606;    0,545;    0,955
1006,982; 2580,061;    0,455;    1,682
1007,531; 2451,333;   -1,818;   -0,227
1008,079; 2371,606;   -2,273;    0,500
1008,627; 2477,515;   -1,455;    0,409
1009,176; 2255,697;    0,000;   -1,955
1009,724; 2283,424;    1,091;    0,864
1010,273; 2404,333;    1,273;    0,500
1010,821; 2435,242;    0,091;    1,409
1011,369; 2213,879;   -1,364;    1,318
1011,917; 2216,515;   -1,364;   -0,591
1012,465; 2463,061;    1,273;   -1,591
1013,013; 2528,606;    2,091;   -1,682
1013,561; 2473,879;    0,455;   -0,773
1014,109; 2560,515;   -1,909;    1,682
1014,657; 2410,152;    0,364;    0,591
1015,205; 2477,879;    1,636;   -0,955
1015,753; 2476,606;   -0,545;   -1,409
1016,301; 2512,061;   -2,636;    3,045
1016,848; 2527,879;   -1,273;    0,409
1017,396; 2591,061;    2,545;    0,045
1017,944; 2689,424;    1,182;    1,864
1018,491; 2433,879;    0,273;    1,409
1019,039; 2711,242;    0,455;    0,591
1019,586; 2525,788;   -1,364;    1,682
1020,134; 2573,515;    0,455;    1,500
1020,681; 2618,606;    0,182;   -1,136
1021,228; 2568,970;    2,909;   -2,227
1021,776; 2451,697;    1,182;   -1,136
1022,323; 2729,515;    0,455;    0,773
1022,870; 2636,879;   -1,000;   -0,045
1023,417; 2562,152;    2,636;    1,864
1023,964; 2604,879;    2,636;    1,227
1024,511; 2508,515;    1,000;    0,773
1025,058; 2346,242;    3,182;   -0,045
1025,605; 2376,515;   -2,273;    3,136
1026,152; 2649,061;    1,727;   -0,591
1026,699; 2363,152;    1,818;    1,318
1027,245; 2476,333;   -0,091;    0,318
1027,792; 2637,606;   -1,000;    1,409
1028,339; 2607,606;    2,364;   -0,045
1028,885; 2461,606;    1,000;   -0,227
1029,432; 2392,879;   -0,091;    0,227
1029,978; 2475,424;   -1,000;   -1,591
1030,525; 2376,424;    1,000;    0,409
1031,071; 2529,333;   -1,364;    1,136
1031,618; 2721,970;    0,364;    1,682
1032,164; 2469,879;   -0,091;    3,045
1032,710; 2524,697;    1,636;   -1,500
1033,256; 2442,152;   -0,636;   -0,136
1033,803; 2369,697;   -0,545;    1,500
1034,349; 2132,606;   -1,364;    0,136
1034,895; 2283,606;    0,000;   -0,318
1035,441; 2278,788;   -0,818;    0,318
1035,987; 2290,970;   -2,364;   -0,682
1036,533; 2325,697;   -1,455;   -0,955
1037,078; 2562,970;    1,455;    1,682
1037,624; 2360,242;    2,455;   -0,955
1038,170; 2337,333;    0,455;   -0,318
1038,716; 2305,424;    1,636;   -0,409
1039,261; 2186,424;   -2,273;   -0,773
1039,807; 2131,333;   -0,091;    3,409
1040,352; 2216,788;   -1,909;   -0,318
1040,898; 2236,242;   -1,545;   -0,682
1041,443; 2130,242;   -1,455;   -2,591
1041,989; 2282,879;    1,091;    1,591
1042,534; 2107,424;   -0,364;    2,591
1043,079; 2134,606;    2,909;    0,955
1043,625; 2009,333;    1,818;    0,500
1044,170; 2071,424;   -1,364;    1,045
1044,715; 2342,697;    2,455;    0,955
1045,260; 2174,970;    2,182;   -0,955
1045,805; 2146,515;    1,182;   -0,591
1046,350; 2063,606;    1,364;   -0,409
1046,895; 2115,152;    2,909;    1,591
1047,440; 2103,606;    5,364;    0,409
1047,985; 1965,152;    2,818;   -0,955
1048,530; 1891,606;    1,545;    1,227
1049,074; 1975,242;    0,000;    0,318
1049,619; 1922,788;   -1,364;    1,955
1050,164; 1758,697;    0,455;    0,227
1050,708; 1817,152;   -0,455;    0,045
1051,253; 2221,061;    1,273;   -2,227
1051,797; 1920,697;    0,818;   -1,318
1052,342; 1854,970;   -1,182;    1,045
1052,886; 1893,333;    0,364;   -1,409
1053,430; 1748,242;   -1,364;    0,136
1053,975; 1784,606;   -0,818;   -0,318
1054,519; 1797,424;   -0,727;    3,227
1055,063; 1851,879;    0,909;    1,318
1055,607; 1755,242;   -0,182;    0,227
1056,151; 1772,242;    2,909;    1,682
1056,695; 1646,788;    2,273;   -1,136
1057,239; 1714,697;   -1,727;   -0,682
1057,783; 1743,242;    0,818;   -1,500
1058,327; 1752,606;    0,000;    1,409
1058,871; 1987,515;   -0,545;    1,318
1059,415; 1700,242;   -0,818;   -0,045
1059,958; 1982,788;    1,455;    2,591
1060,502; 1681,424;   -1,000;   -0,773
1061,046; 1541,697;    0,364;   -0,955
1061,589; 1508,424;   -3,000;   -1,136
1062,133; 1408,242;   -1,273;    1,864
1062,676; 1386,697;    1,182;    0,864
1063,220; 1405,606;    1,091;    0,500
1063,763; 1456,606;    0,909;    1,136
1064,306; 1543,879;   -0,909;    1,864
1064,849; 1438,606;   -0,909;    0,591
1065,393; 1444,242;    2,000;   -1,500
1065,936; 1516,152;    0,182;   -0,409
1066,479; 1371,606;   -1,455;    1,318
1067,022; 1411,515;   -0,273;   -0,227
1067,565; 1320,970;   -0,091;   -1,318
1068,108; 1337,788;    0,727;   -0,591
1068,651; 1303,333;   -0,636;    1,409
1069,194; 1260,242;   -0,455;   -1,682
1069,736; 1284,242;   -1,273;    0,955
1070,279; 1234,879;   -1,364;   -0,500
1070,822; 1339,788;   -2,000;   -0,318
1071,364; 1461,697;   -0,364;    1,318
1071,907; 1242,333;   -0,727;    3,227
1072,450; 1099,242;    0,000;   -0,045
1072,992; 1138,788;   -0,273;    3,136
1073,535; 1306,697;    2,091;    2,136
1074,077; 1088,788;   -0,727;    2,045
1074,619; 1071,515;   -1,364;    0,591
1075,161; 1118,970;   -1,091;    1,500
1075,704; 1305,061;    1,545;    1,227
1076,246; 1082,879;   -0,182;    0,682
1076,788;  999,152;   -0,364;    1,773
1077,330; 1057,970;    1,273;    2,136
1077,872; 1067,333;    0,909;    0,955
1078,414; 1315,697;    2,727;    0,773
1078,956; 1051,788;    1,273;   -0,227
1079,498; 1326,333;    1,636;    0,318
1080,040; 1036,970;    1,909;   -1,318
1080,581;  964,606;    1,636;   -0,318
1081,123;  875,697;    0,091;   -0,773
1081,665;  909,697;   -1,182;   -0,955
1082,206; 1242,970;    1,364;   -0,500
1082,748; 1091,333;    0,727;    2,045
1083,289;  947,515;   -2,000;    1,318
1083,831;  889,333;   -0,545;    0,227
1084,372;  949,515;    0,000;    0,591
1084,913;  941,061;    1,091;    0,864
1085,455;  877,152;   -1,909;   -2,045
1085,996;  872,333;   -2,273;    0,136
1086,537;  917,424;   -0,091;    0,864
1087,078;  944,788;   -0,909;   -2,136
1087,619;  993,061;   -1,273;    0,227
1088,160;  901,152;    0,000;    1,318
1088,701;  879,061;   -1,091;    0,682
1089,242;  833,970;    1,364;   -2,227
1089,783;  940,697;   -0,273;    1,409
1090,324;  912,242;    0,455;    0,682
1090,865;  786,242;    2,727;   -0,409
1091,405;  728,424;    0,727;    2,227
1091,946;  773,333;    0,182;   -0,955
1092,487;  688,606;    0,818;   -1,409
1093,027;  874,424;   -1,364;   -1,500
1093,568;  738,333;   -0,364;    1,227
1094,108;  847,970;    0,273;    1,773
1094,649;  773,515;   -1,182;    0,136
1095,189;  700,424;   -0,636;   -0,682
1095,729;  686,242;   -0,091;    0,955
1096,269;  673,242;    0,727;   -0,955
1096,810; 1000,424;   -1,364;    0,500
1097,350;  839,970;    1,364;   -0,773
1097,890;  731,970;    0,364;    1,227
1098,430;  997,788;    2,364;    2,864
1098,970;  877,788;    2,182;    1,682
1099,510;  709,788;    0,545;   -2,318
1100,050;  647,970;    1,000;   -1,591
1100,589;  623,697;   -0,727;   -0,318
1101,129;  757,242;    0,818;   -0,955
1101,669;  916,970;    1,727;    2,136
1102,209;  742,879;   -0,091;    2,227
1102,748;  686,697;    0,000;    0,955
1103,288;  671,152;    1,273;   -1,227
1103,827;  707,152;    3,091;   -2,227
1104,367;  577,333;   -0,091;   -2,409
1104,906;  555,970;    1,364;   -1,136
1105,445;  630,606;    0,636;   -1,136
1105,985;  588,515;   -0,727;    1,500
1106,524;  627,061;   -1,727;   -0,682
1107,063;  619,061;   -2,727;    1,409
1107,602;  569,970;   -1,909;   -1,500
1108,141;  506,333;   -1,909;    1,500
1108,680;  615,333;   -3,455;   -0,591
1109,219;  552,515;   -0,909;   -0,500
1109,758;  549,424;    0,455;    0,682
1110,297;  523,879;    1,000;   -0,682
1110,836;  472,515;   -0,727;    0,955
1111,375;  623,606;   -2,545;    0,409
1111,913;  649,515;   -1,000;    0,773
1112,452;  578,333;   -0,273;    0,136
1112,991;  464,061;    1,091;    1,955
1113,529;  431,242;   -0,818;   -0,045
1114,068;  510,606;   -0,273;    2,955
1114,606;  406,515;   -0,364;   -0,955
1115,144;  566,879;   -1,273;    1,045
1115,683;  507,515;   -0,727;    0,318
1116,221;  553,242;   -0,455;   -0,864
1116,759;  468,424;    0,636;   -0,864
1117,297;  673,242;    0,000;    1,864
1117,836;  479,061;   -2,182;   -1,227
1118,374;  490,606;    0,182;   -0,682
1118,912;  444,606;    0,909;    2,682
1119,450;  428,788;    1,000;    0,864
1119,988;  473,788;    1,545;    2,136
1120,525;  922,788;    5,091;    3,318
1121,063;  631,152;    1,182;    1,864
1121,601;  446,152;   -0,909;   -1,227
1122,139;  400,424;   -0,727;   -2,045
1122,676;  600,515;   -0,727;    2,773
1123,214;  527,242;   -1,182;    4,409
1123,751;  343,333;    1,727;    2,227
1124,289;  471,788;   -0,091;   -0,409
1124,826;  358,152;    1,727;    0,227
1125,364;  284,152;    1,727;   -0,955
1125,901;  474,333;    1,182;    1,227
1126,438;  581,061;    0,818;    0,955
1126,975;  300,242;   -0,727;   -0,773
1127,513;  372,970;    0,273;    2,136
1128,050;  280,788;    1,636;   -0,682
1128,587;  382,788;    2,000;   -0,227
1129,124;  433,606;    0,091;    1,318
1129,661;  294,152;    0,273;    0,227
1130,198;  456,061;    1,636;    0,773
1130,734;  403,515;    0,182;    1,409
1131,271;  264,424;   -0,909;    0,864
1131,808;  433,697;    2,909;    3,045
1132,345;  309,788;    1,545;    0,318
1132,881;  179,788;   -1,545;   -1,864
1133,418;  332,970;    0,727;   -1,136
1133,954;  266,970;    2,455;   -2,682
1134,491;  343,061;    1,364;   -0,773
1135,027;  243,697;    2,364;    0,864
1135,564;  334,242;    0,273;    2,955
1136,100;  317,606;    0,364;    2,136
1136,636;  200,424;   -1,273;   -1,045
1137,172;  298,515;    0,000;   -1,045
1137,708;  232,697;   -1,364;   -1,045
1138,245;  228,879;    1,273;   -1,227
1138,781;  179,152;    1,091;   -3,318
1139,317;  258,697;    1,273;   -1,409
1139,852;  251,788;    3,091;    0,136
1140,388;  358,515;   -1,182;   -0,409
1140,924;  253,333;   -1,091;   -2,227
1141,460;  182,697;   -1,636;    0,136
1141,996;  125,333;   -1,364;    2,682
1142,531;  174,515;    1,364;    3,318
1143,067;  380,788;    1,182;    1,045
1143,602;  450,061;   -0,091;   -0,318
1144,138;  292,515;   -2,636;    1,045
1144,673;  160,697;   -1,455;    1,409
1145,209;  232,879;   -1,909;   -0,318
1145,744;  154,879;   -0,727;    0,864
1146,279;  283,061;    1,818;   -0,136
1146,815;  193,424;    1,545;   -2,682
1147,350;  241,788;   -1,364;    0,045
1147,885;  149,788;   -0,818;   -1,318
1148,420;  149,242;   -2,273;    0,773
1148,955;  138,606;   -1,727;    1,864
1149,490;  158,606;   -0,909;   -1,591
1150,025;  147,788;    0,455;   -1,773
1150,560;  255,970;    1,091;   -0,955
1151,094;  225,515;    1,455;   -0,591
1151,629;  224,424;    1,636;    0,864
1152,164;  151,970;    1,364;    1,318
1152,698;  121,061;   -0,182;   -0,136
1153,233;   78,333;    0,091;   -0,682
1153,767;  124,333;   -3,000;   -2,318
1154,302;  166,333;   -1,455;    1,773
1154,836;  165,424;   -0,455;   -2,136
1155,371;  220,606;   -1,364;    3,682
1155,905;  172,970;   -0,636;    1,682
1156,439;  146,788;   -0,636;   -0,500
1156,973;  176,424;    0,364;    0,318
1157,507;  113,970;   -0,364;    0,682
1158,042;  148,061;   -0,727;    1,045
1158,576;  192,061;    0,182;    1,773
1159,110;  184,788;   -0,818;    2,409
1159,643;  158,879;    0,636;   -0,045
1160,177;   96,788;   -1,545;    1,500

