
Integration time [ms]:   0,040
Averaging Nr. [scans]: 11
Smoothing Nr. [pixels]: 0
Data measured with spectrometer [name]: 7318044SP
Wave   ;Sample   ;Dark     ;Reference
[nm]   ;[counts] ;[counts] ;[counts] 

186,757;    1,417;   31,551;    1,318
187,357;   24,546;   22,551;    0,955
187,958;    6,643;   15,460;   -1,591
188,558;   47,488;    8,915;   -1,227
189,159;   14,121;    6,733;   -4,500
189,759;  -12,104;    7,278;   -3,591
190,360;  -15,383;    2,824;   -2,136
190,960;   15,261;    2,915;   -4,136
191,560;   30,958;    3,189;   -6,591
192,161;  261,057;    4,372;   -3,500
192,761;  121,605;    4,010;   -3,227
193,361;   46,359;    1,556;   -3,773
193,962;   84,758;    2,010;   -2,682
194,562;   11,424;    1,189;   -3,955
195,162;   26,594;   -2,448;   -2,227
195,762;  149,941;   -3,176;   -0,045
196,362;  110,151;    1,370;   -2,500
196,963;   11,535;    2,006;   -0,864
197,563;   51,770;    1,551;   -0,955
198,163;    0,879;    0,096;   -0,682
198,763;   10,107;    1,733;   -0,500
199,363;   64,740;    3,096;   -0,500
199,963;   35,876;    0,369;    0,409
200,563;   21,675;    2,823;   -1,409
201,163;    0,685;    3,277;   -0,227
201,763;   36,454;    3,732;    0,318
202,363;    5,510;    1,459;    1,500
202,963;   40,281;    1,459;    1,045
203,563;   91,751;    0,277;    0,500
204,162;   18,518;    2,096;   -1,864
204,762;   14,399;    0,550;    0,591
205,362;   -7,712;    3,004;    1,955
205,962;   18,584;    3,096;    1,955
206,562;   11,323;    1,823;    2,318
207,161;   -3,616;   -0,087;    0,318
207,761;   70,720;    1,277;    2,409
208,361;   11,174;   -0,268;    1,409
208,960;   36,250;    0,459;    1,500
209,560;   25,066;    1,277;    1,591
210,160;   38,290;    0,550;    1,864
210,759;   11,497;    4,186;    1,227
211,359;    3,396;    1,459;    1,045
211,958;  111,865;    1,277;    2,045
212,558;  123,806;    1,732;    1,864
213,157;   48,389;    1,822;    1,500
213,757;  190,092;    3,822;   -0,227
214,356;   74,876;    1,277;   -0,409
214,956;  166,282;    3,095;    0,409
215,555;   41,415;    2,095;    2,136
216,154;   17,357;   -2,723;   -0,591
216,754;   11,610;    0,277;    0,773
217,353;   24,823;   -0,268;   -1,045
217,952;  -22,411;   -0,178;    0,318
218,552;   50,054;    1,368;   -0,773
219,151;   11,570;    0,277;    0,955
219,750;    2,826;    0,004;   -0,227
220,349;  -10,930;   -0,451;    1,045
220,948;   55,118;   -1,360;    1,136
221,548;    2,631;    0,913;    1,227
222,147;   15,797;   -0,087;   -0,409
222,746;   89,816;   -0,451;   -0,955
223,345;   36,047;    0,731;    0,500
223,944;   27,552;   -0,451;    0,773
224,543;   39,514;    1,004;   -1,409
225,142;   25,303;    0,094;    0,136
225,741;   32,497;   -0,814;    1,045
226,340;   20,671;   -0,451;   -0,955
226,939;   75,686;   -0,996;   -0,136
227,538;   18,228;   -0,360;   -0,773
228,137;   83,391;   -0,814;    0,864
228,735;   54,745;   -0,541;    1,227
229,334;  -18,275;   -0,905;   -0,227
229,933;   75,721;    0,459;    0,591
230,532;   80,329;    1,186;   -0,409
231,131;  125,011;    1,732;    0,318
231,729;   59,126;   -2,450;   -2,318
232,328;   23,062;   -0,723;   -1,500
232,927;   28,645;    1,004;   -0,500
233,525;   15,368;    3,640;    0,045
234,124;   31,295;    2,368;   -1,591
234,723;   -4,171;    0,913;   -1,045
235,321;  -11,773;    2,277;    0,136
235,920;   10,227;    1,186;   -1,227
236,518;   81,261;    3,459;    0,318
237,117;   11,880;    0,004;   -0,227
237,715;   24,247;    0,640;   -0,500
238,314;   28,359;   -0,087;   -2,318
238,912;   80,665;   -0,723;   -1,409
239,510;   43,080;    0,459;   -1,227
240,109;   94,599;    0,004;    3,773
240,707;   71,797;   -0,996;    1,227
241,305;   -1,646;    0,550;    0,136
241,904;   36,627;   -0,178;   -2,045
242,502;  112,020;   -0,632;   -0,227
243,100;   49,863;   -0,087;   -0,955
243,698;    9,139;    0,732;    1,682
244,297;   25,735;   -0,632;    0,682
244,895;   19,208;   -0,269;   -2,318
245,493;   95,364;    2,186;   -0,591
246,091;  106,654;    1,368;   -1,318
246,689;   62,190;    1,004;    0,591
247,287;   53,419;    0,822;   -1,136
247,885;   19,890;   -1,451;    1,227
248,483;   12,648;    1,822;   -0,500
249,081;   47,500;    0,185;    1,591
249,679;   57,039;   -0,178;    1,682
250,277;    1,639;   -1,723;    0,864
250,875;   57,509;   -1,087;   -1,045
251,473;   14,832;   -1,178;    0,500
252,071;   59,739;    1,459;    1,045
252,669;   21,279;   -1,814;    0,318
253,267;    4,708;   -0,087;    0,773
253,864;   15,965;   -0,360;    0,682
254,462;   78,952;    1,640;    1,591
255,060;    6,266;   -0,269;    1,318
255,658;    3,825;    0,822;   -0,136
256,255;   13,773;    0,186;   -2,045
256,853;   41,072;   -0,269;    1,409
257,451;   19,526;    0,822;    1,864
258,048;  194,022;    1,822;    1,864
258,646;   78,669;    1,731;   -1,045
259,243;  119,254;   -0,087;    2,227
259,841;   62,710;   -0,814;    0,318
260,438;   -1,588;   -0,087;    0,864
261,036;   40,324;   -1,905;    1,409
261,633;    7,390;   -0,087;    2,227
262,231;  -14,626;    2,731;   -0,045
262,828;   -7,291;   -0,905;    1,136
263,425;    0,820;    0,913;   -0,591
264,023;    9,993;    0,186;    0,045
264,620;   68,922;   -0,360;   -0,318
265,217;  106,380;   -2,087;    3,136
265,815;   15,026;   -1,905;    2,136
266,412;   54,945;    0,731;    0,136
267,009;   40,243;   -1,451;    0,773
267,606;   82,123;    0,822;   -0,955
268,203;   17,761;   -0,269;   -0,591
268,801;   18,394;    1,731;    0,591
269,398;   -9,955;   -0,360;    2,500
269,995;   48,800;    0,277;    1,591
270,592;   28,667;   -0,632;   -0,500
271,189;   -1,831;    0,186;    0,409
271,786;  -15,954;   -0,632;    1,227
272,383;   54,980;   -1,087;    0,227
272,980;   12,048;    0,277;    0,318
273,577;   -2,361;    0,004;    1,227
274,174;   -8,924;    0,822;    2,591
274,771;   37,734;   -0,814;   -0,773
275,367;  204,447;    2,277;    1,409
275,964;   93,907;    0,731;   -0,500
276,561;   21,582;    1,549;   -1,045
277,158;  -14,688;    0,095;   -1,773
277,755;   80,591;    2,185;    0,409
278,351;   43,386;   -0,451;   -1,500
278,948;   60,093;   -0,815;    0,045
279,545;   37,371;   -1,360;    2,318
280,141;   78,668;   -1,723;   -2,045
280,738;   96,987;   -0,451;   -0,136
281,334;   23,499;   -1,633;    0,591
281,931;   10,884;   -0,087;   -1,318
282,528;   70,141;    0,822;   -0,500
283,124;   92,770;   -1,087;   -0,500
283,721;   79,208;   -0,451;    1,409
284,317;   30,689;    0,185;    2,500
284,913;   88,285;   -1,360;    0,591
285,510;  149,831;    0,640;   -0,318
286,106;   98,395;   -2,269;   -0,955
286,703;   46,848;   -0,360;    1,955
287,299;   18,437;   -1,451;   -0,591
287,895;   20,137;    0,822;   -1,045
288,491;    4,408;    0,186;    2,136
289,088;   39,464;   -2,360;    2,409
289,684;   46,097;   -1,723;    1,500
290,280;  116,093;    0,368;    0,682
290,876;   87,878;    1,822;    5,500
291,472;   60,891;    1,276;    2,227
292,068;   70,688;    1,367;    0,227
292,665;   31,437;    2,095;    0,773
293,261;    4,825;    0,276;    2,136
293,857;   69,164;    2,913;    2,136
294,453;   26,893;    3,550;    0,955
295,049;  120,778;   -0,268;    1,955
295,644;   60,931;    0,095;    0,136
296,240;   -2,999;   -0,905;   -0,136
296,836;   40,056;   -0,995;    0,318
297,432;   85,456;    1,096;   -0,500
298,028;   77,341;    0,732;    0,773
298,624;   43,904;    1,459;    1,864
299,220;   32,508;    2,368;    0,591
299,815;   24,785;    1,005;   -0,409
300,411;   59,050;    0,914;    1,773
301,007;   88,403;    1,368;    0,227
301,602;   31,315;   -0,541;   -2,318
302,198;   82,485;    0,732;   -0,773
302,794;   35,081;    1,187;   -0,500
303,389;    0,293;   -1,177;    1,045
303,985;   15,743;    0,550;    1,409
304,580;   85,344;    1,459;    1,591
305,176;   31,653;   -3,086;    0,136
305,771;  -23,951;   -1,268;   -1,227
306,367;  156,994;    4,095;    0,136
306,962;   54,315;    0,641;    1,500
307,558;   79,975;   -0,450;    0,136
308,153;   62,027;    1,095;   -1,136
308,748;    3,388;   -0,814;    1,682
309,344;  153,482;   -0,632;   -1,318
309,939;  131,517;   -1,905;   -1,318
310,534;   32,954;   -0,086;   -1,682
311,130;   17,829;    0,459;   -2,500
311,725;    5,908;    1,004;   -0,500
312,320;   19,846;    2,459;    0,045
312,915;   60,964;    1,459;   -1,045
313,510;  151,588;    1,550;   -0,500
314,105;   29,715;    1,096;    1,409
314,700;   -8,296;   -3,086;   -1,045
315,295;   20,616;   -0,904;    0,045
315,890;    0,204;    1,277;    0,864
316,485;   47,383;   -0,359;   -0,318
317,080;    8,244;   -3,086;    1,591
317,675;  135,765;    2,005;   -0,682
318,270;  251,717;    5,550;    3,318
318,865;  171,707;    3,278;    3,045
319,460;   92,736;   -0,904;    0,591
320,055;    6,584;   -0,541;   -1,227
320,650;   16,591;   -1,995;   -0,591
321,244;   19,542;   -0,177;   -1,409
321,839;   19,733;   -1,541;   -0,227
322,434;   32,301;   -1,086;   -1,591
323,029;   13,527;    1,732;    1,591
323,623;    0,570;    1,550;    0,773
324,218;   95,912;    2,368;    1,409
324,812;   52,364;    1,096;    1,591
325,407;   52,008;   -0,814;    2,045
326,002;  122,267;    0,277;   -0,409
326,596;   88,856;    0,914;    1,318
327,191;   22,036;    0,823;   -1,045
327,785;   32,310;   -0,813;   -0,227
328,379;   11,069;    1,368;    0,136
328,974;   22,739;    0,914;   -3,955
329,568;   40,862;    0,186;   -2,409
330,163;   86,126;    2,096;    1,045
330,757;   15,833;    2,459;    1,591
331,351;   -9,879;    0,459;    0,682
331,945;   -9,202;    0,914;    1,409
332,540;   46,586;   -1,723;   -0,591
333,134;   37,092;   -1,086;    0,773
333,728;   52,370;    0,005;    0,318
334,322;   -1,462;   -1,177;   -0,864
334,916;   -3,923;    0,277;    0,955
335,510;   68,135;   -0,450;   -0,136
336,105;   53,399;   -1,086;    1,591
336,699;    9,616;   -1,086;    0,591
337,293;   28,842;   -1,723;    0,318
337,887;    8,607;   -2,723;    1,955
338,481;   58,882;    0,459;    0,591
339,074;  104,158;   -0,359;    2,682
339,668;   93,802;   -1,632;    1,227
340,262;  373,499;    1,732;    3,227
340,856;  161,325;    1,822;   -0,682
341,450;   27,289;    1,004;    1,864
342,044;   50,842;    1,459;    0,136
342,637;   95,690;    0,913;   -2,136
343,231;   50,866;   -2,360;    0,682
343,825;   31,969;   -1,086;   -0,591
344,419;   33,312;   -1,995;    0,500
345,012;  290,802;    2,459;    4,045
345,606;  191,254;    4,641;    1,591
346,199;   42,613;   -1,813;   -0,227
346,793;   87,167;    1,914;    2,045
347,386;   15,775;   -0,813;   -1,136
347,980;  -14,373;   -0,268;   -0,045
348,573;   23,070;    2,278;    0,409
349,167;  199,949;    5,278;    4,773
349,760;   98,912;    2,914;    2,682
350,354;   88,115;   -0,813;    1,136
350,947;  102,630;    1,096;    1,682
351,540;   59,825;   -0,358;   -1,409
352,134;   -3,509;    1,096;    1,136
352,727;    1,759;   -0,086;    1,136
353,320;    7,028;    0,005;    0,591
353,913;  -14,787;   -1,995;    1,864
354,507;   83,717;    0,823;   -1,227
355,100;   22,294;    0,460;    0,864
355,693;  258,199;    2,005;    2,409
356,286;  118,753;    0,823;    2,773
356,879;   44,659;   -0,722;    1,227
357,472;   54,995;   -0,904;    1,500
358,065;   51,984;   -0,722;    2,500
358,658;   -0,169;   -0,540;    2,318
359,251;  -13,968;   -1,631;   -0,591
359,844;   68,136;   -1,904;   -1,136
360,437;  102,189;   -2,995;    0,045
361,030;   25,271;    1,369;   -0,682
361,623;   29,491;    2,824;    0,318
362,215;  164,352;   -0,086;    2,045
362,808;   59,502;   -2,358;   -1,682
363,401;   15,651;   -2,449;    0,136
363,994;  145,619;   -0,631;   -1,500
364,586;   42,819;    0,824;   -1,500
365,179;   17,674;   -0,449;   -1,136
365,772;  -39,593;   -1,995;    2,045
366,364;   35,443;    1,915;   -3,227
366,957;   50,805;    2,279;   -0,045
367,549;   24,629;    2,188;   -0,864
368,142;   39,380;    1,825;   -1,500
368,734;   15,736;    0,734;   -2,136
369,327;  -12,635;    1,643;   -0,500
369,919;    8,186;   -1,538;    0,409
370,512;   17,925;   -1,083;   -0,500
371,104;  217,492;   -0,901;    1,591
371,696;  228,785;    1,191;   -0,955
372,289;  121,763;    0,373;    1,136
372,881;   81,516;   -2,080;    1,318
373,473;    5,866;   -2,170;    1,136
374,066;   77,865;   -0,169;    0,500
374,658;   64,147;    0,378;    1,136
375,250;   -1,371;    0,653;   -1,409
375,842;   40,550;    0,473;   -0,045
376,434;    0,681;   -0,435;   -0,409
377,026;  -28,869;    0,204;   -2,500
377,618;   14,360;   -0,158;   -0,682
378,210;  -46,577;   -0,338;   -1,955
378,802;  -57,644;    0,754;   -0,591
379,394;  323,907;    1,846;    0,682
379,986;   76,810;    1,393;   -0,955
380,578;  -22,138;   -0,153;    0,773
381,170;  239,222;   -0,972;    0,045
381,762;  143,776;    0,755;    1,409
382,354;  108,401;   -0,065;   -1,318
382,945;   26,089;   -2,976;    0,318
383,537;  -17,421;   -2,705;   -1,955
384,129;  -16,540;   -2,160;   -1,136
384,721;  108,629;   -0,252;    0,955
385,312;   38,141;   -0,161;   -0,955
385,904;  111,173;   -2,706;    1,591
386,496;   37,654;   -0,979;    1,045
387,087;  164,866;    1,022;    2,500
387,679;  101,305;   -1,160;    0,045
388,270;   68,713;    2,840;    2,045
388,862;   51,633;    1,295;   -0,318
389,453;   36,261;   -0,887;    1,045
390,045;   39,591;   -0,705;   -2,682
390,636;  -81,529;    0,204;   -0,591
391,227;  -11,373;   -0,523;   -0,045
391,819;  -19,659;    0,204;    0,773
392,410;  214,273;    1,022;    0,045
393,001;   35,194;   -0,979;   -1,591
393,593;   98,103;    1,930;   -0,045
394,184;  142,941;    1,385;   -0,409
394,775;   16,348;    1,839;    2,136
395,366;  -61,679;    1,385;    0,773
395,957;  115,145;    0,113;    0,136
396,548;    0,403;   -0,342;    2,682
397,139;  107,279;   -2,433;    0,591
397,730;   42,358;   -1,888;    0,955
398,321;   37,778;   -1,252;    0,955
398,912;  -11,654;   -0,615;    0,136
399,503;  -14,641;   -3,524;   -1,409
400,094;   31,461;    0,294;    1,682
400,685;   25,317;   -0,433;    0,045
401,276;  -17,580;    0,930;   -0,955
401,867;  -37,392;   -0,888;    0,773
402,458;  -85,815;   -2,251;   -2,318
403,048;   53,405;    1,112;    0,591
403,639;    6,916;    0,840;    0,864
404,230;  100,550;    2,476;    0,318
404,821;  165,087;   -0,615;    0,045
405,411;   72,299;    1,203;   -2,591
406,002;   -7,450;   -1,252;   -1,136
406,592;  213,252;    2,294;    0,045
407,183;   78,068;    0,566;   -1,500
407,774;   63,269;    3,475;   -0,136
408,364;   12,419;    0,930;    0,409
408,954;  120,767;    0,384;    1,227
409,545;  126,646;    1,021;    1,045
410,135;   99,743;    1,293;    0,500
410,726;   44,091;    1,838;    0,318
411,316;  224,791;    0,111;    0,773
411,906;   65,588;   -0,253;   -0,409
412,497;   72,982;   -1,070;   -0,045
413,087;   17,523;   -1,980;   -0,227
413,677;  -56,421;   -0,707;    3,864
414,267;  -54,494;    0,656;    1,409
414,857;  -70,162;   -2,980;    4,227
415,448;  -66,393;    0,839;    0,500
416,038;  -43,401;    0,020;   -0,591
416,628;    8,913;   -0,889;    0,409
417,218;   67,382;    0,565;    3,318
417,808;  205,714;    0,202;   -0,409
418,398;   83,758;    0,020;    2,682
418,988;  -33,044;    2,020;    0,591
419,578;   66,696;   -0,707;    1,409
420,168;  -12,574;   -1,343;   -0,955
420,757;  141,095;   -1,343;   -1,500
421,347;   42,538;    0,111;   -0,227
421,937;    9,905;    2,292;    1,409
422,527;  143,852;    0,838;   -0,773
423,116;  270,691;   -0,253;   -0,045
423,706;   -3,759;   -1,889;    0,318
424,296;  -44,779;    1,384;    0,682
424,885;   79,857;   -0,071;   -3,045
425,475;   57,824;    1,474;   -2,864
426,065;  -46,344;   -0,980;   -0,318
426,654;  -58,597;   -0,435;   -0,318
427,244;  201,261;    0,020;    1,409
427,833;  166,283;    1,383;   -0,500
428,423;   41,624;   -0,526;    1,136
429,012;   40,256;   -0,344;   -1,136
429,601;  166,246;   -1,344;    0,136
430,191;   47,749;    1,292;    4,318
430,780;  -39,572;   -0,344;   -0,409
431,369;  148,893;    0,746;   -0,045
431,959;   24,794;   -1,254;    0,500
432,548;  -25,870;   -1,163;   -0,045
433,137;  -83,751;   -1,254;   -1,318
433,726;  -16,931;    0,292;    0,500
434,315;    8,852;   -0,526;    2,409
434,905;  116,556;   -1,254;    1,409
435,494;  115,845;    0,746;    0,955
436,083;   -9,460;   -0,981;   -0,955
436,672;   84,568;    0,110;    0,500
437,261;   20,662;    0,292;   -1,955
437,850;  250,984;    1,383;    0,682
438,439;  303,317;    3,291;    1,955
439,027;  408,397;    3,655;    1,773
439,616;  337,174;    2,927;    1,227
440,205;  100,134;    0,200;   -2,136
440,794;   51,951;    2,109;   -0,045
441,383;  -11,107;   -1,346;   -0,591
441,971;  -40,874;   -2,436;    0,591
442,560;  -30,147;    0,563;   -1,773
443,149; -103,859;    0,379;   -1,318
443,737;  -64,541;   -0,074;   -2,318
444,326;  -39,481;    0,018;    0,318
444,915;    5,866;   -1,982;    0,864
445,503;   13,121;   -2,891;   -0,318
446,092;  271,018;    0,382;    2,136
446,680;  210,531;    0,382;    0,318
447,269;  109,678;   -0,346;   -0,318
447,857;  102,149;    0,018;   -1,773
448,445;   52,888;    0,563;    1,318
449,034;  -16,138;   -1,528;   -1,136
449,622;    1,509;   -1,073;    3,500
450,210;  278,936;    2,017;    2,227
450,799;  192,823;    0,290;   -0,591
451,387;  149,027;    1,381;   -0,591
451,975;  145,827;    2,654;    0,864
452,563;  223,251;    3,472;    2,318
453,151;   39,266;   -0,528;   -1,227
453,739;   82,185;   -1,347;    0,136
454,328;  191,568;    2,381;   -2,136
454,916;  127,670;    2,562;   -0,136
455,504;  143,918;    1,017;    1,227
456,092;   21,277;    0,017;   -1,591
456,679;  -17,909;    1,472;    0,682
457,267;  397,199;    4,017;    1,045
457,855;   83,739;    1,017;    1,409
458,443;  -66,841;   -0,165;    1,682
459,031;  115,010;    0,108;    2,409
459,619;   62,938;   -1,801;    2,864
460,206;  -40,575;    0,835;    2,045
460,794;  -42,493;   -2,983;   -0,227
461,382;   22,566;   -0,529;   -0,864
461,970;   21,589;    1,198;    1,864
462,557;  -53,397;   -0,711;   -0,682
463,145;   63,460;   -3,165;   -1,682
463,732;  316,323;    2,016;   -1,045
464,320;   79,232;   -0,075;   -3,045
464,907;  228,654;    2,743;   -0,773
465,495;  141,642;    0,743;   -1,227
466,082;   54,872;   -1,984;   -0,045
466,670;   77,275;   -2,529;    1,227
467,257;  -35,807;   -1,711;    2,045
467,844;   73,497;   -0,075;    0,045
468,432;   54,843;    0,834;    3,500
469,019;    5,633;    0,925;   -1,773
469,606;   96,350;    0,470;    3,682
470,193;  129,219;   -1,439;    0,227
470,780;   64,898;   -2,075;    0,864
471,368;   -0,799;   -1,257;   -0,773
471,955;  122,021;    1,379;   -0,682
472,542;   71,312;    0,652;   -1,136
473,129;  -45,499;   -0,166;    0,136
473,716;  -32,875;    1,470;    0,591
474,303;   -3,946;    0,652;   -0,864
474,890;    1,554;   -1,439;   -0,500
475,477;  109,468;   -1,621;    0,409
476,064;   14,483;    1,106;   -1,591
476,650;  146,771;    0,288;    0,318
477,237;   47,952;   -0,258;    0,955
477,824;   26,773;   -1,076;    0,864
478,411;  -63,630;   -1,894;   -0,318
478,997;  -72,402;    0,560;   -0,773
479,584; -118,592;    1,196;   -0,409
480,171;   67,834;   -0,440;   -0,773
480,757;  125,408;    2,651;    0,773
481,344;    9,002;    0,469;    0,409
481,931;  -85,591;    1,105;    1,045
482,517;   54,890;   -1,258;    0,318
483,104;  131,919;    1,106;    2,864
483,690;   -9,778;   -1,804;    0,045
484,276;  -23,799;   -0,895;    0,227
484,863;  201,618;    2,469;    1,136
485,449;   37,289;   -0,077;    0,318
486,035;   -5,274;   -1,986;   -0,136
486,622;   85,063;   -0,895;    0,045
487,208;    4,168;    1,378;    1,500
487,794;  -82,700;    0,741;    0,318
488,380;  -88,894;    0,105;   -1,409
488,967;  -73,688;   -1,168;   -0,409
489,553;  -56,177;   -1,895;   -1,409
490,139;   30,627;    1,559;    0,773
490,725;  -51,414;    0,741;   -0,227
491,311;   -6,224;    3,287;    3,045
491,897;  -26,922;   -0,986;    1,500
492,483;  -18,082;    0,105;    1,227
493,069;  424,448;    3,923;    0,864
493,655;  138,943;    1,650;    0,682
494,241;    5,769;    1,377;   -0,955
494,826;   19,358;    0,287;   -1,045
495,412;   87,937;    2,559;   -0,682
495,998;  -14,465;   -0,805;   -0,318
496,584;   60,439;    0,377;    1,045
497,169;   76,242;    1,014;   -0,682
497,755;   -0,798;    0,650;    1,227
498,341;  140,960;    0,559;    0,318
498,926;  267,721;    1,832;    1,955
499,512;   -0,006;    1,286;    2,955
500,097;    5,656;    0,195;   -0,318
500,683;   23,719;   -0,350;    2,136
501,268;  -29,773;   -0,169;   -0,955
501,854;   -0,506;   -0,169;    1,227
502,439;  -13,319;   -0,624;   -1,773
503,024;    9,813;    0,195;    0,500
503,610;   34,271;   -0,078;   -0,682
504,195;  -25,586;    0,558;    1,955
504,780;   67,721;    2,922;    1,227
505,366;  156,116;    3,013;    2,864
505,951;   89,078;    0,740;    1,045
506,536;    2,870;   -3,260;   -3,682
507,121;   59,693;    0,285;   -0,318
507,706;   11,178;    2,376;    1,045
508,291;  -38,094;    2,649;    1,136
508,876;  -36,151;   -0,988;    2,591
509,461;   11,550;   -0,169;   -0,773
510,046;   41,180;    0,194;    0,318
510,631;   59,193;   -0,351;   -0,773
511,216;  -21,065;    2,467;   -0,500
511,801;   33,684;   -0,442;    2,591
512,386;   56,784;    0,740;    0,500
512,971;   56,880;   -2,988;    0,955
513,555;   87,385;   -0,897;   -1,500
514,140;   50,034;   -0,442;   -3,136
514,725;  168,954;   -0,715;   -1,136
515,309;   84,077;   -0,533;    0,318
515,894;   -8,603;   -0,624;   -2,227
516,479;   28,132;   -0,624;   -0,955
517,063;   26,589;    0,376;    1,227
517,648;  -18,554;    1,012;   -1,136
518,232;  -38,306;   -0,261;   -1,409
518,817;   46,498;   -0,079;    1,682
519,401;  143,132;    2,194;    0,591
519,985;  119,598;    1,103;    1,136
520,570;   11,811;    0,830;   -1,955
521,154;   96,371;    2,102;    0,591
521,738;  257,739;   -2,352;    2,409
522,323;  116,766;   -0,170;    1,682
522,907;  147,767;    0,466;   -0,136
523,491;   98,797;    0,557;    0,955
524,075;   88,238;    2,284;    0,591
524,659;  347,284;    1,466;    0,591
525,243;  343,358;    1,739;    0,409
525,827;  337,578;    0,648;   -0,045
526,411;  422,648;   -1,989;   -0,136
526,995;  670,532;   -0,352;    1,409
527,579;  850,808;   -0,443;   -1,045
528,163;  901,637;    0,375;   -1,500
528,747; 1241,678;    2,466;   -0,773
529,331; 1354,299;   -0,080;   -1,409
529,915; 1326,418;    1,738;    0,955
530,499; 1677,930;   -0,807;    1,227
531,082; 2017,697;   -0,534;    1,591
531,666; 2253,656;    1,374;    0,773
532,250; 2633,846;    1,284;    2,682
532,833; 3154,482;    0,920;    2,773
533,417; 3388,626;   -1,807;    0,864
534,001; 3705,485;    1,647;   -0,318
534,584; 4486,363;    0,374;    0,500
535,168; 4780,162;    0,465;    1,409
535,751; 5367,427;    0,647;    0,045
536,334; 5359,425;   -0,898;   -0,409
536,918; 6180,520;    0,011;    1,591
537,501; 6655,477;   -0,899;    1,318
538,085; 7103,274;   -0,444;    1,045
538,668; 7609,987;    0,829;    2,409
539,251; 8350,428;    1,829;    3,773
539,834; 8784,661;    0,101;    0,773
540,418; 9136,246;   -1,990;    4,318
541,001; 9577,042;   -0,990;    1,773
541,584; 9872,111;    2,101;    2,227
542,167; 9971,046;    1,374;    2,955
542,750;10352,078;    1,919;   -0,773
543,333;10320,736;    0,555;    2,136
543,916;11293,733;    0,192;    2,500
544,499;12023,708;   -1,354;    0,227
545,082;12319,795;    1,374;    3,591
545,665;12706,294;    1,919;    1,500
546,248;13209,736;    1,010;   -0,318
546,830;13095,016;   -0,445;    1,955
547,413;13741,029;    1,010;   -0,773
547,996;14424,852;    0,555;    0,500
548,579;14363,169;    0,919;    0,955
549,161;14379,438;    1,828;    2,682
549,744;14345,391;   -0,809;    0,409
550,326;14949,411;   -0,809;   -1,136
550,909;14944,062;    2,737;    0,591
551,492;15431,079;   -0,263;    0,227
552,074;15363,357;   -0,173;   -1,318
552,657;16052,242;    2,373;    0,045
553,239;15966,110;   -0,173;   -0,773
553,821;15969,457;   -1,082;    1,045
554,404;15609,199;    1,282;    1,136
554,986;16060,863;    0,464;    1,045
555,568;16740,731;    1,191;   -0,955
556,151;16108,808;    1,191;   -0,227
556,733;16344,450;   -0,264;   -0,864
557,315;16873,768;    0,100;    0,500
557,897;16772,331;    0,554;   -0,500
558,479;16960,021;   -1,991;    1,318
559,061;17134,409;   -0,719;   -0,864
559,643;17499,964;   -0,264;    0,045
560,225;17990,091;    1,645;    2,864
560,807;18031,873;    0,918;    0,318
561,389;17572,535;    0,554;    2,318
561,971;18425,913;    0,463;    2,136
562,553;18263,726;   -1,628;    1,591
563,135;18440,911;   -0,537;    1,136
563,717;18125,959;    3,372;    1,136
564,298;18907,091;    3,645;   -0,045
564,880;18674,394;    0,645;   -1,409
565,462;18852,848;    0,645;    1,318
566,043;20075,918;   -0,446;    2,318
566,625;19659,090;    1,918;    1,227
567,207;19566,360;    1,099;    1,682
567,788;20753,409;   -1,264;    1,500
568,370;21612,078;    1,917;   -0,500
568,951;21516,081;    0,190;    0,227
569,533;22432,763;   -0,628;   -0,500
570,114;22958,768;   -0,446;    0,682
570,695;23513,610;   -0,174;   -1,318
571,277;24092,366;   -0,265;   -1,682
571,858;24920,118;    2,008;   -1,136
572,439;25864,319;    1,554;   -1,045
573,021;26108,606;    2,099;   -2,773
573,602;26628,568;   -1,265;    0,318
574,183;27620,027;   -2,083;    2,227
574,764;27820,691;   -1,629;    0,409
575,345;28437,982;    0,917;   -0,136
575,926;29079,734;   -0,356;    0,136
576,507;29040,194;    1,099;   -0,227
577,088;30241,252;    3,099;    1,682
577,669;30291,679;    0,735;    1,955
578,250;31236,572;    0,644;   -1,045
578,831;31932,604;   -1,356;   -2,227
579,412;32240,484;   -0,810;    0,955
579,993;33102,480;    1,008;    0,227
580,573;33433,524;   -0,629;   -0,955
581,154;32488,905;    0,735;   -0,591
581,735;33429,454;    0,644;    0,773
582,315;32935,818;   -0,629;    2,136
582,896;33143,327;   -0,174;    1,227
583,477;32617,838;    0,189;    1,227
584,057;32890,356;    0,553;    0,955
584,638;33267,298;    2,553;    2,318
585,218;33269,699;   -0,538;    2,682
585,799;33416,108;    0,281;   -0,227
586,379;33344,524;    0,372;    1,591
586,959;32032,094;    0,735;    0,318
587,540;31265,655;   -0,629;    2,227
588,120;30852,876;    1,007;   -0,045
588,700;29885,045;    2,553;    2,136
589,281;30259,002;    0,462;   -0,955
589,861;30246,913;    0,099;   -1,682
590,441;30037,294;    2,371;   -2,682
591,021;29000,106;   -0,265;   -2,591
591,601;29216,489;   -0,537;    0,500
592,181;29259,937;   -0,719;   -0,773
592,761;28573,932;    0,007;    1,409
593,341;28461,596;   -0,901;    0,045
593,921;28462,036;   -0,265;    1,591
594,501;28358,492;   -0,538;    1,318
595,081;28208,505;    0,917;   -0,318
595,661;28666,035;   -1,447;    0,955
596,240;29270,613;   -0,537;    0,136
596,820;28931,458;    0,372;    1,955
597,400;29119,857;    2,008;    0,773
597,980;29310,204;    2,008;    1,045
598,559;29295,918;    2,735;   -0,227
599,139;28988,614;   -0,174;   -1,227
599,718;28927,068;   -0,174;   -0,409
600,298;29196,679;    0,735;    0,682
600,877;29484,688;    2,917;    1,409
601,457;29682,624;    2,281;    1,136
602,036;29698,569;    0,190;    2,045
602,616;29960,012;    0,644;    1,682
603,195;30371,705;   -0,355;    3,500
603,774;29936,549;   -0,901;    2,045
604,354;29742,262;    0,826;   -0,500
604,933;29204,095;    0,463;    1,864
605,512;29324,986;    3,554;    0,591
606,091;29348,693;   -0,537;    3,773
606,671;30249,509;    0,281;    0,773
607,250;29386,347;    1,644;    3,136
607,829;29611,210;    2,372;    3,227
608,408;29481,821;    1,190;    2,591
608,987;28476,786;    1,281;    3,409
609,566;28814,226;   -1,265;   -2,500
610,145;28920,974;   -1,082;    0,682
610,723;29308,047;    4,372;    6,864
611,302;28566,333;   -0,446;    1,682
611,881;28123,594;    5,008;   11,227
612,460;28941,408;    1,645;    3,955
613,039;29365,789;   -0,082;    2,045
613,617;28071,374;    1,736;    4,773
614,196;28264,715;    1,099;    1,227
614,775;28577,554;    1,009;    2,409
615,353;28552,320;    0,736;    0,864
615,932;28290,771;    0,100;    2,409
616,510;28893,089;    0,554;    0,591
617,089;28399,403;    7,100;   17,591
617,667;28118,599;    2,372;    6,136
618,246;27991,059;   -1,537;    1,318
618,824;28178,247;   -3,355;   -0,955
619,402;27752,075;   -2,900;   -1,773
619,981;28322,309;   -0,173;   -1,045
620,559;28087,095;    0,009;    1,682
621,137;27552,576;   -0,718;    1,864
621,715;27627,740;   -1,173;   -0,682
622,293;27505,987;   -0,537;   -0,773
622,871;27929,313;   -0,718;    0,500
623,450;27581,721;    0,373;   -0,864
624,028;27452,755;    0,191;   -0,955
624,606;27111,043;   -1,718;    1,682
625,183;27508,598;   -1,536;   -1,136
625,761;27096,770;    1,009;    1,136
626,339;27425,060;    1,373;    2,591
626,917;27852,743;   -0,172;   -0,045
627,495;27879,261;   -0,354;    1,318
628,073;27274,964;   -0,263;    2,864
628,650;26976,805;    0,100;    2,136
629,228;27380,715;    0,373;    4,409
629,806;26801,461;    2,282;    1,136
630,383;27089,077;    1,464;   -0,318
630,961;26850,677;    2,555;   -0,955
631,539;26606,569;    2,464;    0,227
632,116;25945,041;   11,373;   15,409
632,694;26541,188;    2,555;    6,500
633,271;26873,268;    0,828;    2,682
633,848;26802,952;    1,828;    2,045
634,426;26793,226;   -1,081;    1,773
635,003;25903,107;    1,101;   -0,409
635,580;26274,158;    1,192;    3,682
636,158;26827,948;    3,737;    1,227
636,735;26850,847;    0,555;   -0,500
637,312;26985,877;   -0,809;   -0,682
637,889;27072,415;   -4,354;   -0,682
638,466;26521,372;   -3,990;   -0,409
639,043;26557,026;    2,101;   -1,136
639,620;26911,983;   -2,262;   -0,955
640,197;27232,999;    1,100;    1,682
640,774;27342,614;   -0,172;    1,136
641,351;27786,230;    0,737;    1,136
641,928;27181,754;   -0,627;    1,409
642,505;26828,551;    0,828;   -0,500
643,082;26907,258;   -1,718;    1,227
643,658;25976,601;   -0,718;    1,500
644,235;26685,580;    1,191;    2,500
644,812;27027,468;    1,918;    0,773
645,388;26779,629;   -0,991;    1,409
645,965;26881,881;   -0,809;    1,682
646,542;26980,223;   -1,445;   -0,227
647,118;26984,657;    1,009;   -0,955
647,695;27275,273;   -0,263;    1,136
648,271;27144,524;   -0,536;    0,500
648,848;27530,049;    0,736;    2,227
649,424;27337,028;    0,827;    1,318
650,000;27117,825;   -0,354;   -1,045
650,577;26900,168;   -0,627;   -0,955
651,153;27417,602;   -1,809;    0,955
651,729;28515,308;    1,191;    0,864
652,305;29335,196;    0,645;    2,773
652,881;35283,357;   -0,082;    1,136
653,458;42619,700;    1,100;    0,227
654,034;46096,861;    0,282;    1,591
654,610;47287,749;    0,554;    0,773
655,186;48624,001;    0,645;    3,045
655,762;48318,798;   -0,991;    0,409
656,338;48337,959;    0,100;    0,136
656,913;49302,393;   -0,082;    0,409
657,489;48574,917;    0,827;   -0,318
658,065;48521,897;   -0,173;   -1,591
658,641;49291,876;   -0,900;   -0,864
659,217;48567,491;   -0,991;    0,409
659,792;47868,288;    0,645;   -0,409
660,368;48095,631;   -2,173;   -0,682
660,944;47167,792;   -2,082;    1,227
661,519;41025,408;   -0,628;    0,409
662,095;34525,387;   -1,719;    0,591
662,670;30270,002;    1,281;   -0,136
663,246;29381,799;    1,009;   -0,409
663,821;28739,051;    0,281;    1,682
664,396;28225,758;    0,009;    1,864
664,972;28586,010;    0,009;   -0,500
665,547;28876,989;    1,372;    0,136
666,122;28946,968;   -1,082;    0,318
666,698;29277,492;   -0,173;    0,318
667,273;28617,199;   -0,173;    0,136
667,848;29443,814;    2,372;    1,500
668,423;29291,975;    2,190;    2,318
668,998;29847,591;    2,827;   -0,682
669,573;30463,570;   -3,264;   -1,500
670,148;30246,458;   -1,446;   -0,682
670,723;30005,073;   -1,810;    0,318
671,298;30422,143;    2,372;    1,045
671,873;30609,941;   -0,082;   -0,136
672,448;30594,102;    0,645;    0,136
673,023;30891,263;   -1,992;   -0,227
673,597;31219,151;    0,827;    2,318
674,172;30972,039;   -0,355;    0,318
674,747;30424,109;    0,372;   -1,045
675,321;30300,815;   -0,628;    3,318
675,896;29851,431;    0,645;    1,045
676,471;30891,501;    2,645;    1,591
677,045;30667,298;   -1,264;    0,682
677,620;30690,277;    0,190;    1,136
678,194;30980,529;   -2,628;    1,136
678,769;30529,326;   -1,083;   -0,318
679,343;30840,578;   -0,628;    1,773
679,917;30751,557;   -1,446;    1,955
680,492;30849,536;    0,826;    3,227
681,066;31010,425;    3,372;    0,409
681,640;30975,495;    1,463;   -0,318
682,214;31832,656;    0,735;    0,500
682,788;31398,544;   -1,356;   -0,773
683,363;31363,614;   -1,810;    1,682
683,937;31072,502;   -1,719;   -0,318
684,511;31822,027;    0,463;   -0,591
685,085;31504,733;   -1,356;    0,318
685,659;31242,712;   -2,538;    0,864
686,232;31611,146;   -0,356;   -0,318
686,806;31219,489;   -0,901;    0,409
687,380;31927,740;   -0,174;    0,591
687,954;32078,629;   -1,174;    1,136
688,528;31812,335;   -0,719;    1,955
689,101;32623,223;   -3,992;    1,045
689,675;32228,748;   -0,356;   -0,136
690,249;31603,545;   -0,719;    0,409
690,822;31891,251;    0,280;    0,318
691,396;32043,412;   -0,265;    1,227
691,969;31462,755;    1,280;    0,136
692,543;31897,189;   -0,447;   -1,955
693,116;31534,077;   -0,265;   -1,409
693,690;31366,329;    0,099;    0,500
694,263;31901,035;   -1,083;    2,955
694,836;32015,651;    1,371;    3,591
695,410;30661,993;   -0,265;    1,773
695,983;31138,427;    0,189;    0,591
696,556;31087,224;   -0,447;   -1,045
697,129;31412,749;   -0,356;    1,409
697,703;31049,364;   -1,629;    1,955
698,276;31041,798;    1,462;   -0,773
698,849;30865,959;    1,280;    1,409
699,422;31273,847;   -1,083;    0,591
699,995;30992,190;    0,007;    0,136
700,568;31468,442;   -0,629;    3,045
701,140;31476,239;   -2,811;    1,682
701,713;31214,582;   -0,174;    2,409
702,286;30973,652;   -0,538;    0,864
702,859;30902,540;   -0,902;   -0,591
703,432;29962,065;    0,825;    0,682
704,004;30459,135;    0,462;    0,318
704,577;30394,568;   -0,629;    0,136
705,150;30989,184;    0,189;    2,500
705,722;30699,981;   -0,356;   -3,227
706,295;30457,597;   -0,175;   -0,591
706,867;30409,121;   -0,175;    1,955
707,440;30564,555;   -1,720;   -0,409
708,012;30848,079;    0,462;    0,591
708,584;30788,422;    2,462;    0,227
709,157;31055,492;    1,825;   -0,591
709,729;30690,653;    2,280;    2,045
710,301;31511,359;    0,734;    0,045
710,874;31554,339;   -1,447;   -0,227
711,446;30395,863;    0,371;    0,864
712,018;30260,115;    0,098;    0,500
712,590;30025,912;   -1,993;    1,682
713,162;30633,710;    0,825;    1,318
713,734;30828,416;    1,825;   -2,045
714,306;30674,213;   -1,902;   -0,409
714,878;29348,920;    0,825;    0,864
715,450;30200,081;    0,643;    0,864
716,022;30434,969;    1,552;    1,318
716,593;30546,675;    0,189;    0,591
717,165;30562,291;   -3,175;   -1,227
717,737;30278,452;    0,280;    0,409
718,309;29877,158;    0,280;   -0,045
718,880;29807,319;   -0,539;   -1,409
719,452;30046,025;   -0,175;   -1,591
720,024;29657,186;    0,734;   -0,591
720,595;30211,438;   -2,902;    0,955
721,167;29766,690;    0,370;   -2,045
721,738;29273,305;   -0,812;   -1,045
722,309;29263,194;   -0,993;   -1,227
722,881;29017,809;   -1,357;    0,773
723,452;29686,152;   -2,630;    2,864
724,023;29838,131;   -0,721;    2,682
724,595;29571,655;    0,007;    0,682
725,166;29265,998;    0,007;   -0,409
725,737;28986,341;    1,734;    0,227
726,308;29085,229;   -0,266;    0,318
726,879;29543,481;   -1,630;    1,227
727,450;29393,642;    0,552;   -0,045
728,021;29396,894;    3,097;    0,682
728,592;29160,782;    0,734;    0,500
729,163;29493,397;    0,643;   -0,136
729,734;29605,467;    0,188;   -0,227
730,305;29929,628;    1,734;    0,136
730,876;30273,426;    0,188;    2,955
731,447;29961,496;    2,188;    2,682
732,017;30088,929;    1,097;    1,864
732,588;29530,818;    0,734;    1,227
733,159;29798,251;    0,643;   -1,045
733,729;29575,230;    0,006;    0,409
734,300;28872,573;    0,915;    0,864
734,870;29270,461;    3,461;    0,591
735,441;29776,259;    0,370;   -0,591
736,011;29588,329;    0,643;   -1,591
736,582;29525,853;   -0,812;    0,045
737,152;29007,741;   -1,721;   -2,045
737,722;29417,448;   -0,267;   -0,682
738,293;29107,881;   -1,358;    1,318
738,863;28998,951;    2,461;    2,318
739,433;28871,567;    5,279;    0,318
740,003;29464,819;   -0,994;   -0,682
740,573;28843,707;    2,097;   -1,591
741,143;28767,868;   -1,085;    0,318
741,713;29553,574;    1,188;   -0,500
742,283;29271,008;    0,915;    1,591
742,853;29045,714;    1,915;    1,591
743,423;28464,603;    1,733;    0,045
743,993;28653,491;   -0,358;    1,500
744,563;27995,561;    0,097;   -0,864
745,133;27899,722;   -0,812;   -0,864
745,702;28594,792;   -0,267;    1,773
746,272;27801,044;   -0,176;    0,591
746,842;27572,841;   -1,358;   -0,591
747,411;27986,456;   -0,267;   -0,318
747,981;28174,345;    0,097;    0,500
748,551;28198,869;    2,278;   -1,045
749,120;28105,030;    0,642;   -0,227
749,690;28488,918;   -0,631;    2,409
750,259;28814,716;    1,369;    2,955
750,828;28815,604;    1,551;   -1,955
751,398;29035,856;    1,278;   -0,045
751,967;28585,835;    2,187;    0,409
752,536;28730,268;   -0,813;   -0,227
753,105;29156,157;    0,096;    0,227
753,675;28945,408;    0,096;    1,773
754,244;28874,569;   -0,904;    3,591
754,813;28906,003;    0,551;    1,227
755,382;28528,255;    0,460;    0,955
755,951;29213,688;    1,551;    3,682
756,520;28687,395;   -0,085;    1,864
757,089;29317,919;    0,278;    0,500
757,658;29473,626;    1,733;    1,227
758,227;29391,150;    1,096;    0,318
758,795;29709,766;    1,187;    1,136
759,364;29901,381;   -0,086;   -0,591
759,933;28918,451;   -1,176;   -0,045
760,501;28394,340;    0,733;   -1,318
761,070;28904,137;   -2,813;   -1,409
761,639;29596,116;   -1,904;    1,318
762,207;29013,641;    1,551;   -0,955
762,776;28898,074;    0,369;    0,864
763,344;28862,962;   -0,995;    0,591
763,913;27886,941;   -0,722;    1,409
764,481;28664,284;    1,005;   -0,136
765,049;28443,445;   -1,358;    1,409
765,618;28268,788;   -0,086;    0,318
766,186;28334,949;    0,278;    0,136
766,754;28512,110;    0,005;    1,864
767,322;27550,816;   -1,995;    0,409
767,890;27572,613;   -0,722;   -1,773
768,459;27931,047;   -2,177;   -0,318
769,027;28171,208;    1,641;    3,409
769,595;27076,369;    3,278;    2,591
770,163;27566,075;    3,823;    2,955
770,730;27286,509;    0,732;   -0,136
771,298;27055,215;    0,187;   -1,409
771,866;27141,831;   -1,541;    4,955
772,434;27473,083;   -0,631;   -1,864
773,002;27699,789;    0,005;    0,682
773,569;27309,041;    0,914;    1,682
774,137;27132,020;   -0,268;   -0,045
774,705;27891,726;    0,278;   -0,136
775,272;27367,433;    0,641;    0,682
775,840;27103,957;   -0,177;    2,682
776,407;26709,118;    0,277;    1,955
776,975;26273,370;   -0,632;    0,318
777,542;27254,713;   -1,086;   -0,045
778,110;27114,965;   -1,268;   -0,045
778,677;26757,126;   -2,359;   -0,864
779,244;26506,105;    2,186;    1,045
779,812;26585,811;    1,823;    0,864
780,379;26473,245;    0,005;    1,136
780,946;26753,588;    1,005;   -0,773
781,513;27072,294;   -1,450;    0,318
782,080;26471,364;   -0,086;    2,864
782,647;27187,889;   -0,268;    3,045
783,214;26760,777;   -0,177;    3,864
783,781;26390,938;   -0,723;   -0,682
784,348;26227,008;   -0,632;    1,500
784,915;26691,623;   -3,177;    0,318
785,482;26481,330;    1,368;    2,591
786,049;26880,672;    0,186;   -0,591
786,615;26977,924;    0,277;   -0,955
787,182;26711,085;    0,186;   -0,682
787,749;26381,791;   -2,814;    1,409
788,315;25758,407;   -1,632;   -0,409
788,882;25984,295;    1,550;   -1,227
789,448;26801,002;    1,732;   -0,955
790,015;26775,799;    1,095;    3,227
790,581;26302,869;    1,459;    0,227
791,148;26195,757;    0,641;    1,045
791,714;26427,827;   -0,541;    3,136
792,280;26136,443;    0,186;    1,591
792,847;25607,967;    0,550;    2,500
793,413;26198,037;   -0,269;   -0,318
793,979;25681,744;    3,459;   -1,318
794,545;25777,995;    4,459;    2,682
795,111;25213,611;    2,186;    1,318
795,678;25439,590;    0,731;   -1,682
796,244;25061,205;    3,368;    0,136
796,810;25583,639;    1,731;    0,773
797,375;25301,345;    0,549;   -2,136
797,941;25333,506;   -0,541;    0,591
798,507;25467,667;   -0,451;   -0,955
799,073;24981,283;   -0,360;    0,591
799,639;25008,716;   -2,632;    3,136
800,205;25040,241;    0,095;    2,682
800,770;24550,129;    0,640;    1,773
801,336;24694,017;    1,368;   -0,955
801,901;24457,633;    4,549;    3,136
802,467;24974,430;   -0,542;    2,045
803,033;24227,409;   -0,087;    0,864
803,598;24476,116;    1,913;   -1,045
804,163;24480,913;    1,095;   -0,318
804,729;24412,529;   -0,178;    1,136
805,294;24892,780;    0,822;    2,227
805,859;24644,305;    0,731;   -0,409
806,425;24099,375;    1,186;    2,682
806,990;23760,718;    2,186;    4,318
807,555;24266,424;   -1,451;    2,591
808,120;24120,494;    0,822;   -0,409
808,685;24173,746;    0,185;   -2,500
809,250;23638,180;    0,004;   -0,500
809,815;23962,886;    1,913;    0,682
810,380;24549,047;   -0,269;    1,591
810,945;25164,935;   -1,087;    2,045
811,510;24216,551;    2,094;    1,591
812,075;23912,439;   -0,633;   -1,409
812,640;23961,872;    2,003;    1,409
813,204;24000,306;    0,822;   -0,227
813,769;24522,194;    2,094;   -0,045
814,334;23898,173;    0,458;    0,864
814,898;23907,425;    0,367;    0,591
815,463;23797,404;    1,276;   -0,773
816,027;23718,747;   -0,724;   -2,318
816,592;23817,726;    0,640;   -2,045
817,156;23370,342;    2,094;    1,136
817,721;23268,230;    4,276;    2,318
818,285;23180,754;    2,912;    1,500
818,849;23851,552;   -1,451;    1,682
819,414;23722,985;   -0,269;    2,955
819,978;23256,874;   -1,269;    1,773
820,542;23888,671;    2,003;    0,500
821,106;23519,832;   -0,815;    0,682
821,670;23653,447;   -0,815;    2,591
822,234;23405,699;   -0,270;    1,409
822,798;22706,587;    0,003;    0,500
823,362;22678,294;   -0,633;    4,227
823,926;22017,546;    0,094;    1,136
824,490;22239,070;   -0,997;   -0,682
825,054;22680,867;   -0,088;   -1,136
825,618;22294,937;   -1,542;   -1,500
826,181;22265,826;    0,458;   -1,318
826,745;22216,078;    1,367;   -1,045
827,309;22530,511;    1,185;    1,318
827,872;21903,399;    1,367;    0,955
828,436;22900,288;    1,185;   -0,773
828,999;22950,267;   -0,997;    1,227
829,563;21692,791;   -0,179;    1,136
830,126;21518,679;   -0,179;   -0,591
830,690;21554,568;   -1,997;    2,864
831,253;21074,820;   -0,543;    2,227
831,816;21210,344;   -1,906;    0,500
832,380;21059,505;    0,185;    0,864
832,943;21345,030;   -1,361;   -0,500
833,506;20781,645;    2,639;   -1,227
834,069;21608,533;    3,912;   -0,955
834,632;21662,421;    1,730;    1,318
835,195;21572,128;    1,003;    0,955
835,758;20683,743;   -0,997;    1,955
836,321;20556,632;    0,730;   -1,045
836,884;20688,247;   -0,725;   -0,955
837,447;20673,499;   -2,816;    1,773
838,010;20967,660;    0,366;    3,227
838,573;21251,093;   -1,179;    0,773
839,135;21220,891;   -1,361;   -0,955
839,698;20668,415;    1,275;    0,409
840,261;20178,122;    1,003;   -0,227
840,823;19983,464;   -0,543;    0,864
841,386;20249,898;   -0,452;   -2,409
841,948;20116,604;   -1,361;    1,773
842,511;19870,765;    0,912;    1,682
843,073;20017,108;    1,912;    0,227
843,636;19813,087;   -0,361;   -0,227
844,198;19771,521;    0,911;    0,591
844,760;19923,591;    1,093;    1,955
845,322;19536,843;    0,548;    1,136
845,885;19980,367;    0,730;    0,591
846,447;20454,983;   -1,998;    0,227
847,009;20000,962;    1,911;   -0,682
847,571;20348,487;    0,820;   -2,045
848,133;20471,375;   -1,089;   -1,864
848,695;20263,627;   -0,543;    1,409
849,257;19785,969;   -1,089;   -1,682
849,819;19932,858;   -0,998;   -0,409
850,381;19982,564;   -0,725;   -0,864
850,942;20393,816;    1,093;   -0,591
851,504;20440,522;    1,184;    0,227
852,066;20400,410;    1,275;   -1,591
852,628;19861,935;   -0,180;    1,955
853,189;19417,732;    1,638;    2,682
853,751;19541,620;   -0,907;    1,409
854,312;19346,509;   -0,453;   -1,682
854,874;19848,124;   -2,089;   -0,773
855,435;20453,194;   -0,907;   -1,682
855,997;20596,173;   -1,816;   -0,136
856,558;19879,425;    0,366;    1,773
857,119;20016,950;    0,820;    2,864
857,681;19646,201;    0,002;    0,318
858,242;19720,453;    1,911;   -2,136
858,803;20156,251;    0,456;   -0,773
859,364;20697,412;    0,184;   -4,773
859,925;19981,391;   -2,453;   -0,955
860,486;19863,188;   -0,453;   -0,955
861,047;19582,713;   -0,544;   -1,227
861,608;19454,419;   -1,089;   -0,773
862,169;19502,671;    0,638;   -0,045
862,730;19302,468;    0,456;    1,409
863,291;19499,993;   -0,635;   -0,500
863,852;19887,608;   -0,635;    1,955
864,412;19357,678;   -0,271;   -0,864
864,973;17924,839;   -0,089;    0,500
865,534;17812,182;   -1,726;    0,227
866,094;19310,706;    1,820;    0,227
866,655;18953,958;    1,274;    3,318
867,215;19231,846;    0,274;    0,136
867,776;19055,371;    0,547;   -0,136
868,336;19204,714;   -1,453;    0,136
868,897;18661,693;    2,638;    1,682
869,457;18351,126;    1,365;    0,318
870,017;18569,651;    0,547;   -1,227
870,578;19080,085;   -0,817;    0,773
871,138;18807,882;   -2,089;   -0,955
871,698;18346,770;   -0,817;   -1,318
872,258;18242,295;   -0,453;   -2,864
872,818;18626,819;    2,729;    0,045
873,378;18537,344;    0,638;    1,045
873,938;18085,050;    0,547;    0,500
874,498;18434,393;    0,274;   -1,955
875,058;18335,281;    2,183;    1,773
875,618;18162,715;    1,910;   -2,682
876,177;18090,149;    1,274;    0,136
876,737;17697,673;   -0,090;    1,955
877,297;17732,380;    0,183;    1,955
877,856;17746,995;   -0,362;    0,318
878,416;17665,338;    1,183;   -0,136
878,976;17875,953;   -1,817;    0,409
879,535;18039,296;    0,092;    3,136
880,095;17805,093;   -0,544;    0,045
880,654;17922,891;   -1,090;    1,318
881,213;18026,688;    2,456;    1,500
881,773;17646,303;    2,637;    2,682
882,332;18061,010;    3,365;    5,136
882,891;17873,625;    3,092;    2,136
883,451;18354,968;   -1,272;    1,682
884,010;17769,129;   -2,908;   -0,409
884,569;17853,653;   -0,999;   -0,045
885,128;17980,996;    2,819;   -1,864
885,687;18152,612;    4,455;    0,682
886,246;17825,773;    1,455;    2,136
886,805;17595,297;    2,455;    2,045
887,364;17881,822;   -0,999;   -0,500
887,922;18244,983;   -1,181;    0,045
888,481;17717,507;   -1,545;    0,591
889,040;18010,486;    1,183;    2,136
889,599;18736,829;    2,455;    1,409
890,157;18812,899;    1,455;    2,409
890,716;18440,787;   -0,090;    0,227
891,274;18264,948;    0,092;   -1,136
891,833;18688,836;    1,546;    0,864
892,391;18583,725;   -0,454;    0,500
892,950;18651,431;    1,819;   -0,773
893,508;19034,865;    0,455;   -0,409
894,067;18350,844;    0,637;    0,136
894,625;18221,823;   -0,636;   -1,500
895,183;18479,893;   -0,363;   -0,682
895,741;18375,963;    1,728;   -1,773
896,299;18187,397;   -0,545;   -2,409
896,858;18334,558;    0,819;   -1,591
897,416;18468,537;    2,728;   -1,318
897,974;18224,698;    1,819;    0,318
898,532;18422,495;    6,091;    2,682
899,089;18281,019;    2,091;   -0,682
899,647;18312,362;   -1,454;    1,318
900,205;18042,978;    1,182;    1,045
900,763;18237,139;   -0,454;    0,227
901,321;18214,390;    2,364;   -1,409
901,878;17637,097;   -1,000;   -0,773
902,436;17472,440;   -1,363;    1,318
902,994;17892,510;    4,728;    3,682
903,551;17319,852;    0,728;    0,409
904,109;17689,922;    0,182;   -1,409
904,666;17247,447;    2,455;    1,045
905,224;17081,062;    0,182;   -0,409
905,781;16848,405;    0,727;   -0,318
906,338;16910,748;   -1,363;    1,045
906,895;16839,818;    0,637;    2,045
907,453;16780,070;    1,727;    1,136
908,010;16785,685;   -0,909;    0,409
908,567;16403,846;    1,273;    0,591
909,124;15892,825;    0,364;   -1,500
909,681;15993,713;   -2,909;    0,682
910,238;16142,056;    0,636;   -1,318
910,795;16433,490;   -0,273;   -1,136
911,352;16035,490;   -2,909;   -2,682
911,909;15440,944;   -1,364;   -0,864
912,466;15970,035;   -3,182;    1,500
913,022;15459,581;   -1,636;    0,500
913,579;15837,490;   -0,909;    2,045
914,136;15522,854;    1,636;    0,955
914,692;15851,672;    0,091;   -1,227
915,249;15477,490;    1,455;    0,409
915,806;15703,944;    0,182;    1,955
916,362;15448,490;    1,909;    1,864
916,918;14985,399;    2,000;    1,045
917,475;14995,944;   -1,182;    0,955
918,031;15012,308;    3,364;   -0,045
918,587;14438,854;   -0,909;   -0,318
919,144;14668,035;   -2,273;    0,227
919,700;15002,035;    1,727;    0,773
920,256;14565,581;    0,727;    0,045
920,812;14166,399;   -0,727;   -1,045
921,368;14134,217;   -1,727;   -1,045
921,924;13778,399;    0,182;   -0,136
922,480;13365,672;   -0,545;    1,227
923,036;14004,672;    1,273;    1,955
923,592;13925,490;    0,455;    0,318
924,148;13852,490;    0,455;   -0,955
924,704;13144,672;   -1,364;   -0,409
925,259;13359,944;   -0,273;    0,591
925,815;13148,308;    1,455;    0,500
926,371;12613,490;    2,909;    1,409
926,926;12507,035;    2,091;    0,591
927,482;12160,308;   -1,364;    0,773
928,037;12025,672;    0,909;    2,045
928,593;12291,399;    1,636;    1,045
929,148;12107,854;   -1,818;   -1,500
929,704;11610,763;   -1,455;   -0,500
930,259;11816,308;    0,091;   -0,136
930,814;10876,035;   -0,818;    1,955
931,369;10501,944;    1,091;   -0,773
931,925;10363,217;   -0,091;    0,136
932,480;10264,854;   -2,818;   -2,591
933,035;10132,581;    0,545;   -0,318
933,590; 9894,126;    0,364;   -1,773
934,145; 9492,944;   -1,364;   -0,318
934,700; 9840,035;    0,455;   -0,591
935,255; 9617,217;   -0,091;    0,045
935,809; 8850,399;    3,182;    0,864
936,364; 7962,308;   -0,455;   -0,136
936,919; 7925,854;    0,455;   -1,773
937,474; 7793,399;    1,455;    0,136
938,028; 7556,399;   -1,636;    1,136
938,583; 7002,490;    1,818;    4,682
939,138; 7241,944;    2,091;    2,136
939,692; 6652,126;    1,636;   -1,136
940,247; 6356,854;   -0,727;   -1,045
940,801; 5873,854;   -0,636;    0,227
941,355; 5767,944;   -0,364;    2,591
941,910; 5385,217;   -0,273;   -2,136
942,464; 5527,490;   -0,818;   -0,318
943,018; 5305,308;    1,000;   -0,227
943,572; 5237,308;    2,545;   -0,682
944,126; 4662,126;    0,091;   -0,409
944,681; 4528,308;    3,091;    0,227
945,235; 4514,035;    1,000;   -0,591
945,789; 4429,308;    0,364;   -1,864
946,342; 4532,581;    0,455;   -0,591
946,896; 4333,126;   -2,273;    0,955
947,450; 4071,126;    1,545;   -0,227
948,004; 4277,854;    1,727;   -0,045
948,558; 4286,126;    0,273;   -0,864
949,111; 4215,217;   -0,273;   -0,318
949,665; 4228,854;    1,636;   -0,682
950,219; 4097,763;   -0,091;   -1,045
950,772; 4177,217;   -1,909;    1,864
951,326; 4082,308;    0,545;   -0,955
951,879; 4212,854;    0,727;   -2,318
952,433; 4222,763;    0,000;    2,227
952,986; 4052,944;    2,909;    0,682
953,539; 4013,854;   -0,273;    0,591
954,093; 3926,581;    0,545;   -1,318
954,646; 4067,308;    0,909;    1,318
955,199; 3882,490;    0,000;   -0,500
955,752; 3746,763;   -0,455;    1,773
956,305; 3706,944;   -0,091;    2,955
956,858; 3894,035;    0,818;   -0,318
957,411; 4055,672;   -0,545;    2,136
957,964; 3893,672;    1,364;    2,136
958,517; 3868,126;   -1,545;    3,136
959,070; 3683,126;   -0,455;    1,955
959,623; 3773,308;    1,091;    1,500
960,176; 3531,763;    1,727;    2,045
960,728; 3519,854;   -2,727;    0,773
961,281; 3554,490;    0,545;    0,500
961,834; 3608,126;   -0,909;    0,864
962,386; 3515,490;    1,727;    1,045
962,939; 3454,854;    0,364;   -0,318
963,491; 3595,126;    0,455;    1,136
964,043; 3461,035;    1,182;    2,409
964,596; 3585,581;   -1,000;    2,227
965,148; 3430,581;   -1,000;    1,773
965,700; 3325,490;    1,091;   -0,227
966,253; 3474,126;   -0,636;    0,318
966,805; 3318,035;   -2,273;    0,773
967,357; 3372,126;    1,091;   -1,500
967,909; 3337,763;    0,455;   -1,227
968,461; 3470,126;    0,545;    3,136
969,013; 3380,763;   -0,182;   -0,864
969,565; 3459,126;   -0,455;   -1,136
970,117; 3492,399;   -0,364;    1,045
970,669; 3337,490;    0,182;   -0,136
971,220; 3220,399;   -0,455;   -1,500
971,772; 3130,308;   -0,636;   -0,318
972,324; 3231,490;    0,091;   -0,500
972,876; 3182,763;    0,818;   -0,045
973,427; 3337,399;    1,909;   -1,045
973,979; 3308,763;   -0,727;   -2,500
974,530; 3356,490;    1,818;    1,318
975,082; 3346,308;   -0,545;    1,682
975,633; 3239,763;    1,091;    1,682
976,184; 3390,490;    0,909;    0,773
976,736; 3153,944;    0,091;    0,227
977,287; 2939,854;   -0,909;   -0,500
977,838; 3144,308;    0,909;   -0,318
978,389; 3200,126;   -1,000;   -0,500
978,940; 3067,399;    0,545;   -0,409
979,491; 3092,854;    0,091;   -0,500
980,042; 3063,672;    0,182;    3,045
980,593; 3122,399;   -2,545;    0,227
981,144; 3163,854;    2,545;   -0,500
981,695; 3116,672;    1,455;    1,500
982,246; 3074,126;   -0,273;    1,045
982,797; 3239,854;   -1,727;    0,682
983,347; 3363,944;    0,364;    0,591
983,898; 3526,763;    3,091;    0,409
984,449; 3337,217;    2,182;    0,773
984,999; 3256,308;    1,455;   -1,136
985,550; 3013,217;    0,182;   -0,318
986,100; 3035,399;   -0,455;   -0,318
986,651; 3079,854;   -0,818;    0,045
987,201; 3043,308;   -1,000;   -0,591
987,751; 3151,944;    0,818;    2,864
988,302; 3134,763;    2,636;    1,500
988,852; 3165,217;    0,455;   -1,136
989,402; 3193,490;    0,091;    0,682
989,952; 3109,399;   -2,182;    0,864
990,502; 3208,763;   -0,091;    0,682
991,052; 3197,854;   -0,727;    0,045
991,602; 3039,490;   -2,909;    1,318
992,152; 3019,399;    0,455;    0,682
992,702; 3016,944;    1,364;   -0,045
993,252; 2939,854;   -3,000;   -0,500
993,802; 3042,763;   -0,273;    1,318
994,352; 3272,490;   -1,545;    1,136
994,901; 3357,672;   -0,182;    3,227
995,451; 3273,763;   -0,182;    0,318
996,000; 3371,217;    1,636;    0,318
996,550; 3088,581;    2,273;    0,227
997,100; 3060,399;    1,273;   -0,045
997,649; 3354,217;    2,182;    0,955
998,198; 2961,490;    1,727;   -1,500
998,748; 3183,854;    1,091;   -2,318
999,297; 3079,581;   -0,818;   -0,409
999,846; 3140,672;    1,000;   -0,773
1000,395; 3204,490;   -0,818;    0,500
1000,945; 3146,854;    1,818;   -0,773
1001,494; 3251,308;    2,364;    0,682
1002,043; 3230,944;    4,636;    0,864
1002,592; 3061,399;   -1,091;    1,955
1003,141; 3218,490;   -0,455;   -0,682
1003,690; 3083,035;    1,727;    0,500
1004,238; 3180,490;    1,455;   -0,045
1004,787; 2807,854;    1,364;    1,227
1005,336; 3025,581;    0,364;    0,682
1005,885; 3168,944;    1,364;   -2,773
1006,433; 3315,672;    0,545;    0,955
1006,982; 3374,490;    0,455;    1,682
1007,531; 3289,581;   -1,818;   -0,227
1008,079; 3223,217;   -2,273;    0,500
1008,627; 3375,126;   -1,455;    0,409
1009,176; 3112,035;    0,000;   -1,955
1009,724; 3145,399;    1,091;    0,864
1010,273; 3206,035;    1,273;    0,500
1010,821; 3304,035;    0,091;    1,409
1011,369; 3044,944;   -1,364;    1,318
1011,917; 3021,490;   -1,364;   -0,591
1012,465; 3301,217;    1,273;   -1,591
1013,013; 3439,672;    2,091;   -1,682
1013,561; 3313,308;    0,455;   -0,773
1014,109; 3343,581;   -1,909;    1,682
1014,657; 3207,672;    0,364;    0,591
1015,205; 3332,126;    1,636;   -0,955
1015,753; 3395,217;   -0,545;   -1,409
1016,301; 3436,944;   -2,636;    3,045
1016,848; 3439,126;   -1,273;    0,409
1017,396; 3492,672;    2,545;    0,045
1017,944; 3623,217;    1,182;    1,864
1018,491; 3362,217;    0,273;    1,409
1019,039; 3501,581;    0,455;    0,591
1019,586; 3422,217;   -1,364;    1,682
1020,134; 3503,035;    0,455;    1,500
1020,681; 3530,672;    0,182;   -1,136
1021,228; 3549,763;    2,909;   -2,227
1021,776; 3375,308;    1,182;   -1,136
1022,323; 3583,308;    0,455;    0,773
1022,870; 3522,217;   -1,000;   -0,045
1023,417; 3401,126;    2,636;    1,864
1023,964; 3555,490;    2,636;    1,227
1024,511; 3382,944;    1,000;    0,773
1025,058; 3184,035;    3,182;   -0,045
1025,605; 3252,217;   -2,273;    3,136
1026,152; 3478,126;    1,727;   -0,591
1026,699; 3169,490;    1,818;    1,318
1027,245; 3353,763;   -0,091;    0,318
1027,792; 3573,217;   -1,000;    1,409
1028,339; 3439,490;    2,364;   -0,045
1028,885; 3291,854;    1,000;   -0,227
1029,432; 3231,944;   -0,091;    0,227
1029,978; 3284,308;   -1,000;   -1,591
1030,525; 3179,217;    1,000;    0,409
1031,071; 3427,854;   -1,364;    1,136
1031,618; 3525,399;    0,364;    1,682
1032,164; 3304,944;   -0,091;    3,045
1032,710; 3360,763;    1,636;   -1,500
1033,256; 3276,490;   -0,636;   -0,136
1033,803; 3283,308;   -0,545;    1,500
1034,349; 2955,399;   -1,364;    0,136
1034,895; 3108,581;    0,000;   -0,318
1035,441; 3108,126;   -0,818;    0,318
1035,987; 3096,035;   -2,364;   -0,682
1036,533; 3083,217;   -1,455;   -0,955
1037,078; 3294,581;    1,455;    1,682
1037,624; 3093,944;    2,455;   -0,955
1038,170; 3135,854;    0,455;   -0,318
1038,716; 3044,126;    1,636;   -0,409
1039,261; 2952,399;   -2,273;   -0,773
1039,807; 2901,581;   -0,091;    3,409
1040,352; 2958,672;   -1,909;   -0,318
1040,898; 2995,854;   -1,545;   -0,682
1041,443; 2903,672;   -1,455;   -2,591
1041,989; 2928,581;    1,091;    1,591
1042,534; 2813,944;   -0,364;    2,591
1043,079; 2926,763;    2,909;    0,955
1043,625; 2717,581;    1,818;    0,500
1044,170; 2759,399;   -1,364;    1,045
1044,715; 3027,399;    2,455;    0,955
1045,260; 2832,581;    2,182;   -0,955
1045,805; 2885,854;    1,182;   -0,591
1046,350; 2810,035;    1,364;   -0,409
1046,895; 2761,490;    2,909;    1,591
1047,440; 2729,490;    5,364;    0,409
1047,985; 2613,672;    2,818;   -0,955
1048,530; 2543,763;    1,545;    1,227
1049,074; 2599,672;    0,000;    0,318
1049,619; 2568,944;   -1,364;    1,955
1050,164; 2360,854;    0,455;    0,227
1050,708; 2404,490;   -0,455;    0,045
1051,253; 2780,490;    1,273;   -2,227
1051,797; 2460,672;    0,818;   -1,318
1052,342; 2485,944;   -1,182;    1,045
1052,886; 2515,672;    0,364;   -1,409
1053,430; 2366,763;   -1,364;    0,136
1053,975; 2375,581;   -0,818;   -0,318
1054,519; 2366,399;   -0,727;    3,227
1055,063; 2371,944;    0,909;    1,318
1055,607; 2263,581;   -0,182;    0,227
1056,151; 2273,944;    2,909;    1,682
1056,695; 2198,217;    2,273;   -1,136
1057,239; 2266,490;   -1,727;   -0,682
1057,783; 2269,672;    0,818;   -1,500
1058,327; 2215,854;    0,000;    1,409
1058,871; 2452,035;   -0,545;    1,318
1059,415; 2148,490;   -0,818;   -0,045
1059,958; 2416,126;    1,455;    2,591
1060,502; 2127,308;   -1,000;   -0,773
1061,046; 2027,490;    0,364;   -0,955
1061,589; 2019,035;   -3,000;   -1,136
1062,133; 1898,581;   -1,273;    1,864
1062,676; 1833,672;    1,182;    0,864
1063,220; 1826,763;    1,091;    0,500
1063,763; 1863,490;    0,909;    1,136
1064,306; 1961,854;   -0,909;    1,864
1064,849; 1828,126;   -0,909;    0,591
1065,393; 1831,944;    2,000;   -1,500
1065,936; 1937,308;    0,182;   -0,409
1066,479; 1825,854;   -1,455;    1,318
1067,022; 1844,399;   -0,273;   -0,227
1067,565; 1735,126;   -0,091;   -1,318
1068,108; 1754,944;    0,727;   -0,591
1068,651; 1728,944;   -0,636;    1,409
1069,194; 1680,399;   -0,455;   -1,682
1069,736; 1681,399;   -1,273;    0,955
1070,279; 1639,035;   -1,364;   -0,500
1070,822; 1698,854;   -2,000;   -0,318
1071,364; 1797,763;   -0,364;    1,318
1071,907; 1600,490;   -0,727;    3,227
1072,450; 1513,944;    0,000;   -0,045
1072,992; 1498,854;   -0,273;    3,136
1073,535; 1638,763;    2,091;    2,136
1074,077; 1427,035;   -0,727;    2,045
1074,619; 1403,672;   -1,364;    0,591
1075,161; 1425,854;   -1,091;    1,500
1075,704; 1618,126;    1,545;    1,227
1076,246; 1418,672;   -0,182;    0,682
1076,788; 1324,490;   -0,364;    1,773
1077,330; 1395,035;    1,273;    2,136
1077,872; 1381,126;    0,909;    0,955
1078,414; 1616,944;    2,727;    0,773
1078,956; 1326,581;    1,273;   -0,227
1079,498; 1603,490;    1,636;    0,318
1080,040; 1301,672;    1,909;   -1,318
1080,581; 1249,672;    1,636;   -0,318
1081,123; 1154,490;    0,091;   -0,773
1081,665; 1212,854;   -1,182;   -0,955
1082,206; 1526,944;    1,364;   -0,500
1082,748; 1377,126;    0,727;    2,045
1083,289; 1261,308;   -2,000;    1,318
1083,831; 1158,763;   -0,545;    0,227
1084,372; 1189,944;    0,000;    0,591
1084,913; 1194,126;    1,091;    0,864
1085,455; 1162,490;   -1,909;   -2,045
1085,996; 1127,944;   -2,273;    0,136
1086,537; 1157,854;   -0,091;    0,864
1087,078; 1188,126;   -0,909;   -2,136
1087,619; 1231,035;   -1,273;    0,227
1088,160; 1136,763;    0,000;    1,318
1088,701; 1130,126;   -1,091;    0,682
1089,242; 1057,854;    1,364;   -2,227
1089,783; 1172,217;   -0,273;    1,409
1090,324; 1136,399;    0,455;    0,682
1090,865; 1005,672;    2,727;   -0,409
1091,405;  970,944;    0,727;    2,227
1091,946;  999,126;    0,182;   -0,955
1092,487;  917,944;    0,818;   -1,409
1093,027; 1091,490;   -1,364;   -1,500
1093,568;  949,854;   -0,364;    1,227
1094,108; 1063,672;    0,273;    1,773
1094,649;  990,399;   -1,182;    0,136
1095,189;  920,490;   -0,636;   -0,682
1095,729;  877,126;   -0,091;    0,955
1096,269;  868,854;    0,727;   -0,955
1096,810; 1206,763;   -1,364;    0,500
1097,350; 1032,854;    1,364;   -0,773
1097,890;  919,763;    0,364;    1,227
1098,430; 1185,854;    2,364;    2,864
1098,970; 1056,035;    2,182;    1,682
1099,510;  911,035;    0,545;   -2,318
1100,050;  834,672;    1,000;   -1,591
1100,589;  794,581;   -0,727;   -0,318
1101,129;  924,944;    0,818;   -0,955
1101,669; 1080,763;    1,727;    2,136
1102,209;  899,944;   -0,091;    2,227
1102,748;  869,854;    0,000;    0,955
1103,288;  860,490;    1,273;   -1,227
1103,827;  876,581;    3,091;   -2,227
1104,367;  748,490;   -0,091;   -2,409
1104,906;  708,217;    1,364;   -1,136
1105,445;  786,854;    0,636;   -1,136
1105,985;  737,763;   -0,727;    1,500
1106,524;  785,399;   -1,727;   -0,682
1107,063;  747,035;   -2,727;    1,409
1107,602;  727,944;   -1,909;   -1,500
1108,141;  642,672;   -1,909;    1,500
1108,680;  763,308;   -3,455;   -0,591
1109,219;  690,490;   -0,909;   -0,500
1109,758;  676,672;    0,455;    0,682
1110,297;  656,308;    1,000;   -0,682
1110,836;  597,126;   -0,727;    0,955
1111,375;  777,854;   -2,545;    0,409
1111,913;  788,035;   -1,000;    0,773
1112,452;  719,399;   -0,273;    0,136
1112,991;  598,308;    1,091;    1,955
1113,529;  558,854;   -0,818;   -0,045
1114,068;  630,308;   -0,273;    2,955
1114,606;  529,763;   -0,364;   -0,955
1115,144;  708,490;   -1,273;    1,045
1115,683;  644,035;   -0,727;    0,318
1116,221;  681,126;   -0,455;   -0,864
1116,759;  574,035;    0,636;   -0,864
1117,297;  788,854;    0,000;    1,864
1117,836;  591,944;   -2,182;   -1,227
1118,374;  602,672;    0,182;   -0,682
1118,912;  537,944;    0,909;    2,682
1119,450;  530,035;    1,000;    0,864
1119,988;  586,763;    1,545;    2,136
1120,525; 1047,581;    5,091;    3,318
1121,063;  747,490;    1,182;    1,864
1121,601;  547,944;   -0,909;   -1,227
1122,139;  492,854;   -0,727;   -2,045
1122,676;  707,854;   -0,727;    2,773
1123,214;  633,399;   -1,182;    4,409
1123,751;  435,035;    1,727;    2,227
1124,289;  579,035;   -0,091;   -0,409
1124,826;  435,035;    1,727;    0,227
1125,364;  355,672;    1,727;   -0,955
1125,901;  555,035;    1,182;    1,227
1126,438;  679,035;    0,818;    0,955
1126,975;  387,308;   -0,727;   -0,773
1127,513;  462,763;    0,273;    2,136
1128,050;  366,126;    1,636;   -0,682
1128,587;  463,035;    2,000;   -0,227
1129,124;  507,217;    0,091;    1,318
1129,661;  369,399;    0,273;    0,227
1130,198;  547,126;    1,636;    0,773
1130,734;  488,308;    0,182;    1,409
1131,271;  334,308;   -0,909;    0,864
1131,808;  519,217;    2,909;    3,045
1132,345;  381,126;    1,545;    0,318
1132,881;  244,944;   -1,545;   -1,864
1133,418;  399,399;    0,727;   -1,136
1133,954;  333,308;    2,455;   -2,682
1134,491;  418,308;    1,364;   -0,773
1135,027;  304,308;    2,364;    0,864
1135,564;  412,217;    0,273;    2,955
1136,100;  382,581;    0,364;    2,136
1136,636;  266,490;   -1,273;   -1,045
1137,172;  374,854;    0,000;   -1,045
1137,708;  296,944;   -1,364;   -1,045
1138,245;  287,763;    1,273;   -1,227
1138,781;  232,854;    1,091;   -3,318
1139,317;  309,581;    1,273;   -1,409
1139,852;  302,763;    3,091;    0,136
1140,388;  424,399;   -1,182;   -0,409
1140,924;  307,308;   -1,091;   -2,227
1141,460;  241,854;   -1,636;    0,136
1141,996;  168,490;   -1,364;    2,682
1142,531;  227,490;    1,364;    3,318
1143,067;  446,217;    1,182;    1,045
1143,602;  515,308;   -0,091;   -0,318
1144,138;  353,672;   -2,636;    1,045
1144,673;  208,399;   -1,455;    1,409
1145,209;  278,490;   -1,909;   -0,318
1145,744;  193,581;   -0,727;    0,864
1146,279;  336,308;    1,818;   -0,136
1146,815;  240,854;    1,545;   -2,682
1147,350;  287,490;   -1,364;    0,045
1147,885;  196,763;   -0,818;   -1,318
1148,420;  191,854;   -2,273;    0,773
1148,955;  172,217;   -1,727;    1,864
1149,490;  201,217;   -0,909;   -1,591
1150,025;  185,217;    0,455;   -1,773
1150,560;  307,672;    1,091;   -0,955
1151,094;  268,399;    1,455;   -0,591
1151,629;  279,672;    1,636;    0,864
1152,164;  193,490;    1,364;    1,318
1152,698;  145,854;   -0,182;   -0,136
1153,233;  107,854;    0,091;   -0,682
1153,767;  159,217;   -3,000;   -2,318
1154,302;  211,944;   -1,455;    1,773
1154,836;  213,581;   -0,455;   -2,136
1155,371;  273,672;   -1,364;    3,682
1155,905;  225,126;   -0,636;    1,682
1156,439;  186,672;   -0,636;   -0,500
1156,973;  219,126;    0,364;    0,318
1157,507;  145,854;   -0,364;    0,682
1158,042;  179,490;   -0,727;    1,045
1158,576;  237,854;    0,182;    1,773
1159,110;  220,672;   -0,818;    2,409
1159,643;  197,308;    0,636;   -0,045
1160,177;  125,763;   -1,545;    1,500

