
Integration time [ms]:   0,040
Averaging Nr. [scans]: 11
Smoothing Nr. [pixels]: 0
Data measured with spectrometer [name]: 7318044SP
Wave   ;Sample   ;Dark     ;Reference
[nm]   ;[counts] ;[counts] ;[counts] 

186,757;   18,463;   31,551;    1,318
187,357;   60,030;   22,551;    0,955
187,958;   35,857;   15,460;   -1,591
188,558;   72,170;    8,915;   -1,227
189,159;   49,608;    6,733;   -4,500
189,759;   14,745;    7,278;   -3,591
190,360;   12,530;    2,824;   -2,136
190,960;   52,964;    2,915;   -4,136
191,560;   72,508;    3,189;   -6,591
192,161;  331,115;    4,372;   -3,500
192,761;  161,724;    4,010;   -3,227
193,361;  106,285;    1,556;   -3,773
193,962;  149,389;    2,010;   -2,682
194,562;   63,944;    1,189;   -3,955
195,162;   97,649;   -2,448;   -2,227
195,762;  260,215;   -3,176;   -0,045
196,362;  199,523;    1,370;   -2,500
196,963;   67,282;    2,006;   -0,864
197,563;  138,089;    1,551;   -0,955
198,163;   86,584;    0,096;   -0,682
198,763;  105,438;    1,733;   -0,500
199,363;  206,436;    3,096;   -0,500
199,963;  162,592;    0,369;    0,409
200,563;  135,036;    2,823;   -1,409
201,163;  109,511;    3,277;   -0,227
201,763;  206,095;    3,732;    0,318
202,363;  140,429;    1,459;    1,500
202,963;  238,211;    1,459;    1,045
203,563;  343,765;    0,277;    0,500
204,162;  193,171;    2,096;   -1,864
204,762;  187,261;    0,550;    0,591
205,362;  153,957;    3,004;    1,955
205,962;  249,319;    3,096;    1,955
206,562;  246,350;    1,823;    2,318
207,161;  202,980;   -0,087;    0,318
207,761;  366,566;    1,277;    2,409
208,361;  242,464;   -0,268;    1,409
208,960;  341,819;    0,459;    1,500
209,560;  400,656;    1,277;    1,591
210,160;  384,781;    0,550;    1,864
210,759;  343,982;    4,186;    1,227
211,359;  355,633;    1,459;    1,045
211,958;  626,540;    1,277;    2,045
212,558;  697,477;    1,732;    1,864
213,157;  530,523;    1,822;    1,500
213,757;  968,605;    3,822;   -0,227
214,356;  664,743;    1,277;   -0,409
214,956;  990,039;    3,095;    0,409
215,555;  615,204;    2,095;    2,136
216,154;  549,601;   -2,723;   -0,591
216,754;  549,307;    0,277;    0,773
217,353;  678,870;   -0,268;   -1,045
217,952;  531,937;   -0,178;    0,318
218,552;  768,675;    1,368;   -0,773
219,151;  640,563;    0,277;    0,955
219,750;  646,467;    0,004;   -0,227
220,349;  709,421;   -0,451;    1,045
220,948;  825,387;   -1,360;    1,136
221,548;  790,520;    0,913;    1,227
222,147;  896,229;   -0,087;   -0,409
222,746; 1186,264;   -0,451;   -0,955
223,345; 1027,226;    0,731;    0,500
223,944; 1022,992;   -0,451;    0,773
224,543; 1158,491;    1,004;   -1,409
225,142; 1272,404;    0,094;    0,136
225,741; 1139,850;   -0,814;    1,045
226,340; 1145,664;   -0,451;   -0,955
226,939; 1536,389;   -0,996;   -0,136
227,538; 1387,034;   -0,360;   -0,773
228,137; 1563,998;   -0,814;    0,864
228,735; 1603,352;   -0,541;    1,227
229,334; 1361,421;   -0,905;   -0,227
229,933; 1721,692;    0,459;    0,591
230,532; 1826,292;    1,186;   -0,409
231,131; 1879,605;    1,732;    0,318
231,729; 1879,821;   -2,450;   -2,318
232,328; 1878,392;   -0,723;   -1,500
232,927; 1886,054;    1,004;   -0,500
233,525; 1948,622;    3,640;    0,045
234,124; 2110,077;    2,368;   -1,591
234,723; 2061,252;    0,913;   -1,045
235,321; 2150,660;    2,277;    0,136
235,920; 2324,104;    1,186;   -1,227
236,518; 2547,876;    3,459;    0,318
237,117; 2598,952;    0,004;   -0,227
237,715; 2726,216;    0,640;   -0,500
238,314; 2799,870;   -0,087;   -2,318
238,912; 2953,813;   -0,723;   -1,409
239,510; 2932,043;    0,459;   -1,227
240,109; 3104,912;    0,004;    3,773
240,707; 3126,022;   -0,996;    1,227
241,305; 3385,130;    0,550;    0,136
241,904; 3601,221;   -0,178;   -2,045
242,502; 3648,980;   -0,632;   -0,227
243,100; 3586,377;   -0,087;   -0,955
243,698; 3823,278;    0,732;    1,682
244,297; 4013,341;   -0,632;    0,682
244,895; 3924,366;   -0,269;   -2,318
245,493; 4254,529;    2,186;   -0,591
246,091; 4278,726;    1,368;   -1,318
246,689; 4294,624;    1,004;    0,591
247,287; 4453,216;    0,822;   -1,136
247,885; 4753,427;   -1,451;    1,227
248,483; 4894,444;    1,822;   -0,500
249,081; 5015,685;    0,185;    1,591
249,679; 5216,677;   -0,178;    1,682
250,277; 5457,717;   -1,723;    0,864
250,875; 5469,933;   -1,087;   -1,045
251,473; 5513,542;   -1,178;    0,500
252,071; 5737,263;    1,459;    1,045
252,669; 5882,265;   -1,814;    0,318
253,267; 6132,624;   -0,087;    0,773
253,864; 6095,398;   -0,360;    0,682
254,462; 6045,396;    1,640;    1,591
255,060; 5985,252;   -0,269;    1,318
255,658; 6295,992;    0,822;   -0,136
256,255; 6736,024;    0,186;   -2,045
256,853; 6621,700;   -0,269;    1,409
257,451; 6611,780;    0,822;    1,864
258,048; 6938,000;    1,822;    1,864
258,646; 6687,658;    1,731;   -1,045
259,243; 6874,245;   -0,087;    2,227
259,841; 6968,332;   -0,814;    0,318
260,438; 6854,313;   -0,087;    0,864
261,036; 7514,567;   -1,905;    1,409
261,633; 7421,558;   -0,087;    2,227
262,231; 7201,539;    2,731;   -0,045
262,828; 7299,130;   -0,905;    1,136
263,425; 7382,343;    0,913;   -0,591
264,023; 7672,888;    0,186;    0,045
264,620; 7234,728;   -0,360;   -0,318
265,217; 7601,639;   -2,087;    3,136
265,815; 7675,482;   -1,905;    2,136
266,412; 7501,660;    0,731;    0,136
267,009; 7563,315;   -1,451;    0,773
267,606; 7502,567;    0,822;   -0,955
268,203; 7488,734;   -0,269;   -0,591
268,801; 7761,561;    1,731;    0,591
269,398; 8027,856;   -0,360;    2,500
269,995; 8045,221;    0,277;    1,591
270,592; 7810,273;   -0,632;   -0,500
271,189; 7973,436;    0,186;    0,409
271,786; 8093,660;   -0,632;    1,227
272,383; 7969,679;   -1,087;    0,227
272,980; 8148,757;    0,277;    0,318
273,577; 8595,238;    0,004;    1,227
274,174; 8177,041;    0,822;    2,591
274,771; 8146,355;   -0,814;   -0,773
275,367; 8343,227;    2,277;    1,409
275,964; 8322,876;    0,731;   -0,500
276,561; 8408,478;    1,549;   -1,045
277,158; 8613,858;    0,095;   -1,773
277,755; 8793,594;    2,185;    0,409
278,351; 8213,284;   -0,451;   -1,500
278,948; 8563,277;   -0,815;    0,045
279,545; 8570,639;   -1,360;    2,318
280,141; 9211,011;   -1,723;   -2,045
280,738; 9109,062;   -0,451;   -0,136
281,334; 9360,220;   -1,633;    0,591
281,931; 8814,444;   -0,087;   -1,318
282,528; 8949,607;    0,822;   -0,500
283,124; 9658,032;   -1,087;   -0,500
283,721; 9589,220;   -0,451;    1,409
284,317; 9403,976;    0,185;    2,500
284,913;10029,025;   -1,360;    0,591
285,510;10248,934;    0,640;   -0,318
286,106;10305,581;   -2,269;   -0,955
286,703; 9940,575;   -0,360;    1,955
287,299;10156,696;   -1,451;   -0,591
287,895;10375,670;    0,822;   -1,045
288,491;10970,493;    0,186;    2,136
289,088;10778,190;   -2,360;    2,409
289,684;10905,901;   -1,723;    1,500
290,280;10928,797;    0,368;    0,682
290,876;11060,683;    1,822;    5,500
291,472;11013,710;    1,276;    2,227
292,068;11150,602;    1,367;    0,227
292,665;10856,514;    2,095;    0,773
293,261;10513,911;    0,276;    2,136
293,857;10959,867;    2,913;    2,136
294,453;10923,318;    3,550;    0,955
295,049;10832,441;   -0,268;    1,955
295,644;10876,794;    0,095;    0,136
296,240;10817,944;   -0,905;   -0,136
296,836;10875,803;   -0,995;    0,318
297,432;11224,283;    1,096;   -0,500
298,028;11289,532;    0,732;    0,773
298,624;11702,016;    1,459;    1,864
299,220;11979,615;    2,368;    0,591
299,815;11651,718;    1,005;   -0,409
300,411;11448,350;    0,914;    1,773
301,007;11499,591;    1,368;    0,227
301,602;11552,790;   -0,541;   -2,318
302,198;11750,304;    0,732;   -0,773
302,794;12102,276;    1,187;   -0,500
303,389;12205,763;   -1,177;    1,045
303,985;12299,215;    0,550;    1,409
304,580;12307,538;    1,459;    1,591
305,176;12268,316;   -3,086;    0,136
305,771;12177,081;   -1,268;   -1,227
306,367;12091,667;    4,095;    0,136
306,962;12414,335;    0,641;    1,500
307,558;12141,450;   -0,450;    0,136
308,153;12070,963;    1,095;   -1,136
308,748;12311,048;   -0,814;    1,682
309,344;12295,155;   -0,632;   -1,318
309,939;12407,367;   -1,905;   -1,318
310,534;12651,988;   -0,086;   -1,682
311,130;12562,308;    0,459;   -2,500
311,725;12281,938;    1,004;   -0,500
312,320;12608,323;    2,459;    0,045
312,915;12467,090;    1,459;   -1,045
313,510;12518,982;    1,550;   -0,500
314,105;12992,725;    1,096;    1,409
314,700;12398,445;   -3,086;   -1,045
315,295;12002,175;   -0,904;    0,045
315,890;11531,496;    1,277;    0,864
316,485;11910,868;   -0,359;   -0,318
317,080;11967,175;   -3,086;    1,591
317,675;12530,879;    2,005;   -0,682
318,270;11927,448;    5,550;    3,318
318,865;11913,164;    3,278;    3,045
319,460;11738,938;   -0,904;    0,591
320,055;11968,127;   -0,541;   -1,227
320,650;11634,858;   -1,995;   -0,591
321,244;11697,088;   -0,177;   -1,409
321,839;12654,568;   -1,541;   -0,227
322,434;12542,686;   -1,086;   -1,591
323,029;12188,898;    1,732;    1,591
323,623;12038,593;    1,550;    0,773
324,218;11809,279;    2,368;    1,409
324,812;11699,378;    1,096;    1,591
325,407;11539,211;   -0,814;    2,045
326,002;11482,107;    0,277;   -0,409
326,596;11785,232;    0,914;    1,318
327,191;11990,963;    0,823;   -1,045
327,785;11576,323;   -0,813;   -0,227
328,379;11816,270;    1,368;    0,136
328,974;11643,122;    0,914;   -3,955
329,568;11868,604;    0,186;   -2,409
330,163;11752,407;    2,096;    1,045
330,757;12109,593;    2,459;    1,591
331,351;11398,783;    0,459;    0,682
331,945;11765,538;    0,914;    1,409
332,540;11384,249;   -1,723;   -0,591
333,134;11575,035;   -1,086;    0,773
333,728;11857,942;    0,005;    0,318
334,322;12177,555;   -1,177;   -0,864
334,916;11474,935;    0,277;    0,955
335,510;11849,342;   -0,450;   -0,136
336,105;12122,418;   -1,086;    1,591
336,699;11857,735;   -1,086;    0,591
337,293;11812,426;   -1,723;    0,318
337,887;11990,266;   -2,723;    1,955
338,481;12112,181;    0,459;    0,591
339,074;12271,925;   -0,359;    2,682
339,668;12145,020;   -1,632;    1,227
340,262;12441,261;    1,732;    3,227
340,856;11922,371;    1,822;   -0,682
341,450;11262,068;    1,004;    1,864
342,044;12199,335;    1,459;    0,136
342,637;11988,276;    0,913;   -2,136
343,231;11873,121;   -2,360;    0,682
343,825;11836,361;   -1,086;   -0,591
344,419;11780,602;   -1,995;    0,500
345,012;11594,177;    2,459;    4,045
345,606;11603,807;    4,641;    1,591
346,199;11427,885;   -1,813;   -0,227
346,793;10955,617;    1,914;    2,045
347,386;11166,152;   -0,813;   -1,136
347,980;11168,615;   -0,268;   -0,045
348,573;10956,321;    2,278;    0,409
349,167;10646,279;    5,278;    4,773
349,760;10951,152;    2,914;    2,682
350,354;10932,054;   -0,813;    1,136
350,947;10720,400;    1,096;    1,682
351,540;10357,322;   -0,358;   -1,409
352,134;10278,277;    1,096;    1,136
352,727;10377,017;   -0,086;    1,136
353,320;10150,273;    0,005;    0,591
353,913;10009,916;   -1,995;    1,864
354,507;10204,696;    0,823;   -1,227
355,100;10178,723;    0,460;    0,864
355,693; 9403,332;    2,005;    2,409
356,286; 9462,267;    0,823;    2,773
356,879; 9798,901;   -0,722;    1,227
357,472; 9390,875;   -0,904;    1,500
358,065; 9602,218;   -0,722;    2,500
358,658; 9503,981;   -0,540;    2,318
359,251; 9139,184;   -1,631;   -0,591
359,844; 8604,914;   -1,904;   -1,136
360,437; 8801,529;   -2,995;    0,045
361,030; 9036,514;    1,369;   -0,682
361,623; 8601,444;    2,824;    0,318
362,215; 8646,584;   -0,086;    2,045
362,808; 8477,375;   -2,358;   -1,682
363,401; 8664,235;   -2,449;    0,136
363,994; 8391,561;   -0,631;   -1,500
364,586; 8293,198;    0,824;   -1,500
365,179; 8523,860;   -0,449;   -1,136
365,772; 7989,271;   -1,995;    2,045
366,364; 8312,635;    1,915;   -3,227
366,957; 8512,422;    2,279;   -0,045
367,549; 8513,148;    2,188;   -0,864
368,142; 8163,429;    1,825;   -1,500
368,734; 8355,935;    0,734;   -2,136
369,327; 8284,825;    1,643;   -0,500
369,919; 8197,898;   -1,538;    0,409
370,512; 7970,697;   -1,083;   -0,500
371,104; 7750,119;   -0,901;    1,591
371,696; 7933,712;    1,191;   -0,955
372,289; 8017,559;    0,373;    1,136
372,881; 8164,059;   -2,080;    1,318
373,473; 8087,168;   -2,170;    1,136
374,066; 7910,149;   -0,169;    0,500
374,658; 7749,105;    0,378;    1,136
375,250; 8091,905;    0,653;   -1,409
375,842; 7951,034;    0,473;   -0,045
376,434; 7826,861;   -0,435;   -0,409
377,026; 8409,507;    0,204;   -2,500
377,618; 8279,667;   -0,158;   -0,682
378,210; 8115,678;   -0,338;   -1,955
378,802; 7989,147;    0,754;   -0,591
379,394; 7960,252;    1,846;    0,682
379,986; 8543,638;    1,393;   -0,955
380,578; 8662,581;   -0,153;    0,773
381,170; 7986,821;   -0,972;    0,045
381,762; 7931,365;    0,755;    1,409
382,354; 8146,560;   -0,065;   -1,318
382,945; 8263,001;   -2,976;    0,318
383,537; 8351,711;   -2,705;   -1,955
384,129; 8379,967;   -2,160;   -1,136
384,721; 8576,626;   -0,252;    0,955
385,312; 8514,526;   -0,161;   -0,955
385,904; 8616,721;   -2,706;    1,591
386,496; 7979,271;   -0,979;    1,045
387,087; 8108,718;    1,022;    2,500
387,679; 8150,957;   -1,160;    0,045
388,270; 8280,806;    2,840;    2,045
388,862; 8411,736;    1,295;   -0,318
389,453; 8304,630;   -0,887;    1,045
390,045; 8574,869;   -0,705;   -2,682
390,636; 8512,823;    0,204;   -0,591
391,227; 8360,273;   -0,523;   -0,045
391,819; 8460,543;    0,204;    0,773
392,410; 8516,035;    1,022;    0,045
393,001; 8474,910;   -0,979;   -1,591
393,593; 8772,647;    1,930;   -0,045
394,184; 8618,476;    1,385;   -0,409
394,775; 8553,612;    1,839;    2,136
395,366; 8763,561;    1,385;    0,773
395,957; 8762,363;    0,113;    0,136
396,548; 9090,819;   -0,342;    2,682
397,139; 9409,761;   -2,433;    0,591
397,730; 9120,597;   -1,888;    0,955
398,321; 9167,760;   -1,252;    0,955
398,912; 9243,696;   -0,615;    0,136
399,503; 9282,800;   -3,524;   -1,409
400,094; 8666,821;    0,294;    1,682
400,685; 8556,842;   -0,433;    0,045
401,276; 8615,394;    0,930;   -0,955
401,867; 8928,595;   -0,888;    0,773
402,458; 9023,703;   -2,251;   -2,318
403,048; 9033,941;    1,112;    0,591
403,639; 8602,160;    0,840;    0,864
404,230; 8803,451;    2,476;    0,318
404,821; 8760,436;   -0,615;    0,045
405,411; 8932,933;    1,203;   -2,591
406,002; 8511,269;   -1,252;   -1,136
406,592; 8343,806;    2,294;    0,045
407,183; 8614,279;    0,566;   -1,500
407,774; 8535,653;    3,475;   -0,136
408,364; 8858,070;    0,930;    0,409
408,954; 8439,607;    0,384;    1,227
409,545; 8460,666;    1,021;    1,045
410,135; 7983,416;    1,293;    0,500
410,726; 8133,523;    1,838;    0,318
411,316; 8528,110;    0,111;    0,773
411,906; 8159,103;   -0,253;   -0,409
412,497; 7604,201;   -1,070;   -0,045
413,087; 8203,562;   -1,980;   -0,227
413,677; 8597,012;   -0,707;    3,864
414,267; 8409,663;    0,656;    1,409
414,857; 8372,635;   -2,980;    4,227
415,448; 8686,012;    0,839;    0,500
416,038; 8342,463;    0,020;   -0,591
416,628; 8279,889;   -0,889;    0,409
417,218; 7724,549;    0,565;    3,318
417,808; 7950,794;    0,202;   -0,409
418,398; 8406,838;    0,020;    2,682
418,988; 8384,948;    2,020;    0,591
419,578; 8620,950;   -0,707;    1,409
420,168; 8926,669;   -1,343;   -0,955
420,757; 8528,501;   -1,343;   -1,500
421,347; 8129,180;    0,111;   -0,227
421,937; 8276,546;    2,292;    1,409
422,527; 8231,229;    0,838;   -0,773
423,116; 8004,952;   -0,253;   -0,045
423,706; 8291,147;   -1,889;    0,318
424,296; 8238,944;    1,384;    0,682
424,885; 8619,035;   -0,071;   -3,045
425,475; 8878,557;    1,474;   -2,864
426,065; 8761,388;   -0,980;   -0,318
426,654; 8361,434;   -0,435;   -0,318
427,244; 8507,360;    0,020;    1,409
427,833; 7944,013;    1,383;   -0,500
428,423; 8354,920;   -0,526;    1,136
429,012; 9023,205;   -0,344;   -1,136
429,601; 8499,932;   -1,344;    0,136
430,191; 8689,601;    1,292;    4,318
430,780; 8317,453;   -0,344;   -0,409
431,369; 8249,670;    0,746;   -0,045
431,959; 8794,757;   -1,254;    0,500
432,548; 8561,459;   -1,163;   -0,045
433,137; 8645,494;   -1,254;   -1,318
433,726; 9122,217;    0,292;    0,500
434,315; 8451,006;   -0,526;    2,409
434,905; 8513,099;   -1,254;    1,409
435,494; 8367,376;    0,746;    0,955
436,083; 8729,691;   -0,981;   -0,955
436,672; 8615,545;    0,110;    0,500
437,261; 8164,743;    0,292;   -1,955
437,850; 8256,059;    1,383;    0,682
438,439; 8218,234;    3,291;    1,955
439,027; 8052,045;    3,655;    1,773
439,616; 8306,381;    2,927;    1,227
440,205; 8070,420;    0,200;   -2,136
440,794; 8081,980;    2,109;   -0,045
441,383; 8284,028;   -1,346;   -0,591
441,971; 8073,986;   -2,436;    0,591
442,560; 7860,364;    0,563;   -1,773
443,149; 7591,103;    0,379;   -1,318
443,737; 7703,291;   -0,074;   -2,318
444,326; 7913,486;    0,018;    0,318
444,915; 7890,649;   -1,982;    0,864
445,503; 8211,079;   -2,891;   -0,318
446,092; 7493,436;    0,382;    2,136
446,680; 7937,776;    0,382;    0,318
447,269; 7990,474;   -0,346;   -0,318
447,857; 7732,957;    0,018;   -1,773
448,445; 7797,974;    0,563;    1,318
449,034; 7915,217;   -1,528;   -1,136
449,622; 7947,501;   -1,073;    3,500
450,210; 7301,318;    2,017;    2,227
450,799; 7734,574;    0,290;   -0,591
451,387; 7626,783;    1,381;   -0,591
451,975; 7271,394;    2,654;    0,864
452,563; 7352,080;    3,472;    2,318
453,151; 7301,840;   -0,528;   -1,227
453,739; 7207,785;   -1,347;    0,136
454,328; 7052,614;    2,381;   -2,136
454,916; 6806,998;    2,562;   -0,136
455,504; 6921,965;    1,017;    1,227
456,092; 7003,043;    0,017;   -1,591
456,679; 6925,223;    1,472;    0,682
457,267; 6981,161;    4,017;    1,045
457,855; 6986,618;    1,017;    1,409
458,443; 6669,962;   -0,165;    1,682
459,031; 6857,349;    0,108;    2,409
459,619; 7194,087;   -1,801;    2,864
460,206; 7198,852;    0,835;    2,045
460,794; 7255,034;   -2,983;   -0,227
461,382; 7409,112;   -0,529;   -0,864
461,970; 7056,135;    1,198;    1,864
462,557; 7056,966;   -0,711;   -0,682
463,145; 7191,634;   -3,165;   -1,682
463,732; 7288,790;    2,016;   -1,045
464,320; 7155,805;   -0,075;   -3,045
464,907; 6867,676;    2,743;   -0,773
465,495; 6726,967;    0,743;   -1,227
466,082; 6816,625;   -1,984;   -0,045
466,670; 6680,758;   -2,529;    1,227
467,257; 7005,137;   -1,711;    2,045
467,844; 7153,084;   -0,075;    0,045
468,432; 7127,887;    0,834;    3,500
469,019; 6672,422;    0,925;   -1,773
469,606; 7027,219;    0,470;    3,682
470,193; 6868,201;   -1,439;    0,227
470,780; 6518,225;   -2,075;    0,864
471,368; 6709,904;   -1,257;   -0,773
471,955; 6470,445;    1,379;   -0,682
472,542; 6156,480;    0,652;   -1,136
473,129; 6274,020;   -0,166;    0,136
473,716; 6038,003;    1,470;    0,591
474,303; 6076,479;    0,652;   -0,864
474,890; 6267,463;   -1,439;   -0,500
475,477; 6295,112;   -1,621;    0,409
476,064; 6121,782;    1,106;   -1,591
476,650; 5966,598;    0,288;    0,318
477,237; 5794,144;   -0,258;    0,955
477,824; 5891,877;   -1,076;    0,864
478,411; 5784,199;   -1,894;   -0,318
478,997; 5876,169;    0,560;   -0,773
479,584; 5856,543;    1,196;   -0,409
480,171; 6336,507;   -0,440;   -0,773
480,757; 6057,280;    2,651;    0,773
481,344; 6176,494;    0,469;    0,409
481,931; 5693,316;    1,105;    1,045
482,517; 6394,957;   -1,258;    0,318
483,104; 6696,782;    1,106;    2,864
483,690; 6761,450;   -1,804;    0,045
484,276; 6812,080;   -0,895;    0,227
484,863; 6623,306;    2,469;    1,136
485,449; 6916,542;   -0,077;    0,318
486,035; 6853,709;   -1,986;   -0,136
486,622; 7133,851;   -0,895;    0,045
487,208; 7040,056;    1,378;    1,500
487,794; 6919,927;    0,741;    0,318
488,380; 6975,920;    0,105;   -1,409
488,967; 7047,878;   -1,168;   -0,409
489,553; 7095,379;   -1,895;   -1,409
490,139; 7305,093;    1,559;    0,773
490,725; 6894,510;    0,741;   -0,227
491,311; 6633,332;    3,287;    3,045
491,897; 6228,910;   -0,986;    1,500
492,483; 6265,119;    0,105;    1,227
493,069; 6503,282;    3,923;    0,864
493,655; 6398,243;    1,650;    0,682
494,241; 6413,338;    1,377;   -0,955
494,826; 6747,368;    0,287;   -1,045
495,412; 6439,129;    2,559;   -0,682
495,998; 6686,577;   -0,805;   -0,318
496,584; 6802,474;    0,377;    1,045
497,169; 6900,465;    1,014;   -0,682
497,755; 7039,448;    0,650;    1,227
498,341; 7727,909;    0,559;    0,318
498,926; 7562,680;    1,832;    1,955
499,512; 7815,276;    1,286;    2,955
500,097; 8025,371;    0,195;   -0,318
500,683; 8179,972;   -0,350;    2,136
501,268; 8692,936;   -0,169;   -0,955
501,854; 8657,847;   -0,169;    1,227
502,439; 8756,779;   -0,624;   -1,773
503,024; 9100,989;    0,195;    0,500
503,610; 9415,809;   -0,078;   -0,682
504,195; 9615,777;    0,558;    1,955
504,780; 9944,978;    2,922;    1,227
505,366;10017,915;    3,013;    2,864
505,951; 9964,645;    0,740;    1,045
506,536;10191,798;   -3,260;   -3,682
507,121;10379,887;    0,285;   -0,318
507,706;11081,100;    2,376;    1,045
508,291;11615,202;    2,649;    1,136
508,876;11266,543;   -0,988;    2,591
509,461;10928,231;   -0,169;   -0,773
510,046;11510,950;    0,194;    0,318
510,631;11948,588;   -0,351;   -0,773
511,216;11740,611;    2,467;   -0,500
511,801;12234,250;   -0,442;    2,591
512,386;12715,912;    0,740;    0,500
512,971;12802,571;   -2,988;    0,955
513,555;12472,246;   -0,897;   -1,500
514,140;13357,626;   -0,442;   -3,136
514,725;13484,203;   -0,715;   -1,136
515,309;13681,503;   -0,533;    0,318
515,894;13229,641;   -0,624;   -2,227
516,479;13801,746;   -0,624;   -0,955
517,063;13705,106;    0,376;    1,227
517,648;13899,875;    1,012;   -1,136
518,232;13620,063;   -0,261;   -1,409
518,817;14013,595;   -0,079;    1,682
519,401;14339,316;    2,194;    0,591
519,985;13882,141;    1,103;    1,136
520,570;13817,910;    0,830;   -1,955
521,154;14156,115;    2,102;    0,591
521,738;14376,593;   -2,352;    2,409
522,323;14960,870;   -0,170;    1,682
522,907;14738,073;    0,466;   -0,136
523,491;14463,468;    0,557;    0,955
524,075;14490,455;    2,284;    0,591
524,659;14625,401;    1,466;    0,591
525,243;14089,295;    1,739;    0,409
525,827;14385,250;    0,648;   -0,045
526,411;15328,219;   -1,989;   -0,136
526,995;15526,109;   -0,352;    1,409
527,579;15140,045;   -0,443;   -1,045
528,163;15493,702;    0,375;   -1,500
528,747;15411,922;    2,466;   -0,773
529,331;15714,449;   -0,080;   -1,409
529,915;15909,393;    1,738;    0,955
530,499;15894,541;   -0,807;    1,227
531,082;15660,115;   -0,534;    1,591
531,666;15068,920;    1,374;    0,773
532,250;15781,546;    1,284;    2,682
532,833;16163,197;    0,920;    2,773
533,417;16006,524;   -1,807;    0,864
534,001;16010,759;    1,647;   -0,318
534,584;16746,105;    0,374;    0,500
535,168;16573,630;    0,465;    1,409
535,751;16677,873;    0,647;    0,045
536,334;16103,332;   -0,898;   -0,409
536,918;16730,152;    0,011;    1,591
537,501;16814,482;   -0,899;    1,318
538,085;16778,374;   -0,444;    1,045
538,668;17050,634;    0,829;    2,409
539,251;17396,167;    1,829;    3,773
539,834;17379,124;    0,101;    0,773
540,418;17335,181;   -1,990;    4,318
541,001;17480,881;   -0,990;    1,773
541,584;17447,798;    2,101;    2,227
542,167;17112,257;    1,374;    2,955
542,750;17286,841;    1,919;   -0,773
543,333;16879,155;    0,555;    2,136
543,916;17693,593;    0,192;    2,500
544,499;18360,119;   -1,354;    0,227
545,082;18355,572;    1,374;    3,591
545,665;18503,339;    1,919;    1,500
546,248;18874,792;    1,010;   -0,318
546,830;18512,614;   -0,445;    1,955
547,413;18959,641;    1,010;   -0,773
547,996;19463,381;    0,555;    0,500
548,579;19232,709;    0,919;    0,955
549,161;19091,706;    1,828;    2,682
549,744;18882,125;   -0,809;    0,409
550,326;19345,782;   -0,809;   -1,136
550,909;19182,078;    2,737;    0,591
551,492;19570,810;   -0,263;    0,227
552,074;19351,924;   -0,173;   -1,318
552,657;19942,173;    2,373;    0,045
553,239;19644,590;   -0,173;   -0,773
553,821;19544,378;   -1,082;    1,045
554,404;19047,220;    1,282;    1,136
554,986;19479,074;    0,464;    1,045
555,568;20164,672;    1,191;   -0,955
556,151;19330,750;    1,191;   -0,227
556,733;19515,748;   -0,264;   -0,864
557,315;19999,995;    0,100;    0,500
557,897;19771,919;    0,554;   -0,500
558,479;19878,792;   -1,991;    1,318
559,061;20067,473;   -0,719;   -0,864
559,643;20439,473;   -0,264;    0,045
560,225;20851,579;    1,645;    2,864
560,807;20870,836;    0,918;    0,318
561,389;20304,320;    0,554;    2,318
561,971;21137,994;    0,463;    2,136
562,553;20877,971;   -1,628;    1,591
563,135;21061,246;   -0,537;    1,136
563,717;20647,202;    3,372;    1,136
564,298;21420,432;    3,645;   -0,045
564,880;21152,125;    0,645;   -1,409
565,462;21321,307;    0,645;    1,318
566,043;22593,447;   -0,446;    2,318
566,625;22101,982;    1,918;    1,227
567,207;22016,536;    1,099;    1,682
567,788;23233,407;   -1,264;    1,500
568,370;24144,273;    1,917;   -0,500
568,951;23994,901;    0,190;    0,227
569,533;24935,330;   -0,628;   -0,500
570,114;25445,030;   -0,446;    0,682
570,695;26059,715;   -0,174;   -1,318
571,277;26701,023;   -0,265;   -1,682
571,858;27491,406;    2,008;   -1,136
572,439;28448,326;    1,554;   -1,045
573,021;28659,374;    2,099;   -2,773
573,602;29256,782;   -1,265;    0,318
574,183;30264,522;   -2,083;    2,227
574,764;30474,820;   -1,629;    0,409
575,345;31105,118;    0,917;   -0,136
575,926;31702,218;   -0,356;    0,136
576,507;31625,953;    1,099;   -0,227
577,088;32871,192;    3,099;    1,682
577,669;32966,541;    0,735;    1,955
578,250;33886,067;    0,644;   -1,045
578,831;34651,211;   -1,356;   -2,227
579,412;34869,892;   -0,810;    0,955
579,993;35692,708;    1,008;    0,227
580,573;36051,025;   -0,629;   -0,955
581,154;34988,585;    0,735;   -0,591
581,735;35979,769;    0,644;    0,773
582,315;35534,133;   -0,629;    2,136
582,896;35686,729;   -0,174;    1,227
583,477;35026,074;    0,189;    1,227
584,057;35270,674;    0,553;    0,955
584,638;35599,981;    2,553;    2,318
585,218;35601,653;   -0,538;    2,682
585,799;35774,057;    0,281;   -0,227
586,379;35650,647;    0,372;    1,591
586,959;34250,135;    0,735;    0,318
587,540;33448,896;   -0,629;    2,227
588,120;32947,953;    1,007;   -0,045
588,700;31902,562;    2,553;    2,136
589,281;32259,321;    0,462;   -0,955
589,861;32190,327;    0,099;   -1,682
590,441;31958,615;    2,371;   -2,682
591,021;30854,970;   -0,265;   -2,591
591,601;31036,334;   -0,537;    0,500
592,181;31009,780;   -0,719;   -0,773
592,761;30284,908;    0,007;    1,409
593,341;30154,363;   -0,901;    0,045
593,921;30169,522;   -0,265;    1,591
594,501;30122,169;   -0,538;    1,318
595,081;29928,808;    0,917;   -0,318
595,661;30231,617;   -1,447;    0,955
596,240;30821,822;   -0,537;    0,136
596,820;30537,565;    0,372;    1,955
597,400;30754,347;    2,008;    0,773
597,980;30938,681;    2,008;    1,045
598,559;30855,497;    2,735;   -0,227
599,139;30552,287;   -0,174;   -1,227
599,718;30510,287;   -0,174;   -0,409
600,298;30766,076;    0,735;    0,682
600,877;31032,985;    2,917;    1,409
601,457;31267,546;    2,281;    1,136
602,036;31194,505;    0,190;    2,045
602,616;31435,943;    0,644;    1,682
603,195;31831,990;   -0,355;    3,500
603,774;31333,747;   -0,901;    2,045
604,354;31163,825;    0,826;   -0,500
604,933;30596,575;    0,463;    1,864
605,512;30693,550;    3,554;    0,591
606,091;30751,791;   -0,537;    3,773
606,671;31548,795;    0,281;    0,773
607,250;30727,089;    1,644;    3,136
607,829;30910,301;    2,372;    3,227
608,408;30757,373;    1,190;    2,591
608,987;29698,682;    1,281;    3,409
609,566;30011,991;   -1,265;   -2,500
610,145;30156,599;   -1,082;    0,682
610,723;30532,402;    4,372;    6,864
611,302;29802,132;   -0,446;    1,682
611,881;29282,580;    5,008;   11,227
612,460;30147,578;    1,645;    3,955
613,039;30534,582;   -0,082;    2,045
613,617;29183,559;    1,736;    4,773
614,196;29337,430;    1,099;    1,227
614,775;29712,255;    1,009;    2,409
615,353;29620,923;    0,736;    0,864
615,932;29367,466;    0,100;    2,409
616,510;29955,244;    0,554;    0,591
617,089;29462,737;    7,100;   17,591
617,667;29134,022;    2,372;    6,136
618,246;29060,293;   -1,537;    1,318
618,824;29255,574;   -3,355;   -0,955
619,402;28804,857;   -2,900;   -1,773
619,981;29265,266;   -0,173;   -1,045
620,559;29021,046;    0,009;    1,682
621,137;28497,621;   -0,718;    1,864
621,715;28600,242;   -1,173;   -0,682
622,293;28502,304;   -0,537;   -0,773
622,871;28878,995;   -0,718;    0,500
623,450;28496,752;    0,373;   -0,864
624,028;28396,524;    0,191;   -0,955
624,606;28011,532;   -1,718;    1,682
625,183;28371,805;   -1,536;   -1,136
625,761;27994,886;    1,009;    1,136
626,339;28307,642;    1,373;    2,591
626,917;28700,391;   -0,172;   -0,045
627,495;28704,457;   -0,354;    1,318
628,073;28128,332;   -0,263;    2,864
628,650;27821,552;    0,100;    2,136
629,228;28226,198;    0,373;    4,409
629,806;27601,118;    2,282;    1,136
630,383;27856,723;    1,464;   -0,318
630,961;27674,061;    2,555;   -0,955
631,539;27376,759;    2,464;    0,227
632,116;26756,516;   11,373;   15,409
632,694;27333,926;    2,555;    6,500
633,271;27691,258;    0,828;    2,682
633,848;27547,315;    1,828;    2,045
634,426;27588,573;   -1,081;    1,773
635,003;26668,069;    1,101;   -0,409
635,580;27002,935;    1,192;    3,682
636,158;27583,197;    3,737;    1,227
636,735;27542,383;    0,555;   -0,500
637,312;27713,607;   -0,809;   -0,682
637,889;27810,305;   -4,354;   -0,682
638,466;27201,872;   -3,990;   -0,409
639,043;27195,236;    2,101;   -1,136
639,620;27526,555;   -2,262;   -0,955
640,197;27872,813;    1,100;    1,682
640,774;27972,067;   -0,172;    1,136
641,351;28424,138;    0,737;    1,136
641,928;27799,119;   -0,627;    1,409
642,505;27448,827;    0,828;   -0,500
643,082;27568,444;   -1,718;    1,227
643,658;26555,697;   -0,718;    1,500
644,235;27338,951;    1,191;    2,500
644,812;27693,386;    1,918;    0,773
645,388;27374,003;   -0,991;    1,409
645,965;27499,166;   -0,809;    1,682
646,542;27600,692;   -1,445;   -0,227
647,118;27576,309;    1,009;   -0,955
647,695;27840,380;   -0,263;    1,136
648,271;27744,088;   -0,536;    0,500
648,848;28059,887;    0,736;    2,227
649,424;27916,959;    0,827;    1,318
650,000;27714,394;   -0,354;   -1,045
650,577;27498,466;   -0,627;   -0,955
651,153;27998,810;   -1,809;    0,955
651,729;29101,700;    1,191;    0,864
652,305;29872,499;    0,645;    2,773
652,881;35936,479;   -0,082;    1,136
653,458;43381,824;    1,100;    0,227
654,034;46900,713;    0,282;    1,591
654,610;48201,330;    0,554;    0,773
655,186;49486,947;    0,645;    3,045
655,762;49137,837;   -0,991;    0,409
656,338;49152,272;    0,100;    0,136
656,913;50193,617;   -0,082;    0,409
657,489;49442,325;    0,827;   -0,318
658,065;49341,578;   -0,173;   -1,591
658,641;49995,650;   -0,900;   -0,864
659,217;49297,721;   -0,991;    0,409
659,792;48751,975;    0,645;   -0,409
660,368;48930,410;   -2,173;   -0,682
660,944;47970,936;   -2,082;    1,227
661,519;41824,826;   -0,628;    0,409
662,095;35235,079;   -1,719;    0,591
662,670;30818,696;    1,281;   -0,136
663,246;29889,950;    1,009;   -0,409
663,821;29254,840;    0,281;    1,682
664,396;28783,275;    0,009;    1,864
664,972;29090,346;    0,009;   -0,500
665,547;29409,691;    1,372;    0,136
666,122;29486,399;   -1,082;    0,318
666,698;29739,198;   -0,173;    0,318
667,273;29090,178;   -0,173;    0,136
667,848;29925,250;    2,372;    1,500
668,423;29694,776;    2,190;    2,318
668,998;30314,484;    2,827;   -0,682
669,573;30926,828;   -3,264;   -1,500
670,148;30712,082;   -1,446;   -0,682
670,723;30472,335;   -1,810;    0,318
671,298;30908,589;    2,372;    1,045
671,873;31066,206;   -0,082;   -0,136
672,448;31018,368;    0,645;    0,136
673,023;31343,894;   -1,992;   -0,227
673,597;31678,693;    0,827;    2,318
674,172;31475,401;   -0,355;    0,318
674,747;30938,836;    0,372;   -1,045
675,321;30685,090;   -0,628;    3,318
675,896;30212,252;    0,645;    1,045
676,471;31335,687;    2,645;    1,591
677,045;31087,032;   -1,264;    0,682
677,620;31114,012;    0,190;    1,136
678,194;31451,175;   -2,628;    1,136
678,769;30983,701;   -1,083;   -0,318
679,343;31277,409;   -0,628;    1,773
679,917;31152,844;   -1,446;    1,955
680,492;31223,916;    0,826;    3,227
681,066;31376,442;    3,372;    0,409
681,640;31446,695;    1,463;   -0,318
682,214;32295,585;    0,735;    0,500
682,788;31881,293;   -1,356;   -0,773
683,363;31806,728;   -1,810;    1,682
683,937;31470,255;   -1,719;   -0,318
684,511;32218,417;    0,463;   -0,591
685,085;31949,943;   -1,356;    0,318
685,659;31628,378;   -2,538;    0,864
686,232;32024,268;   -0,356;   -0,318
686,806;31663,885;   -0,901;    0,409
687,380;32333,502;   -0,174;    0,591
687,954;32482,483;   -1,174;    1,136
688,528;32214,464;   -0,719;    1,955
689,101;33018,535;   -3,992;    1,045
689,675;32594,970;   -0,356;   -0,136
690,249;31967,769;   -0,719;    0,409
690,822;32260,386;    0,280;    0,318
691,396;32386,822;   -0,265;    1,227
691,969;31818,984;    1,280;    0,136
692,543;32242,328;   -0,447;   -1,955
693,116;31864,582;   -0,265;   -1,409
693,690;31780,653;    0,099;    0,500
694,263;32313,452;   -1,083;    2,955
694,836;32377,978;    1,371;    3,591
695,410;31009,323;   -0,265;    1,773
695,983;31524,758;    0,189;    0,591
696,556;31421,648;   -0,447;   -1,045
697,129;31776,719;   -0,356;    1,409
697,703;31424,336;   -1,629;    1,955
698,276;31372,135;    1,462;   -0,773
698,849;31167,843;    1,280;    1,409
699,422;31563,460;   -1,083;    0,591
699,995;31253,077;    0,007;    0,136
700,568;31826,513;   -0,629;    3,045
701,140;31867,221;   -2,811;    1,682
701,713;31583,110;   -0,174;    2,409
702,286;31310,182;   -0,538;    0,864
702,859;31220,526;   -0,902;   -0,591
703,432;30330,598;    0,825;    0,682
704,004;30824,488;    0,462;    0,318
704,577;30674,014;   -0,629;    0,136
705,150;31293,904;    0,189;    2,500
705,722;31024,248;   -0,356;   -3,227
706,295;30814,138;   -0,175;   -0,591
706,867;30654,118;   -0,175;    1,955
707,440;30893,008;   -1,720;   -0,409
708,012;31170,807;    0,462;    0,591
708,584;31114,606;    2,462;    0,227
709,157;31344,132;    1,825;   -0,591
709,729;30975,204;    2,280;    2,045
710,301;31839,548;    0,734;    0,045
710,874;31845,347;   -1,447;   -0,227
711,446;30738,418;    0,371;    0,864
712,018;30625,945;    0,098;    0,500
712,590;30372,380;   -1,993;    1,682
713,162;30920,451;    0,825;    1,318
713,734;31142,068;    1,825;   -2,045
714,306;30986,958;   -1,902;   -0,409
714,878;29702,212;    0,825;    0,864
715,450;30475,101;    0,643;    0,864
716,022;30711,446;    1,552;    1,318
716,593;30820,245;    0,189;    0,591
717,165;30804,498;   -3,175;   -1,227
717,737;30527,206;    0,280;    0,409
718,309;30103,278;    0,280;   -0,045
718,880;30119,076;   -0,539;   -1,409
719,452;30332,784;   -0,175;   -1,591
720,024;29927,583;    0,734;   -0,591
720,595;30526,564;   -2,902;    0,955
721,167;30058,181;    0,370;   -2,045
721,738;29533,889;   -0,812;   -1,045
722,309;29542,597;   -0,993;   -1,227
722,881;29230,123;   -1,357;    0,773
723,452;29917,831;   -2,630;    2,864
724,023;30097,994;   -0,721;    2,682
724,595;29833,156;    0,007;    0,682
725,166;29599,046;    0,007;   -0,409
725,737;29294,572;    1,734;    0,227
726,308;29360,916;   -0,266;    0,318
726,879;29829,988;   -1,630;    1,227
727,450;29667,787;    0,552;   -0,045
728,021;29651,949;    3,097;    0,682
728,592;29386,839;    0,734;    0,500
729,163;29752,547;    0,643;   -0,136
729,734;29868,346;    0,188;   -0,227
730,305;30177,781;    1,734;    0,136
730,876;30518,671;    0,188;    2,955
731,447;30218,833;    2,188;    2,682
732,017;30397,087;    1,097;    1,864
732,588;29806,977;    0,734;    1,227
733,159;30049,048;    0,643;   -1,045
733,729;29815,756;    0,006;    0,409
734,300;29042,464;    0,915;    0,864
734,870;29485,627;    3,461;    0,591
735,441;30063,153;    0,370;   -0,591
736,011;29836,406;    0,643;   -1,591
736,582;29785,660;   -0,812;    0,045
737,152;29236,731;   -1,721;   -2,045
737,722;29656,075;   -0,267;   -0,682
738,293;29405,420;   -1,358;    1,318
738,863;29248,219;    2,461;    2,318
739,433;29086,472;    5,279;    0,318
740,003;29709,816;   -0,994;   -0,682
740,573;29089,797;    2,097;   -1,591
741,143;29052,869;   -1,085;    0,318
741,713;29845,213;    1,188;   -0,500
742,283;29494,376;    0,915;    1,591
742,853;29232,265;    1,915;    1,591
743,423;28662,973;    1,733;    0,045
743,993;28842,045;   -0,358;    1,500
744,563;28227,753;    0,097;   -0,864
745,133;28175,552;   -0,812;   -0,864
745,702;28837,987;   -0,267;    1,773
746,272;28049,513;   -0,176;    0,591
746,842;27795,494;   -1,358;   -0,591
747,411;28218,747;   -0,267;   -0,318
747,981;28378,182;    0,097;    0,500
748,551;28411,163;    2,278;   -1,045
749,120;28268,871;    0,642;   -0,227
749,690;28653,670;   -0,631;    2,409
750,259;28987,469;    1,369;    2,955
750,828;28960,540;    1,551;   -1,955
751,398;29243,430;    1,278;   -0,045
751,967;28779,774;    2,187;    0,409
752,536;28969,028;   -0,813;   -0,227
753,105;29396,009;    0,096;    0,227
753,675;29201,171;    0,096;    1,773
754,244;29182,606;   -0,904;    3,591
754,813;29156,405;    0,551;    1,227
755,382;28739,295;    0,460;    0,955
755,951;29369,457;    1,551;    3,682
756,520;28872,893;   -0,085;    1,864
757,089;29480,782;    0,278;    0,500
757,658;29641,581;    1,733;    1,227
758,227;29618,380;    1,096;    0,318
758,795;29907,725;    1,187;    1,136
759,364;30131,160;   -0,086;   -0,591
759,933;29124,231;   -1,176;   -0,045
760,501;28558,121;    0,733;   -1,318
761,070;29082,465;   -2,813;   -1,409
761,639;29843,719;   -1,904;    1,318
762,207;29227,063;    1,551;   -0,955
762,776;29098,498;    0,369;    0,864
763,344;29027,479;   -0,995;    0,591
763,913;28097,551;   -0,722;    1,409
764,481;28839,804;    1,005;   -0,136
765,049;28553,330;   -1,358;    1,409
765,618;28467,493;   -0,086;    0,318
766,186;28536,383;    0,278;    0,136
766,754;28741,181;    0,005;    1,864
767,322;27734,980;   -1,995;    0,409
767,890;27773,234;   -0,722;   -1,773
768,459;28160,760;   -2,177;   -0,318
769,027;28360,831;    1,641;    3,409
769,595;27280,085;    3,278;    2,591
770,163;27694,702;    3,823;    2,955
770,730;27375,501;    0,732;   -0,136
771,298;27222,027;    0,187;   -1,409
771,866;27274,553;   -1,541;    4,955
772,434;27608,352;   -0,631;   -1,864
773,002;27822,969;    0,005;    0,682
773,569;27420,132;    0,914;    1,682
774,137;27303,839;   -0,268;   -0,045
774,705;28055,729;    0,278;   -0,136
775,272;27569,255;    0,641;    0,682
775,840;27272,418;   -0,177;    2,682
776,407;26904,489;    0,277;    1,955
776,975;26422,379;   -0,632;    0,318
777,542;27425,178;   -1,086;   -0,045
778,110;27221,250;   -1,268;   -0,045
778,677;26928,503;   -2,359;   -0,864
779,244;26690,575;    2,186;    1,045
779,812;26781,828;    1,823;    0,864
780,379;26610,627;    0,005;    1,136
780,946;26908,062;    1,005;   -0,773
781,513;27231,407;   -1,450;    0,318
782,080;26610,024;   -0,086;    2,864
782,647;27347,368;   -0,268;    3,045
783,214;26904,167;   -0,177;    3,864
783,781;26524,511;   -0,723;   -0,682
784,348;26357,492;   -0,632;    1,500
784,915;26845,927;   -3,177;    0,318
785,482;26689,090;    1,368;    2,591
786,049;27086,161;    0,186;   -0,591
786,615;27144,778;    0,277;   -0,955
787,182;26863,941;    0,186;   -0,682
787,749;26538,558;   -2,814;    1,409
788,315;25873,266;   -1,632;   -0,409
788,882;26146,519;    1,550;   -1,227
789,448;26902,227;    1,732;   -0,955
790,015;26862,935;    1,095;    3,227
790,581;26462,643;    1,459;    0,227
791,148;26358,442;    0,641;    1,045
791,714;26580,604;   -0,541;    3,136
792,280;26233,403;    0,186;    1,591
792,847;25767,929;    0,550;    2,500
793,413;26357,637;   -0,269;   -0,318
793,979;25853,254;    3,459;   -1,318
794,545;25966,417;    4,459;    2,682
795,111;25394,307;    2,186;    1,318
795,678;25563,560;    0,731;   -1,682
796,244;25154,359;    3,368;    0,136
796,810;25730,976;    1,731;    0,773
797,375;25443,684;    0,549;   -2,136
797,941;25438,665;   -0,541;    0,591
798,507;25593,736;   -0,451;   -0,955
799,073;25084,081;   -0,360;    0,591
799,639;25120,152;   -2,632;    3,136
800,205;25149,224;    0,095;    2,682
800,770;24749,568;    0,640;    1,773
801,336;24807,458;    1,368;   -0,955
801,901;24521,075;    4,549;    3,136
802,467;25077,510;   -0,542;    2,045
803,033;24366,491;   -0,087;    0,864
803,598;24636,381;    1,913;   -1,045
804,163;24605,725;    1,095;   -0,318
804,729;24563,615;   -0,178;    1,136
805,294;24972,050;    0,822;    2,227
805,859;24720,031;    0,731;   -0,409
806,425;24224,830;    1,186;    2,682
806,990;23881,265;    2,186;    4,318
807,555;24386,609;   -1,451;    2,591
808,120;24271,499;    0,822;   -0,409
808,685;24307,843;    0,185;   -2,500
809,250;23820,824;    0,004;   -0,500
809,815;24139,986;    1,913;    0,682
810,380;24734,513;   -0,269;    1,591
810,945;25285,766;   -1,087;    2,045
811,510;24354,201;    2,094;    1,591
812,075;24047,909;   -0,633;   -1,409
812,640;24104,981;    2,003;    1,409
813,204;24183,507;    0,822;   -0,227
813,769;24624,124;    2,094;   -0,045
814,334;24056,196;    0,458;    0,864
814,898;24074,631;    0,367;    0,591
815,463;23907,975;    1,276;   -0,773
816,027;23856,047;   -0,724;   -2,318
816,592;23868,573;    0,640;   -2,045
817,156;23474,735;    2,094;    1,136
817,721;23352,989;    4,276;    2,318
818,285;23302,242;    2,912;    1,500
818,849;23938,223;   -1,451;    1,682
819,414;23809,840;   -0,269;    2,955
819,978;23373,275;   -1,269;    1,773
820,542;23976,529;    2,003;    0,500
821,106;23674,055;   -0,815;    0,682
821,670;23787,854;   -0,815;    2,591
822,234;23488,925;   -0,270;    1,409
822,798;22833,451;    0,003;    0,500
823,362;22806,432;   -0,633;    4,227
823,926;22139,504;    0,094;    1,136
824,490;22382,757;   -0,997;   -0,682
825,054;22846,738;   -0,088;   -1,136
825,618;22436,809;   -1,542;   -1,500
826,181;22459,699;    0,458;   -1,318
826,745;22318,680;    1,367;   -1,045
827,309;22678,842;    1,185;    1,318
827,872;22030,732;    1,367;    0,955
828,436;22979,895;    1,185;   -0,773
828,999;23036,512;   -0,997;    1,227
829,563;21752,947;   -0,179;    1,136
830,126;21602,655;   -0,179;   -0,591
830,690;21661,090;   -1,997;    2,864
831,253;21151,071;   -0,543;    2,227
831,816;21346,051;   -1,906;    0,500
832,380;21261,123;    0,185;    0,864
832,943;21471,831;   -1,361;   -0,500
833,506;20875,993;    2,639;   -1,227
834,069;21707,974;    3,912;   -0,955
834,632;21754,591;    1,730;    1,318
835,195;21679,481;    1,003;    0,955
835,758;20836,825;   -0,997;    1,955
836,321;20702,715;    0,730;   -1,045
836,884;20800,968;   -0,725;   -0,955
837,447;20791,404;   -2,816;    1,773
838,010;21114,384;    0,366;    3,227
838,573;21370,183;   -1,179;    0,773
839,135;21315,346;   -1,361;   -0,955
839,698;20773,236;    1,275;    0,409
840,261;20275,125;    1,003;   -0,227
840,823;20050,379;   -0,543;    0,864
841,386;20381,450;   -0,452;   -2,409
841,948;20263,886;   -1,361;    1,773
842,511;19971,321;    0,912;    1,682
843,073;20163,211;    1,912;    0,227
843,636;19912,373;   -0,361;   -0,227
844,198;19849,536;    0,911;    0,591
844,760;19997,153;    1,093;    1,955
845,322;19645,679;    0,548;    1,136
845,885;20122,478;    0,730;    0,591
846,447;20571,913;   -1,998;    0,227
847,009;20140,257;    1,911;   -0,682
847,571;20459,783;    0,820;   -2,045
848,133;20573,764;   -1,089;   -1,864
848,695;20360,563;   -0,543;    1,409
849,257;19854,180;   -1,089;   -1,682
849,819;20072,797;   -0,998;   -0,409
850,381;20107,596;   -0,725;   -0,864
850,942;20477,031;    1,093;   -0,591
851,504;20513,921;    1,184;    0,227
852,066;20522,174;    1,275;   -1,591
852,628;20026,973;   -0,180;    1,955
853,189;19510,863;    1,638;    2,682
853,751;19648,207;   -0,907;    1,409
854,312;19431,279;   -0,453;   -1,682
854,874;19976,623;   -2,089;   -0,773
855,435;20492,422;   -0,907;   -1,682
855,997;20648,494;   -1,816;   -0,136
856,558;19941,747;    0,366;    1,773
857,119;20084,728;    0,820;    2,864
857,681;19734,708;    0,002;    0,318
858,242;19780,053;    1,911;   -2,136
858,803;20262,852;    0,456;   -0,773
859,364;20824,378;    0,184;   -4,773
859,925;20110,086;   -2,453;   -0,955
860,486;19949,248;   -0,453;   -0,955
861,047;19675,047;   -0,544;   -1,227
861,608;19524,119;   -1,089;   -0,773
862,169;19602,554;    0,638;   -0,045
862,730;19379,898;    0,456;    1,409
863,291;19631,788;   -0,635;   -0,500
863,852;19981,132;   -0,635;    1,955
864,412;19457,840;   -0,271;   -0,864
864,973;17995,639;   -0,089;    0,500
865,534;17847,165;   -1,726;    0,227
866,094;19410,873;    1,820;    0,227
866,655;19060,672;    1,274;    3,318
867,215;19316,653;    0,274;    0,136
867,776;19113,815;    0,547;   -0,136
868,336;19254,432;   -1,453;    0,136
868,897;18733,231;    2,638;    1,682
869,457;18445,848;    1,365;    0,318
870,017;18678,284;    0,547;   -1,227
870,578;19222,810;   -0,817;    0,773
871,138;18912,245;   -2,089;   -0,955
871,698;18414,135;   -0,817;   -1,318
872,258;18306,479;   -0,453;   -2,864
872,818;18707,823;    2,729;    0,045
873,378;18617,350;    0,638;    1,045
873,938;18127,603;    0,547;    0,500
874,498;18496,675;    0,274;   -1,955
875,058;18390,928;    2,183;    1,773
875,618;18266,090;    1,910;   -2,682
876,177;18158,798;    1,274;    0,136
876,737;17737,870;   -0,090;    1,955
877,297;17792,033;    0,183;    1,955
877,856;17816,195;   -0,362;    0,318
878,416;17765,903;    1,183;   -0,136
878,976;17971,247;   -1,817;    0,409
879,535;18166,410;    0,092;    3,136
880,095;17877,572;   -0,544;    0,045
880,654;17996,371;   -1,090;    1,318
881,213;18142,715;    2,456;    1,500
881,773;17721,878;    2,637;    2,682
882,332;18134,586;    3,365;    5,136
882,891;17920,385;    3,092;    2,136
883,451;18396,820;   -1,272;    1,682
884,010;17810,983;   -2,908;   -0,409
884,569;17930,781;   -0,999;   -0,045
885,128;18107,853;    2,819;   -1,864
885,687;18207,106;    4,455;    0,682
886,246;17896,905;    1,455;    2,136
886,805;17656,704;    2,455;    2,045
887,364;17910,867;   -0,999;   -0,500
887,922;18296,484;   -1,181;    0,045
888,481;17811,919;   -1,545;    0,591
889,040;18114,900;    1,183;    2,136
889,599;18801,517;    2,455;    1,409
890,157;18848,588;    1,455;    2,409
890,716;18508,660;   -0,090;    0,227
891,274;18357,732;    0,092;   -1,136
891,833;18797,349;    1,546;    0,864
892,391;18658,784;   -0,454;    0,500
892,950;18736,855;    1,819;   -0,773
893,508;19104,109;    0,455;   -0,409
894,067;18416,453;    0,637;    0,136
894,625;18311,070;   -0,636;   -1,500
895,183;18563,778;   -0,363;   -0,682
895,741;18425,577;    1,728;   -1,773
896,299;18272,012;   -0,545;   -2,409
896,858;18455,266;    0,819;   -1,591
897,416;18609,792;    2,728;   -1,318
897,974;18280,136;    1,819;    0,318
898,532;18468,662;    6,091;    2,682
899,089;18371,643;    2,091;   -0,682
899,647;18391,169;   -1,454;    1,318
900,205;18117,332;    1,182;    1,045
900,763;18263,040;   -0,454;    0,227
901,321;18291,202;    2,364;   -1,409
901,878;17692,274;   -1,000;   -0,773
902,436;17573,800;   -1,363;    1,318
902,994;17989,690;    4,728;    3,682
903,551;17433,670;    0,728;    0,409
904,109;17803,560;    0,182;   -1,409
904,666;17312,541;    2,455;    1,045
905,224;17112,340;    0,182;   -0,409
905,781;16904,138;    0,727;   -0,318
906,338;16987,574;   -1,363;    1,045
906,895;16889,645;    0,637;    2,045
907,453;16826,626;    1,727;    1,136
908,010;16862,061;   -0,909;    0,409
908,567;16491,769;    1,273;    0,591
909,124;15952,113;    0,364;   -1,500
909,681;16033,549;   -2,909;    0,682
910,238;16158,257;    0,636;   -1,318
910,795;16467,783;   -0,273;   -1,136
911,352;16094,783;   -2,909;   -2,682
911,909;15528,965;   -1,364;   -0,864
912,466;16046,601;   -3,182;    1,500
913,022;15560,419;   -1,636;    0,500
913,579;15899,237;   -0,909;    2,045
914,136;15567,510;    1,636;    0,955
914,692;15929,692;    0,091;   -1,227
915,249;15532,510;    1,455;    0,409
915,806;15770,601;    0,182;    1,955
916,362;15534,692;    1,909;    1,864
916,918;15082,965;    2,000;    1,045
917,475;15046,965;   -1,182;    0,955
918,031;15095,056;    3,364;   -0,045
918,587;14532,419;   -0,909;   -0,318
919,144;14699,510;   -2,273;    0,227
919,700;15068,056;    1,727;    0,773
920,256;14596,056;    0,727;    0,045
920,812;14221,783;   -0,727;   -1,045
921,368;14210,419;   -1,727;   -1,045
921,924;13851,237;    0,182;   -0,136
922,480;13427,146;   -0,545;    1,227
923,036;14047,874;    1,273;    1,955
923,592;13952,419;    0,455;    0,318
924,148;13886,419;    0,455;   -0,955
924,704;13196,783;   -1,364;   -0,409
925,259;13413,692;   -0,273;    0,591
925,815;13174,601;    1,455;    0,500
926,371;12676,237;    2,909;    1,409
926,926;12549,237;    2,091;    0,591
927,482;12183,056;   -1,364;    0,773
928,037;12072,783;    0,909;    2,045
928,593;12381,783;    1,636;    1,045
929,148;12171,419;   -1,818;   -1,500
929,704;11628,328;   -1,455;   -0,500
930,259;11858,146;    0,091;   -0,136
930,814;10924,601;   -0,818;    1,955
931,369;10554,783;    1,091;   -0,773
931,925;10400,601;   -0,091;    0,136
932,480;10312,510;   -2,818;   -2,591
933,035;10183,874;    0,545;   -0,318
933,590; 9976,237;    0,364;   -1,773
934,145; 9573,237;   -1,364;   -0,318
934,700; 9893,692;    0,455;   -0,591
935,255; 9677,601;   -0,091;    0,045
935,809; 8934,874;    3,182;    0,864
936,364; 8017,237;   -0,455;   -0,136
936,919; 7952,419;    0,455;   -1,773
937,474; 7800,692;    1,455;    0,136
938,028; 7559,783;   -1,636;    1,136
938,583; 7026,874;    1,818;    4,682
939,138; 7280,056;    2,091;    2,136
939,692; 6712,056;    1,636;   -1,136
940,247; 6384,146;   -0,727;   -1,045
940,801; 5922,874;   -0,636;    0,227
941,355; 5809,510;   -0,364;    2,591
941,910; 5430,874;   -0,273;   -2,136
942,464; 5537,965;   -0,818;   -0,318
943,018; 5329,965;    1,000;   -0,227
943,572; 5262,146;    2,545;   -0,682
944,126; 4652,419;    0,091;   -0,409
944,681; 4530,510;    3,091;    0,227
945,235; 4507,783;    1,000;   -0,591
945,789; 4465,510;    0,364;   -1,864
946,342; 4558,328;    0,455;   -0,591
946,896; 4357,237;   -2,273;    0,955
947,450; 4106,237;    1,545;   -0,227
948,004; 4306,874;    1,727;   -0,045
948,558; 4298,419;    0,273;   -0,864
949,111; 4251,419;   -0,273;   -0,318
949,665; 4267,510;    1,636;   -0,682
950,219; 4112,510;   -0,091;   -1,045
950,772; 4213,874;   -1,909;    1,864
951,326; 4093,056;    0,545;   -0,955
951,879; 4231,601;    0,727;   -2,318
952,433; 4236,237;    0,000;    2,227
952,986; 4067,692;    2,909;    0,682
953,539; 4015,692;   -0,273;    0,591
954,093; 3933,783;    0,545;   -1,318
954,646; 4090,146;    0,909;    1,318
955,199; 3881,783;    0,000;   -0,500
955,752; 3758,874;   -0,455;    1,773
956,305; 3729,237;   -0,091;    2,955
956,858; 3907,510;    0,818;   -0,318
957,411; 4075,874;   -0,545;    2,136
957,964; 3898,510;    1,364;    2,136
958,517; 3893,692;   -1,545;    3,136
959,070; 3716,328;   -0,455;    1,955
959,623; 3780,056;    1,091;    1,500
960,176; 3528,056;    1,727;    2,045
960,728; 3530,328;   -2,727;    0,773
961,281; 3579,510;    0,545;    0,500
961,834; 3637,419;   -0,909;    0,864
962,386; 3536,601;    1,727;    1,045
962,939; 3460,056;    0,364;   -0,318
963,491; 3608,237;    0,455;    1,136
964,043; 3488,237;    1,182;    2,409
964,596; 3608,601;   -1,000;    2,227
965,148; 3446,874;   -1,000;    1,773
965,700; 3355,874;    1,091;   -0,227
966,253; 3504,783;   -0,636;    0,318
966,805; 3340,965;   -2,273;    0,773
967,357; 3404,328;    1,091;   -1,500
967,909; 3359,328;    0,455;   -1,227
968,461; 3463,328;    0,545;    3,136
969,013; 3406,146;   -0,182;   -0,864
969,565; 3480,328;   -0,455;   -1,136
970,117; 3499,419;   -0,364;    1,045
970,669; 3365,874;    0,182;   -0,136
971,220; 3227,965;   -0,455;   -1,500
971,772; 3147,601;   -0,636;   -0,318
972,324; 3267,056;    0,091;   -0,500
972,876; 3219,601;    0,818;   -0,045
973,427; 3357,874;    1,909;   -1,045
973,979; 3309,237;   -0,727;   -2,500
974,530; 3360,965;    1,818;    1,318
975,082; 3376,874;   -0,545;    1,682
975,633; 3254,965;    1,091;    1,682
976,184; 3391,874;    0,909;    0,773
976,736; 3177,056;    0,091;    0,227
977,287; 2976,056;   -0,909;   -0,500
977,838; 3144,510;    0,909;   -0,318
978,389; 3220,419;   -1,000;   -0,500
978,940; 3081,328;    0,545;   -0,409
979,491; 3121,056;    0,091;   -0,500
980,042; 3087,783;    0,182;    3,045
980,593; 3138,510;   -2,545;    0,227
981,144; 3160,419;    2,545;   -0,500
981,695; 3126,692;    1,455;    1,500
982,246; 3091,692;   -0,273;    1,045
982,797; 3273,601;   -1,727;    0,682
983,347; 3375,146;    0,364;    0,591
983,898; 3558,510;    3,091;    0,409
984,449; 3369,146;    2,182;    0,773
984,999; 3276,146;    1,455;   -1,136
985,550; 3040,328;    0,182;   -0,318
986,100; 3060,328;   -0,455;   -0,318
986,651; 3108,601;   -0,818;    0,045
987,201; 3091,510;   -1,000;   -0,591
987,751; 3181,965;    0,818;    2,864
988,302; 3158,419;    2,636;    1,500
988,852; 3182,056;    0,455;   -1,136
989,402; 3214,056;    0,091;    0,682
989,952; 3130,692;   -2,182;    0,864
990,502; 3238,237;   -0,091;    0,682
991,052; 3202,783;   -0,727;    0,045
991,602; 3067,146;   -2,909;    1,318
992,152; 3057,783;    0,455;    0,682
992,702; 3041,510;    1,364;   -0,045
993,252; 2969,419;   -3,000;   -0,500
993,802; 3060,965;   -0,273;    1,318
994,352; 3290,874;   -1,545;    1,136
994,901; 3387,692;   -0,182;    3,227
995,451; 3281,146;   -0,182;    0,318
996,000; 3384,237;    1,636;    0,318
996,550; 3084,874;    2,273;    0,227
997,100; 3101,601;    1,273;   -0,045
997,649; 3371,510;    2,182;    0,955
998,198; 2989,692;    1,727;   -1,500
998,748; 3203,328;    1,091;   -2,318
999,297; 3108,510;   -0,818;   -0,409
999,846; 3152,874;    1,000;   -0,773
1000,395; 3207,328;   -0,818;    0,500
1000,945; 3159,783;    1,818;   -0,773
1001,494; 3254,874;    2,364;    0,682
1002,043; 3245,783;    4,636;    0,864
1002,592; 3077,056;   -1,091;    1,955
1003,141; 3219,965;   -0,455;   -0,682
1003,690; 3089,419;    1,727;    0,500
1004,238; 3179,328;    1,455;   -0,045
1004,787; 2800,601;    1,364;    1,227
1005,336; 3036,419;    0,364;    0,682
1005,885; 3181,874;    1,364;   -2,773
1006,433; 3331,056;    0,545;    0,955
1006,982; 3382,146;    0,455;    1,682
1007,531; 3290,056;   -1,818;   -0,227
1008,079; 3257,328;   -2,273;    0,500
1008,627; 3377,328;   -1,455;    0,409
1009,176; 3105,601;    0,000;   -1,955
1009,724; 3171,874;    1,091;    0,864
1010,273; 3213,692;    1,273;    0,500
1010,821; 3318,965;    0,091;    1,409
1011,369; 3050,056;   -1,364;    1,318
1011,917; 3034,510;   -1,364;   -0,591
1012,465; 3316,328;    1,273;   -1,591
1013,013; 3441,237;    2,091;   -1,682
1013,561; 3317,874;    0,455;   -0,773
1014,109; 3374,783;   -1,909;    1,682
1014,657; 3242,601;    0,364;    0,591
1015,205; 3353,056;    1,636;   -0,955
1015,753; 3394,874;   -0,545;   -1,409
1016,301; 3436,965;   -2,636;    3,045
1016,848; 3435,237;   -1,273;    0,409
1017,396; 3487,692;    2,545;    0,045
1017,944; 3626,965;    1,182;    1,864
1018,491; 3351,056;    0,273;    1,409
1019,039; 3487,874;    0,455;    0,591
1019,586; 3412,328;   -1,364;    1,682
1020,134; 3520,419;    0,455;    1,500
1020,681; 3556,783;    0,182;   -1,136
1021,228; 3558,692;    2,909;   -2,227
1021,776; 3368,419;    1,182;   -1,136
1022,323; 3611,601;    0,455;    0,773
1022,870; 3520,692;   -1,000;   -0,045
1023,417; 3406,874;    2,636;    1,864
1023,964; 3562,510;    2,636;    1,227
1024,511; 3387,056;    1,000;    0,773
1025,058; 3186,237;    3,182;   -0,045
1025,605; 3233,056;   -2,273;    3,136
1026,152; 3484,419;    1,727;   -0,591
1026,699; 3190,692;    1,818;    1,318
1027,245; 3361,874;   -0,091;    0,318
1027,792; 3588,965;   -1,000;    1,409
1028,339; 3467,783;    2,364;   -0,045
1028,885; 3305,783;    1,000;   -0,227
1029,432; 3226,965;   -0,091;    0,227
1029,978; 3283,874;   -1,000;   -1,591
1030,525; 3186,601;    1,000;    0,409
1031,071; 3447,056;   -1,364;    1,136
1031,618; 3552,237;    0,364;    1,682
1032,164; 3322,874;   -0,091;    3,045
1032,710; 3383,692;    1,636;   -1,500
1033,256; 3297,328;   -0,636;   -0,136
1033,803; 3303,056;   -0,545;    1,500
1034,349; 2948,237;   -1,364;    0,136
1034,895; 3123,601;    0,000;   -0,318
1035,441; 3098,056;   -0,818;    0,318
1035,987; 3104,874;   -2,364;   -0,682
1036,533; 3093,419;   -1,455;   -0,955
1037,078; 3313,510;    1,455;    1,682
1037,624; 3134,510;    2,455;   -0,955
1038,170; 3160,146;    0,455;   -0,318
1038,716; 3065,601;    1,636;   -0,409
1039,261; 2972,510;   -2,273;   -0,773
1039,807; 2896,965;   -0,091;    3,409
1040,352; 2977,783;   -1,909;   -0,318
1040,898; 3016,419;   -1,545;   -0,682
1041,443; 2926,692;   -1,455;   -2,591
1041,989; 2936,510;    1,091;    1,591
1042,534; 2803,692;   -0,364;    2,591
1043,079; 2928,601;    2,909;    0,955
1043,625; 2728,965;    1,818;    0,500
1044,170; 2766,328;   -1,364;    1,045
1044,715; 3049,328;    2,455;    0,955
1045,260; 2826,874;    2,182;   -0,955
1045,805; 2876,328;    1,182;   -0,591
1046,350; 2813,237;    1,364;   -0,409
1046,895; 2773,783;    2,909;    1,591
1047,440; 2728,328;    5,364;    0,409
1047,985; 2624,692;    2,818;   -0,955
1048,530; 2534,965;    1,545;    1,227
1049,074; 2596,783;    0,000;    0,318
1049,619; 2573,874;   -1,364;    1,955
1050,164; 2369,146;    0,455;    0,227
1050,708; 2414,146;   -0,455;    0,045
1051,253; 2803,056;    1,273;   -2,227
1051,797; 2502,965;    0,818;   -1,318
1052,342; 2492,510;   -1,182;    1,045
1052,886; 2501,783;    0,364;   -1,409
1053,430; 2372,328;   -1,364;    0,136
1053,975; 2388,692;   -0,818;   -0,318
1054,519; 2357,056;   -0,727;    3,227
1055,063; 2377,237;    0,909;    1,318
1055,607; 2267,056;   -0,182;    0,227
1056,151; 2298,056;    2,909;    1,682
1056,695; 2201,874;    2,273;   -1,136
1057,239; 2269,328;   -1,727;   -0,682
1057,783; 2288,146;    0,818;   -1,500
1058,327; 2224,328;    0,000;    1,409
1058,871; 2449,692;   -0,545;    1,318
1059,415; 2159,146;   -0,818;   -0,045
1059,958; 2427,146;    1,455;    2,591
1060,502; 2152,328;   -1,000;   -0,773
1061,046; 2047,328;    0,364;   -0,955
1061,589; 2015,510;   -3,000;   -1,136
1062,133; 1904,056;   -1,273;    1,864
1062,676; 1835,146;    1,182;    0,864
1063,220; 1843,056;    1,091;    0,500
1063,763; 1862,328;    0,909;    1,136
1064,306; 1948,874;   -0,909;    1,864
1064,849; 1828,056;   -0,909;    0,591
1065,393; 1833,601;    2,000;   -1,500
1065,936; 1960,874;    0,182;   -0,409
1066,479; 1843,419;   -1,455;    1,318
1067,022; 1861,056;   -0,273;   -0,227
1067,565; 1748,874;   -0,091;   -1,318
1068,108; 1772,419;    0,727;   -0,591
1068,651; 1740,328;   -0,636;    1,409
1069,194; 1672,874;   -0,455;   -1,682
1069,736; 1681,146;   -1,273;    0,955
1070,279; 1652,237;   -1,364;   -0,500
1070,822; 1705,692;   -2,000;   -0,318
1071,364; 1808,419;   -0,364;    1,318
1071,907; 1612,965;   -0,727;    3,227
1072,450; 1509,510;    0,000;   -0,045
1072,992; 1512,237;   -0,273;    3,136
1073,535; 1656,965;    2,091;    2,136
1074,077; 1424,237;   -0,727;    2,045
1074,619; 1404,328;   -1,364;    0,591
1075,161; 1439,783;   -1,091;    1,500
1075,704; 1629,783;    1,545;    1,227
1076,246; 1419,328;   -0,182;    0,682
1076,788; 1359,601;   -0,364;    1,773
1077,330; 1416,965;    1,273;    2,136
1077,872; 1385,056;    0,909;    0,955
1078,414; 1623,783;    2,727;    0,773
1078,956; 1343,601;    1,273;   -0,227
1079,498; 1611,510;    1,636;    0,318
1080,040; 1301,056;    1,909;   -1,318
1080,581; 1248,419;    1,636;   -0,318
1081,123; 1155,692;    0,091;   -0,773
1081,665; 1221,328;   -1,182;   -0,955
1082,206; 1534,056;    1,364;   -0,500
1082,748; 1384,056;    0,727;    2,045
1083,289; 1253,965;   -2,000;    1,318
1083,831; 1147,328;   -0,545;    0,227
1084,372; 1201,965;    0,000;    0,591
1084,913; 1204,874;    1,091;    0,864
1085,455; 1162,692;   -1,909;   -2,045
1085,996; 1146,328;   -2,273;    0,136
1086,537; 1161,692;   -0,091;    0,864
1087,078; 1183,328;   -0,909;   -2,136
1087,619; 1239,601;   -1,273;    0,227
1088,160; 1142,692;    0,000;    1,318
1088,701; 1138,601;   -1,091;    0,682
1089,242; 1077,056;    1,364;   -2,227
1089,783; 1178,237;   -0,273;    1,409
1090,324; 1132,783;    0,455;    0,682
1090,865; 1007,874;    2,727;   -0,409
1091,405;  969,237;    0,727;    2,227
1091,946; 1006,419;    0,182;   -0,955
1092,487;  926,601;    0,818;   -1,409
1093,027; 1093,692;   -1,364;   -1,500
1093,568;  949,692;   -0,364;    1,227
1094,108; 1068,328;    0,273;    1,773
1094,649;  985,783;   -1,182;    0,136
1095,189;  930,146;   -0,636;   -0,682
1095,729;  872,328;   -0,091;    0,955
1096,269;  875,965;    0,727;   -0,955
1096,810; 1213,237;   -1,364;    0,500
1097,350; 1034,146;    1,364;   -0,773
1097,890;  931,056;    0,364;    1,227
1098,430; 1191,510;    2,364;    2,864
1098,970; 1052,783;    2,182;    1,682
1099,510;  910,056;    0,545;   -2,318
1100,050;  843,328;    1,000;   -1,591
1100,589;  805,146;   -0,727;   -0,318
1101,129;  933,328;    0,818;   -0,955
1101,669; 1087,237;    1,727;    2,136
1102,209;  907,056;   -0,091;    2,227
1102,748;  869,237;    0,000;    0,955
1103,288;  863,783;    1,273;   -1,227
1103,827;  886,874;    3,091;   -2,227
1104,367;  755,874;   -0,091;   -2,409
1104,906;  706,601;    1,364;   -1,136
1105,445;  785,056;    0,636;   -1,136
1105,985;  747,237;   -0,727;    1,500
1106,524;  788,146;   -1,727;   -0,682
1107,063;  757,146;   -2,727;    1,409
1107,602;  723,601;   -1,909;   -1,500
1108,141;  649,601;   -1,909;    1,500
1108,680;  760,874;   -3,455;   -0,591
1109,219;  694,601;   -0,909;   -0,500
1109,758;  681,328;    0,455;    0,682
1110,297;  667,146;    1,000;   -0,682
1110,836;  605,056;   -0,727;    0,955
1111,375;  772,237;   -2,545;    0,409
1111,913;  793,874;   -1,000;    0,773
1112,452;  715,601;   -0,273;    0,136
1112,991;  597,601;    1,091;    1,955
1113,529;  559,237;   -0,818;   -0,045
1114,068;  638,510;   -0,273;    2,955
1114,606;  536,146;   -0,364;   -0,955
1115,144;  699,056;   -1,273;    1,045
1115,683;  630,692;   -0,727;    0,318
1116,221;  675,237;   -0,455;   -0,864
1116,759;  583,692;    0,636;   -0,864
1117,297;  809,601;    0,000;    1,864
1117,836;  600,601;   -2,182;   -1,227
1118,374;  617,056;    0,182;   -0,682
1118,912;  554,601;    0,909;    2,682
1119,450;  536,965;    1,000;    0,864
1119,988;  593,419;    1,545;    2,136
1120,525; 1056,510;    5,091;    3,318
1121,063;  752,056;    1,182;    1,864
1121,601;  555,965;   -0,909;   -1,227
1122,139;  501,692;   -0,727;   -2,045
1122,676;  708,419;   -0,727;    2,773
1123,214;  633,965;   -1,182;    4,409
1123,751;  439,056;    1,727;    2,227
1124,289;  586,510;   -0,091;   -0,409
1124,826;  451,965;    1,727;    0,227
1125,364;  362,783;    1,727;   -0,955
1125,901;  558,965;    1,182;    1,227
1126,438;  670,146;    0,818;    0,955
1126,975;  391,874;   -0,727;   -0,773
1127,513;  470,965;    0,273;    2,136
1128,050;  362,510;    1,636;   -0,682
1128,587;  468,237;    2,000;   -0,227
1129,124;  510,965;    0,091;    1,318
1129,661;  365,692;    0,273;    0,227
1130,198;  543,056;    1,636;    0,773
1130,734;  485,328;    0,182;    1,409
1131,271;  338,874;   -0,909;    0,864
1131,808;  521,601;    2,909;    3,045
1132,345;  388,601;    1,545;    0,318
1132,881;  246,965;   -1,545;   -1,864
1133,418;  411,056;    0,727;   -1,136
1133,954;  341,783;    2,455;   -2,682
1134,491;  418,874;    1,364;   -0,773
1135,027;  310,965;    2,364;    0,864
1135,564;  410,965;    0,273;    2,955
1136,100;  387,056;    0,364;    2,136
1136,636;  263,692;   -1,273;   -1,045
1137,172;  374,237;    0,000;   -1,045
1137,708;  293,601;   -1,364;   -1,045
1138,245;  295,692;    1,273;   -1,227
1138,781;  240,783;    1,091;   -3,318
1139,317;  321,874;    1,273;   -1,409
1139,852;  296,692;    3,091;    0,136
1140,388;  430,146;   -1,182;   -0,409
1140,924;  306,328;   -1,091;   -2,227
1141,460;  235,146;   -1,636;    0,136
1141,996;  151,692;   -1,364;    2,682
1142,531;  209,874;    1,364;    3,318
1143,067;  453,692;    1,182;    1,045
1143,602;  513,056;   -0,091;   -0,318
1144,138;  342,328;   -2,636;    1,045
1144,673;  200,601;   -1,455;    1,409
1145,209;  277,783;   -1,909;   -0,318
1145,744;  184,056;   -0,727;    0,864
1146,279;  346,510;    1,818;   -0,136
1146,815;  247,328;    1,545;   -2,682
1147,350;  297,237;   -1,364;    0,045
1147,885;  197,056;   -0,818;   -1,318
1148,420;  197,601;   -2,273;    0,773
1148,955;  173,419;   -1,727;    1,864
1149,490;  200,965;   -0,909;   -1,591
1150,025;  187,692;    0,455;   -1,773
1150,560;  310,692;    1,091;   -0,955
1151,094;  278,965;    1,455;   -0,591
1151,629;  270,965;    1,636;    0,864
1152,164;  190,965;    1,364;    1,318
1152,698;  150,692;   -0,182;   -0,136
1153,233;  119,419;    0,091;   -0,682
1153,767;  161,419;   -3,000;   -2,318
1154,302;  214,328;   -1,455;    1,773
1154,836;  222,328;   -0,455;   -2,136
1155,371;  275,601;   -1,364;    3,682
1155,905;  216,965;   -0,636;    1,682
1156,439;  183,328;   -0,636;   -0,500
1156,973;  215,783;    0,364;    0,318
1157,507;  153,965;   -0,364;    0,682
1158,042;  186,783;   -0,727;    1,045
1158,576;  241,692;    0,182;    1,773
1159,110;  227,692;   -0,818;    2,409
1159,643;  200,328;    0,636;   -0,045
1160,177;  121,783;   -1,545;    1,500

