
Integration time [ms]:   0,040
Averaging Nr. [scans]: 11
Smoothing Nr. [pixels]: 0
Data measured with spectrometer [name]: 7318044SP
Wave   ;Sample   ;Dark     ;Reference
[nm]   ;[counts] ;[counts] ;[counts] 

186,757;    0,138;   31,551;    1,318
187,357;   23,189;   22,551;    0,955
187,958;    0,833;   15,460;   -1,591
188,558;   39,621;    8,915;   -1,227
189,159;   15,146;    6,733;   -4,500
189,759;   -2,229;    7,278;   -3,591
190,360;  -11,816;    2,824;   -2,136
190,960;   16,833;    2,915;   -4,136
191,560;   26,635;    3,189;   -6,591
192,161;  210,875;    4,372;   -3,500
192,761;   91,370;    4,010;   -3,227
193,361;   33,670;    1,556;   -3,773
193,962;   71,109;    2,010;   -2,682
194,562;    6,443;    1,189;   -3,955
195,162;   15,976;   -2,448;   -2,227
195,762;  121,332;   -3,176;   -0,045
196,362;   74,978;    1,370;   -2,500
196,963;   -3,060;    2,006;   -0,864
197,563;   34,698;    1,551;   -0,955
198,163;    3,946;    0,096;   -0,682
198,763;   11,853;    1,733;   -0,500
199,363;   54,330;    3,096;   -0,500
199,963;   26,868;    0,369;    0,409
200,563;   13,524;    2,823;   -1,409
201,163;    0,046;    3,277;   -0,227
201,763;   33,118;    3,732;    0,318
202,363;    2,872;    1,459;    1,500
202,963;   28,602;    1,459;    1,045
203,563;   79,604;    0,277;    0,500
204,162;   19,364;    2,096;   -1,864
204,762;   13,926;    0,550;    0,591
205,362;   -3,036;    3,004;    1,955
205,962;   20,879;    3,096;    1,955
206,562;   11,028;    1,823;    2,318
207,161;   -4,621;   -0,087;    0,318
207,761;   69,054;    1,277;    2,409
208,361;   12,517;   -0,268;    1,409
208,960;   28,333;    0,459;    1,500
209,560;   18,701;    1,277;    1,591
210,160;   27,358;    0,550;    1,864
210,759;   10,618;    4,186;    1,227
211,359;    1,849;    1,459;    1,045
211,958;   94,405;    1,277;    2,045
212,558;   98,401;    1,732;    1,864
213,157;   29,577;    1,822;    1,500
213,757;  161,308;    3,822;   -0,227
214,356;   56,746;    1,277;   -0,409
214,956;  139,956;    3,095;    0,409
215,555;   38,417;    2,095;    2,136
216,154;    9,261;   -2,723;   -0,591
216,754;   11,562;    0,277;    0,773
217,353;   19,840;   -0,268;   -1,045
217,952;  -16,457;   -0,178;    0,318
218,552;   37,075;    1,368;   -0,773
219,151;    5,382;    0,277;    0,955
219,750;   -2,296;    0,004;   -0,227
220,349;  -10,023;   -0,451;    1,045
220,948;   44,411;   -1,360;    1,136
221,548;   -3,657;    0,913;    1,227
222,147;   12,531;   -0,087;   -0,409
222,746;   82,455;   -0,451;   -0,955
223,345;   33,201;    0,731;    0,500
223,944;   31,086;   -0,451;    0,773
224,543;   31,455;    1,004;   -1,409
225,142;   18,251;    0,094;    0,136
225,741;   21,777;   -0,814;    1,045
226,340;   15,822;   -0,451;   -0,955
226,939;   59,378;   -0,996;   -0,136
227,538;    4,028;   -0,360;   -0,773
228,137;   58,014;   -0,814;    0,864
228,735;   34,937;   -0,541;    1,227
229,334;   -9,489;   -0,905;   -0,227
229,933;   67,079;    0,459;    0,591
230,532;   65,798;    1,186;   -0,409
231,131;  102,484;    1,732;    0,318
231,729;   44,878;   -2,450;   -2,318
232,328;   10,169;   -0,723;   -1,500
232,927;   20,181;    1,004;   -0,500
233,525;   19,238;    3,640;    0,045
234,124;   30,227;    2,368;   -1,591
234,723;    2,929;    0,913;   -1,045
235,321;   -6,872;    2,277;    0,136
235,920;    2,228;    1,186;   -1,227
236,518;   73,790;    3,459;    0,318
237,117;    5,485;    0,004;   -0,227
237,715;   15,744;    0,640;   -0,500
238,314;   18,300;   -0,087;   -2,318
238,912;   69,416;   -0,723;   -1,409
239,510;   38,383;    0,459;   -1,227
240,109;   81,595;    0,004;    3,773
240,707;   66,861;   -0,996;    1,227
241,305;    0,331;    0,550;    0,136
241,904;   32,695;   -0,178;   -2,045
242,502;   88,015;   -0,632;   -0,227
243,100;   40,864;   -0,087;   -0,955
243,698;   -4,422;    0,732;    1,682
244,297;   21,770;   -0,632;    0,682
244,895;   18,157;   -0,269;   -2,318
245,493;   80,351;    2,186;   -0,591
246,091;   83,837;    1,368;   -1,318
246,689;   44,579;    1,004;    0,591
247,287;   44,750;    0,822;   -1,136
247,885;   20,734;   -1,451;    1,227
248,483;    5,466;    1,822;   -0,500
249,081;   40,526;    0,185;    1,591
249,679;   42,063;   -0,178;    1,682
250,277;    1,290;   -1,723;    0,864
250,875;   40,304;   -1,087;   -1,045
251,473;   15,769;   -1,178;    0,500
252,071;   56,193;    1,459;    1,045
252,669;   15,722;   -1,814;    0,318
253,267;   -2,405;   -0,087;    0,773
253,864;   18,295;   -0,360;    0,682
254,462;   66,050;    1,640;    1,591
255,060;   -2,878;   -0,269;    1,318
255,658;   -8,733;    0,822;   -0,136
256,255;    5,310;    0,186;   -2,045
256,853;   32,007;   -0,269;    1,409
257,451;    9,925;    0,822;    1,864
258,048;  169,815;    1,822;    1,864
258,646;   70,519;    1,731;   -1,045
259,243;  100,007;   -0,087;    2,227
259,841;   48,227;   -0,814;    0,318
260,438;    1,603;   -0,087;    0,864
261,036;   36,963;   -1,905;    1,409
261,633;    8,966;   -0,087;    2,227
262,231;  -10,664;    2,731;   -0,045
262,828;  -10,118;   -0,905;    1,136
263,425;    1,662;    0,913;   -0,591
264,023;    8,031;    0,186;    0,045
264,620;   41,639;   -0,360;   -0,318
265,217;   85,617;   -2,087;    3,136
265,815;   12,736;   -1,905;    2,136
266,412;   39,679;    0,731;    0,136
267,009;   28,121;   -1,451;    0,773
267,606;   66,883;    0,822;   -0,955
268,203;   16,021;   -0,269;   -0,591
268,801;   16,398;    1,731;    0,591
269,398;   -3,284;   -0,360;    2,500
269,995;   37,700;    0,277;    1,591
270,592;   20,992;   -0,632;   -0,500
271,189;   -1,985;    0,186;    0,409
271,786;  -13,599;   -0,632;    1,227
272,383;   50,207;   -1,087;    0,227
272,980;    8,340;    0,277;    0,318
273,577;   -8,381;    0,004;    1,227
274,174;   -8,777;    0,822;    2,591
274,771;   32,086;   -0,814;   -0,773
275,367;  184,906;    2,277;    1,409
275,964;   82,148;    0,731;   -0,500
276,561;   13,315;    1,549;   -1,045
277,158;  -21,300;    0,095;   -1,773
277,755;   65,889;    2,185;    0,409
278,351;   36,079;   -0,451;   -1,500
278,948;   55,424;   -0,815;    0,045
279,545;   39,804;   -1,360;    2,318
280,141;   72,437;   -1,723;   -2,045
280,738;   71,205;   -0,451;   -0,136
281,334;   14,898;   -1,633;    0,591
281,931;    3,670;   -0,087;   -1,318
282,528;   54,222;    0,822;   -0,500
283,124;   74,777;   -1,087;   -0,500
283,721;   71,909;   -0,451;    1,409
284,317;   27,161;    0,185;    2,500
284,913;   72,127;   -1,360;    0,591
285,510;  124,491;    0,640;   -0,318
286,106;   75,108;   -2,269;   -0,955
286,703;   35,441;   -0,360;    1,955
287,299;   12,773;   -1,451;   -0,591
287,895;    8,573;    0,822;   -1,045
288,491;    6,989;    0,186;    2,136
289,088;   32,470;   -2,360;    2,409
289,684;   42,995;   -1,723;    1,500
290,280;  100,662;    0,368;    0,682
290,876;   77,900;    1,822;    5,500
291,472;   64,271;    1,276;    2,227
292,068;   76,351;    1,367;    0,227
292,665;   27,864;    2,095;    0,773
293,261;   -9,378;    0,276;    2,136
293,857;   53,964;    2,913;    2,136
294,453;   24,730;    3,550;    0,955
295,049;   98,483;   -0,268;    1,955
295,644;   48,963;    0,095;    0,136
296,240;    8,092;   -0,905;   -0,136
296,836;   38,318;   -0,995;    0,318
297,432;   69,785;    1,096;   -0,500
298,028;   57,836;    0,732;    0,773
298,624;   37,456;    1,459;    1,864
299,220;   34,288;    2,368;    0,591
299,815;   20,802;    1,005;   -0,409
300,411;   53,847;    0,914;    1,773
301,007;   72,061;    1,368;    0,227
301,602;   16,536;   -0,541;   -2,318
302,198;   72,296;    0,732;   -0,773
302,794;   29,578;    1,187;   -0,500
303,389;   -1,374;   -1,177;    1,045
303,985;    7,466;    0,550;    1,409
304,580;   65,047;    1,459;    1,591
305,176;   25,185;   -3,086;    0,136
305,771;  -23,829;   -1,268;   -1,227
306,367;  134,772;    4,095;    0,136
306,962;   45,809;    0,641;    1,500
307,558;   70,122;   -0,450;    0,136
308,153;   54,898;    1,095;   -1,136
308,748;   -0,950;   -0,814;    1,682
309,344;  124,434;   -0,632;   -1,318
309,939;  112,589;   -1,905;   -1,318
310,534;   28,012;   -0,086;   -1,682
311,130;   13,268;    0,459;   -2,500
311,725;    6,516;    1,004;   -0,500
312,320;   18,118;    2,459;    0,045
312,915;   46,816;    1,459;   -1,045
313,510;  126,709;    1,550;   -0,500
314,105;   24,094;    1,096;    1,409
314,700;   -8,567;   -3,086;   -1,045
315,295;   16,502;   -0,904;    0,045
315,890;    0,474;    1,277;    0,864
316,485;   35,487;   -0,359;   -0,318
317,080;    3,871;   -3,086;    1,591
317,675;  130,468;    2,005;   -0,682
318,270;  215,587;    5,550;    3,318
318,865;  142,784;    3,278;    3,045
319,460;   82,693;   -0,904;    0,591
320,055;   20,615;   -0,541;   -1,227
320,650;   22,844;   -1,995;   -0,591
321,244;   22,998;   -0,177;   -1,409
321,839;   19,754;   -1,541;   -0,227
322,434;   28,391;   -1,086;   -1,591
323,029;    6,904;    1,732;    1,591
323,623;    9,777;    1,550;    0,773
324,218;   90,551;    2,368;    1,409
324,812;   58,564;    1,096;    1,591
325,407;   43,784;   -0,814;    2,045
326,002;  104,547;    0,277;   -0,409
326,596;   75,840;    0,914;    1,318
327,191;   12,801;    0,823;   -1,045
327,785;   24,295;   -0,813;   -0,227
328,379;   11,281;    1,368;    0,136
328,974;   21,580;    0,914;   -3,955
329,568;   42,757;    0,186;   -2,409
330,163;   74,628;    2,096;    1,045
330,757;   11,146;    2,459;    1,591
331,351;   -5,761;    0,459;    0,682
331,945;   -5,043;    0,914;    1,409
332,540;   36,043;   -1,723;   -0,591
333,134;   25,455;   -1,086;    0,773
333,728;   38,017;    0,005;    0,318
334,322;   -5,755;   -1,177;   -0,864
334,916;   -6,729;    0,277;    0,955
335,510;   61,112;   -0,450;   -0,136
336,105;   39,619;   -1,086;    1,591
336,699;    3,909;   -1,086;    0,591
337,293;   23,820;   -1,723;    0,318
337,887;    9,144;   -2,723;    1,955
338,481;   44,174;    0,459;    0,591
339,074;   93,922;   -0,359;    2,682
339,668;   77,423;   -1,632;    1,227
340,262;  327,466;    1,732;    3,227
340,856;  134,374;    1,822;   -0,682
341,450;   21,401;    1,004;    1,864
342,044;   42,365;    1,459;    0,136
342,637;   77,777;    0,913;   -2,136
343,231;   32,249;   -2,360;    0,682
343,825;   31,014;   -1,086;   -0,591
344,419;   23,597;   -1,995;    0,500
345,012;  262,480;    2,459;    4,045
345,606;  160,086;    4,641;    1,591
346,199;   35,481;   -1,813;   -0,227
346,793;   77,255;    1,914;    2,045
347,386;   13,553;   -0,813;   -1,136
347,980;  -10,092;   -0,268;   -0,045
348,573;   19,022;    2,278;    0,409
349,167;  181,165;    5,278;    4,773
349,760;   93,071;    2,914;    2,682
350,354;   76,683;   -0,813;    1,136
350,947;   91,224;    1,096;    1,682
351,540;   49,279;   -0,358;   -1,409
352,134;    1,369;    1,096;    1,136
352,727;   -0,747;   -0,086;    1,136
353,320;    6,141;    0,005;    0,591
353,913;  -12,920;   -1,995;    1,864
354,507;   71,826;    0,823;   -1,227
355,100;   16,094;    0,460;    0,864
355,693;  229,173;    2,005;    2,409
356,286;   98,838;    0,823;    2,773
356,879;   35,042;   -0,722;    1,227
357,472;   40,752;   -0,904;    1,500
358,065;   53,230;   -0,722;    2,500
358,658;   -5,670;   -0,540;    2,318
359,251;   -7,881;   -1,631;   -0,591
359,844;   59,909;   -1,904;   -1,136
360,437;   89,404;   -2,995;    0,045
361,030;   27,275;    1,369;   -0,682
361,623;   30,235;    2,824;    0,318
362,215;  146,935;   -0,086;    2,045
362,808;   53,667;   -2,358;   -1,682
363,401;   21,871;   -2,449;    0,136
363,994;  127,702;   -0,631;   -1,500
364,586;   38,237;    0,824;   -1,500
365,179;   16,704;   -0,449;   -1,136
365,772;  -25,030;   -1,995;    2,045
366,364;   28,040;    1,915;   -3,227
366,957;   42,612;    2,279;   -0,045
367,549;   20,356;    2,188;   -0,864
368,142;   31,535;    1,825;   -1,500
368,734;   19,826;    0,734;   -2,136
369,327;  -16,354;    1,643;   -0,500
369,919;    0,551;   -1,538;    0,409
370,512;   18,087;   -1,083;   -0,500
371,104;  205,028;   -0,901;    1,591
371,696;  213,797;    1,191;   -0,955
372,289;  115,317;    0,373;    1,136
372,881;   81,375;   -2,080;    1,318
373,473;    8,261;   -2,170;    1,136
374,066;   76,589;   -0,169;    0,500
374,658;   60,876;    0,378;    1,136
375,250;   11,914;    0,653;   -1,409
375,842;   50,007;    0,473;   -0,045
376,434;   19,869;   -0,435;   -0,409
377,026;   -8,295;    0,204;   -2,500
377,618;   39,953;   -0,158;   -0,682
378,210;  -18,309;   -0,338;   -1,955
378,802;  -23,223;    0,754;   -0,591
379,394;  341,055;    1,846;    0,682
379,986;  101,715;    1,393;   -0,955
380,578;   10,457;   -0,153;    0,773
381,170;  248,175;   -0,972;    0,045
381,762;  176,951;    0,755;    1,409
382,354;  128,599;   -0,065;   -1,318
382,945;   55,412;   -2,976;    0,318
383,537;    0,547;   -2,705;   -1,955
384,129;    4,393;   -2,160;   -1,136
384,721;  118,455;   -0,252;    0,955
385,312;   43,918;   -0,161;   -0,955
385,904;  122,416;   -2,706;    1,591
386,496;   60,451;   -0,979;    1,045
387,087;  178,149;    1,022;    2,500
387,679;  109,022;   -1,160;    0,045
388,270;   84,899;    2,840;    2,045
388,862;   57,057;    1,295;   -0,318
389,453;   52,383;   -0,887;    1,045
390,045;   59,085;   -0,705;   -2,682
390,636;  -47,369;    0,204;   -0,591
391,227;   15,322;   -0,523;   -0,045
391,819;  -10,377;    0,204;    0,773
392,410;  222,069;    1,022;    0,045
393,001;   49,435;   -0,979;   -1,591
393,593;  108,880;    1,930;   -0,045
394,184;  147,951;    1,385;   -0,409
394,775;   39,053;    1,839;    2,136
395,366;  -34,908;    1,385;    0,773
395,957;  132,793;    0,113;    0,136
396,548;   28,782;   -0,342;    2,682
397,139;  134,541;   -2,433;    0,591
397,730;   60,732;   -1,888;    0,955
398,321;   69,022;   -1,252;    0,955
398,912;   15,205;   -0,615;    0,136
399,503;    8,169;   -3,524;   -1,409
400,094;   48,782;    0,294;    1,682
400,685;   33,106;   -0,433;    0,045
401,276;    0,494;    0,930;   -0,955
401,867;  -15,326;   -0,888;    0,773
402,458;  -52,776;   -2,251;   -2,318
403,048;   73,755;    1,112;    0,591
403,639;   21,838;    0,840;    0,864
404,230;  118,297;    2,476;    0,318
404,821;  175,260;   -0,615;    0,045
405,411;   92,389;    1,203;   -2,591
406,002;   15,752;   -1,252;   -1,136
406,592;  224,573;    2,294;    0,045
407,183;   96,850;    0,566;   -1,500
407,774;   74,285;    3,475;   -0,136
408,364;   26,480;    0,930;    0,409
408,954;  132,023;    0,384;    1,227
409,545;  135,339;    1,021;    1,045
410,135;  105,026;    1,293;    0,500
410,726;   47,149;    1,838;    0,318
411,316;  223,461;    0,111;    0,773
411,906;   80,805;   -0,253;   -0,409
412,497;   86,455;   -1,070;   -0,045
413,087;   34,477;   -1,980;   -0,227
413,677;  -27,280;   -0,707;    3,864
414,267;  -29,430;    0,656;    1,409
414,857;  -40,880;   -2,980;    4,227
415,448;  -41,933;    0,839;    0,500
416,038;  -10,070;    0,020;   -0,591
416,628;   29,218;   -0,889;    0,409
417,218;   74,809;    0,565;    3,318
417,808;  210,177;    0,202;   -0,409
418,398;   94,279;    0,020;    2,682
418,988;   -5,455;    2,020;    0,591
419,578;   85,881;   -0,707;    1,409
420,168;   15,777;   -1,343;   -0,955
420,757;  155,729;   -1,343;   -1,500
421,347;   52,046;    0,111;   -0,227
421,937;   17,114;    2,292;    1,409
422,527;  149,654;    0,838;   -0,773
423,116;  272,955;   -0,253;   -0,045
423,706;   19,833;   -1,889;    0,318
424,296;  -12,957;    1,384;    0,682
424,885;   94,953;   -0,071;   -3,045
425,475;   66,736;    1,474;   -2,864
426,065;  -25,846;   -0,980;   -0,318
426,654;  -45,750;   -0,435;   -0,318
427,244;  197,795;    0,020;    1,409
427,833;  174,987;    1,383;   -0,500
428,423;   57,020;   -0,526;    1,136
429,012;   54,721;   -0,344;   -1,136
429,601;  172,545;   -1,344;    0,136
430,191;   74,582;    1,292;    4,318
430,780;  -11,489;   -0,344;   -0,409
431,369;  159,440;    0,746;   -0,045
431,959;   44,939;   -1,254;    0,500
432,548;  -15,352;   -1,163;   -0,045
433,137;  -72,616;   -1,254;   -1,318
433,726;    1,696;    0,292;    0,500
434,315;   28,177;   -0,526;    2,409
434,905;  127,444;   -1,254;    1,409
435,494;  116,485;    0,746;    0,955
436,083;   -2,493;   -0,981;   -0,955
436,672;   87,607;    0,110;    0,500
437,261;   45,992;    0,292;   -1,955
437,850;  252,474;    1,383;    0,682
438,439;  295,642;    3,291;    1,955
439,027;  399,800;    3,655;    1,773
439,616;  330,809;    2,927;    1,227
440,205;  119,785;    0,200;   -2,136
440,794;   77,465;    2,109;   -0,045
441,383;   15,260;   -1,346;   -0,591
441,971;  -15,682;   -2,436;    0,591
442,560;   -6,821;    0,563;   -1,773
443,149;  -87,407;    0,379;   -1,318
443,737;  -47,618;   -0,074;   -2,318
444,326;  -25,955;    0,018;    0,318
444,915;   27,052;   -1,982;    0,864
445,503;   37,756;   -2,891;   -0,318
446,092;  274,731;    0,382;    2,136
446,680;  206,879;    0,382;    0,318
447,269;  122,724;   -0,346;   -0,318
447,857;  109,435;    0,018;   -1,773
448,445;   68,632;    0,563;    1,318
449,034;    9,654;   -1,528;   -1,136
449,622;    9,457;   -1,073;    3,500
450,210;  282,292;    2,017;    2,227
450,799;  192,736;    0,290;   -0,591
451,387;  162,465;    1,381;   -0,591
451,975;  145,987;    2,654;    0,864
452,563;  211,948;    3,472;    2,318
453,151;   47,803;   -0,528;   -1,227
453,739;   95,277;   -1,347;    0,136
454,328;  203,439;    2,381;   -2,136
454,916;  130,779;    2,562;   -0,136
455,504;  147,566;    1,017;    1,227
456,092;   38,143;    0,017;   -1,591
456,679;    7,711;    1,472;    0,682
457,267;  392,695;    4,017;    1,045
457,855;   97,587;    1,017;    1,409
458,443;  -33,850;   -0,165;    1,682
459,031;  111,003;    0,108;    2,409
459,619;   66,983;   -1,801;    2,864
460,206;  -24,394;    0,835;    2,045
460,794;  -23,843;   -2,983;   -0,227
461,382;   20,205;   -0,529;   -0,864
461,970;   28,790;    1,198;    1,864
462,557;  -33,974;   -0,711;   -0,682
463,145;   73,614;   -3,165;   -1,682
463,732;  311,061;    2,016;   -1,045
464,320;   86,286;   -0,075;   -3,045
464,907;  225,482;    2,743;   -0,773
465,495;  138,037;    0,743;   -1,227
466,082;   63,446;   -1,984;   -0,045
466,670;   89,661;   -2,529;    1,227
467,257;  -19,392;   -1,711;    2,045
467,844;   92,140;   -0,075;    0,045
468,432;   59,562;    0,834;    3,500
469,019;   18,497;    0,925;   -1,773
469,606;  101,702;    0,470;    3,682
470,193;  133,339;   -1,439;    0,227
470,780;   79,641;   -2,075;    0,864
471,368;   19,589;   -1,257;   -0,773
471,955;  126,718;    1,379;   -0,682
472,542;   84,096;    0,652;   -1,136
473,129;  -25,303;   -0,166;    0,136
473,716;  -17,227;    1,470;    0,591
474,303;   15,108;    0,652;   -0,864
474,890;   16,637;   -1,439;   -0,500
475,477;  117,879;   -1,621;    0,409
476,064;   29,824;    1,106;   -1,591
476,650;  139,654;    0,288;    0,318
477,237;   50,563;   -0,258;    0,955
477,824;   35,593;   -1,076;    0,864
478,411;  -46,168;   -1,894;   -0,318
478,997;  -47,863;    0,560;   -0,773
479,584;  -91,412;    1,196;   -0,409
480,171;   66,306;   -0,440;   -0,773
480,757;  125,306;    2,651;    0,773
481,344;   20,979;    0,469;    0,409
481,931;  -59,578;    1,105;    1,045
482,517;   65,276;   -1,258;    0,318
483,104;  136,381;    1,106;    2,864
483,690;    8,156;   -1,804;    0,045
484,276;   -9,954;   -0,895;    0,227
484,863;  193,506;    2,469;    1,136
485,449;   38,968;   -0,077;    0,318
486,035;    2,663;   -1,986;   -0,136
486,622;   90,057;   -0,895;    0,045
487,208;   19,102;    1,378;    1,500
487,794;  -58,146;    0,741;    0,318
488,380;  -55,353;    0,105;   -1,409
488,967;  -49,642;   -1,168;   -0,409
489,553;  -37,659;   -1,895;   -1,409
490,139;   39,741;    1,559;    0,773
490,725;  -35,149;    0,741;   -0,227
491,311;   17,989;    3,287;    3,045
491,897;   -1,236;   -0,986;    1,500
492,483;    0,946;    0,105;    1,227
493,069;  401,499;    3,923;    0,864
493,655;  137,796;    1,650;    0,682
494,241;   24,933;    1,377;   -0,955
494,826;   30,356;    0,287;   -1,045
495,412;   83,927;    2,559;   -0,682
495,998;    6,282;   -0,805;   -0,318
496,584;   55,131;    0,377;    1,045
497,169;   74,402;    1,014;   -0,682
497,755;   17,403;    0,650;    1,227
498,341;  140,144;    0,559;    0,318
498,926;  261,796;    1,832;    1,955
499,512;   17,046;    1,286;    2,955
500,097;   11,718;    0,195;   -0,318
500,683;   29,073;   -0,350;    2,136
501,268;   -9,566;   -0,169;   -0,955
501,854;    7,871;   -0,169;    1,227
502,439;   -8,350;   -0,624;   -1,773
503,024;   10,458;    0,195;    0,500
503,610;   39,981;   -0,078;   -0,682
504,195;   -5,152;    0,558;    1,955
504,780;   79,467;    2,922;    1,227
505,366;  152,553;    3,013;    2,864
505,951;   87,809;    0,740;    1,045
506,536;   20,830;   -3,260;   -3,682
507,121;   72,392;    0,285;   -0,318
507,706;   26,804;    2,376;    1,045
508,291;  -22,024;    2,649;    1,136
508,876;  -18,700;   -0,988;    2,591
509,461;   21,603;   -0,169;   -0,773
510,046;   51,686;    0,194;    0,318
510,631;   61,840;   -0,351;   -0,773
511,216;  -16,478;    2,467;   -0,500
511,801;   42,761;   -0,442;    2,591
512,386;   56,790;    0,740;    0,500
512,971;   69,386;   -2,988;    0,955
513,555;   95,544;   -0,897;   -1,500
514,140;   57,014;   -0,442;   -3,136
514,725;  155,618;   -0,715;   -1,136
515,309;   76,341;   -0,533;    0,318
515,894;    3,875;   -0,624;   -2,227
516,479;   37,367;   -0,624;   -0,955
517,063;   33,043;    0,376;    1,227
517,648;   -6,197;    1,012;   -1,136
518,232;  -38,878;   -0,261;   -1,409
518,817;   38,340;   -0,079;    1,682
519,401;  142,038;    2,194;    0,591
519,985;  129,153;    1,103;    1,136
520,570;   20,101;    0,830;   -1,955
521,154;  105,964;    2,102;    0,591
521,738;  241,197;   -2,352;    2,409
522,323;  107,778;   -0,170;    1,682
522,907;  135,760;    0,466;   -0,136
523,491;   89,808;    0,557;    0,955
524,075;   95,208;    2,284;    0,591
524,659;  329,479;    1,466;    0,591
525,243;  321,174;    1,739;    0,409
525,827;  311,077;    0,648;   -0,045
526,411;  380,388;   -1,989;   -0,136
526,995;  603,491;   -0,352;    1,409
527,579;  771,776;   -0,443;   -1,045
528,163;  793,479;    0,375;   -1,500
528,747; 1102,915;    2,466;   -0,773
529,331; 1177,922;   -0,080;   -1,409
529,915; 1077,022;    1,738;    0,955
530,499; 1397,360;   -0,807;    1,227
531,082; 1721,077;   -0,534;    1,591
531,666; 1925,857;    1,374;    0,773
532,250; 2150,770;    1,284;    2,682
532,833; 2585,631;    0,920;    2,773
533,417; 2665,901;   -1,807;    0,864
534,001; 2938,743;    1,647;   -0,318
534,584; 3497,011;    0,374;    0,500
535,168; 3675,585;    0,465;    1,409
535,751; 4173,868;    0,647;    0,045
536,334; 4093,920;   -0,898;   -0,409
536,918; 4770,535;    0,011;    1,591
537,501; 5095,424;   -0,899;    1,318
538,085; 5440,323;   -0,444;    1,045
538,668; 5763,268;    0,829;    2,409
539,251; 6404,578;    1,829;    3,773
539,834; 6714,363;    0,101;    0,773
540,418; 7024,894;   -1,990;    4,318
541,001; 7289,256;   -0,990;    1,773
541,584; 7507,644;    2,101;    2,227
542,167; 7539,952;    1,374;    2,955
542,750; 7785,303;    1,919;   -0,773
543,333; 7661,710;    0,555;    2,136
543,916; 8525,599;    0,192;    2,500
544,499; 9084,702;   -1,354;    0,227
545,082; 9312,633;    1,374;    3,591
545,665; 9629,683;    1,919;    1,500
546,248;10033,529;    1,010;   -0,318
546,830; 9901,030;   -0,445;    1,955
547,413;10390,582;    1,010;   -0,773
547,996;10986,278;    0,555;    0,500
548,579;10896,916;    0,919;    0,955
549,161;10868,029;    1,828;    2,682
549,744;10735,486;   -0,809;    0,409
550,326;11279,003;   -0,809;   -1,136
550,909;11280,048;    2,737;    0,591
551,492;11723,180;   -0,263;    0,227
552,074;11630,776;   -0,173;   -1,318
552,657;12230,009;    2,373;    0,045
553,239;12086,846;   -0,173;   -0,773
553,821;12044,498;   -1,082;    1,045
554,404;11714,180;    1,282;    1,136
554,986;12103,007;    0,464;    1,045
555,568;12644,480;    1,191;   -0,955
556,151;12102,244;    1,191;   -0,227
556,733;12340,079;   -0,264;   -0,864
557,315;12789,436;    0,100;    0,500
557,897;12619,741;    0,554;   -0,500
558,479;12756,646;   -1,991;    1,318
559,061;12916,577;   -0,719;   -0,864
559,643;13308,663;   -0,264;    0,045
560,225;13589,502;    1,645;    2,864
560,807;13655,481;    0,918;    0,318
561,389;13238,369;    0,554;    2,318
561,971;13887,821;    0,463;    2,136
562,553;13769,861;   -1,628;    1,591
563,135;13934,475;   -0,537;    1,136
563,717;13646,646;    3,372;    1,136
564,298;14248,073;    3,645;   -0,045
564,880;14021,064;    0,645;   -1,409
565,462;14176,336;    0,645;    1,318
566,043;15213,565;   -0,446;    2,318
566,625;14828,307;    1,918;    1,227
567,207;14663,411;    1,099;    1,682
567,788;15626,248;   -1,264;    1,500
568,370;16383,953;    1,917;   -0,500
568,951;16204,849;    0,190;    0,227
569,533;16931,660;   -0,628;   -0,500
570,114;17331,188;   -0,446;    0,682
570,695;17722,080;   -0,174;   -1,318
571,277;18101,271;   -0,265;   -1,682
571,858;18791,804;    2,008;   -1,136
572,439;19531,057;    1,554;   -1,045
573,021;19619,500;    2,099;   -2,773
573,602;20062,779;   -1,265;    0,318
574,183;20908,202;   -2,083;    2,227
574,764;20939,947;   -1,629;    0,409
575,345;21367,061;    0,917;   -0,136
575,926;21849,240;   -0,356;    0,136
576,507;21786,884;    1,099;   -0,227
577,088;22827,767;    3,099;    1,682
577,669;22903,559;    0,735;    1,955
578,250;23667,293;    0,644;   -1,045
578,831;24076,413;   -1,356;   -2,227
579,412;24232,959;   -0,810;    0,955
579,993;25033,799;    1,008;    0,227
580,573;25336,174;   -0,629;   -0,955
581,154;24400,206;    0,735;   -0,591
581,735;25332,275;    0,644;    0,773
582,315;24861,911;   -0,629;    2,136
582,896;25038,492;   -0,174;    1,227
583,477;24542,055;    0,189;    1,227
584,057;24808,410;    0,553;    0,955
584,638;25106,436;    2,553;    2,318
585,218;25187,257;   -0,538;    2,682
585,799;25299,944;    0,281;   -0,227
586,379;25258,404;    0,372;    1,591
586,959;24186,253;    0,735;    0,318
587,540;23637,744;   -0,629;    2,227
588,120;23310,093;    1,007;   -0,045
588,700;22534,905;    2,553;    2,136
589,281;22928,396;    0,462;   -0,955
589,861;22889,062;    0,099;   -1,682
590,441;22683,731;    2,371;   -2,682
591,021;21787,087;   -0,265;   -2,591
591,601;22020,076;   -0,537;    0,500
592,181;22095,795;   -0,719;   -0,773
592,761;21476,167;    0,007;    1,409
593,341;21466,969;   -0,901;    0,045
593,921;21500,196;   -0,265;    1,591
594,501;21434,006;   -0,538;    1,318
595,081;21302,342;    0,917;   -0,318
595,661;21683,703;   -1,447;    0,955
596,240;22148,283;   -0,537;    0,136
596,820;21794,764;    0,372;    1,955
597,400;21894,954;    2,008;    0,773
597,980;22074,606;    2,008;    1,045
598,559;22145,906;    2,735;   -0,227
599,139;21934,547;   -0,174;   -1,227
599,718;21841,183;   -0,174;   -0,409
600,298;22112,477;    0,735;    0,682
600,877;22437,562;    2,917;    1,409
601,457;22631,135;    2,281;    1,136
602,036;22553,817;    0,190;    2,045
602,616;22735,620;    0,644;    1,682
603,195;23071,967;   -0,355;    3,500
603,774;22635,855;   -0,901;    2,045
604,354;22475,710;    0,826;   -0,500
604,933;22078,483;    0,463;    1,864
605,512;22199,187;    3,554;    0,591
606,091;22255,315;   -0,537;    3,773
606,671;23038,095;    0,281;    0,773
607,250;22294,884;    1,644;    3,136
607,829;22520,397;    2,372;    3,227
608,408;22318,228;    1,190;    2,591
608,987;21480,311;    1,281;    3,409
609,566;21739,234;   -1,265;   -2,500
610,145;21910,228;   -1,082;    0,682
610,723;22264,832;    4,372;    6,864
611,302;21563,895;   -0,446;    1,682
611,881;21121,507;    5,008;   11,227
612,460;21933,348;    1,645;    3,955
613,039;22261,752;   -0,082;    2,045
613,617;21129,183;    1,736;    4,773
614,196;21318,828;    1,099;    1,227
614,775;21700,119;    1,009;    2,409
615,353;21630,707;    0,736;    0,864
615,932;21464,457;    0,100;    2,409
616,510;21990,407;    0,554;    0,591
617,089;21611,570;    7,100;   17,591
617,667;21364,806;    2,372;    6,136
618,246;21251,004;   -1,537;    1,318
618,824;21418,285;   -3,355;   -0,955
619,402;21003,816;   -2,900;   -1,773
619,981;21415,458;   -0,173;   -1,045
620,559;21293,471;    0,009;    1,682
621,137;20865,086;   -0,718;    1,864
621,715;20884,418;   -1,173;   -0,682
622,293;20863,621;   -0,537;   -0,773
622,871;21331,981;   -0,718;    0,500
623,450;20986,676;    0,373;   -0,864
624,028;20872,057;    0,191;   -0,955
624,606;20524,332;   -1,718;    1,682
625,183;20853,417;   -1,536;   -1,136
625,761;20579,522;    1,009;    1,136
626,339;20893,325;    1,373;    2,591
626,917;21228,189;   -0,172;   -0,045
627,495;21239,535;   -0,354;    1,318
628,073;20757,231;   -0,263;    2,864
628,650;20468,587;    0,100;    2,136
629,228;20859,123;    0,373;    4,409
629,806;20369,649;    2,282;    1,136
630,383;20543,323;    1,464;   -0,318
630,961;20394,856;    2,555;   -0,955
631,539;20194,054;    2,464;    0,227
632,116;19746,583;   11,373;   15,409
632,694;20204,203;    2,555;    6,500
633,271;20392,145;    0,828;    2,682
633,848;20412,761;    1,828;    2,045
634,426;20402,082;   -1,081;    1,773
635,003;19608,030;    1,101;   -0,409
635,580;19935,360;    1,192;    3,682
636,158;20417,476;    3,737;    1,227
636,735;20405,443;    0,555;   -0,500
637,312;20533,300;   -0,809;   -0,682
637,889;20596,855;   -4,354;   -0,682
638,466;20156,901;   -3,990;   -0,409
639,043;20163,617;    2,101;   -1,136
639,620;20436,061;   -2,262;   -0,955
640,197;20694,383;    1,100;    1,682
640,774;20829,119;   -0,172;    1,136
641,351;21177,583;    0,737;    1,136
641,928;20770,501;   -0,627;    1,409
642,505;20449,783;    0,828;   -0,500
643,082;20498,156;   -1,718;    1,227
643,658;19615,347;   -0,718;    1,500
644,235;20284,538;    1,191;    2,500
644,812;20592,184;    1,918;    0,773
645,388;20355,829;   -0,991;    1,409
645,965;20398,384;   -0,809;    1,682
646,542;20475,302;   -1,445;   -0,227
647,118;20521,493;    1,009;   -0,955
647,695;20798,411;   -0,263;    1,136
648,271;20723,784;   -0,536;    0,500
648,848;20945,884;    0,736;    2,227
649,424;20816,712;    0,827;    1,318
650,000;20567,357;   -0,354;   -1,045
650,577;20447,185;   -0,627;   -0,955
651,153;20856,376;   -1,809;    0,955
651,729;21758,385;    1,191;    0,864
652,305;22279,031;    0,645;    2,773
652,881;26662,767;   -0,082;    1,136
653,458;32169,504;    1,100;    0,227
654,034;34637,513;    0,282;    1,591
654,610;35560,704;    0,554;    0,773
655,186;36731,895;    0,645;    3,045
655,762;36398,450;   -0,991;    0,409
656,338;36392,004;    0,100;    0,136
656,913;37354,104;   -0,082;    0,409
657,489;36592,386;    0,827;   -0,318
658,065;36689,214;   -0,173;   -1,591
658,641;37365,223;   -0,900;   -0,864
659,217;36678,778;   -0,991;    0,409
659,792;36166,514;    0,645;   -0,409
660,368;36371,160;   -2,173;   -0,682
660,944;35840,896;   -2,082;    1,227
661,519;31271,360;   -0,628;    0,409
662,095;26418,005;   -1,719;    0,591
662,670;23110,651;    1,281;   -0,136
663,246;22486,478;    1,009;   -0,409
663,821;22046,579;    0,281;    1,682
664,396;21554,042;    0,009;    1,864
664,972;21780,870;    0,009;   -0,500
665,547;22105,333;    1,372;    0,136
666,122;22226,434;   -1,082;    0,318
666,698;22419,716;   -0,173;    0,318
667,273;21779,634;   -0,173;    0,136
667,848;22500,279;    2,372;    1,500
668,423;22301,925;    2,190;    2,318
668,998;22755,843;    2,827;   -0,682
669,573;23243,034;   -3,264;   -1,500
670,148;23173,771;   -1,446;   -0,682
670,723;22935,416;   -1,810;    0,318
671,298;23327,244;    2,372;    1,045
671,873;23363,526;   -0,082;   -0,136
672,448;23314,444;    0,645;    0,136
673,023;23623,271;   -1,992;   -0,227
673,597;23961,735;    0,827;    2,318
674,172;23756,290;   -0,355;    0,318
674,747;23239,845;    0,372;   -1,045
675,321;23003,126;   -0,628;    3,318
675,896;22638,317;    0,645;    1,045
676,471;23567,145;    2,645;    1,591
677,045;23300,518;   -1,264;    0,682
677,620;23348,527;    0,190;    1,136
678,194;23647,627;   -2,628;    1,136
678,769;23305,909;   -1,083;   -0,318
679,343;23559,464;   -0,628;    1,773
679,917;23414,837;   -1,446;    1,955
680,492;23470,755;    0,826;    3,227
681,066;23584,491;    3,372;    0,409
681,640;23642,682;    1,463;   -0,318
682,214;24466,055;    0,735;    0,500
682,788;23987,064;   -1,356;   -0,773
683,363;23891,165;   -1,810;    1,682
683,937;23603,628;   -1,719;   -0,318
684,511;24285,183;    0,463;   -0,591
685,085;24013,465;   -1,356;    0,318
685,659;23704,929;   -2,538;    0,864
686,232;24042,665;   -0,356;   -0,318
686,806;23808,038;   -0,901;    0,409
687,380;24322,320;   -0,174;    0,591
687,954;24526,420;   -1,174;    1,136
688,528;24276,066;   -0,719;    1,955
689,101;24971,348;   -3,992;    1,045
689,675;24592,993;   -0,356;   -0,136
690,249;23997,911;   -0,719;    0,409
690,822;24357,557;    0,280;    0,318
691,396;24473,930;   -0,265;    1,227
691,969;23989,030;    1,280;    0,136
692,543;24383,221;   -0,447;   -1,955
693,116;24035,776;   -0,265;   -1,409
693,690;23928,330;    0,099;    0,500
694,263;24453,976;   -1,083;    2,955
694,836;24520,531;    1,371;    3,591
695,410;23252,994;   -0,265;    1,773
695,983;23636,367;    0,189;    0,591
696,556;23612,922;   -0,447;   -1,045
697,129;23959,022;   -0,356;    1,409
697,703;23637,668;   -1,629;    1,955
698,276;23695,950;    1,462;   -0,773
698,849;23532,504;    1,280;    1,409
699,422;23861,968;   -1,083;    0,591
699,995;23625,159;    0,007;    0,136
700,568;24078,168;   -0,629;    3,045
701,140;24027,359;   -2,811;    1,682
701,713;23840,278;   -0,174;    2,409
702,286;23629,469;   -0,538;    0,864
702,859;23448,023;   -0,902;   -0,591
703,432;22750,123;    0,825;    0,682
704,004;23175,405;    0,462;    0,318
704,577;22986,687;   -0,629;    0,136
705,150;23563,606;    0,189;    2,500
705,722;23371,342;   -0,356;   -3,227
706,295;23184,260;   -0,175;   -0,591
706,867;23057,906;   -0,175;    1,955
707,440;23322,915;   -1,720;   -0,409
708,012;23543,106;    0,462;    0,591
708,584;23445,388;    2,462;    0,227
709,157;23609,216;    1,825;   -0,591
709,729;23398,952;    2,280;    2,045
710,301;24130,507;    0,734;    0,045
710,874;24154,425;   -1,447;   -0,227
711,446;23064,252;    0,371;    0,864
712,018;22968,080;    0,098;    0,500
712,590;22722,180;   -1,993;    1,682
713,162;23256,916;    0,825;    1,318
713,734;23460,380;    1,825;   -2,045
714,306;23384,844;   -1,902;   -0,409
714,878;22163,308;    0,825;    0,864
715,450;22977,499;    0,643;    0,864
716,022;23212,053;    1,552;    1,318
716,593;23334,608;    0,189;    0,591
717,165;23315,981;   -3,175;   -1,227
717,737;23059,081;    0,280;    0,409
718,309;22706,090;    0,280;   -0,045
718,880;22675,645;   -0,539;   -1,409
719,452;22873,472;   -0,175;   -1,591
720,024;22548,391;    0,734;   -0,591
720,595;23055,036;   -2,902;    0,955
721,167;22677,591;    0,370;   -2,045
721,738;22253,691;   -0,812;   -1,045
722,309;22292,882;   -0,993;   -1,227
722,881;22058,891;   -1,357;    0,773
723,452;22594,719;   -2,630;    2,864
724,023;22777,091;   -0,721;    2,682
724,595;22597,373;    0,007;    0,682
725,166;22358,928;    0,007;   -0,409
725,737;22066,301;    1,734;    0,227
726,308;22089,401;   -0,266;    0,318
726,879;22511,501;   -1,630;    1,227
727,450;22374,692;    0,552;   -0,045
728,021;22350,520;    3,097;    0,682
728,592;22132,983;    0,734;    0,500
729,163;22539,356;    0,643;   -0,136
729,734;22509,093;    0,188;   -0,227
730,305;22801,193;    1,734;    0,136
730,876;23102,929;    0,188;    2,955
731,447;22885,029;    2,188;    2,682
732,017;23040,220;    1,097;    1,864
732,588;22562,139;    0,734;    1,227
733,159;22705,966;    0,643;   -1,045
733,729;22507,703;    0,006;    0,409
734,300;21825,348;    0,915;    0,864
734,870;22231,357;    3,461;    0,591
735,441;22768,003;    0,370;   -0,591
736,011;22564,921;    0,643;   -1,591
736,582;22457,931;   -0,812;    0,045
737,152;21903,485;   -1,721;   -2,045
737,722;22377,040;   -0,267;   -0,682
738,293;22070,776;   -1,358;    1,318
738,863;21951,877;    2,461;    2,318
739,433;21890,704;    5,279;    0,318
740,003;22495,531;   -0,994;   -0,682
740,573;21959,268;    2,097;   -1,591
741,143;21889,368;   -1,085;    0,318
741,713;22605,377;    1,188;   -0,500
742,283;22365,932;    0,915;    1,591
742,853;22152,941;    1,915;    1,591
743,423;21624,496;    1,733;    0,045
743,993;21729,323;   -0,358;    1,500
744,563;21202,605;    0,097;   -0,864
745,133;21179,796;   -0,812;   -0,864
745,702;21815,805;   -0,267;    1,773
746,272;21085,451;   -0,176;    0,591
746,842;20917,551;   -1,358;   -0,591
747,411;21243,651;   -0,267;   -0,318
747,981;21360,024;    0,097;    0,500
748,551;21445,488;    2,278;   -1,045
749,120;21292,224;    0,642;   -0,227
749,690;21639,233;   -0,631;    2,409
750,259;21978,788;    1,369;    2,955
750,828;21920,979;    1,551;   -1,955
751,398;22116,534;    1,278;   -0,045
751,967;21718,816;    2,187;    0,409
752,536;21933,461;   -0,813;   -0,227
753,105;22312,198;    0,096;    0,227
753,675;22057,843;    0,096;    1,773
754,244;21993,398;   -0,904;    3,591
754,813;22005,225;    0,551;    1,227
755,382;21572,144;    0,460;    0,955
755,951;22127,335;    1,551;    3,682
756,520;21742,435;   -0,085;    1,864
757,089;22273,080;    0,278;    0,500
757,658;22354,090;    1,733;    1,227
758,227;22362,190;    1,096;    0,318
758,795;22606,744;    1,187;    1,136
759,364;22913,208;   -0,086;   -0,591
759,933;21933,308;   -1,176;   -0,045
760,501;21509,681;    0,733;   -1,318
761,070;21929,145;   -2,813;   -1,409
761,639;22583,881;   -1,904;    1,318
762,207;21993,254;    1,551;   -0,955
762,776;21913,173;    0,369;    0,864
763,344;21878,364;   -0,995;    0,591
763,913;20904,191;   -0,722;    1,409
764,481;21680,473;    1,005;   -0,136
765,049;21541,119;   -1,358;    1,409
765,618;21408,128;   -0,086;    0,318
766,186;21474,864;    0,278;    0,136
766,754;21691,328;    0,005;    1,864
767,322;20822,610;   -1,995;    0,409
767,890;20842,710;   -0,722;   -1,773
768,459;21235,719;   -2,177;   -0,318
769,027;21408,819;    1,641;    3,409
769,595;20394,920;    3,278;    2,591
770,163;20789,656;    3,823;    2,955
770,730;20620,120;    0,732;   -0,136
771,298;20491,402;    0,187;   -1,409
771,866;20557,411;   -1,541;    4,955
772,434;20904,602;   -0,631;   -1,864
773,002;21093,520;    0,005;    0,682
773,569;20738,166;    0,914;    1,682
774,137;20543,721;   -0,268;   -0,045
774,705;21244,184;    0,278;   -0,136
775,272;20823,557;    0,641;    0,682
775,840;20619,566;   -0,177;    2,682
776,407;20159,030;    0,277;    1,955
776,975;19785,767;   -0,632;    0,318
777,542;20724,503;   -1,086;   -0,045
778,110;20578,512;   -1,268;   -0,045
778,677;20258,794;   -2,359;   -0,864
779,244;20060,713;    2,186;    1,045
779,812;20173,449;    1,823;    0,864
780,379;20036,367;    0,005;    1,136
780,946;20246,377;    1,005;   -0,773
781,513;20550,568;   -1,450;    0,318
782,080;19981,940;   -0,086;    2,864
782,647;20674,495;   -0,268;    3,045
783,214;20330,686;   -0,177;    3,864
783,781;19984,514;   -0,723;   -0,682
784,348;19822,523;   -0,632;    1,500
784,915;20252,805;   -3,177;    0,318
785,482;20067,178;    1,368;    2,591
786,049;20437,278;    0,186;   -0,591
786,615;20504,560;    0,277;   -0,955
787,182;20282,660;    0,186;   -0,682
787,749;19995,851;   -2,814;    1,409
788,315;19411,042;   -1,632;   -0,409
788,882;19704,960;    1,550;   -1,227
789,448;20388,606;    1,732;   -0,955
790,015;20375,797;    1,095;    3,227
790,581;19967,715;    1,459;    0,227
791,148;19897,088;    0,641;    1,045
791,714;20063,552;   -0,541;    3,136
792,280;19752,197;    0,186;    1,591
792,847;19399,479;    0,550;    2,500
793,413;19860,488;   -0,269;   -0,318
793,979;19523,134;    3,459;   -1,318
794,545;19629,961;    4,459;    2,682
795,111;19057,152;    2,186;    1,318
795,678;19173,071;    0,731;   -1,682
796,244;18910,898;    3,368;    0,136
796,810;19407,725;    1,731;    0,773
797,375;19145,553;    0,549;   -2,136
797,941;19117,562;   -0,541;    0,591
798,507;19254,117;   -0,451;   -0,955
799,073;18823,126;   -0,360;    0,591
799,639;18888,590;   -2,632;    3,136
800,205;18914,053;    0,095;    2,682
800,770;18511,790;    0,640;    1,773
801,336;18596,254;    1,368;   -0,955
801,901;18409,263;    4,549;    3,136
802,467;18917,181;   -0,542;    2,045
803,033;18262,554;   -0,087;    0,864
803,598;18472,654;    1,913;   -1,045
804,163;18525,391;    1,095;   -0,318
804,729;18482,400;   -0,178;    1,136
805,294;18799,682;    0,822;    2,227
805,859;18617,237;    0,731;   -0,409
806,425;18232,609;    1,186;    2,682
806,990;17860,528;    2,186;    4,318
807,555;18260,810;   -1,451;    2,591
808,120;18209,273;    0,822;   -0,409
808,685;18237,919;    0,185;   -2,500
809,250;17781,201;    0,004;   -0,500
809,815;17966,846;    1,913;    0,682
810,380;18496,947;   -0,269;    1,591
810,945;19066,138;   -1,087;    2,045
811,510;18275,510;    2,094;    1,591
812,075;18014,247;   -0,633;   -1,409
812,640;18085,347;    2,003;    1,409
813,204;18130,265;    0,822;   -0,227
813,769;18583,456;    2,094;   -0,045
814,334;18094,375;    0,458;    0,864
814,898;18138,111;    0,367;    0,591
815,463;17958,939;    1,276;   -0,773
816,027;17929,857;   -0,724;   -2,318
816,592;18015,321;    0,640;   -2,045
817,156;17671,603;    2,094;    1,136
817,721;17573,975;    4,276;    2,318
818,285;17521,712;    2,912;    1,500
818,849;18091,267;   -1,451;    1,682
819,414;17951,185;   -0,269;    2,955
819,978;17522,467;   -1,269;    1,773
820,542;18115,749;    2,003;    0,500
821,106;17831,940;   -0,815;    0,682
821,670;17934,495;   -0,815;    2,591
822,234;17682,140;   -0,270;    1,409
822,798;17136,331;    0,003;    0,500
823,362;17156,886;   -0,633;    4,227
823,926;16565,713;    0,094;    1,136
824,490;16751,904;   -0,997;   -0,682
825,054;17161,277;   -0,088;   -1,136
825,618;16850,104;   -1,542;   -1,500
826,181;16819,659;    0,458;   -1,318
826,745;16780,668;    1,367;   -1,045
827,309;17052,678;    1,185;    1,318
827,872;16509,505;    1,367;    0,955
828,436;17396,514;    1,185;   -0,773
828,999;17489,342;   -0,997;    1,227
829,563;16390,078;   -0,179;    1,136
830,126;16235,905;   -0,179;   -0,591
830,690;16297,642;   -1,997;    2,864
831,253;15840,469;   -0,543;    2,227
831,816;15993,842;   -1,906;    0,500
832,380;15923,851;    0,185;    0,864
832,943;16151,770;   -1,361;   -0,500
833,506;15657,324;    2,639;   -1,227
834,069;16417,697;    3,912;   -0,955
834,632;16498,252;    1,730;    1,318
835,195;16408,716;    1,003;    0,955
835,758;15639,452;   -0,997;    1,955
836,321;15530,552;    0,730;   -1,045
836,884;15637,652;   -0,725;   -0,955
837,447;15671,843;   -2,816;    1,773
838,010;15900,307;    0,366;    3,227
838,573;16149,407;   -1,179;    0,773
839,135;16170,780;   -1,361;   -0,955
839,698;15651,426;    1,275;    0,409
840,261;15209,799;    1,003;   -0,227
840,823;15050,990;   -0,543;    0,864
841,386;15350,635;   -0,452;   -2,409
841,948;15275,917;   -1,361;    1,773
842,511;15026,654;    0,912;    1,682
843,073;15169,208;    1,912;    0,227
843,636;14947,854;   -0,361;   -0,227
844,198;14883,409;    0,911;    0,591
844,760;15016,690;    1,093;    1,955
845,322;14636,063;    0,548;    1,136
845,885;15058,527;    0,730;    0,591
846,447;15491,536;   -1,998;    0,227
847,009;15186,273;    1,911;   -0,682
847,571;15380,646;    0,820;   -2,045
848,133;15500,019;   -1,089;   -1,864
848,695;15324,210;   -0,543;    1,409
849,257;14915,946;   -1,089;   -1,682
849,819;15128,955;   -0,998;   -0,409
850,381;15108,601;   -0,725;   -0,864
850,942;15389,337;    1,093;   -0,591
851,504;15388,801;    1,184;    0,227
852,066;15459,174;    1,275;   -1,591
852,628;15065,547;   -0,180;    1,955
853,189;14602,011;    1,638;    2,682
853,751;14721,838;   -0,907;    1,409
854,312;14525,120;   -0,453;   -1,682
854,874;14997,856;   -2,089;   -0,773
855,435;15454,502;   -0,907;   -1,682
855,997;15635,511;   -1,816;   -0,136
856,558;14983,884;    0,366;    1,773
857,119;15085,620;    0,820;    2,864
857,681;14749,357;    0,002;    0,318
858,242;14825,912;    1,911;   -2,136
858,803;15247,466;    0,456;   -0,773
859,364;15788,476;    0,184;   -4,773
859,925;15172,576;   -2,453;   -0,955
860,486;15077,858;   -0,453;   -0,955
861,047;14775,867;   -0,544;   -1,227
861,608;14615,876;   -1,089;   -0,773
862,169;14760,249;    0,638;   -0,045
862,730;14488,531;    0,456;    1,409
863,291;14774,267;   -0,635;   -0,500
863,852;15114,913;   -0,635;    1,955
864,412;14613,104;   -0,271;   -0,864
864,973;13323,386;   -0,089;    0,500
865,534;13210,304;   -1,726;    0,227
866,094;14554,495;    1,820;    0,227
866,655;14290,686;    1,274;    3,318
867,215;14536,877;    0,274;    0,136
867,776;14367,886;    0,547;   -0,136
868,336;14478,623;   -1,453;    0,136
868,897;14096,905;    2,638;    1,682
869,457;13874,550;    1,365;    0,318
870,017;14013,469;    0,547;   -1,227
870,578;14533,660;   -0,817;    0,773
871,138;14210,760;   -2,089;   -0,955
871,698;13785,315;   -0,817;   -1,318
872,258;13670,869;   -0,453;   -2,864
872,818;14023,060;    2,729;    0,045
873,378;14028,888;    0,638;    1,045
873,938;13579,988;    0,547;    0,500
874,498;13883,815;    0,274;   -1,955
875,058;13808,279;    2,183;    1,773
875,618;13695,470;    1,910;   -2,682
876,177;13602,843;    1,274;    0,136
876,737;13227,579;   -0,090;    1,955
877,297;13333,498;    0,183;    1,955
877,856;13350,871;   -0,362;    0,318
878,416;13256,062;    1,183;   -0,136
878,976;13462,525;   -1,817;    0,409
879,535;13606,262;    0,092;    3,136
880,095;13381,816;   -0,544;    0,045
880,654;13540,644;   -1,090;    1,318
881,213;13644,289;    2,456;    1,500
881,773;13282,026;    2,637;    2,682
882,332;13724,581;    3,365;    5,136
882,891;13521,408;    3,092;    2,136
883,451;13916,963;   -1,272;    1,682
884,010;13380,245;   -2,908;   -0,409
884,569;13480,163;   -0,999;   -0,045
885,128;13618,990;    2,819;   -1,864
885,687;13732,818;    4,455;    0,682
886,246;13462,372;    1,455;    2,136
886,805;13208,382;    2,455;    2,045
887,364;13453,845;   -0,999;   -0,500
887,922;13783,036;   -1,181;    0,045
888,481;13308,136;   -1,545;    0,591
889,040;13593,509;    1,183;    2,136
889,599;14159,882;    2,455;    1,409
890,157;14231,528;    1,455;    2,409
890,716;13851,082;   -0,090;    0,227
891,274;13717,001;    0,092;   -1,136
891,833;14107,828;    1,546;    0,864
892,391;13956,565;   -0,454;    0,500
892,950;14020,301;    1,819;   -0,773
893,508;14364,401;    0,455;   -0,409
894,067;13738,229;    0,637;    0,136
894,625;13675,783;   -0,636;   -1,500
895,183;13865,793;   -0,363;   -0,682
895,741;13814,711;    1,728;   -1,773
896,299;13635,265;   -0,545;   -2,409
896,858;13800,457;    0,819;   -1,591
897,416;13939,648;    2,728;   -1,318
897,974;13680,111;    1,819;    0,318
898,532;13900,393;    6,091;    2,682
899,089;13783,493;    2,091;   -0,682
899,647;13796,230;   -1,454;    1,318
900,205;13613,966;    1,182;    1,045
900,763;13759,430;   -0,454;    0,227
901,321;13790,167;    2,364;   -1,409
901,878;13263,539;   -1,000;   -0,773
902,436;13135,821;   -1,363;    1,318
902,994;13568,467;    4,728;    3,682
903,551;13077,022;    0,728;    0,409
904,109;13414,576;    0,182;   -1,409
904,666;13047,495;    2,455;    1,045
905,224;12895,867;    0,182;   -0,409
905,781;12696,695;    0,727;   -0,318
906,338;12734,704;   -1,363;    1,045
906,895;12701,168;    0,637;    2,045
907,453;12644,722;    1,727;    1,136
908,010;12663,459;   -0,909;    0,409
908,567;12361,650;    1,273;    0,591
909,124;11878,750;    0,364;   -1,500
909,681;11984,759;   -2,909;    0,682
910,238;12137,132;    0,636;   -1,318
910,795;12451,687;   -0,273;   -1,136
911,352;12064,414;   -2,909;   -2,682
911,909;11543,869;   -1,364;   -0,864
912,466;12038,232;   -3,182;    1,500
913,022;11599,778;   -1,636;    0,500
913,579;11957,778;   -0,909;    2,045
914,136;11704,778;    1,636;    0,955
914,692;12039,323;    0,091;   -1,227
915,249;11665,596;    1,455;    0,409
915,806;11862,596;    0,182;    1,955
916,362;11689,960;    1,909;    1,864
916,918;11269,414;    2,000;    1,045
917,475;11253,960;   -1,182;    0,955
918,031;11321,051;    3,364;   -0,045
918,587;10848,051;   -0,909;   -0,318
919,144;11092,778;   -2,273;    0,227
919,700;11323,141;    1,727;    0,773
920,256;10919,323;    0,727;    0,045
920,812;10610,869;   -0,727;   -1,045
921,368;10656,323;   -1,727;   -1,045
921,924;10330,323;    0,182;   -0,136
922,480; 9967,596;   -0,545;    1,227
923,036;10597,687;    1,273;    1,955
923,592;10498,596;    0,455;    0,318
924,148;10407,051;    0,455;   -0,955
924,704; 9836,414;   -1,364;   -0,409
925,259;10108,141;   -0,273;    0,591
925,815; 9860,596;    1,455;    0,500
926,371; 9406,596;    2,909;    1,409
926,926; 9371,323;    2,091;    0,591
927,482; 9088,141;   -1,364;    0,773
928,037; 9003,869;    0,909;    2,045
928,593; 9323,051;    1,636;    1,045
929,148; 9109,141;   -1,818;   -1,500
929,704; 8692,687;   -1,455;   -0,500
930,259; 8854,869;    0,091;   -0,136
930,814; 8077,051;   -0,818;    1,955
931,369; 7786,141;    1,091;   -0,773
931,925; 7688,960;   -0,091;    0,136
932,480; 7614,687;   -2,818;   -2,591
933,035; 7607,141;    0,545;   -0,318
933,590; 7395,323;    0,364;   -1,773
934,145; 7051,051;   -1,364;   -0,318
934,700; 7368,778;    0,455;   -0,591
935,255; 7228,869;   -0,091;    0,045
935,809; 6696,141;    3,182;    0,864
936,364; 5924,323;   -0,455;   -0,136
936,919; 5928,596;    0,455;   -1,773
937,474; 5816,596;    1,455;    0,136
938,028; 5641,778;   -1,636;    1,136
938,583; 5282,414;    1,818;    4,682
939,138; 5477,778;    2,091;    2,136
939,692; 4955,505;    1,636;   -1,136
940,247; 4759,596;   -0,727;   -1,045
940,801; 4434,687;   -0,636;    0,227
941,355; 4327,323;   -0,364;    2,591
941,910; 4028,141;   -0,273;   -2,136
942,464; 4155,960;   -0,818;   -0,318
943,018; 4043,869;    1,000;   -0,227
943,572; 3970,960;    2,545;   -0,682
944,126; 3493,687;    0,091;   -0,409
944,681; 3402,323;    3,091;    0,227
945,235; 3361,414;    1,000;   -0,591
945,789; 3325,778;    0,364;   -1,864
946,342; 3492,323;    0,455;   -0,591
946,896; 3245,323;   -2,273;    0,955
947,450; 3023,687;    1,545;   -0,227
948,004; 3286,596;    1,727;   -0,045
948,558; 3240,232;    0,273;   -0,864
949,111; 3170,505;   -0,273;   -0,318
949,665; 3260,596;    1,636;   -0,682
950,219; 3151,323;   -0,091;   -1,045
950,772; 3189,505;   -1,909;    1,864
951,326; 3102,869;    0,545;   -0,955
951,879; 3161,505;    0,727;   -2,318
952,433; 3210,596;    0,000;    2,227
952,986; 3050,141;    2,909;    0,682
953,539; 3010,414;   -0,273;    0,591
954,093; 2934,051;    0,545;   -1,318
954,646; 3071,687;    0,909;    1,318
955,199; 2908,687;    0,000;   -0,500
955,752; 2864,596;   -0,455;    1,773
956,305; 2794,596;   -0,091;    2,955
956,858; 2948,960;    0,818;   -0,318
957,411; 3103,141;   -0,545;    2,136
957,964; 2918,778;    1,364;    2,136
958,517; 2915,323;   -1,545;    3,136
959,070; 2779,051;   -0,455;    1,955
959,623; 2911,414;    1,091;    1,500
960,176; 2714,778;    1,727;    2,045
960,728; 2705,960;   -2,727;    0,773
961,281; 2741,687;    0,545;    0,500
961,834; 2749,687;   -0,909;    0,864
962,386; 2651,596;    1,727;    1,045
962,939; 2597,869;    0,364;   -0,318
963,491; 2717,051;    0,455;    1,136
964,043; 2617,687;    1,182;    2,409
964,596; 2748,232;   -1,000;    2,227
965,148; 2588,232;   -1,000;    1,773
965,700; 2513,960;    1,091;   -0,227
966,253; 2664,687;   -0,636;    0,318
966,805; 2539,141;   -2,273;    0,773
967,357; 2558,596;    1,091;   -1,500
967,909; 2566,051;    0,455;   -1,227
968,461; 2610,778;    0,545;    3,136
969,013; 2548,141;   -0,182;   -0,864
969,565; 2629,687;   -0,455;   -1,136
970,117; 2799,232;   -0,364;    1,045
970,669; 2550,687;    0,182;   -0,136
971,220; 2383,323;   -0,455;   -1,500
971,772; 2365,414;   -0,636;   -0,318
972,324; 2480,778;    0,091;   -0,500
972,876; 2404,687;    0,818;   -0,045
973,427; 2575,869;    1,909;   -1,045
973,979; 2554,051;   -0,727;   -2,500
974,530; 2511,869;    1,818;    1,318
975,082; 2519,869;   -0,545;    1,682
975,633; 2460,960;    1,091;    1,682
976,184; 2612,414;    0,909;    0,773
976,736; 2423,141;    0,091;    0,227
977,287; 2262,051;   -0,909;   -0,500
977,838; 2395,960;    0,909;   -0,318
978,389; 2453,869;   -1,000;   -0,500
978,940; 2310,414;    0,545;   -0,409
979,491; 2332,141;    0,091;   -0,500
980,042; 2328,596;    0,182;    3,045
980,593; 2359,141;   -2,545;    0,227
981,144; 2452,687;    2,545;   -0,500
981,695; 2437,051;    1,455;    1,500
982,246; 2385,960;   -0,273;    1,045
982,797; 2486,505;   -1,727;    0,682
983,347; 2605,232;    0,364;    0,591
983,898; 2805,323;    3,091;    0,409
984,449; 2635,596;    2,182;    0,773
984,999; 2490,778;    1,455;   -1,136
985,550; 2316,687;    0,182;   -0,318
986,100; 2297,232;   -0,455;   -0,318
986,651; 2302,414;   -0,818;    0,045
987,201; 2309,596;   -1,000;   -0,591
987,751; 2383,323;    0,818;    2,864
988,302; 2392,051;    2,636;    1,500
988,852; 2412,141;    0,455;   -1,136
989,402; 2489,596;    0,091;    0,682
989,952; 2429,232;   -2,182;    0,864
990,502; 2459,051;   -0,091;    0,682
991,052; 2383,414;   -0,727;    0,045
991,602; 2292,596;   -2,909;    1,318
992,152; 2309,869;    0,455;    0,682
992,702; 2296,596;    1,364;   -0,045
993,252; 2226,051;   -3,000;   -0,500
993,802; 2337,960;   -0,273;    1,318
994,352; 2503,141;   -1,545;    1,136
994,901; 2546,414;   -0,182;    3,227
995,451; 2494,869;   -0,182;    0,318
996,000; 2560,414;    1,636;    0,318
996,550; 2330,505;    2,273;    0,227
997,100; 2319,869;    1,273;   -0,045
997,649; 2604,051;    2,182;    0,955
998,198; 2266,141;    1,727;   -1,500
998,748; 2476,323;    1,091;   -2,318
999,297; 2350,505;   -0,818;   -0,409
999,846; 2437,596;    1,000;   -0,773
1000,395; 2451,596;   -0,818;    0,500
1000,945; 2475,505;    1,818;   -0,773
1001,494; 2550,505;    2,364;    0,682
1002,043; 2523,505;    4,636;    0,864
1002,592; 2334,960;   -1,091;    1,955
1003,141; 2478,414;   -0,455;   -0,682
1003,690; 2375,778;    1,727;    0,500
1004,238; 2393,596;    1,455;   -0,045
1004,787; 2080,596;    1,364;    1,227
1005,336; 2348,141;    0,364;    0,682
1005,885; 2429,960;    1,364;   -2,773
1006,433; 2529,869;    0,545;    0,955
1006,982; 2665,960;    0,455;    1,682
1007,531; 2521,505;   -1,818;   -0,227
1008,079; 2434,960;   -2,273;    0,500
1008,627; 2567,141;   -1,455;    0,409
1009,176; 2352,141;    0,000;   -1,955
1009,724; 2374,960;    1,091;    0,864
1010,273; 2466,596;    1,273;    0,500
1010,821; 2520,869;    0,091;    1,409
1011,369; 2300,505;   -1,364;    1,318
1011,917; 2290,414;   -1,364;   -0,591
1012,465; 2535,505;    1,273;   -1,591
1013,013; 2606,051;    2,091;   -1,682
1013,561; 2552,596;    0,455;   -0,773
1014,109; 2626,141;   -1,909;    1,682
1014,657; 2488,414;    0,364;    0,591
1015,205; 2564,869;    1,636;   -0,955
1015,753; 2550,051;   -0,545;   -1,409
1016,301; 2601,778;   -2,636;    3,045
1016,848; 2614,414;   -1,273;    0,409
1017,396; 2671,596;    2,545;    0,045
1017,944; 2775,596;    1,182;    1,864
1018,491; 2528,687;    0,273;    1,409
1019,039; 2788,505;    0,455;    0,591
1019,586; 2615,414;   -1,364;    1,682
1020,134; 2654,051;    0,455;    1,500
1020,681; 2723,869;    0,182;   -1,136
1021,228; 2674,232;    2,909;   -2,227
1021,776; 2519,687;    1,182;   -1,136
1022,323; 2797,323;    0,455;    0,773
1022,870; 2708,960;   -1,000;   -0,045
1023,417; 2653,051;    2,636;    1,864
1023,964; 2709,323;    2,636;    1,227
1024,511; 2590,141;    1,000;    0,773
1025,058; 2407,505;    3,182;   -0,045
1025,605; 2448,323;   -2,273;    3,136
1026,152; 2703,596;    1,727;   -0,591
1026,699; 2430,414;    1,818;    1,318
1027,245; 2553,869;   -0,091;    0,318
1027,792; 2708,869;   -1,000;    1,409
1028,339; 2682,414;    2,364;   -0,045
1028,885; 2516,141;    1,000;   -0,227
1029,432; 2468,051;   -0,091;    0,227
1029,978; 2538,141;   -1,000;   -1,591
1030,525; 2447,414;    1,000;    0,409
1031,071; 2600,141;   -1,364;    1,136
1031,618; 2786,960;    0,364;    1,682
1032,164; 2565,869;   -0,091;    3,045
1032,710; 2620,232;    1,636;   -1,500
1033,256; 2513,960;   -0,636;   -0,136
1033,803; 2448,323;   -0,545;    1,500
1034,349; 2213,141;   -1,364;    0,136
1034,895; 2359,141;    0,000;   -0,318
1035,441; 2338,232;   -0,818;    0,318
1035,987; 2373,778;   -2,364;   -0,682
1036,533; 2388,869;   -1,455;   -0,955
1037,078; 2616,596;    1,455;    1,682
1037,624; 2410,960;    2,455;   -0,955
1038,170; 2404,687;    0,455;   -0,318
1038,716; 2368,051;    1,636;   -0,409
1039,261; 2244,232;   -2,273;   -0,773
1039,807; 2204,778;   -0,091;    3,409
1040,352; 2288,687;   -1,909;   -0,318
1040,898; 2316,051;   -1,545;   -0,682
1041,443; 2208,960;   -1,455;   -2,591
1041,989; 2327,960;    1,091;    1,591
1042,534; 2155,051;   -0,364;    2,591
1043,079; 2192,232;    2,909;    0,955
1043,625; 2083,596;    1,818;    0,500
1044,170; 2153,141;   -1,364;    1,045
1044,715; 2406,232;    2,455;    0,955
1045,260; 2211,505;    2,182;   -0,955
1045,805; 2205,778;    1,182;   -0,591
1046,350; 2145,960;    1,364;   -0,409
1046,895; 2172,869;    2,909;    1,591
1047,440; 2159,141;    5,364;    0,409
1047,985; 2021,960;    2,818;   -0,955
1048,530; 1935,869;    1,545;    1,227
1049,074; 2018,505;    0,000;    0,318
1049,619; 1980,505;   -1,364;    1,955
1050,164; 1824,687;    0,455;    0,227
1050,708; 1880,232;   -0,455;    0,045
1051,253; 2273,414;    1,273;   -2,227
1051,797; 1965,778;    0,818;   -1,318
1052,342; 1913,051;   -1,182;    1,045
1052,886; 1937,596;    0,364;   -1,409
1053,430; 1806,687;   -1,364;    0,136
1053,975; 1844,596;   -0,818;   -0,318
1054,519; 1861,051;   -0,727;    3,227
1055,063; 1899,869;    0,909;    1,318
1055,607; 1798,051;   -0,182;    0,227
1056,151; 1815,596;    2,909;    1,682
1056,695; 1705,051;    2,273;   -1,136
1057,239; 1763,141;   -1,727;   -0,682
1057,783; 1790,232;    0,818;   -1,500
1058,327; 1775,323;    0,000;    1,409
1058,871; 2004,414;   -0,545;    1,318
1059,415; 1741,596;   -0,818;   -0,045
1059,958; 2032,505;    1,455;    2,591
1060,502; 1729,869;   -1,000;   -0,773
1061,046; 1596,414;    0,364;   -0,955
1061,589; 1559,596;   -3,000;   -1,136
1062,133; 1446,960;   -1,273;    1,864
1062,676; 1423,869;    1,182;    0,864
1063,220; 1452,232;    1,091;    0,500
1063,763; 1484,869;    0,909;    1,136
1064,306; 1576,960;   -0,909;    1,864
1064,849; 1477,232;   -0,909;    0,591
1065,393; 1466,778;    2,000;   -1,500
1065,936; 1550,960;    0,182;   -0,409
1066,479; 1420,687;   -1,455;    1,318
1067,022; 1437,869;   -0,273;   -0,227
1067,565; 1365,505;   -0,091;   -1,318
1068,108; 1374,960;    0,727;   -0,591
1068,651; 1353,414;   -0,636;    1,409
1069,194; 1287,596;   -0,455;   -1,682
1069,736; 1310,687;   -1,273;    0,955
1070,279; 1276,778;   -1,364;   -0,500
1070,822; 1371,596;   -2,000;   -0,318
1071,364; 1498,778;   -0,364;    1,318
1071,907; 1291,323;   -0,727;    3,227
1072,450; 1142,141;    0,000;   -0,045
1072,992; 1175,778;   -0,273;    3,136
1073,535; 1344,232;    2,091;    2,136
1074,077; 1126,414;   -0,727;    2,045
1074,619; 1110,960;   -1,364;    0,591
1075,161; 1152,778;   -1,091;    1,500
1075,704; 1344,778;    1,545;    1,227
1076,246; 1104,596;   -0,182;    0,682
1076,788; 1024,687;   -0,364;    1,773
1077,330; 1084,232;    1,273;    2,136
1077,872; 1089,414;    0,909;    0,955
1078,414; 1343,505;    2,727;    0,773
1078,956; 1069,141;    1,273;   -0,227
1079,498; 1339,051;    1,636;    0,318
1080,040; 1052,051;    1,909;   -1,318
1080,581;  983,687;    1,636;   -0,318
1081,123;  899,869;    0,091;   -0,773
1081,665;  931,232;   -1,182;   -0,955
1082,206; 1264,687;    1,364;   -0,500
1082,748; 1117,687;    0,727;    2,045
1083,289;  970,596;   -2,000;    1,318
1083,831;  914,323;   -0,545;    0,227
1084,372;  973,414;    0,000;    0,591
1084,913;  972,960;    1,091;    0,864
1085,455;  909,141;   -1,909;   -2,045
1085,996;  904,414;   -2,273;    0,136
1086,537;  941,232;   -0,091;    0,864
1087,078;  961,960;   -0,909;   -2,136
1087,619; 1025,232;   -1,273;    0,227
1088,160;  935,869;    0,000;    1,318
1088,701;  902,232;   -1,091;    0,682
1089,242;  845,596;    1,364;   -2,227
1089,783;  965,960;   -0,273;    1,409
1090,324;  921,960;    0,455;    0,682
1090,865;  792,414;    2,727;   -0,409
1091,405;  747,505;    0,727;    2,227
1091,946;  787,232;    0,182;   -0,955
1092,487;  710,323;    0,818;   -1,409
1093,027;  911,778;   -1,364;   -1,500
1093,568;  761,232;   -0,364;    1,227
1094,108;  870,505;    0,273;    1,773
1094,649;  795,596;   -1,182;    0,136
1095,189;  734,141;   -0,636;   -0,682
1095,729;  702,596;   -0,091;    0,955
1096,269;  683,960;    0,727;   -0,955
1096,810; 1008,869;   -1,364;    0,500
1097,350;  855,960;    1,364;   -0,773
1097,890;  751,960;    0,364;    1,227
1098,430; 1014,505;    2,364;    2,864
1098,970;  896,869;    2,182;    1,682
1099,510;  731,869;    0,545;   -2,318
1100,050;  669,596;    1,000;   -1,591
1100,589;  644,414;   -0,727;   -0,318
1101,129;  768,869;    0,818;   -0,955
1101,669;  933,414;    1,727;    2,136
1102,209;  752,687;   -0,091;    2,227
1102,748;  706,141;    0,000;    0,955
1103,288;  704,414;    1,273;   -1,227
1103,827;  722,414;    3,091;   -2,227
1104,367;  587,778;   -0,091;   -2,409
1104,906;  564,960;    1,364;   -1,136
1105,445;  658,414;    0,636;   -1,136
1105,985;  613,141;   -0,727;    1,500
1106,524;  656,596;   -1,727;   -0,682
1107,063;  627,505;   -2,727;    1,409
1107,602;  593,232;   -1,909;   -1,500
1108,141;  523,960;   -1,909;    1,500
1108,680;  635,505;   -3,455;   -0,591
1109,219;  559,051;   -0,909;   -0,500
1109,758;  560,869;    0,455;    0,682
1110,297;  536,960;    1,000;   -0,682
1110,836;  475,960;   -0,727;    0,955
1111,375;  643,051;   -2,545;    0,409
1111,913;  659,778;   -1,000;    0,773
1112,452;  598,051;   -0,273;    0,136
1112,991;  477,232;    1,091;    1,955
1113,529;  444,505;   -0,818;   -0,045
1114,068;  509,869;   -0,273;    2,955
1114,606;  419,051;   -0,364;   -0,955
1115,144;  589,687;   -1,273;    1,045
1115,683;  519,505;   -0,727;    0,318
1116,221;  569,505;   -0,455;   -0,864
1116,759;  477,596;    0,636;   -0,864
1117,297;  675,869;    0,000;    1,864
1117,836;  482,960;   -2,182;   -1,227
1118,374;  500,051;    0,182;   -0,682
1118,912;  444,323;    0,909;    2,682
1119,450;  442,141;    1,000;    0,864
1119,988;  489,596;    1,545;    2,136
1120,525;  937,141;    5,091;    3,318
1121,063;  635,141;    1,182;    1,864
1121,601;  453,596;   -0,909;   -1,227
1122,139;  414,141;   -0,727;   -2,045
1122,676;  616,778;   -0,727;    2,773
1123,214;  551,960;   -1,182;    4,409
1123,751;  359,232;    1,727;    2,227
1124,289;  480,596;   -0,091;   -0,409
1124,826;  361,051;    1,727;    0,227
1125,364;  276,778;    1,727;   -0,955
1125,901;  466,051;    1,182;    1,227
1126,438;  583,141;    0,818;    0,955
1126,975;  309,232;   -0,727;   -0,773
1127,513;  381,960;    0,273;    2,136
1128,050;  289,960;    1,636;   -0,682
1128,587;  392,232;    2,000;   -0,227
1129,124;  437,414;    0,091;    1,318
1129,661;  296,596;    0,273;    0,227
1130,198;  464,141;    1,636;    0,773
1130,734;  408,596;    0,182;    1,409
1131,271;  275,414;   -0,909;    0,864
1131,808;  441,596;    2,909;    3,045
1132,345;  327,051;    1,545;    0,318
1132,881;  189,051;   -1,545;   -1,864
1133,418;  335,414;    0,727;   -1,136
1133,954;  274,141;    2,455;   -2,682
1134,491;  356,596;    1,364;   -0,773
1135,027;  243,960;    2,364;    0,864
1135,564;  342,414;    0,273;    2,955
1136,100;  324,051;    0,364;    2,136
1136,636;  212,323;   -1,273;   -1,045
1137,172;  309,869;    0,000;   -1,045
1137,708;  244,141;   -1,364;   -1,045
1138,245;  233,869;    1,273;   -1,227
1138,781;  188,414;    1,091;   -3,318
1139,317;  262,778;    1,273;   -1,409
1139,852;  252,414;    3,091;    0,136
1140,388;  367,778;   -1,182;   -0,409
1140,924;  251,869;   -1,091;   -2,227
1141,460;  192,051;   -1,636;    0,136
1141,996;  123,778;   -1,364;    2,682
1142,531;  181,869;    1,364;    3,318
1143,067;  387,505;    1,182;    1,045
1143,602;  447,778;   -0,091;   -0,318
1144,138;  294,323;   -2,636;    1,045
1144,673;  164,323;   -1,455;    1,409
1145,209;  232,869;   -1,909;   -0,318
1145,744;  149,869;   -0,727;    0,864
1146,279;  286,596;    1,818;   -0,136
1146,815;  194,596;    1,545;   -2,682
1147,350;  242,232;   -1,364;    0,045
1147,885;  154,687;   -0,818;   -1,318
1148,420;  157,596;   -2,273;    0,773
1148,955;  148,596;   -1,727;    1,864
1149,490;  164,960;   -0,909;   -1,591
1150,025;  144,505;    0,455;   -1,773
1150,560;  259,596;    1,091;   -0,955
1151,094;  232,778;    1,455;   -0,591
1151,629;  234,051;    1,636;    0,864
1152,164;  165,141;    1,364;    1,318
1152,698;  118,414;   -0,182;   -0,136
1153,233;   86,505;    0,091;   -0,682
1153,767;  127,141;   -3,000;   -2,318
1154,302;  173,232;   -1,455;    1,773
1154,836;  175,051;   -0,455;   -2,136
1155,371;  229,232;   -1,364;    3,682
1155,905;  180,960;   -0,636;    1,682
1156,439;  149,051;   -0,636;   -0,500
1156,973;  180,414;    0,364;    0,318
1157,507;  119,232;   -0,364;    0,682
1158,042;  146,232;   -0,727;    1,045
1158,576;  194,687;    0,182;    1,773
1159,110;  178,869;   -0,818;    2,409
1159,643;  147,778;    0,636;   -0,045
1160,177;   87,687;   -1,545;    1,500

