
Integration time [ms]:   0,040
Averaging Nr. [scans]: 11
Smoothing Nr. [pixels]: 0
Data measured with spectrometer [name]: 7318044SP
Wave   ;Sample   ;Dark     ;Reference
[nm]   ;[counts] ;[counts] ;[counts] 

186,757;   10,694;   31,551;    1,318
187,357;   42,087;   22,551;    0,955
187,958;   15,822;   15,460;   -1,591
188,558;   48,946;    8,915;   -1,227
189,159;   21,118;    6,733;   -4,500
189,759;   -9,017;    7,278;   -3,591
190,360;   -7,765;    2,824;   -2,136
190,960;   27,319;    2,915;   -4,136
191,560;   39,619;    3,189;   -6,591
192,161;  260,923;    4,372;   -3,500
192,761;  109,498;    4,010;   -3,227
193,361;   46,427;    1,556;   -3,773
193,962;   79,863;    2,010;   -2,682
194,562;   11,433;    1,189;   -3,955
195,162;   29,464;   -2,448;   -2,227
195,762;  159,012;   -3,176;   -0,045
196,362;  101,772;    1,370;   -2,500
196,963;    9,344;    2,006;   -0,864
197,563;   53,957;    1,551;   -0,955
198,163;    5,622;    0,096;   -0,682
198,763;   12,936;    1,733;   -0,500
199,363;   70,751;    3,096;   -0,500
199,963;   47,443;    0,369;    0,409
200,563;   30,065;    2,823;   -1,409
201,163;    3,081;    3,277;   -0,227
201,763;   39,212;    3,732;    0,318
202,363;    9,452;    1,459;    1,500
202,963;   42,320;    1,459;    1,045
203,563;  103,059;    0,277;    0,500
204,162;   28,282;    2,096;   -1,864
204,762;   11,723;    0,550;    0,591
205,362;   -6,667;    3,004;    1,955
205,962;   21,071;    3,096;    1,955
206,562;   23,729;    1,823;    2,318
207,161;    1,621;   -0,087;    0,318
207,761;   88,581;    1,277;    2,409
208,361;   13,030;   -0,268;    1,409
208,960;   46,927;    0,459;    1,500
209,560;   27,209;    1,277;    1,591
210,160;   39,247;    0,550;    1,864
210,759;   15,542;    4,186;    1,227
211,359;    7,817;    1,459;    1,045
211,958;  112,005;    1,277;    2,045
212,558;  121,852;    1,732;    1,864
213,157;   56,350;    1,822;    1,500
213,757;  211,152;    3,822;   -0,227
214,356;   82,839;    1,277;   -0,409
214,956;  177,326;    3,095;    0,409
215,555;   58,930;    2,095;    2,136
216,154;   23,055;   -2,723;   -0,591
216,754;   10,943;    0,277;    0,773
217,353;   32,785;   -0,268;   -1,045
217,952;  -15,343;   -0,178;    0,318
218,552;   51,577;    1,368;   -0,773
219,151;   12,279;    0,277;    0,955
219,750;    6,451;    0,004;   -0,227
220,349;   -5,042;   -0,451;    1,045
220,948;   60,284;   -1,360;    1,136
221,548;    1,424;    0,913;    1,227
222,147;   15,043;   -0,087;   -0,409
222,746;   96,253;   -0,451;   -0,955
223,345;   46,122;    0,731;    0,500
223,944;   51,257;   -0,451;    0,773
224,543;   47,215;    1,004;   -1,409
225,142;   24,748;    0,094;    0,136
225,741;   32,023;   -0,814;    1,045
226,340;   25,289;   -0,451;   -0,955
226,939;   83,204;   -0,996;   -0,136
227,538;   14,753;   -0,360;   -0,773
228,137;   83,270;   -0,814;    0,864
228,735;   46,533;   -0,541;    1,227
229,334;  -11,397;   -0,905;   -0,227
229,933;   86,600;    0,459;    0,591
230,532;   97,659;    1,186;   -0,409
231,131;  126,792;    1,732;    0,318
231,729;   49,003;   -2,450;   -2,318
232,328;   13,394;   -0,723;   -1,500
232,927;   27,606;    1,004;   -0,500
233,525;   18,344;    3,640;    0,045
234,124;   38,898;    2,368;   -1,591
234,723;    3,344;    0,913;   -1,045
235,321;    1,474;    2,277;    0,136
235,920;    8,014;    1,186;   -1,227
236,518;   86,690;    3,459;    0,318
237,117;   10,583;    0,004;   -0,227
237,715;   19,216;    0,640;   -0,500
238,314;   35,144;   -0,087;   -2,318
238,912;   92,814;   -0,723;   -1,409
239,510;   50,137;    0,459;   -1,227
240,109;   96,921;    0,004;    3,773
240,707;   78,939;   -0,996;    1,227
241,305;   -1,592;    0,550;    0,136
241,904;   44,954;   -0,178;   -2,045
242,502;  113,166;   -0,632;   -0,227
243,100;   60,468;   -0,087;   -0,955
243,698;   11,738;    0,732;    1,682
244,297;   32,341;   -0,632;    0,682
244,895;   28,817;   -0,269;   -2,318
245,493;  107,159;    2,186;   -0,591
246,091;  110,175;    1,368;   -1,318
246,689;   66,347;    1,004;    0,591
247,287;   56,030;    0,822;   -1,136
247,885;   36,053;   -1,451;    1,227
248,483;   12,895;    1,822;   -0,500
249,081;   58,942;    0,185;    1,591
249,679;   59,753;   -0,178;    1,682
250,277;    6,618;   -1,723;    0,864
250,875;   48,115;   -1,087;   -1,045
251,473;   14,990;   -1,178;    0,500
252,071;   64,350;    1,459;    1,045
252,669;   22,984;   -1,814;    0,318
253,267;    1,242;   -0,087;    0,773
253,864;   26,757;   -0,360;    0,682
254,462;   79,386;    1,640;    1,591
255,060;    8,517;   -0,269;    1,318
255,658;    8,894;    0,822;   -0,136
256,255;   22,111;    0,186;   -2,045
256,853;   42,235;   -0,269;    1,409
257,451;   15,229;    0,822;    1,864
258,048;  197,451;    1,822;    1,864
258,646;   80,012;    1,731;   -1,045
259,243;  122,144;   -0,087;    2,227
259,841;   67,506;   -0,814;    0,318
260,438;    9,757;   -0,087;    0,864
261,036;   55,203;   -1,905;    1,409
261,633;    8,550;   -0,087;    2,227
262,231;   -7,104;    2,731;   -0,045
262,828;  -10,233;   -0,905;    1,136
263,425;    7,976;    0,913;   -0,591
264,023;    5,426;    0,186;    0,045
264,620;   53,446;   -0,360;   -0,318
265,217;  111,086;   -2,087;    3,136
265,815;   24,558;   -1,905;    2,136
266,412;   59,470;    0,731;    0,136
267,009;   44,492;   -1,451;    0,773
267,606;   77,740;    0,822;   -0,955
268,203;   21,096;   -0,269;   -0,591
268,801;   17,735;    1,731;    0,591
269,398;   -2,609;   -0,360;    2,500
269,995;   50,404;    0,277;    1,591
270,592;   37,637;   -0,632;   -0,500
271,189;    0,515;    0,186;    0,409
271,786;  -17,889;   -0,632;    1,227
272,383;   63,314;   -1,087;    0,227
272,980;   21,297;    0,277;    0,318
273,577;   -7,941;    0,004;    1,227
274,174;   -8,230;    0,822;    2,591
274,771;   48,166;   -0,814;   -0,773
275,367;  219,594;    2,277;    1,409
275,964;  106,149;    0,731;   -0,500
276,561;   31,924;    1,549;   -1,045
277,158;  -10,247;    0,095;   -1,773
277,755;   90,033;    2,185;    0,409
278,351;   53,093;   -0,451;   -1,500
278,948;   65,262;   -0,815;    0,045
279,545;   50,263;   -1,360;    2,318
280,141;   99,643;   -1,723;   -2,045
280,738;  107,328;   -0,451;   -0,136
281,334;   25,572;   -1,633;    0,591
281,931;   14,605;   -0,087;   -1,318
282,528;   70,587;    0,822;   -0,500
283,124;  100,477;   -1,087;   -0,500
283,721;   89,291;   -0,451;    1,409
284,317;   35,228;    0,185;    2,500
284,913;   93,459;   -1,360;    0,591
285,510;  166,187;    0,640;   -0,318
286,106;   99,838;   -2,269;   -0,955
286,703;   49,470;   -0,360;    1,955
287,299;   21,870;   -1,451;   -0,591
287,895;   25,116;    0,822;   -1,045
288,491;    8,027;    0,186;    2,136
289,088;   52,176;   -2,360;    2,409
289,684;   55,257;   -1,723;    1,500
290,280;  124,521;    0,368;    0,682
290,876;   88,766;    1,822;    5,500
291,472;   66,605;    1,276;    2,227
292,068;   81,767;    1,367;    0,227
292,665;   42,234;    2,095;    0,773
293,261;   10,081;    0,276;    2,136
293,857;   79,319;    2,913;    2,136
294,453;   45,863;    3,550;    0,955
295,049;  132,275;   -0,268;    1,955
295,644;   74,528;    0,095;    0,136
296,240;   22,047;   -0,905;   -0,136
296,836;   63,731;   -0,995;    0,318
297,432;  108,943;    1,096;   -0,500
298,028;  109,647;    0,732;    0,773
298,624;   67,034;    1,459;    1,864
299,220;   62,999;    2,368;    0,591
299,815;   55,190;    1,005;   -0,409
300,411;  105,638;    0,914;    1,773
301,007;  146,435;    1,368;    0,227
301,602;   63,718;   -0,541;   -2,318
302,198;  150,150;    0,732;   -0,773
302,794;   74,026;    1,187;   -0,500
303,389;   49,784;   -1,177;    1,045
303,985;   68,417;    0,550;    1,409
304,580;  152,470;    1,459;    1,591
305,176;   97,332;   -3,086;    0,136
305,771;   17,367;   -1,268;   -1,227
306,367;  266,405;    4,095;    0,136
306,962;  124,354;    0,641;    1,500
307,558;  166,286;   -0,450;    0,136
308,153;  167,979;    1,095;   -1,136
308,748;   61,701;   -0,814;    1,682
309,344;  273,621;   -0,632;   -1,318
309,939;  255,926;   -1,905;   -1,318
310,534;   93,819;   -0,086;   -1,682
311,130;   71,688;    0,459;   -2,500
311,725;   57,316;    1,004;   -0,500
312,320;   79,977;    2,459;    0,045
312,915;  123,374;    1,459;   -1,045
313,510;  238,723;    1,550;   -0,500
314,105;   76,112;    1,096;    1,409
314,700;   18,012;   -3,086;   -1,045
315,295;   58,924;   -0,904;    0,045
315,890;   36,515;    1,277;    0,864
316,485;   87,882;   -0,359;   -0,318
317,080;   31,647;   -3,086;    1,591
317,675;  191,533;    2,005;   -0,682
318,270;  305,747;    5,550;    3,318
318,865;  216,191;    3,278;    3,045
319,460;  140,229;   -0,904;    0,591
320,055;   42,247;   -0,541;   -1,227
320,650;   44,253;   -1,995;   -0,591
321,244;   44,571;   -0,177;   -1,409
321,839;   42,134;   -1,541;   -0,227
322,434;   71,250;   -1,086;   -1,591
323,029;   34,832;    1,732;    1,591
323,623;   26,974;    1,550;    0,773
324,218;  129,487;    2,368;    1,409
324,812;   91,581;    1,096;    1,591
325,407;   72,320;   -0,814;    2,045
326,002;  159,943;    0,277;   -0,409
326,596;  124,436;    0,914;    1,318
327,191;   42,619;    0,823;   -1,045
327,785;   48,800;   -0,813;   -0,227
328,379;   35,653;    1,368;    0,136
328,974;   66,232;    0,914;   -3,955
329,568;   94,534;    0,186;   -2,409
330,163;  137,159;    2,096;    1,045
330,757;   54,333;    2,459;    1,591
331,351;   23,527;    0,459;    0,682
331,945;   19,833;    0,914;    1,409
332,540;  106,537;   -1,723;   -0,591
333,134;  106,411;   -1,086;    0,773
333,728;  131,413;    0,005;    0,318
334,322;   54,212;   -1,177;   -0,864
334,916;   62,036;    0,277;    0,955
335,510;  186,631;   -0,450;   -0,136
336,105;  188,528;   -1,086;    1,591
336,699;  118,841;   -1,086;    0,591
337,293;  173,618;   -1,723;    0,318
337,887;  146,284;   -2,723;    1,955
338,481;  281,652;    0,459;    0,591
339,074;  390,116;   -0,359;    2,682
339,668;  394,213;   -1,632;    1,227
340,262;  931,455;    1,732;    3,227
340,856;  603,923;    1,822;   -0,682
341,450;  321,891;    1,004;    1,864
342,044;  401,345;    1,459;    0,136
342,637;  576,830;    0,913;   -2,136
343,231;  622,751;   -2,360;    0,682
343,825;  517,012;   -1,086;   -0,591
344,419;  511,622;   -1,995;    0,500
345,012; 1134,382;    2,459;    4,045
345,606;  968,832;    4,641;    1,591
346,199;  642,278;   -1,813;   -0,227
346,793;  837,284;    1,914;    2,045
347,386;  647,810;   -0,813;   -1,136
347,980;  537,194;   -0,268;   -0,045
348,573;  723,360;    2,278;    0,409
349,167; 1078,505;    5,278;    4,773
349,760; 1034,105;    2,914;    2,682
350,354;  969,383;   -0,813;    1,136
350,947; 1065,542;    1,096;    1,682
351,540;  869,646;   -0,358;   -1,409
352,134;  713,320;    1,096;    1,136
352,727;  804,143;   -0,086;    1,136
353,320;  861,223;    0,005;    0,591
353,913;  763,501;   -1,995;    1,864
354,507; 1040,370;    0,823;   -1,227
355,100;  911,399;    0,460;    0,864
355,693; 1377,292;    2,005;    2,409
356,286; 1087,401;    0,823;    2,773
356,879;  909,853;   -0,722;    1,227
357,472;  872,190;   -0,904;    1,500
358,065;  959,537;   -0,722;    2,500
358,658;  771,024;   -0,540;    2,318
359,251;  689,954;   -1,631;   -0,591
359,844;  911,506;   -1,904;   -1,136
360,437; 1022,023;   -2,995;    0,045
361,030;  834,920;    1,369;   -0,682
361,623;  803,586;    2,824;    0,318
362,215; 1063,995;   -0,086;    2,045
362,808;  869,784;   -2,358;   -1,682
363,401;  789,470;   -2,449;    0,136
363,994; 1053,798;   -0,631;   -1,500
364,586;  761,262;    0,824;   -1,500
365,179;  677,747;   -0,449;   -1,136
365,772;  486,138;   -1,995;    2,045
366,364;  676,520;    1,915;   -3,227
366,957;  770,593;    2,279;   -0,045
367,549;  655,504;    2,188;   -0,864
368,142;  657,247;    1,825;   -1,500
368,734;  601,677;    0,734;   -2,136
369,327;  477,845;    1,643;   -0,500
369,919;  527,291;   -1,538;    0,409
370,512;  577,014;   -1,083;   -0,500
371,104;  870,279;   -0,901;    1,591
371,696;  903,630;    1,191;   -0,955
372,289;  716,949;    0,373;    1,136
372,881;  647,847;   -2,080;    1,318
373,473;  483,983;   -2,170;    1,136
374,066;  608,925;   -0,169;    0,500
374,658;  557,221;    0,378;    1,136
375,250;  459,266;    0,653;   -1,409
375,842;  533,014;    0,473;   -0,045
376,434;  463,171;   -0,435;   -0,409
377,026;  453,987;    0,204;   -2,500
377,618;  485,585;   -0,158;   -0,682
378,210;  377,208;   -0,338;   -1,955
378,802;  318,724;    0,754;   -0,591
379,394;  825,050;    1,846;    0,682
379,986;  526,919;    1,393;   -0,955
380,578;  421,871;   -0,153;    0,773
381,170;  711,082;   -0,972;    0,045
381,762;  589,315;    0,755;    1,409
382,354;  549,729;   -0,065;   -1,318
382,945;  429,934;   -2,976;    0,318
383,537;  377,674;   -2,705;   -1,955
384,129;  402,064;   -2,160;   -1,136
384,721;  554,252;   -0,252;    0,955
385,312;  429,413;   -0,161;   -0,955
385,904;  568,344;   -2,706;    1,591
386,496;  430,632;   -0,979;    1,045
387,087;  591,187;    1,022;    2,500
387,679;  519,890;   -1,160;    0,045
388,270;  506,290;    2,840;    2,045
388,862;  455,852;    1,295;   -0,318
389,453;  405,749;   -0,887;    1,045
390,045;  433,988;   -0,705;   -2,682
390,636;  304,495;    0,204;   -0,591
391,227;  379,026;   -0,523;   -0,045
391,819;  378,292;    0,204;    0,773
392,410;  693,322;    1,022;    0,045
393,001;  457,448;   -0,979;   -1,591
393,593;  552,545;    1,930;   -0,045
394,184;  617,742;    1,385;   -0,409
394,775;  430,058;    1,839;    2,136
395,366;  353,019;    1,385;    0,773
395,957;  603,286;    0,113;    0,136
396,548;  455,280;   -0,342;    2,682
397,139;  629,415;   -2,433;    0,591
397,730;  505,419;   -1,888;    0,955
398,321;  510,393;   -1,252;    0,955
398,912;  422,781;   -0,615;    0,136
399,503;  435,522;   -3,524;   -1,409
400,094;  478,811;    0,294;    1,682
400,685;  479,567;   -0,433;    0,045
401,276;  366,121;    0,930;   -0,955
401,867;  351,407;   -0,888;    0,773
402,458;  293,158;   -2,251;   -2,318
403,048;  504,116;    1,112;    0,591
403,639;  399,888;    0,840;    0,864
404,230;  572,624;    2,476;    0,318
404,821;  632,158;   -0,615;    0,045
405,411;  492,831;    1,203;   -2,591
406,002;  367,170;   -1,252;   -1,136
406,592;  660,154;    2,294;    0,045
407,183;  464,617;    0,566;   -1,500
407,774;  410,904;    3,475;   -0,136
408,364;  357,869;    0,930;    0,409
408,954;  497,948;    0,384;    1,227
409,545;  490,554;    1,021;    1,045
410,135;  407,205;    1,293;    0,500
410,726;  344,206;    1,838;    0,318
411,316;  569,530;    0,111;    0,773
411,906;  324,245;   -0,253;   -0,409
412,497;  323,535;   -1,070;   -0,045
413,087;  235,987;   -1,980;   -0,227
413,677;  147,331;   -0,707;    3,864
414,267;  129,529;    0,656;    1,409
414,857;   85,318;   -2,980;    4,227
415,448;   81,799;    0,839;    0,500
416,038;  111,429;    0,020;   -0,591
416,628;  159,028;   -0,889;    0,409
417,218;  224,865;    0,565;    3,318
417,808;  377,563;    0,202;   -0,409
418,398;  221,152;    0,020;    2,682
418,988;   78,079;    2,020;    0,591
419,578;  159,086;   -0,707;    1,409
420,168;   85,629;   -1,343;   -0,955
420,757;  245,923;   -1,343;   -1,500
421,347;  131,214;    0,111;   -0,227
421,937;   78,853;    2,292;    1,409
422,527;  219,077;    0,838;   -0,773
423,116;  350,267;   -0,253;   -0,045
423,706;   38,821;   -1,889;    0,318
424,296;   -4,382;    1,384;    0,682
424,885;  132,982;   -0,071;   -3,045
425,475;  103,863;    1,474;   -2,864
426,065;  -15,214;   -0,980;   -0,318
426,654;  -40,090;   -0,435;   -0,318
427,244;  230,211;    0,020;    1,409
427,833;  190,957;    1,383;   -0,500
428,423;   60,400;   -0,526;    1,136
429,012;   51,313;   -0,344;   -1,136
429,601;  183,491;   -1,344;    0,136
430,191;   74,076;    1,292;    4,318
430,780;  -24,795;   -0,344;   -0,409
431,369;  169,410;    0,746;   -0,045
431,959;   50,404;   -1,254;    0,500
432,548;  -16,077;   -1,163;   -0,045
433,137;  -71,681;   -1,254;   -1,318
433,726;   -0,228;    0,292;    0,500
434,315;   22,740;   -0,526;    2,409
434,905;  126,275;   -1,254;    1,409
435,494;  125,104;    0,746;    0,955
436,083;  -15,665;   -0,981;   -0,955
436,672;   70,822;    0,110;    0,500
437,261;   35,378;    0,292;   -1,955
437,850;  273,787;    1,383;    0,682
438,439;  319,679;    3,291;    1,955
439,027;  413,761;    3,655;    1,773
439,616;  332,363;    2,927;    1,227
440,205;  116,862;    0,200;   -2,136
440,794;   57,960;    2,109;   -0,045
441,383;   -5,817;   -1,346;   -0,591
441,971;  -31,858;   -2,436;    0,591
442,560;  -19,396;    0,563;   -1,773
443,149; -105,195;    0,379;   -1,318
443,737;  -67,673;   -0,074;   -2,318
444,326;  -38,638;    0,018;    0,318
444,915;    4,890;   -1,982;    0,864
445,503;   17,959;   -2,891;   -0,318
446,092;  278,677;    0,382;    2,136
446,680;  197,740;    0,382;    0,318
447,269;  109,890;   -0,346;   -0,318
447,857;  106,822;    0,018;   -1,773
448,445;   60,564;    0,563;    1,318
449,034;  -11,918;   -1,528;   -1,136
449,622;    5,456;   -1,073;    3,500
450,210;  290,806;    2,017;    2,227
450,799;  203,514;    0,290;   -0,591
451,387;  157,085;    1,381;   -0,591
451,975;  149,881;    2,654;    0,864
452,563;  222,117;    3,472;    2,318
453,151;   35,142;   -0,528;   -1,227
453,739;   89,438;   -1,347;    0,136
454,328;  197,544;    2,381;   -2,136
454,916;  127,014;    2,562;   -0,136
455,504;  146,621;    1,017;    1,227
456,092;   26,249;    0,017;   -1,591
456,679;   -8,845;    1,472;    0,682
457,267;  406,997;    4,017;    1,045
457,855;   85,177;    1,017;    1,409
458,443;  -54,849;   -0,165;    1,682
459,031;  115,178;    0,108;    2,409
459,619;   69,920;   -1,801;    2,864
460,206;  -40,317;    0,835;    2,045
460,794;  -38,140;   -2,983;   -0,227
461,382;   18,384;   -0,529;   -0,864
461,970;   23,862;    1,198;    1,864
462,557;  -57,307;   -0,711;   -0,682
463,145;   63,546;   -3,165;   -1,682
463,732;  324,784;    2,016;   -1,045
464,320;   80,791;   -0,075;   -3,045
464,907;  236,483;    2,743;   -0,773
465,495;  139,851;    0,743;   -1,227
466,082;   56,431;   -1,984;   -0,045
466,670;   83,563;   -2,529;    1,227
467,257;  -28,426;   -1,711;    2,045
467,844;   83,064;   -0,075;    0,045
468,432;   53,957;    0,834;    3,500
469,019;   14,665;    0,925;   -1,773
469,606;  100,376;    0,470;    3,682
470,193;  132,712;   -1,439;    0,227
470,780;   82,926;   -2,075;    0,864
471,368;    6,145;   -1,257;   -0,773
471,955;  120,507;    1,379;   -0,682
472,542;   79,898;    0,652;   -1,136
473,129;  -46,374;   -0,166;    0,136
473,716;  -27,844;    1,470;    0,591
474,303;   14,359;    0,652;   -0,864
474,890;   19,148;   -1,439;   -0,500
475,477;  119,884;   -1,621;    0,409
476,064;   14,272;    1,106;   -1,591
476,650;  145,187;    0,288;    0,318
477,237;   45,278;   -0,258;    0,955
477,824;   28,464;   -1,076;    0,864
478,411;  -60,940;   -1,894;   -0,318
478,997;  -68,341;    0,560;   -0,773
479,584; -114,885;    1,196;   -0,409
480,171;   60,992;   -0,440;   -0,773
480,757;  126,394;    2,651;    0,773
481,344;   14,524;    0,469;    0,409
481,931;  -81,496;    1,105;    1,045
482,517;   59,609;   -1,258;    0,318
483,104;  140,445;    1,106;    2,864
483,690;    2,385;   -1,804;    0,045
484,276;  -16,174;   -0,895;    0,227
484,863;  210,875;    2,469;    1,136
485,449;   48,738;   -0,077;    0,318
486,035;    1,086;   -1,986;   -0,136
486,622;   95,052;   -0,895;    0,045
487,208;    4,071;    1,378;    1,500
487,794;  -77,791;    0,741;    0,318
488,380;  -78,981;    0,105;   -1,409
488,967;  -69,581;   -1,168;   -0,409
489,553;  -53,439;   -1,895;   -1,409
490,139;   38,730;    1,559;    0,773
490,725;  -37,583;    0,741;   -0,227
491,311;    7,514;    3,287;    3,045
491,897;   -9,910;   -0,986;    1,500
492,483;  -10,430;    0,105;    1,227
493,069;  440,189;    3,923;    0,864
493,655;  147,690;    1,650;    0,682
494,241;   19,060;    1,377;   -0,955
494,826;   25,005;    0,287;   -1,045
495,412;   97,948;    2,559;   -0,682
495,998;    1,562;   -0,805;   -0,318
496,584;   65,736;    0,377;    1,045
497,169;   75,542;    1,014;   -0,682
497,755;    9,241;    0,650;    1,227
498,341;  151,532;    0,559;    0,318
498,926;  270,935;    1,832;    1,955
499,512;    0,961;    1,286;    2,955
500,097;   10,158;    0,195;   -0,318
500,683;   29,762;   -0,350;    2,136
501,268;  -31,366;   -0,169;   -0,955
501,854;    5,542;   -0,169;    1,227
502,439;   -5,352;   -0,624;   -1,773
503,024;   19,590;    0,195;    0,500
503,610;   52,775;   -0,078;   -0,682
504,195;  -10,896;    0,558;    1,955
504,780;   78,221;    2,922;    1,227
505,366;  160,614;    3,013;    2,864
505,951;   94,143;    0,740;    1,045
506,536;   15,752;   -3,260;   -3,682
507,121;   74,844;    0,285;   -0,318
507,706;   34,602;    2,376;    1,045
508,291;  -28,756;    2,649;    1,136
508,876;  -29,794;   -0,988;    2,591
509,461;   16,082;   -0,169;   -0,773
510,046;   71,892;    0,194;    0,318
510,631;   77,172;   -0,351;   -0,773
511,216;   -2,172;    2,467;   -0,500
511,801;   62,385;   -0,442;    2,591
512,386;   91,584;    0,740;    0,500
512,971;  109,145;   -2,988;    0,955
513,555;  152,916;   -0,897;   -1,500
514,140;  106,294;   -0,442;   -3,136
514,725;  261,771;   -0,715;   -1,136
515,309;  187,618;   -0,533;    0,318
515,894;  100,392;   -0,624;   -2,227
516,479;  184,404;   -0,624;   -0,955
517,063;  248,403;    0,376;    1,227
517,648;  231,080;    1,012;   -1,136
518,232;  277,798;   -0,261;   -1,409
518,817;  480,058;   -0,079;    1,682
519,401;  779,054;    2,194;    0,591
519,985;  790,517;    1,103;    1,136
520,570;  740,645;    0,830;   -1,955
521,154; 1088,391;    2,102;    0,591
521,738; 1576,042;   -2,352;    2,409
522,323; 1709,784;   -0,170;    1,682
522,907; 1855,614;    0,466;   -0,136
523,491; 2055,917;    0,557;    0,955
524,075; 2354,177;    2,284;    0,591
524,659; 2868,581;    1,466;    0,591
525,243; 3085,384;    1,739;    0,409
525,827; 3562,790;    0,648;   -0,045
526,411; 4394,127;   -1,989;   -0,136
526,995; 5073,650;   -0,352;    1,409
527,579; 5357,667;   -0,443;   -1,045
528,163; 6020,774;    0,375;   -1,500
528,747; 6542,086;    2,466;   -0,773
529,331; 7226,614;   -0,080;   -1,409
529,915; 7811,737;    1,738;    0,955
530,499; 8291,430;   -0,807;    1,227
531,082; 8544,373;   -0,534;    1,591
531,666; 8573,438;    1,374;    0,773
532,250; 9516,164;    1,284;    2,682
532,833;10177,989;    0,920;    2,773
533,417;10446,862;   -1,807;    0,864
534,001;10785,727;    1,647;   -0,318
534,584;11748,340;    0,374;    0,500
535,168;11933,864;    0,465;    1,409
535,751;12325,664;    0,647;    0,045
536,334;12051,210;   -0,898;   -0,409
536,918;12861,123;    0,011;    1,591
537,501;13187,266;   -0,899;    1,318
538,085;13432,156;   -0,444;    1,045
538,668;13797,507;    0,829;    2,409
539,251;14354,221;    1,829;    3,773
539,834;14554,998;    0,101;    0,773
540,418;14696,228;   -1,990;    4,318
541,001;14911,021;   -0,990;    1,773
541,584;15030,197;    2,101;    2,227
542,167;14873,030;    1,374;    2,955
542,750;15095,065;    1,919;   -0,773
543,333;14834,370;    0,555;    2,136
543,916;15734,178;    0,192;    2,500
544,499;16475,247;   -1,354;    0,227
545,082;16566,244;    1,374;    3,591
545,665;16771,014;    1,919;    1,500
546,248;17205,188;    1,010;   -0,318
546,830;16927,922;   -0,445;    1,955
547,413;17419,578;    1,010;   -0,773
547,996;17998,405;    0,555;    0,500
548,579;17854,273;    0,919;    0,955
549,161;17740,816;    1,828;    2,682
549,744;17551,229;   -0,809;    0,409
550,326;18108,614;   -0,809;   -1,136
550,909;17984,996;    2,737;    0,591
551,492;18413,734;   -0,263;    0,227
552,074;18220,658;   -0,173;   -1,318
552,657;18866,271;    2,373;    0,045
553,239;18643,867;   -0,173;   -0,773
553,821;18537,753;   -1,082;    1,045
554,404;18083,136;    1,282;    1,136
554,986;18522,895;    0,464;    1,045
555,568;19153,856;    1,191;   -0,955
556,151;18375,479;    1,191;   -0,227
556,733;18621,207;   -0,264;   -0,864
557,315;19117,809;    0,100;    0,500
557,897;18961,643;    0,554;   -0,500
558,479;19094,970;   -1,991;    1,318
559,061;19237,278;   -0,719;   -0,864
559,643;19626,737;   -0,264;    0,045
560,225;20018,671;    1,645;    2,864
560,807;20041,828;    0,918;    0,318
561,389;19553,492;    0,554;    2,318
561,971;20357,064;    0,463;    2,136
562,553;20103,231;   -1,628;    1,591
563,135;20302,234;   -0,537;    1,136
563,717;19959,099;    3,372;    1,136
564,298;20717,690;    3,645;   -0,045
564,880;20429,097;    0,645;   -1,409
565,462;20665,916;    0,645;    1,318
566,043;21912,156;   -0,446;    2,318
566,625;21441,782;    1,918;    1,227
567,207;21346,058;    1,099;    1,682
567,788;22551,291;   -1,264;    1,500
568,370;23427,514;    1,917;   -0,500
568,951;23321,238;    0,190;    0,227
569,533;24279,385;   -0,628;   -0,500
570,114;24803,010;   -0,446;    0,682
570,695;25368,410;   -0,174;   -1,318
571,277;25961,260;   -0,265;   -1,682
571,858;26788,010;    2,008;   -1,136
572,439;27727,661;    1,554;   -1,045
573,021;27978,147;    2,099;   -2,773
573,602;28544,832;   -1,265;    0,318
574,183;29518,477;   -2,083;    2,227
574,764;29699,504;   -1,629;    0,409
575,345;30375,071;    0,917;   -0,136
575,926;30977,087;   -0,356;    0,136
576,507;30911,913;    1,099;   -0,227
577,088;32133,061;    3,099;    1,682
577,669;32179,858;    0,735;    1,955
578,250;33110,568;    0,644;   -1,045
578,831;33867,974;   -1,356;   -2,227
579,412;34149,027;   -0,810;    0,955
579,993;34935,024;    1,008;    0,227
580,573;35351,068;   -0,629;   -0,955
581,154;34321,812;    0,735;   -0,591
581,735;35233,633;    0,644;    0,773
582,315;34771,814;   -0,629;    2,136
582,896;34977,685;   -0,174;    1,227
583,477;34319,750;    0,189;    1,227
584,057;34593,354;    0,553;    0,955
584,638;34954,115;    2,553;    2,318
585,218;34929,152;   -0,538;    2,682
585,799;35067,376;    0,281;   -0,227
586,379;34950,879;    0,372;    1,591
586,959;33634,090;    0,735;    0,318
587,540;32811,933;   -0,629;    2,227
588,120;32359,163;    1,007;   -0,045
588,700;31359,779;    2,553;    2,136
589,281;31742,364;    0,462;   -0,955
589,861;31681,551;    0,099;   -1,682
590,441;31439,476;    2,371;   -2,682
591,021;30327,832;   -0,265;   -2,591
591,601;30532,568;   -0,537;    0,500
592,181;30503,197;   -0,719;   -0,773
592,761;29793,033;    0,007;    1,409
593,341;29688,592;   -0,901;    0,045
593,921;29718,391;   -0,265;    1,591
594,501;29609,669;   -0,538;    1,318
595,081;29476,131;    0,917;   -0,318
595,661;29816,210;   -1,447;    0,955
596,240;30404,238;   -0,537;    0,136
596,820;30093,441;    0,372;    1,955
597,400;30271,941;    2,008;    0,773
597,980;30462,008;    2,008;    1,045
598,559;30443,001;    2,735;   -0,227
599,139;30174,426;   -0,174;   -1,227
599,718;30040,517;   -0,174;   -0,409
600,298;30291,853;    0,735;    0,682
600,877;30628,039;    2,917;    1,409
601,457;30873,150;    2,281;    1,136
602,036;30779,831;    0,190;    2,045
602,616;30990,452;    0,644;    1,682
603,195;31340,685;   -0,355;    3,500
603,774;30913,441;   -0,901;    2,045
604,354;30774,791;    0,826;   -0,500
604,933;30217,992;    0,463;    1,864
605,512;30326,243;    3,554;    0,591
606,091;30376,489;   -0,537;    3,773
606,671;31237,127;    0,281;    0,773
607,250;30343,056;    1,644;    3,136
607,829;30583,184;    2,372;    3,227
608,408;30352,253;    1,190;    2,591
608,987;29406,389;    1,281;    3,409
609,566;29715,130;   -1,265;   -2,500
610,145;29819,033;   -1,082;    0,682
610,723;30157,926;    4,372;    6,864
611,302;29403,933;   -0,446;    1,682
611,881;28944,743;    5,008;   11,227
612,460;29751,012;    1,645;    3,955
613,039;30142,841;   -0,082;    2,045
613,617;28825,350;    1,736;    4,773
614,196;29024,592;    1,099;    1,227
614,775;29464,514;    1,009;    2,409
615,353;29386,185;    0,736;    0,864
615,932;29068,455;    0,100;    2,409
616,510;29632,595;    0,554;    0,591
617,089;29162,998;    7,100;   17,591
617,667;28876,738;    2,372;    6,136
618,246;28737,922;   -1,537;    1,318
618,824;28860,293;   -3,355;   -0,955
619,402;28424,757;   -2,900;   -1,773
619,981;28944,078;   -0,173;   -1,045
620,559;28722,771;    0,009;    1,682
621,137;28249,980;   -0,718;    1,864
621,715;28297,691;   -1,173;   -0,682
622,293;28248,300;   -0,537;   -0,773
622,871;28637,718;   -0,718;    0,500
623,450;28217,754;    0,373;   -0,864
624,028;28149,885;    0,191;   -0,955
624,606;27762,897;   -1,718;    1,682
625,183;28171,356;   -1,536;   -1,136
625,761;27732,164;    1,009;    1,136
626,339;28065,732;    1,373;    2,591
626,917;28437,948;   -0,172;   -0,045
627,495;28422,649;   -0,354;    1,318
628,073;27854,347;   -0,263;    2,864
628,650;27510,923;    0,100;    2,136
629,228;27983,293;    0,373;    4,409
629,806;27387,125;    2,282;    1,136
630,383;27611,190;    1,464;   -0,318
630,961;27383,068;    2,555;   -0,955
631,539;27140,136;    2,464;    0,227
632,116;26534,795;   11,373;   15,409
632,694;27096,120;    2,555;    6,500
633,271;27413,825;    0,828;    2,682
633,848;27326,787;    1,828;    2,045
634,426;27318,779;   -1,081;    1,773
635,003;26393,103;    1,101;   -0,409
635,580;26724,608;    1,192;    3,682
636,158;27349,680;    3,737;    1,227
636,735;27331,677;    0,555;   -0,500
637,312;27451,350;   -0,809;   -0,682
637,889;27563,240;   -4,354;   -0,682
638,466;26973,546;   -3,990;   -0,409
639,043;27020,737;    2,101;   -1,136
639,620;27379,238;   -2,262;   -0,955
640,197;27678,195;    1,100;    1,682
640,774;27784,902;   -0,172;    1,136
641,351;28228,519;    0,737;    1,136
641,928;27630,226;   -0,627;    1,409
642,505;27295,206;    0,828;   -0,500
643,082;27346,186;   -1,718;    1,227
643,658;26332,257;   -0,718;    1,500
644,235;27098,600;    1,191;    2,500
644,812;27486,126;    1,918;    0,773
645,388;27191,378;   -0,991;    1,409
645,965;27294,086;   -0,809;    1,682
646,542;27421,429;   -1,445;   -0,227
647,118;27382,500;    1,009;   -0,955
647,695;27674,571;   -0,263;    1,136
648,271;27539,005;   -0,536;    0,500
648,848;27904,622;    0,736;    2,227
649,424;27767,238;    0,827;    1,318
650,000;27498,491;   -0,354;   -1,045
650,577;27302,653;   -0,627;   -0,955
651,153;27799,542;   -1,809;    0,955
651,729;28911,794;    1,191;    0,864
652,305;29710,411;    0,645;    2,773
652,881;35725,118;   -0,082;    1,136
653,458;43165,552;    1,100;    0,227
654,034;46605,714;    0,282;    1,591
654,610;47906,876;    0,554;    0,773
655,186;49272,583;    0,645;    3,045
655,762;48886,563;   -0,991;    0,409
656,338;48964,088;    0,100;    0,136
656,913;49923,159;   -0,082;    0,409
657,489;49146,776;    0,827;   -0,318
658,065;49067,574;   -0,173;   -1,591
658,641;49771,372;   -0,900;   -0,864
659,217;49062,988;   -0,991;    0,409
659,792;48439,150;    0,645;   -0,409
660,368;48648,857;   -2,173;   -0,682
660,944;47699,837;   -2,082;    1,227
661,519;41515,363;   -0,628;    0,409
662,095;34959,342;   -1,719;    0,591
662,670;30602,777;    1,281;   -0,136
663,246;29656,939;    1,009;   -0,409
663,821;29118,100;    0,281;    1,682
664,396;28626,171;    0,009;    1,864
664,972;28888,606;    0,009;   -0,500
665,547;29204,040;    1,372;    0,136
666,122;29339,475;   -1,082;    0,318
666,698;29629,637;   -0,173;    0,318
667,273;28986,526;   -0,173;    0,136
667,848;29754,142;    2,372;    1,500
668,423;29519,304;    2,190;    2,318
668,998;30133,738;    2,827;   -0,682
669,573;30719,082;   -3,264;   -1,500
670,148;30536,425;   -1,446;   -0,682
670,723;30329,951;   -1,810;    0,318
671,298;30742,840;    2,372;    1,045
671,873;30889,547;   -0,082;   -0,136
672,448;30822,800;    0,645;    0,136
673,023;31113,961;   -1,992;   -0,227
673,597;31526,032;    0,827;    2,318
674,172;31292,649;   -0,355;    0,318
674,747;30756,356;    0,372;   -1,045
675,321;30580,881;   -0,628;    3,318
675,896;30141,679;    0,645;    1,045
676,471;31196,568;    2,645;    1,591
677,045;30995,094;   -1,264;    0,682
677,620;31018,528;    0,190;    1,136
678,194;31280,417;   -2,628;    1,136
678,769;30874,852;   -1,083;   -0,318
679,343;31168,832;   -0,628;    1,773
679,917;30997,812;   -1,446;    1,955
680,492;31057,883;    0,826;    3,227
681,066;31245,681;    3,372;    0,409
681,640;31300,661;    1,463;   -0,318
682,214;32182,913;    0,735;    0,500
682,788;31727,530;   -1,356;   -0,773
683,363;31683,782;   -1,810;    1,682
683,937;31376,035;   -1,719;   -0,318
684,511;32105,470;    0,463;   -0,591
685,085;31821,359;   -1,356;    0,318
685,659;31543,339;   -2,538;    0,864
686,232;31798,046;   -0,356;   -0,318
686,806;31509,935;   -0,901;    0,409
687,380;32169,915;   -0,174;    0,591
687,954;32348,258;   -1,174;    1,136
688,528;32026,420;   -0,719;    1,955
689,101;32836,855;   -3,992;    1,045
689,675;32434,925;   -0,356;   -0,136
690,249;31810,178;   -0,719;    0,409
690,822;32128,158;    0,280;    0,318
691,396;32244,502;   -0,265;    1,227
691,969;31687,300;    1,280;    0,136
692,543;32100,643;   -0,447;   -1,955
693,116;31759,260;   -0,265;   -1,409
693,690;31632,785;    0,099;    0,500
694,263;32222,583;   -1,083;    2,955
694,836;32236,109;    1,371;    3,591
695,410;30849,361;   -0,265;    1,773
695,983;31351,523;    0,189;    0,591
696,556;31286,139;   -0,447;   -1,045
697,129;31647,665;   -0,356;    1,409
697,703;31321,736;   -1,629;    1,955
698,276;31261,261;    1,462;   -0,773
698,849;31114,605;    1,280;    1,409
699,422;31452,130;   -1,083;    0,591
699,995;31137,565;    0,007;    0,136
700,568;31665,454;   -0,629;    3,045
701,140;31694,888;   -2,811;    1,682
701,713;31423,504;   -0,174;    2,409
702,286;31152,121;   -0,538;    0,864
702,859;31079,373;   -0,902;   -0,591
703,432;30195,262;    0,825;    0,682
704,004;30701,606;    0,462;    0,318
704,577;30552,859;   -0,629;    0,136
705,150;31166,748;    0,189;    2,500
705,722;30951,000;   -0,356;   -3,227
706,295;30666,617;   -0,175;   -0,591
706,867;30543,324;   -0,175;    1,955
707,440;30763,758;   -1,720;   -0,409
708,012;31076,829;    0,462;    0,591
708,584;30971,173;    2,462;    0,227
709,157;31187,335;    1,825;   -0,591
709,729;30837,860;    2,280;    2,045
710,301;31720,204;    0,734;    0,045
710,874;31740,820;   -1,447;   -0,227
711,446;30601,800;    0,371;    0,864
712,018;30437,780;    0,098;    0,500
712,590;30221,578;   -1,993;    1,682
713,162;30782,740;    0,825;    1,318
713,734;30967,447;    1,825;   -2,045
714,306;30897,245;   -1,902;   -0,409
714,878;29564,225;    0,825;    0,864
715,450;30357,841;    0,643;    0,864
716,022;30600,003;    1,552;    1,318
716,593;30731,529;    0,189;    0,591
717,165;30670,327;   -3,175;   -1,227
717,737;30428,579;    0,280;    0,409
718,309;30085,923;    0,280;   -0,045
718,880;29972,630;   -0,539;   -1,409
719,452;30164,156;   -0,175;   -1,591
720,024;29794,772;    0,734;   -0,591
720,595;30404,752;   -2,902;    0,955
721,167;29899,368;    0,370;   -2,045
721,738;29452,439;   -0,812;   -1,045
722,309;29448,328;   -0,993;   -1,227
722,881;29198,853;   -1,357;    0,773
723,452;29853,197;   -2,630;    2,864
724,023;30009,086;   -0,721;    2,682
724,595;29786,430;    0,007;    0,682
725,166;29456,319;    0,007;   -0,409
725,737;29150,481;    1,734;    0,227
726,308;29196,188;   -0,266;    0,318
726,879;29688,440;   -1,630;    1,227
727,450;29593,057;    0,552;   -0,045
728,021;29552,855;    3,097;    0,682
728,592;29337,017;    0,734;    0,500
729,163;29647,360;    0,643;   -0,136
729,734;29722,340;    0,188;   -0,227
730,305;30095,320;    1,734;    0,136
730,876;30443,209;    0,188;    2,955
731,447;30128,735;    2,188;    2,682
732,017;30283,896;    1,097;    1,864
732,588;29674,604;    0,734;    1,227
733,159;29933,856;    0,643;   -1,045
733,729;29697,563;    0,006;    0,409
734,300;28969,452;    0,915;    0,864
734,870;29397,160;    3,461;    0,591
735,441;30010,685;    0,370;   -0,591
736,011;29736,756;    0,643;   -1,591
736,582;29699,736;   -0,812;    0,045
737,152;29141,080;   -1,721;   -2,045
737,722;29541,787;   -0,267;   -0,682
738,293;29278,312;   -1,358;    1,318
738,863;29156,565;    2,461;    2,318
739,433;29005,999;    5,279;    0,318
740,003;29589,161;   -0,994;   -0,682
740,573;28973,505;    2,097;   -1,591
741,143;28897,757;   -1,085;    0,318
741,713;29732,828;    1,188;   -0,500
742,283;29429,717;    0,915;    1,591
742,853;29162,697;    1,915;    1,591
743,423;28577,586;    1,733;    0,045
743,993;28821,566;   -0,358;    1,500
744,563;28128,273;    0,097;   -0,864
745,133;28013,526;   -0,812;   -0,864
745,702;28726,779;   -0,267;    1,773
746,272;27884,941;   -0,176;    0,591
746,842;27681,284;   -1,358;   -0,591
747,411;28132,900;   -0,267;   -0,318
747,981;28328,153;    0,097;    0,500
748,551;28365,042;    2,278;   -1,045
749,120;28182,204;    0,642;   -0,227
749,690;28584,184;   -0,631;    2,409
750,259;28935,437;    1,369;    2,955
750,828;28858,689;    1,551;   -1,955
751,398;29117,487;    1,278;   -0,045
751,967;28674,649;    2,187;    0,409
752,536;28844,447;   -0,813;   -0,227
753,105;29286,427;    0,096;    0,227
753,675;29153,225;    0,096;    1,773
754,244;29088,023;   -0,904;    3,591
754,813;29108,367;    0,551;    1,227
755,382;28631,165;    0,460;    0,955
755,951;29277,509;    1,551;    3,682
756,520;28766,125;   -0,085;    1,864
757,089;29359,923;    0,278;    0,500
757,658;29519,176;    1,733;    1,227
758,227;29519,610;    1,096;    0,318
758,795;29817,954;    1,187;    1,136
759,364;30002,752;   -0,086;   -0,591
759,933;29002,278;   -1,176;   -0,045
760,501;28497,530;    0,733;   -1,318
761,070;28957,237;   -2,813;   -1,409
761,639;29691,672;   -1,904;    1,318
762,207;29107,015;    1,551;   -0,955
762,776;29010,359;    0,369;    0,864
763,344;28957,157;   -0,995;    0,591
763,913;28041,228;   -0,722;    1,409
764,481;28747,844;    1,005;   -0,136
765,049;28491,461;   -1,358;    1,409
765,618;28319,259;   -0,086;    0,318
766,186;28409,421;    0,278;    0,136
766,754;28631,673;    0,005;    1,864
767,322;27568,017;   -1,995;    0,409
767,890;27679,179;   -0,722;   -1,773
768,459;28069,795;   -2,177;   -0,318
769,027;28236,957;    1,641;    3,409
769,595;27113,300;    3,278;    2,591
770,163;27600,826;    3,823;    2,955
770,730;27325,351;    0,732;   -0,136
771,298;27114,331;    0,187;   -1,409
771,866;27198,675;   -1,541;    4,955
772,434;27570,564;   -0,631;   -1,864
773,002;27769,089;    0,005;    0,682
773,569;27383,796;    0,914;    1,682
774,137;27222,958;   -0,268;   -0,045
774,705;27972,120;    0,278;   -0,136
775,272;27424,009;    0,641;    0,682
775,840;27170,171;   -0,177;    2,682
776,407;26825,787;    0,277;    1,955
776,975;26396,312;   -0,632;    0,318
777,542;27355,292;   -1,086;   -0,045
778,110;27171,727;   -1,268;   -0,045
778,677;26800,889;   -2,359;   -0,864
779,244;26598,869;    2,186;    1,045
779,812;26746,848;    1,823;    0,864
780,379;26554,647;    0,005;    1,136
780,946;26835,990;    1,005;   -0,773
781,513;27141,334;   -1,450;    0,318
782,080;26498,132;   -0,086;    2,864
782,647;27251,930;   -0,268;    3,045
783,214;26843,728;   -0,177;    3,864
783,781;26506,435;   -0,723;   -0,682
784,348;26352,688;   -0,632;    1,500
784,915;26811,668;   -3,177;    0,318
785,482;26546,648;    1,368;    2,591
786,049;26966,355;    0,186;   -0,591
786,615;27060,972;    0,277;   -0,955
787,182;26745,406;    0,186;   -0,682
787,749;26488,386;   -2,814;    1,409
788,315;25839,002;   -1,632;   -0,409
788,882;26085,528;    1,550;   -1,227
789,448;26879,508;    1,732;   -0,955
790,015;26826,397;    1,095;    3,227
790,581;26378,649;    1,459;    0,227
791,148;26345,811;    0,641;    1,045
791,714;26473,973;   -0,541;    3,136
792,280;26153,953;    0,186;    1,591
792,847;25694,933;    0,550;    2,500
793,413;26237,095;   -0,269;   -0,318
793,979;25813,711;    3,459;   -1,318
794,545;25916,600;    4,459;    2,682
795,111;25255,398;    2,186;    1,318
795,678;25483,378;    0,731;   -1,682
796,244;25133,358;    3,368;    0,136
796,810;25683,611;    1,731;    0,773
797,375;25355,772;    0,549;   -2,136
797,941;25394,752;   -0,541;    0,591
798,507;25469,732;   -0,451;   -0,955
799,073;25037,167;   -0,360;    0,591
799,639;25066,510;   -2,632;    3,136
800,205;25056,581;    0,095;    2,682
800,770;24605,561;    0,640;    1,773
801,336;24729,905;    1,368;   -0,955
801,901;24436,339;    4,549;    3,136
802,467;25025,228;   -0,542;    2,045
803,033;24345,299;   -0,087;    0,864
803,598;24564,643;    1,913;   -1,045
804,163;24565,259;    1,095;   -0,318
804,729;24551,239;   -0,178;    1,136
805,294;24979,583;    0,822;    2,227
805,859;24703,199;    0,731;   -0,409
806,425;24197,633;    1,186;    2,682
806,990;23842,159;    2,186;    4,318
807,555;24316,502;   -1,451;    2,591
808,120;24188,210;    0,822;   -0,409
808,685;24234,008;    0,185;   -2,500
809,250;23734,260;    0,004;   -0,500
809,815;24059,149;    1,913;    0,682
810,380;24610,311;   -0,269;    1,591
810,945;25197,746;   -1,087;    2,045
811,510;24327,544;    2,094;    1,591
812,075;24039,069;   -0,633;   -1,409
812,640;24015,413;    2,003;    1,409
813,204;24034,938;    0,822;   -0,227
813,769;24507,191;    2,094;   -0,045
814,334;23941,807;    0,458;    0,864
814,898;24023,969;    0,367;    0,591
815,463;23885,403;    1,276;   -0,773
816,027;23851,202;   -0,724;   -2,318
816,592;23871,454;    0,640;   -2,045
817,156;23464,798;    2,094;    1,136
817,721;23295,596;    4,276;    2,318
818,285;23234,576;    2,912;    1,500
818,849;23915,556;   -1,451;    1,682
819,414;23780,536;   -0,269;    2,955
819,978;23343,698;   -1,269;    1,773
820,542;23926,223;    2,003;    0,500
821,106;23587,567;   -0,815;    0,682
821,670;23717,001;   -0,815;    2,591
822,234;23497,527;   -0,270;    1,409
822,798;22815,416;    0,003;    0,500
823,362;22738,214;   -0,633;    4,227
823,926;22045,012;    0,094;    1,136
824,490;22333,810;   -0,997;   -0,682
825,054;22810,517;   -0,088;   -1,136
825,618;22373,133;   -1,542;   -1,500
826,181;22341,113;    0,458;   -1,318
826,745;22245,548;    1,367;   -1,045
827,309;22616,164;    1,185;    1,318
827,872;21934,599;    1,367;    0,955
828,436;22919,942;    1,185;   -0,773
828,999;22928,831;   -0,997;    1,227
829,563;21722,084;   -0,179;    1,136
830,126;21548,246;   -0,179;   -0,591
830,690;21570,317;   -1,997;    2,864
831,253;21096,115;   -0,543;    2,227
831,816;21257,913;   -1,906;    0,500
832,380;21157,984;    0,185;    0,864
832,943;21404,691;   -1,361;   -0,500
833,506;20846,035;    2,639;   -1,227
834,069;21667,833;    3,912;   -0,955
834,632;21703,540;    1,730;    1,318
835,195;21621,247;    1,003;    0,955
835,758;20760,318;   -0,997;    1,955
836,321;20628,662;    0,730;   -1,045
836,884;20708,914;   -0,725;   -0,955
837,447;20699,440;   -2,816;    1,773
838,010;21057,783;    0,366;    3,227
838,573;21324,491;   -1,179;    0,773
839,135;21289,834;   -1,361;   -0,955
839,698;20695,723;    1,275;    0,409
840,261;20186,703;    1,003;   -0,227
840,823;19986,501;   -0,543;    0,864
841,386;20320,754;   -0,452;   -2,409
841,948;20253,279;   -1,361;    1,773
842,511;19940,077;    0,912;    1,682
843,073;20079,694;    1,912;    0,227
843,636;19844,128;   -0,361;   -0,227
844,198;19831,290;    0,911;    0,591
844,760;19981,634;    1,093;    1,955
845,322;19607,886;    0,548;    1,136
845,885;20036,503;    0,730;    0,591
846,447;20445,846;   -1,998;    0,227
847,009;20031,553;    1,911;   -0,682
847,571;20380,715;    0,820;   -2,045
848,133;20478,968;   -1,089;   -1,864
848,695;20301,766;   -0,543;    1,409
849,257;19880,291;   -1,089;   -1,682
849,819;20056,362;   -0,998;   -0,409
850,381;20041,251;   -0,725;   -0,864
850,942;20404,049;    1,093;   -0,591
851,504;20443,302;    1,184;    0,227
852,066;20470,646;    1,275;   -1,591
852,628;19923,353;   -0,180;    1,955
853,189;19448,151;    1,638;    2,682
853,751;19602,767;   -0,907;    1,409
854,312;19396,929;   -0,453;   -1,682
854,874;19950,636;   -2,089;   -0,773
855,435;20461,253;   -0,907;   -1,682
855,997;20621,142;   -1,816;   -0,136
856,558;19908,849;    0,366;    1,773
857,119;20004,465;    0,820;    2,864
857,681;19694,263;    0,002;    0,318
858,242;19749,152;    1,911;   -2,136
858,803;20197,223;    0,456;   -0,773
859,364;20733,840;    0,184;   -4,773
859,925;20035,910;   -2,453;   -0,955
860,486;19888,618;   -0,453;   -0,955
861,047;19601,961;   -0,544;   -1,227
861,608;19425,759;   -1,089;   -0,773
862,169;19495,012;    0,638;   -0,045
862,730;19281,810;    0,456;    1,409
863,291;19543,336;   -0,635;   -0,500
863,852;19960,134;   -0,635;    1,955
864,412;19399,477;   -0,271;   -0,864
864,973;17952,094;   -0,089;    0,500
865,534;17848,437;   -1,726;    0,227
866,094;19338,326;    1,820;    0,227
866,655;19037,124;    1,274;    3,318
867,215;19263,013;    0,274;    0,136
867,776;19056,993;    0,547;   -0,136
868,336;19214,610;   -1,453;    0,136
868,897;18677,226;    2,638;    1,682
869,457;18403,660;    1,365;    0,318
870,017;18613,913;    0,547;   -1,227
870,578;19129,348;   -0,817;    0,773
871,138;18822,146;   -2,089;   -0,955
871,698;18392,853;   -0,817;   -1,318
872,258;18279,378;   -0,453;   -2,864
872,818;18650,995;    2,729;    0,045
873,378;18592,975;    0,638;    1,045
873,938;18137,136;    0,547;    0,500
874,498;18455,753;    0,274;   -1,955
875,058;18366,642;    2,183;    1,773
875,618;18197,804;    1,910;   -2,682
876,177;18134,784;    1,274;    0,136
876,737;17734,763;   -0,090;    1,955
877,297;17766,107;    0,183;    1,955
877,856;17796,632;   -0,362;    0,318
878,416;17756,521;    1,183;   -0,136
878,976;17928,592;   -1,817;    0,409
879,535;18079,754;    0,092;    3,136
880,095;17825,825;   -0,544;    0,045
880,654;17951,350;   -1,090;    1,318
881,213;18089,512;    2,456;    1,500
881,773;17699,038;    2,637;    2,682
882,332;18074,381;    3,365;    5,136
882,891;17872,179;    3,092;    2,136
883,451;18384,977;   -1,272;    1,682
884,010;17773,594;   -2,908;   -0,409
884,569;17890,846;   -0,999;   -0,045
885,128;18078,735;    2,819;   -1,864
885,687;18196,261;    4,455;    0,682
886,246;17844,695;    1,455;    2,136
886,805;17596,130;    2,455;    2,045
887,364;17870,655;   -0,999;   -0,500
887,922;18272,544;   -1,181;    0,045
888,481;17771,797;   -1,545;    0,591
889,040;18064,777;    1,183;    2,136
889,599;18781,757;    2,455;    1,409
890,157;18829,919;    1,455;    2,409
890,716;18502,808;   -0,090;    0,227
891,274;18276,333;    0,092;   -1,136
891,833;18741,858;    1,546;    0,864
892,391;18644,202;   -0,454;    0,500
892,950;18725,000;    1,819;   -0,773
893,508;19099,617;    0,455;   -0,409
894,067;18379,687;    0,637;    0,136
894,625;18293,395;   -0,636;   -1,500
895,183;18532,375;   -0,363;   -0,682
895,741;18410,082;    1,728;   -1,773
896,299;18158,153;   -0,545;   -2,409
896,858;18373,405;    0,819;   -1,591
897,416;18546,658;    2,728;   -1,318
897,974;18256,365;    1,819;    0,318
898,532;18428,254;    6,091;    2,682
899,089;18346,143;    2,091;   -0,682
899,647;18352,396;   -1,454;    1,318
900,205;18040,012;    1,182;    1,045
900,763;18231,447;   -0,454;    0,227
901,321;18212,427;    2,364;   -1,409
901,878;17660,498;   -1,000;   -0,773
902,436;17496,659;   -1,363;    1,318
902,994;17946,185;    4,728;    3,682
903,551;17350,892;    0,728;    0,409
904,109;17686,508;    0,182;   -1,409
904,666;17293,670;    2,455;    1,045
905,224;17115,014;    0,182;   -0,409
905,781;16858,266;    0,727;   -0,318
906,338;16948,701;   -1,363;    1,045
906,895;16872,226;    0,637;    2,045
907,453;16825,843;    1,727;    1,136
908,010;16850,822;   -0,909;    0,409
908,567;16468,893;    1,273;    0,591
909,124;15947,601;    0,364;   -1,500
909,681;16038,217;   -2,909;    0,682
910,238;16148,379;    0,636;   -1,318
910,795;16422,813;   -0,273;   -1,136
911,352;16031,177;   -2,909;   -2,682
911,909;15472,813;   -1,364;   -0,864
912,466;15969,359;   -3,182;    1,500
913,022;15518,177;   -1,636;    0,500
913,579;15890,631;   -0,909;    2,045
914,136;15553,722;    1,636;    0,955
914,692;15911,631;    0,091;   -1,227
915,249;15488,540;    1,455;    0,409
915,806;15694,995;    0,182;    1,955
916,362;15458,904;    1,909;    1,864
916,918;15000,359;    2,000;    1,045
917,475;15010,449;   -1,182;    0,955
918,031;15062,540;    3,364;   -0,045
918,587;14476,813;   -0,909;   -0,318
919,144;14706,904;   -2,273;    0,227
919,700;15033,359;    1,727;    0,773
920,256;14608,995;    0,727;    0,045
920,812;14216,540;   -0,727;   -1,045
921,368;14182,995;   -1,727;   -1,045
921,924;13806,540;    0,182;   -0,136
922,480;13386,268;   -0,545;    1,227
923,036;14046,813;    1,273;    1,955
923,592;13954,904;    0,455;    0,318
924,148;13894,813;    0,455;   -0,955
924,704;13172,268;   -1,364;   -0,409
925,259;13366,631;   -0,273;    0,591
925,815;13188,268;    1,455;    0,500
926,371;12709,359;    2,909;    1,409
926,926;12528,086;    2,091;    0,591
927,482;12145,449;   -1,364;    0,773
928,037;12035,722;    0,909;    2,045
928,593;12324,995;    1,636;    1,045
929,148;12122,813;   -1,818;   -1,500
929,704;11577,359;   -1,455;   -0,500
930,259;11823,722;    0,091;   -0,136
930,814;10876,904;   -0,818;    1,955
931,369;10538,540;    1,091;   -0,773
931,925;10379,086;   -0,091;    0,136
932,480;10317,086;   -2,818;   -2,591
933,035;10162,268;    0,545;   -0,318
933,590; 9903,995;    0,364;   -1,773
934,145; 9497,177;   -1,364;   -0,318
934,700; 9846,904;    0,455;   -0,591
935,255; 9650,086;   -0,091;    0,045
935,809; 8892,904;    3,182;    0,864
936,364; 7971,177;   -0,455;   -0,136
936,919; 7919,904;    0,455;   -1,773
937,474; 7799,904;    1,455;    0,136
938,028; 7547,631;   -1,636;    1,136
938,583; 7018,540;    1,818;    4,682
939,138; 7269,177;    2,091;    2,136
939,692; 6682,813;    1,636;   -1,136
940,247; 6380,268;   -0,727;   -1,045
940,801; 5912,995;   -0,636;    0,227
941,355; 5779,904;   -0,364;    2,591
941,910; 5415,086;   -0,273;   -2,136
942,464; 5521,540;   -0,818;   -0,318
943,018; 5302,631;    1,000;   -0,227
943,572; 5245,359;    2,545;   -0,682
944,126; 4633,722;    0,091;   -0,409
944,681; 4540,086;    3,091;    0,227
945,235; 4512,449;    1,000;   -0,591
945,789; 4461,268;    0,364;   -1,864
946,342; 4564,722;    0,455;   -0,591
946,896; 4357,995;   -2,273;    0,955
947,450; 4103,904;    1,545;   -0,227
948,004; 4306,449;    1,727;   -0,045
948,558; 4295,177;    0,273;   -0,864
949,111; 4235,631;   -0,273;   -0,318
949,665; 4263,268;    1,636;   -0,682
950,219; 4112,904;   -0,091;   -1,045
950,772; 4192,268;   -1,909;    1,864
951,326; 4095,813;    0,545;   -0,955
951,879; 4201,722;    0,727;   -2,318
952,433; 4226,086;    0,000;    2,227
952,986; 4060,904;    2,909;    0,682
953,539; 4013,449;   -0,273;    0,591
954,093; 3919,086;    0,545;   -1,318
954,646; 4068,177;    0,909;    1,318
955,199; 3901,268;    0,000;   -0,500
955,752; 3771,540;   -0,455;    1,773
956,305; 3698,359;   -0,091;    2,955
956,858; 3893,359;    0,818;   -0,318
957,411; 4062,631;   -0,545;    2,136
957,964; 3893,540;    1,364;    2,136
958,517; 3898,631;   -1,545;    3,136
959,070; 3710,359;   -0,455;    1,955
959,623; 3773,449;    1,091;    1,500
960,176; 3521,268;    1,727;    2,045
960,728; 3514,268;   -2,727;    0,773
961,281; 3566,813;    0,545;    0,500
961,834; 3621,177;   -0,909;    0,864
962,386; 3512,904;    1,727;    1,045
962,939; 3457,904;    0,364;   -0,318
963,491; 3616,813;    0,455;    1,136
964,043; 3460,722;    1,182;    2,409
964,596; 3604,813;   -1,000;    2,227
965,148; 3430,449;   -1,000;    1,773
965,700; 3332,540;    1,091;   -0,227
966,253; 3514,268;   -0,636;    0,318
966,805; 3331,268;   -2,273;    0,773
967,357; 3389,449;    1,091;   -1,500
967,909; 3345,359;    0,455;   -1,227
968,461; 3445,086;    0,545;    3,136
969,013; 3385,995;   -0,182;   -0,864
969,565; 3482,086;   -0,455;   -1,136
970,117; 3513,722;   -0,364;    1,045
970,669; 3346,359;    0,182;   -0,136
971,220; 3230,449;   -0,455;   -1,500
971,772; 3149,449;   -0,636;   -0,318
972,324; 3259,722;    0,091;   -0,500
972,876; 3215,268;    0,818;   -0,045
973,427; 3366,540;    1,909;   -1,045
973,979; 3314,540;   -0,727;   -2,500
974,530; 3358,268;    1,818;    1,318
975,082; 3359,540;   -0,545;    1,682
975,633; 3246,995;    1,091;    1,682
976,184; 3387,631;    0,909;    0,773
976,736; 3163,995;    0,091;    0,227
977,287; 2963,813;   -0,909;   -0,500
977,838; 3164,449;    0,909;   -0,318
978,389; 3238,631;   -1,000;   -0,500
978,940; 3088,813;    0,545;   -0,409
979,491; 3116,904;    0,091;   -0,500
980,042; 3071,449;    0,182;    3,045
980,593; 3132,904;   -2,545;    0,227
981,144; 3165,086;    2,545;   -0,500
981,695; 3118,359;    1,455;    1,500
982,246; 3077,904;   -0,273;    1,045
982,797; 3262,904;   -1,727;    0,682
983,347; 3362,449;    0,364;    0,591
983,898; 3534,359;    3,091;    0,409
984,449; 3359,449;    2,182;    0,773
984,999; 3244,722;    1,455;   -1,136
985,550; 3012,359;    0,182;   -0,318
986,100; 3065,359;   -0,455;   -0,318
986,651; 3093,540;   -0,818;    0,045
987,201; 3058,449;   -1,000;   -0,591
987,751; 3161,177;    0,818;    2,864
988,302; 3159,904;    2,636;    1,500
988,852; 3170,268;    0,455;   -1,136
989,402; 3215,631;    0,091;    0,682
989,952; 3125,995;   -2,182;    0,864
990,502; 3223,540;   -0,091;    0,682
991,052; 3171,722;   -0,727;    0,045
991,602; 3040,086;   -2,909;    1,318
992,152; 3048,268;    0,455;    0,682
992,702; 3028,813;    1,364;   -0,045
993,252; 2950,995;   -3,000;   -0,500
993,802; 3045,086;   -0,273;    1,318
994,352; 3295,995;   -1,545;    1,136
994,901; 3377,995;   -0,182;    3,227
995,451; 3273,359;   -0,182;    0,318
996,000; 3374,177;    1,636;    0,318
996,550; 3066,722;    2,273;    0,227
997,100; 3081,540;    1,273;   -0,045
997,649; 3366,086;    2,182;    0,955
998,198; 2970,177;    1,727;   -1,500
998,748; 3198,268;    1,091;   -2,318
999,297; 3098,359;   -0,818;   -0,409
999,846; 3149,359;    1,000;   -0,773
1000,395; 3204,268;   -0,818;    0,500
1000,945; 3149,177;    1,818;   -0,773
1001,494; 3253,177;    2,364;    0,682
1002,043; 3237,449;    4,636;    0,864
1002,592; 3073,177;   -1,091;    1,955
1003,141; 3226,449;   -0,455;   -0,682
1003,690; 3068,359;    1,727;    0,500
1004,238; 3179,449;    1,455;   -0,045
1004,787; 2790,904;    1,364;    1,227
1005,336; 3017,268;    0,364;    0,682
1005,885; 3188,449;    1,364;   -2,773
1006,433; 3340,813;    0,545;    0,955
1006,982; 3373,813;    0,455;    1,682
1007,531; 3291,086;   -1,818;   -0,227
1008,079; 3243,086;   -2,273;    0,500
1008,627; 3374,086;   -1,455;    0,409
1009,176; 3105,086;    0,000;   -1,955
1009,724; 3137,813;    1,091;    0,864
1010,273; 3196,177;    1,273;    0,500
1010,821; 3289,813;    0,091;    1,409
1011,369; 3029,268;   -1,364;    1,318
1011,917; 3011,995;   -1,364;   -0,591
1012,465; 3325,540;    1,273;   -1,591
1013,013; 3418,995;    2,091;   -1,682
1013,561; 3287,449;    0,455;   -0,773
1014,109; 3365,813;   -1,909;    1,682
1014,657; 3236,086;    0,364;    0,591
1015,205; 3363,631;    1,636;   -0,955
1015,753; 3383,722;   -0,545;   -1,409
1016,301; 3424,268;   -2,636;    3,045
1016,848; 3425,904;   -1,273;    0,409
1017,396; 3469,631;    2,545;    0,045
1017,944; 3611,722;    1,182;    1,864
1018,491; 3345,086;    0,273;    1,409
1019,039; 3507,722;    0,455;    0,591
1019,586; 3410,449;   -1,364;    1,682
1020,134; 3522,813;    0,455;    1,500
1020,681; 3559,268;    0,182;   -1,136
1021,228; 3557,722;    2,909;   -2,227
1021,776; 3366,540;    1,182;   -1,136
1022,323; 3576,086;    0,455;    0,773
1022,870; 3510,904;   -1,000;   -0,045
1023,417; 3396,995;    2,636;    1,864
1023,964; 3542,631;    2,636;    1,227
1024,511; 3389,995;    1,000;    0,773
1025,058; 3164,813;    3,182;   -0,045
1025,605; 3229,631;   -2,273;    3,136
1026,152; 3483,995;    1,727;   -0,591
1026,699; 3189,359;    1,818;    1,318
1027,245; 3359,904;   -0,091;    0,318
1027,792; 3552,268;   -1,000;    1,409
1028,339; 3444,449;    2,364;   -0,045
1028,885; 3291,995;    1,000;   -0,227
1029,432; 3214,540;   -0,091;    0,227
1029,978; 3288,995;   -1,000;   -1,591
1030,525; 3192,359;    1,000;    0,409
1031,071; 3422,177;   -1,364;    1,136
1031,618; 3523,359;    0,364;    1,682
1032,164; 3309,177;   -0,091;    3,045
1032,710; 3376,449;    1,636;   -1,500
1033,256; 3287,359;   -0,636;   -0,136
1033,803; 3273,359;   -0,545;    1,500
1034,349; 2982,086;   -1,364;    0,136
1034,895; 3115,995;    0,000;   -0,318
1035,441; 3106,995;   -0,818;    0,318
1035,987; 3104,359;   -2,364;   -0,682
1036,533; 3089,086;   -1,455;   -0,955
1037,078; 3297,904;    1,455;    1,682
1037,624; 3107,813;    2,455;   -0,955
1038,170; 3153,449;    0,455;   -0,318
1038,716; 3057,813;    1,636;   -0,409
1039,261; 2966,813;   -2,273;   -0,773
1039,807; 2897,086;   -0,091;    3,409
1040,352; 2961,813;   -1,909;   -0,318
1040,898; 3017,540;   -1,545;   -0,682
1041,443; 2918,904;   -1,455;   -2,591
1041,989; 2930,722;    1,091;    1,591
1042,534; 2819,268;   -0,364;    2,591
1043,079; 2931,359;    2,909;    0,955
1043,625; 2736,631;    1,818;    0,500
1044,170; 2771,086;   -1,364;    1,045
1044,715; 3026,995;    2,455;    0,955
1045,260; 2829,722;    2,182;   -0,955
1045,805; 2868,359;    1,182;   -0,591
1046,350; 2790,631;    1,364;   -0,409
1046,895; 2765,813;    2,909;    1,591
1047,440; 2720,086;    5,364;    0,409
1047,985; 2600,449;    2,818;   -0,955
1048,530; 2524,449;    1,545;    1,227
1049,074; 2594,177;    0,000;    0,318
1049,619; 2562,177;   -1,364;    1,955
1050,164; 2360,540;    0,455;    0,227
1050,708; 2403,449;   -0,455;    0,045
1051,253; 2789,359;    1,273;   -2,227
1051,797; 2482,904;    0,818;   -1,318
1052,342; 2497,540;   -1,182;    1,045
1052,886; 2503,449;    0,364;   -1,409
1053,430; 2372,086;   -1,364;    0,136
1053,975; 2382,540;   -0,818;   -0,318
1054,519; 2365,086;   -0,727;    3,227
1055,063; 2368,722;    0,909;    1,318
1055,607; 2256,540;   -0,182;    0,227
1056,151; 2274,177;    2,909;    1,682
1056,695; 2205,086;    2,273;   -1,136
1057,239; 2283,722;   -1,727;   -0,682
1057,783; 2287,359;    0,818;   -1,500
1058,327; 2212,268;    0,000;    1,409
1058,871; 2453,722;   -0,545;    1,318
1059,415; 2149,449;   -0,818;   -0,045
1059,958; 2425,722;    1,455;    2,591
1060,502; 2134,086;   -1,000;   -0,773
1061,046; 2022,631;    0,364;   -0,955
1061,589; 2004,359;   -3,000;   -1,136
1062,133; 1892,449;   -1,273;    1,864
1062,676; 1832,813;    1,182;    0,864
1063,220; 1838,359;    1,091;    0,500
1063,763; 1862,904;    0,909;    1,136
1064,306; 1953,449;   -0,909;    1,864
1064,849; 1831,995;   -0,909;    0,591
1065,393; 1841,359;    2,000;   -1,500
1065,936; 1945,722;    0,182;   -0,409
1066,479; 1828,722;   -1,455;    1,318
1067,022; 1840,995;   -0,273;   -0,227
1067,565; 1733,177;   -0,091;   -1,318
1068,108; 1776,449;    0,727;   -0,591
1068,651; 1744,995;   -0,636;    1,409
1069,194; 1683,449;   -0,455;   -1,682
1069,736; 1686,268;   -1,273;    0,955
1070,279; 1652,086;   -1,364;   -0,500
1070,822; 1694,449;   -2,000;   -0,318
1071,364; 1794,359;   -0,364;    1,318
1071,907; 1617,268;   -0,727;    3,227
1072,450; 1515,813;    0,000;   -0,045
1072,992; 1507,722;   -0,273;    3,136
1073,535; 1658,359;    2,091;    2,136
1074,077; 1430,631;   -0,727;    2,045
1074,619; 1407,359;   -1,364;    0,591
1075,161; 1438,631;   -1,091;    1,500
1075,704; 1632,268;    1,545;    1,227
1076,246; 1415,086;   -0,182;    0,682
1076,788; 1332,177;   -0,364;    1,773
1077,330; 1418,813;    1,273;    2,136
1077,872; 1395,995;    0,909;    0,955
1078,414; 1620,086;    2,727;    0,773
1078,956; 1339,813;    1,273;   -0,227
1079,498; 1618,631;    1,636;    0,318
1080,040; 1308,540;    1,909;   -1,318
1080,581; 1245,995;    1,636;   -0,318
1081,123; 1165,359;    0,091;   -0,773
1081,665; 1218,813;   -1,182;   -0,955
1082,206; 1529,904;    1,364;   -0,500
1082,748; 1385,813;    0,727;    2,045
1083,289; 1243,177;   -2,000;    1,318
1083,831; 1161,631;   -0,545;    0,227
1084,372; 1189,813;    0,000;    0,591
1084,913; 1190,904;    1,091;    0,864
1085,455; 1153,995;   -1,909;   -2,045
1085,996; 1150,086;   -2,273;    0,136
1086,537; 1167,359;   -0,091;    0,864
1087,078; 1189,722;   -0,909;   -2,136
1087,619; 1230,813;   -1,273;    0,227
1088,160; 1154,086;    0,000;    1,318
1088,701; 1141,177;   -1,091;    0,682
1089,242; 1076,813;    1,364;   -2,227
1089,783; 1186,540;   -0,273;    1,409
1090,324; 1137,904;    0,455;    0,682
1090,865; 1006,904;    2,727;   -0,409
1091,405;  973,177;    0,727;    2,227
1091,946; 1002,904;    0,182;   -0,955
1092,487;  927,995;    0,818;   -1,409
1093,027; 1106,813;   -1,364;   -1,500
1093,568;  962,177;   -0,364;    1,227
1094,108; 1072,540;    0,273;    1,773
1094,649;  986,086;   -1,182;    0,136
1095,189;  907,540;   -0,636;   -0,682
1095,729;  879,086;   -0,091;    0,955
1096,269;  878,268;    0,727;   -0,955
1096,810; 1210,904;   -1,364;    0,500
1097,350; 1031,268;    1,364;   -0,773
1097,890;  923,904;    0,364;    1,227
1098,430; 1186,904;    2,364;    2,864
1098,970; 1054,904;    2,182;    1,682
1099,510;  892,086;    0,545;   -2,318
1100,050;  837,995;    1,000;   -1,591
1100,589;  809,540;   -0,727;   -0,318
1101,129;  938,540;    0,818;   -0,955
1101,669; 1103,904;    1,727;    2,136
1102,209;  911,631;   -0,091;    2,227
1102,748;  855,177;    0,000;    0,955
1103,288;  845,086;    1,273;   -1,227
1103,827;  879,177;    3,091;   -2,227
1104,367;  754,813;   -0,091;   -2,409
1104,906;  713,086;    1,364;   -1,136
1105,445;  781,177;    0,636;   -1,136
1105,985;  730,904;   -0,727;    1,500
1106,524;  779,177;   -1,727;   -0,682
1107,063;  763,722;   -2,727;    1,409
1107,602;  730,268;   -1,909;   -1,500
1108,141;  637,177;   -1,909;    1,500
1108,680;  758,540;   -3,455;   -0,591
1109,219;  687,813;   -0,909;   -0,500
1109,758;  694,268;    0,455;    0,682
1110,297;  662,268;    1,000;   -0,682
1110,836;  602,904;   -0,727;    0,955
1111,375;  789,813;   -2,545;    0,409
1111,913;  791,904;   -1,000;    0,773
1112,452;  720,904;   -0,273;    0,136
1112,991;  601,904;    1,091;    1,955
1113,529;  554,904;   -0,818;   -0,045
1114,068;  624,904;   -0,273;    2,955
1114,606;  520,359;   -0,364;   -0,955
1115,144;  701,631;   -1,273;    1,045
1115,683;  629,631;   -0,727;    0,318
1116,221;  682,904;   -0,455;   -0,864
1116,759;  585,813;    0,636;   -0,864
1117,297;  793,268;    0,000;    1,864
1117,836;  599,995;   -2,182;   -1,227
1118,374;  610,086;    0,182;   -0,682
1118,912;  542,086;    0,909;    2,682
1119,450;  542,995;    1,000;    0,864
1119,988;  595,359;    1,545;    2,136
1120,525; 1054,904;    5,091;    3,318
1121,063;  751,540;    1,182;    1,864
1121,601;  538,995;   -0,909;   -1,227
1122,139;  501,631;   -0,727;   -2,045
1122,676;  712,086;   -0,727;    2,773
1123,214;  647,540;   -1,182;    4,409
1123,751;  446,086;    1,727;    2,227
1124,289;  583,268;   -0,091;   -0,409
1124,826;  442,449;    1,727;    0,227
1125,364;  360,268;    1,727;   -0,955
1125,901;  559,449;    1,182;    1,227
1126,438;  682,086;    0,818;    0,955
1126,975;  398,631;   -0,727;   -0,773
1127,513;  469,359;    0,273;    2,136
1128,050;  357,540;    1,636;   -0,682
1128,587;  467,631;    2,000;   -0,227
1129,124;  512,631;    0,091;    1,318
1129,661;  365,268;    0,273;    0,227
1130,198;  545,995;    1,636;    0,773
1130,734;  495,813;    0,182;    1,409
1131,271;  335,177;   -0,909;    0,864
1131,808;  524,177;    2,909;    3,045
1132,345;  392,177;    1,545;    0,318
1132,881;  257,631;   -1,545;   -1,864
1133,418;  415,722;    0,727;   -1,136
1133,954;  341,722;    2,455;   -2,682
1134,491;  422,086;    1,364;   -0,773
1135,027;  304,086;    2,364;    0,864
1135,564;  404,813;    0,273;    2,955
1136,100;  393,177;    0,364;    2,136
1136,636;  266,177;   -1,273;   -1,045
1137,172;  381,359;    0,000;   -1,045
1137,708;  294,995;   -1,364;   -1,045
1138,245;  296,813;    1,273;   -1,227
1138,781;  242,268;    1,091;   -3,318
1139,317;  319,177;    1,273;   -1,409
1139,852;  298,359;    3,091;    0,136
1140,388;  433,359;   -1,182;   -0,409
1140,924;  310,904;   -1,091;   -2,227
1141,460;  237,631;   -1,636;    0,136
1141,996;  167,449;   -1,364;    2,682
1142,531;  225,995;    1,364;    3,318
1143,067;  462,086;    1,182;    1,045
1143,602;  516,086;   -0,091;   -0,318
1144,138;  355,995;   -2,636;    1,045
1144,673;  205,268;   -1,455;    1,409
1145,209;  278,540;   -1,909;   -0,318
1145,744;  194,359;   -0,727;    0,864
1146,279;  341,904;    1,818;   -0,136
1146,815;  247,086;    1,545;   -2,682
1147,350;  289,631;   -1,364;    0,045
1147,885;  193,177;   -0,818;   -1,318
1148,420;  202,449;   -2,273;    0,773
1148,955;  185,631;   -1,727;    1,864
1149,490;  205,359;   -0,909;   -1,591
1150,025;  187,631;    0,455;   -1,773
1150,560;  306,449;    1,091;   -0,955
1151,094;  272,359;    1,455;   -0,591
1151,629;  278,359;    1,636;    0,864
1152,164;  204,540;    1,364;    1,318
1152,698;  149,268;   -0,182;   -0,136
1153,233;  111,631;    0,091;   -0,682
1153,767;  160,813;   -3,000;   -2,318
1154,302;  215,177;   -1,455;    1,773
1154,836;  213,359;   -0,455;   -2,136
1155,371;  280,449;   -1,364;    3,682
1155,905;  224,449;   -0,636;    1,682
1156,439;  180,086;   -0,636;   -0,500
1156,973;  226,268;    0,364;    0,318
1157,507;  158,540;   -0,364;    0,682
1158,042;  186,086;   -0,727;    1,045
1158,576;  232,177;    0,182;    1,773
1159,110;  223,086;   -0,818;    2,409
1159,643;  185,813;    0,636;   -0,045
1160,177;  119,904;   -1,545;    1,500

