
Integration time [ms]:   0,040
Averaging Nr. [scans]: 11
Smoothing Nr. [pixels]: 0
Data measured with spectrometer [name]: 7318044SP
Wave   ;Sample   ;Dark     ;Reference
[nm]   ;[counts] ;[counts] ;[counts] 

186,757;   19,441;   31,551;    1,318
187,357;   59,824;   22,551;    0,955
187,958;   36,378;   15,460;   -1,591
188,558;   88,238;    8,915;   -1,227
189,159;   43,765;    6,733;   -4,500
189,759;   14,721;    7,278;   -3,591
190,360;   12,321;    2,824;   -2,136
190,960;   70,935;    2,915;   -4,136
191,560;   87,837;    3,189;   -6,591
192,161;  365,069;    4,372;   -3,500
192,761;  184,759;    4,010;   -3,227
193,361;  127,773;    1,556;   -3,773
193,962;  184,520;    2,010;   -2,682
194,562;   93,543;    1,189;   -3,955
195,162;  138,164;   -2,448;   -2,227
195,762;  316,188;   -3,176;   -0,045
196,362;  259,225;    1,370;   -2,500
196,963;   98,530;    2,006;   -0,864
197,563;  199,157;    1,551;   -0,955
198,163;  134,654;    0,096;   -0,682
198,763;  147,962;    1,733;   -0,500
199,363;  273,050;    3,096;   -0,500
199,963;  224,936;    0,369;    0,409
200,563;  187,471;    2,823;   -1,409
201,163;  166,038;    3,277;   -0,227
201,763;  285,803;    3,732;    0,318
202,363;  206,865;    1,459;    1,500
202,963;  333,739;    1,459;    1,045
203,563;  457,111;    0,277;    0,500
204,162;  280,608;    2,096;   -1,864
204,762;  273,246;    0,550;    0,591
205,362;  238,759;    3,004;    1,955
205,962;  352,028;    3,096;    1,955
206,562;  345,243;    1,823;    2,318
207,161;  319,056;   -0,087;    0,318
207,761;  485,549;    1,277;    2,409
208,361;  345,629;   -0,268;    1,409
208,960;  457,894;    0,459;    1,500
209,560;  542,823;    1,277;    1,591
210,160;  508,675;    0,550;    1,864
210,759;  472,421;    4,186;    1,227
211,359;  492,619;    1,459;    1,045
211,958;  773,525;    1,277;    2,045
212,558;  872,552;    1,732;    1,864
213,157;  695,781;    1,822;    1,500
213,757; 1180,683;    3,822;   -0,227
214,356;  851,547;    1,277;   -0,409
214,956; 1216,114;    3,095;    0,409
215,555;  801,281;    2,095;    2,136
216,154;  737,769;   -2,723;   -0,591
216,754;  763,566;    0,277;    0,773
217,353;  911,946;   -0,268;   -1,045
217,952;  748,016;   -0,178;    0,318
218,552; 1000,117;    1,368;   -0,773
219,151;  908,096;    0,277;    0,955
219,750;  902,093;    0,004;   -0,227
220,349; 1075,773;   -0,451;    1,045
220,948; 1118,194;   -1,360;    1,136
221,548; 1163,144;    0,913;    1,227
222,147; 1279,398;   -0,087;   -0,409
222,746; 1574,344;   -0,451;   -0,955
223,345; 1460,306;    0,731;    0,500
223,944; 1479,616;   -0,451;    0,773
224,543; 1667,205;    1,004;   -1,409
225,142; 1766,030;    0,094;    0,136
225,741; 1682,566;   -0,814;    1,045
226,340; 1722,925;   -0,451;   -0,955
226,939; 2206,286;   -0,996;   -0,136
227,538; 2187,568;   -0,360;   -0,773
228,137; 2345,803;   -0,814;    0,864
228,735; 2530,065;   -0,541;    1,227
229,334; 2240,681;   -0,905;   -0,227
229,933; 2634,860;    0,459;    0,591
230,532; 2750,733;    1,186;   -0,409
231,131; 2791,591;    1,732;    0,318
231,729; 2982,353;   -2,450;   -2,318
232,328; 3145,105;   -0,723;   -1,500
232,927; 3243,948;    1,004;   -0,500
233,525; 3398,882;    3,640;    0,045
234,124; 3607,335;    2,368;   -1,591
234,723; 3611,329;    0,913;   -1,045
235,321; 3769,102;    2,277;    0,136
235,920; 4065,182;    1,186;   -1,227
236,518; 4326,136;    3,459;    0,318
237,117; 4518,848;    0,004;   -0,227
237,715; 4701,566;    0,640;   -0,500
238,314; 4751,219;   -0,087;   -2,318
238,912; 4866,980;   -0,723;   -1,409
239,510; 4913,574;    0,459;   -1,227
240,109; 5107,806;    0,004;    3,773
240,707; 5146,734;   -0,996;    1,227
241,305; 5555,570;    0,550;    0,136
241,904; 5794,570;   -0,178;   -2,045
242,502; 5772,147;   -0,632;   -0,227
243,100; 5695,818;   -0,087;   -0,955
243,698; 5958,990;    0,732;    1,682
244,297; 6151,055;   -0,632;    0,682
244,895; 5958,172;   -0,269;   -2,318
245,493; 6338,607;    2,186;   -0,591
246,091; 6372,531;    1,368;   -1,318
246,689; 6357,611;    1,004;    0,591
247,287; 6519,385;    0,822;   -1,136
247,885; 6831,507;   -1,451;    1,227
248,483; 6935,704;    1,822;   -0,500
249,081; 7077,765;    0,185;    1,591
249,679; 7266,029;   -0,178;    1,682
250,277; 7516,705;   -1,723;    0,864
250,875; 7510,101;   -1,087;   -1,045
251,473; 7561,984;   -1,178;    0,500
252,071; 7741,523;    1,459;    1,045
252,669; 7904,343;   -1,814;    0,318
253,267; 8223,250;   -0,087;    0,773
253,864; 8144,749;   -0,360;    0,682
254,462; 7985,384;    1,640;    1,591
255,060; 7967,240;   -0,269;    1,318
255,658; 8352,252;    0,822;   -0,136
256,255; 8795,011;    0,186;   -2,045
256,853; 8625,961;   -0,269;    1,409
257,451; 8623,223;    0,822;    1,864
258,048; 8940,624;    1,822;    1,864
258,646; 8637,464;    1,731;   -1,045
259,243; 8855,052;   -0,087;    2,227
259,841; 8932,684;   -0,814;    0,318
260,438; 8794,392;   -0,087;    0,864
261,036; 9580,281;   -1,905;    1,409
261,633; 9454,546;   -0,087;    2,227
262,231; 9186,800;    2,731;   -0,045
262,828; 9274,116;   -0,905;    1,136
263,425; 9355,057;    0,913;   -0,591
264,023; 9638,876;    0,186;    0,045
264,620; 9213,443;   -0,360;   -0,318
265,217; 9574,809;   -2,087;    3,136
265,815; 9641,653;   -1,905;    2,136
266,412; 9389,102;    0,731;    0,136
267,009; 9476,394;   -1,451;    0,773
267,606; 9343,555;    0,822;   -0,955
268,203; 9328,630;   -0,269;   -0,591
268,801; 9669,548;    1,731;    0,591
269,398; 9972,390;   -0,360;    2,500
269,995; 9946,116;    0,277;    1,591
270,592; 9697,896;   -0,632;   -0,500
271,189; 9934,788;    0,186;    0,409
271,786;10061,011;   -0,632;    1,227
272,383; 9857,030;   -1,087;    0,227
272,980;10083,927;    0,277;    0,318
273,577;10566,951;    0,004;    1,227
274,174;10146,936;    0,822;    2,591
274,771;10172,980;   -0,814;   -0,773
275,367;10331,940;    2,277;    1,409
275,964;10289,499;    0,731;   -0,500
276,561;10362,102;    1,549;   -1,045
277,158;10625,393;    0,095;   -1,773
277,755;10766,311;    2,185;    0,409
278,351;10153,999;   -0,451;   -1,500
278,948;10526,812;   -0,815;    0,045
279,545;10501,536;   -1,360;    2,318
280,141;11160,907;   -1,723;   -2,045
280,738;11080,868;   -0,451;   -0,136
281,334;11327,663;   -1,633;    0,591
281,931;10718,980;   -0,087;   -1,318
282,528;10799,051;    0,822;   -0,500
283,124;11557,020;   -1,087;   -0,500
283,721;11499,664;   -0,451;    1,409
284,317;11275,058;    0,185;    2,500
284,913;11840,561;   -1,360;    0,591
285,510;12028,470;    0,640;   -0,318
286,106;12103,116;   -2,269;   -0,955
286,703;11675,292;   -0,360;    1,955
287,299;11934,411;   -1,451;   -0,591
287,895;12101,204;    0,822;   -1,045
288,491;12728,845;    0,186;    2,136
289,088;12450,816;   -2,360;    2,409
289,684;12561,343;   -1,723;    1,500
290,280;12594,694;    0,368;    0,682
290,876;12673,762;    1,822;    5,500
291,472;12528,427;    1,276;    2,227
292,068;12666,138;    1,367;    0,227
292,665;12394,411;    2,095;    0,773
293,261;11923,718;    0,276;    2,136
293,857;12373,854;    2,913;    2,136
294,453;12305,577;    3,550;    0,955
295,049;12191,879;   -0,268;    1,955
295,644;12200,688;    0,095;    0,136
296,240;12154,383;   -0,905;   -0,136
296,836;12183,149;   -0,995;    0,318
297,432;12480,446;    1,096;   -0,500
298,028;12535,605;    0,732;    0,773
298,624;12972,272;    1,459;    1,864
299,220;13237,961;    2,368;    0,591
299,815;12908,338;    1,005;   -0,409
300,411;12695,334;    0,914;    1,773
301,007;12693,482;    1,368;    0,227
301,602;12733,227;   -0,541;   -2,318
302,198;12929,649;    0,732;   -0,773
302,794;13274,440;    1,187;   -0,500
303,389;13416,291;   -1,177;    1,045
303,985;13525,289;    0,550;    1,409
304,580;13476,157;    1,459;    1,591
305,176;13429,027;   -3,086;    0,136
305,771;13383,793;   -1,268;   -1,227
306,367;13242,833;    4,095;    0,136
306,962;13569,591;    0,641;    1,500
307,558;13319,705;   -0,450;    0,136
308,153;13218,219;    1,095;   -1,136
308,748;13492,940;   -0,814;    1,682
309,344;13509,594;   -0,632;   -1,318
309,939;13591,533;   -1,905;   -1,318
310,534;13851,245;   -0,086;   -1,682
311,130;13800,837;    0,459;   -2,500
311,725;13533,831;    1,004;   -0,500
312,320;13851,215;    2,459;    0,045
312,915;13705,983;    1,459;   -1,045
313,510;13790,421;    1,550;   -0,500
314,105;14307,070;    1,096;    1,409
314,700;13687,155;   -3,086;   -1,045
315,295;13280,884;   -0,904;    0,045
315,890;12792,933;    1,277;    0,864
316,485;13171,943;   -0,359;   -0,318
317,080;13270,794;   -3,086;    1,591
317,675;13846,135;    2,005;   -0,682
318,270;13232,611;    5,550;    3,318
318,865;13216,055;    3,278;    3,045
319,460;13093,194;   -0,904;    0,591
320,055;13295,107;   -0,541;   -1,227
320,650;12956,657;   -1,995;   -0,591
321,244;13009,342;   -0,177;   -1,409
321,839;14020,369;   -1,541;   -0,227
322,434;13903,215;   -1,086;   -1,591
323,029;13476,516;    1,732;    1,591
323,623;13336,667;    1,550;    0,773
324,218;13094,715;    2,368;    1,409
324,812;13002,633;    1,096;    1,591
325,407;12808,557;   -0,814;    2,045
326,002;12718,636;    0,277;   -0,409
326,596;13023,396;    0,914;    1,318
327,191;13256,401;    0,823;   -1,045
327,785;12782,214;   -0,813;   -0,227
328,379;13012,707;    1,368;    0,136
328,974;12831,014;    0,914;   -3,955
329,568;13059,132;    0,186;   -2,409
330,163;12878,208;    2,096;    1,045
330,757;13261,032;    2,459;    1,591
331,351;12540,676;    0,459;    0,682
331,945;12880,794;    0,914;    1,409
332,540;12425,596;   -1,723;   -0,591
333,134;12595,655;   -1,086;    0,773
333,728;12878,926;    0,005;    0,318
334,322;13208,811;   -1,177;   -0,864
334,916;12453,375;    0,277;    0,955
335,510;12805,598;   -0,450;   -0,136
336,105;13078,764;   -1,086;    1,591
336,699;12814,082;   -1,086;    0,591
337,293;12721,956;   -1,723;    0,318
337,887;12887,976;   -2,723;    1,955
338,481;13002,801;    0,459;    0,591
339,074;13111,182;   -0,359;    2,682
339,668;12936,550;   -1,632;    1,227
340,262;13222,427;    1,732;    3,227
340,856;12737,174;    1,822;   -0,682
341,450;12023,963;    1,004;    1,864
342,044;12981,229;    1,459;    0,136
342,637;12761,715;    0,913;   -2,136
343,231;12636,199;   -2,360;    0,682
343,825;12626,799;   -1,086;   -0,591
344,419;12536,403;   -1,995;    0,500
345,012;12290,432;    2,459;    4,045
345,606;12335,425;    4,641;    1,591
346,199;12119,776;   -1,813;   -0,227
346,793;11602,507;    1,914;    2,045
347,386;11777,316;   -0,813;   -1,136
347,980;11843,322;   -0,268;   -0,045
348,573;11619,028;    2,278;    0,409
349,167;11249,530;    5,278;    4,773
349,760;11605,222;    2,914;    2,682
350,354;11573,302;   -0,813;    1,136
350,947;11289,650;    1,096;    1,682
351,540;10925,935;   -0,358;   -1,409
352,134;10880,256;    1,096;    1,136
352,727;10969,633;   -0,086;    1,136
353,320;10718,070;    0,005;    0,591
353,913;10571,985;   -1,995;    1,864
354,507;10830,402;    0,823;   -1,227
355,100;10753,248;    0,460;    0,864
355,693; 9959,037;    2,005;    2,409
356,286; 9970,154;    0,823;    2,773
356,879;10357,243;   -0,722;    1,227
357,472; 9950,854;   -0,904;    1,500
358,065;10156,832;   -0,722;    2,500
358,658;10078,323;   -0,540;    2,318
359,251; 9677,799;   -1,631;   -0,591
359,844; 9145,619;   -1,904;   -1,136
360,437; 9322,780;   -2,995;    0,045
361,030; 9600,674;    1,369;   -0,682
361,623; 9198,240;    2,824;    0,318
362,215; 9262,743;   -0,086;    2,045
362,808; 9043,262;   -2,358;   -1,682
363,401; 9232,212;   -2,449;    0,136
363,994; 8945,173;   -0,631;   -1,500
364,586; 8841,899;    0,824;   -1,500
365,179; 9107,106;   -0,449;   -1,136
365,772; 8579,248;   -1,995;    2,045
366,364; 8920,155;    1,915;   -3,227
366,957; 9113,212;    2,279;   -0,045
367,549; 9117,937;    2,188;   -0,864
368,142; 8735,944;    1,825;   -1,500
368,734; 8957,265;    0,734;   -2,136
369,327; 8889,155;    1,643;   -0,500
369,919; 8846,679;   -1,538;    0,409
370,512; 8570,931;   -1,083;   -0,500
371,104; 8306,984;   -0,901;    1,591
371,696; 8551,208;    1,191;   -0,955
372,289; 8638,233;    0,373;    1,136
372,881; 8779,454;   -2,080;    1,318
373,473; 8703,831;   -2,170;    1,136
374,066; 8503,438;   -0,169;    0,500
374,658; 8323,109;    0,378;    1,136
375,250; 8715,442;    0,653;   -1,409
375,842; 8569,013;    0,473;   -0,045
376,434; 8464,556;   -0,435;   -0,409
377,026; 9035,096;    0,204;   -2,500
377,618; 8958,968;   -0,158;   -0,682
378,210; 8775,421;   -0,338;   -1,955
378,802; 8615,064;    0,754;   -0,591
379,394; 8590,980;    1,846;    0,682
379,986; 9209,087;    1,393;   -0,955
380,578; 9297,665;   -0,153;    0,773
381,170; 8609,638;   -0,972;    0,045
381,762; 8561,462;    0,755;    1,409
382,354; 8822,485;   -0,065;   -1,318
382,945; 8946,028;   -2,976;    0,318
383,537; 9083,658;   -2,705;   -1,955
384,129; 9072,378;   -2,160;   -1,136
384,721; 9276,949;   -0,252;    0,955
385,312; 9217,124;   -0,161;   -0,955
385,904; 9304,590;   -2,706;    1,591
386,496; 8651,320;   -0,979;    1,045
387,087; 8824,854;    1,022;    2,500
387,679; 8878,728;   -1,160;    0,045
388,270; 8965,120;    2,840;    2,045
388,862; 9086,142;    1,295;   -0,318
389,453; 9024,945;   -0,887;    1,045
390,045; 9302,457;   -0,705;   -2,682
390,636; 9199,955;    0,204;   -0,591
391,227; 9083,679;   -0,523;   -0,045
391,819; 9157,405;    0,204;    0,773
392,410; 9250,626;    1,022;    0,045
393,001; 9202,504;   -0,979;   -1,591
393,593; 9526,607;    1,930;   -0,045
394,184; 9356,526;    1,385;   -0,409
394,775; 9300,843;    1,839;    2,136
395,366; 9527,154;    1,385;    0,773
395,957; 9533,408;    0,113;    0,136
396,548; 9868,775;   -0,342;    2,682
397,139;10196,442;   -2,433;    0,591
397,730; 9919,917;   -1,888;    0,955
398,321; 9956,627;   -1,252;    0,955
398,912;10027,291;   -0,615;    0,136
399,503;10068,849;   -3,524;   -1,409
400,094; 9455,689;    0,294;    1,682
400,685; 9287,618;   -0,433;    0,045
401,276; 9406,260;    0,930;   -0,955
401,867; 9755,462;   -0,888;    0,773
402,458; 9866,842;   -2,251;   -2,318
403,048; 9811,354;    1,112;    0,591
403,639; 9395,298;    0,840;    0,864
404,230; 9639,409;    2,476;    0,318
404,821; 9540,940;   -0,615;    0,045
405,411; 9679,528;    1,203;   -2,591
406,002; 9296,409;   -1,252;   -1,136
406,592; 9086,493;    2,294;    0,045
407,183; 9397,604;    0,566;   -1,500
407,774; 9348,069;    3,475;   -0,136
408,364; 9690,121;    0,930;    0,409
408,954; 9247,659;    0,384;    1,227
409,545; 9296,354;    1,021;    1,045
410,135; 8844,742;    1,293;    0,500
410,726; 9011,671;    1,838;    0,318
411,316; 9397,073;    0,111;    0,773
411,906; 9050,249;   -0,253;   -0,409
412,497; 8492,799;   -1,070;   -0,045
413,087; 9150,070;   -1,980;   -0,227
413,677; 9567,886;   -0,707;    3,864
414,267; 9422,265;    0,656;    1,409
414,857; 9454,965;   -2,980;    4,227
415,448; 9706,157;    0,839;    0,500
416,038; 9337,699;    0,020;   -0,591
416,628; 9351,127;   -0,889;    0,409
417,218; 8764,060;    0,565;    3,318
417,808; 9050,942;    0,202;   -0,409
418,398; 9558,441;    0,020;    2,682
418,988; 9596,460;    2,020;    0,591
419,578; 9918,371;   -0,707;    1,409
420,168;10233,634;   -1,343;   -0,955
420,757; 9820,918;   -1,343;   -1,500
421,347; 9483,512;    0,111;   -0,227
421,937; 9645,423;    2,292;    1,409
422,527; 9607,743;    0,838;   -0,773
423,116; 9410,010;   -0,253;   -0,045
423,706; 9725,023;   -1,889;    0,318
424,296; 9723,820;    1,384;    0,682
424,885;10183,002;   -0,071;   -3,045
425,475;10479,888;    1,474;   -2,864
426,065;10355,083;   -0,980;   -0,318
426,654; 9957,858;   -0,435;   -0,318
427,244;10107,692;    0,020;    1,409
427,833; 9532,436;    1,383;   -0,500
428,423;10056,889;   -0,526;    1,136
429,012;10841,903;   -0,344;   -1,136
429,601;10321,540;   -1,344;    0,136
430,191;10556,480;    1,292;    4,318
430,780;10210,604;   -0,344;   -0,409
431,369;10113,096;    0,746;   -0,045
431,959;10779,547;   -1,254;    0,500
432,548;10582,340;   -1,163;   -0,045
433,137;10697,558;   -1,254;   -1,318
433,726;11265,099;    0,292;    0,500
434,315;10571,161;   -0,526;    2,409
434,905;10629,528;   -1,254;    1,409
435,494;10483,623;    0,746;    0,955
436,083;10974,755;   -0,981;   -0,955
436,672;10863,337;    0,110;    0,500
437,261;10383,354;    0,292;   -1,955
437,850;10564,033;    1,383;    0,682
438,439;10552,937;    3,291;    1,955
439,027;10397,476;    3,655;    1,773
439,616;10731,359;    2,927;    1,227
440,205;10613,942;    0,200;   -2,136
440,794;10738,412;    2,109;   -0,045
441,383;11003,007;   -1,346;   -0,591
441,971;10850,237;   -2,436;    0,591
442,560;10717,253;    0,563;   -1,773
443,149;10428,644;    0,379;   -1,318
443,737;10591,094;   -0,074;   -2,318
444,326;10893,012;    0,018;    0,318
444,915;10943,539;   -1,982;    0,864
445,503;11353,240;   -2,891;   -0,318
446,092;10599,780;    0,382;    2,136
446,680;11151,030;    0,382;    0,318
447,269;11307,546;   -0,346;   -0,318
447,857;11066,758;    0,018;   -1,773
448,445;11151,048;    0,563;    1,318
449,034;11375,018;   -1,528;   -1,136
449,622;11563,483;   -1,073;    3,500
450,210;10721,394;    2,017;    2,227
450,799;11285,196;    0,290;   -0,591
451,387;11202,587;    1,381;   -0,591
451,975;10818,198;    2,654;    0,864
452,563;10949,337;    3,472;    2,318
453,151;10973,917;   -0,528;   -1,227
453,739;10890,864;   -1,347;    0,136
454,328;10740,692;    2,381;   -2,136
454,916;10398,623;    2,562;   -0,136
455,504;10582,952;    1,017;    1,227
456,092;10763,394;    0,017;   -1,591
456,679;10790,119;    1,472;    0,682
457,267;10731,331;    4,017;    1,045
457,855;10901,334;    1,017;    1,409
458,443;10645,952;   -0,165;    1,682
459,031;10784,793;    0,108;    2,409
459,619;11275,076;   -1,801;    2,864
460,206;11424,932;    0,835;    2,045
460,794;11475,933;   -2,983;   -0,227
461,382;11757,649;   -0,529;   -0,864
461,970;11288,672;    1,198;    1,864
462,557;11307,139;   -0,711;   -0,682
463,145;11545,716;   -3,165;   -1,682
463,732;11697,147;    2,016;   -1,045
464,320;11636,799;   -0,075;   -3,045
464,907;11257,215;    2,743;   -0,773
465,495;11100,691;    0,743;   -1,227
466,082;11315,892;   -1,984;   -0,045
466,670;11197,752;   -2,529;    1,227
467,257;11595,404;   -1,711;    2,045
467,844;11743,806;   -0,075;    0,045
468,432;11807,064;    0,834;    3,500
469,019;11230,055;    0,925;   -1,773
469,606;11738,578;    0,470;    3,682
470,193;11556,199;   -1,439;    0,227
470,780;11072,312;   -2,075;    0,864
471,368;11421,446;   -1,257;   -0,773
471,955;11204,533;    1,379;   -0,682
472,542;10864,570;    0,652;   -1,136
473,129;11115,290;   -0,166;    0,136
473,716;10789,363;    1,470;    0,591
474,303;11001,294;    0,652;   -0,864
474,890;11312,281;   -1,439;   -0,500
475,477;11342,476;   -1,621;    0,409
476,064;11260,420;    1,106;   -1,591
476,650;11242,599;    0,288;    0,318
477,237;11038,235;   -0,258;    0,955
477,824;11192,969;   -1,076;    0,864
478,411;11203,927;   -1,894;   -0,318
478,997;11426,443;    0,560;   -0,773
479,584;11500,546;    1,196;   -0,409
480,171;12261,601;   -0,440;   -0,773
480,757;11895,648;    2,651;    0,773
481,344;12207,134;    0,469;    0,409
481,931;11736,232;    1,105;    1,045
482,517;12909,144;   -1,258;    0,318
483,104;13593,785;    1,106;    2,864
483,690;13912,635;   -1,804;    0,045
484,276;14279,721;   -0,895;    0,227
484,863;14012,310;    2,469;    1,136
485,449;14614,366;   -0,077;    0,318
486,035;14589,897;   -1,986;   -0,136
486,622;15013,765;   -0,895;    0,045
487,208;14978,698;    1,378;    1,500
487,794;14845,206;    0,741;    0,318
488,380;14941,382;    0,105;   -1,409
488,967;15006,160;   -1,168;   -0,409
489,553;15067,297;   -1,895;   -1,409
490,139;15288,284;    1,559;    0,773
490,725;14610,155;    0,741;   -0,227
491,311;14048,068;    3,287;    3,045
491,897;13329,555;   -0,986;    1,500
492,483;13083,310;    0,105;    1,227
493,069;12883,745;    3,923;    0,864
493,655;12925,708;    1,650;    0,682
494,241;12814,439;    1,377;   -0,955
494,826;13245,650;    0,287;   -1,045
495,412;12687,683;    2,559;   -0,682
495,998;12842,134;   -0,805;   -0,318
496,584;13031,939;    0,377;    1,045
497,169;13030,022;    1,014;   -0,682
497,755;12964,461;    0,650;    1,227
498,341;13593,920;    0,559;    0,318
498,926;13167,965;    1,832;    1,955
499,512;13362,656;    1,286;    2,955
500,097;13530,295;    0,195;   -0,318
500,683;13442,895;   -0,350;    2,136
501,268;13828,314;   -0,169;   -0,955
501,854;13524,134;   -0,169;    1,227
502,439;13446,432;   -0,624;   -1,773
503,024;13708,276;    0,195;    0,500
503,610;13774,733;   -0,078;   -0,682
504,195;13829,702;    0,558;    1,955
504,780;13920,811;    2,922;    1,227
505,366;13771,292;    3,013;    2,864
505,951;13436,845;    0,740;    1,045
506,536;13494,179;   -3,260;   -3,682
507,121;13486,994;    0,285;   -0,318
507,706;14041,844;    2,376;    1,045
508,291;14461,583;    2,649;    1,136
508,876;13881,564;   -0,988;    2,591
509,461;13333,159;   -0,169;   -0,773
510,046;13755,605;    0,194;    0,318
510,631;14031,698;   -0,351;   -0,773
511,216;13653,176;    2,467;   -0,500
511,801;14064,904;   -0,442;    2,591
512,386;14414,567;    0,740;    0,500
512,971;14353,137;   -2,988;    0,955
513,555;13910,719;   -0,897;   -1,500
514,140;14713,373;   -0,442;   -3,136
514,725;14735,952;   -0,715;   -1,136
515,309;14876,433;   -0,533;    0,318
515,894;14258,662;   -0,624;   -2,227
516,479;14725,859;   -0,624;   -0,955
517,063;14596,490;    0,376;    1,227
517,648;14711,533;    1,012;   -1,136
518,232;14369,905;   -0,261;   -1,409
518,817;14699,165;   -0,079;    1,682
519,401;14950,704;    2,194;    0,591
519,985;14438,255;    1,103;    1,136
520,570;14330,571;    0,830;   -1,955
521,154;14621,231;    2,102;    0,591
521,738;14828,347;   -2,352;    2,409
522,323;15412,804;   -0,170;    1,682
522,907;15113,827;    0,466;   -0,136
523,491;14786,222;    0,557;    0,955
524,075;14776,664;    2,284;    0,591
524,659;14918,245;    1,466;    0,591
525,243;14353,957;    1,739;    0,409
525,827;14587,914;    0,648;   -0,045
526,411;15476,517;   -1,989;   -0,136
526,995;15711,681;   -0,352;    1,409
527,579;15265,619;   -0,443;   -1,045
528,163;15604,186;    0,375;   -1,500
528,747;15532,951;    2,466;   -0,773
529,331;15857,023;   -0,080;   -1,409
529,915;16093,423;    1,738;    0,955
530,499;16070,026;   -0,807;    1,227
531,082;15741,416;   -0,534;    1,591
531,666;15172,769;    1,374;    0,773
532,250;15904,030;    1,284;    2,682
532,833;16262,136;    0,920;    2,773
533,417;16095,828;   -1,807;    0,864
534,001;16088,972;    1,647;   -0,318
534,584;16848,411;    0,374;    0,500
535,168;16625,117;    0,465;    1,409
535,751;16768,450;    0,647;    0,045
536,334;16174,000;   -0,898;   -0,409
536,918;16742,547;    0,011;    1,591
537,501;16901,605;   -0,899;    1,318
538,085;16878,861;   -0,444;    1,045
538,668;17097,485;    0,829;    2,409
539,251;17443,381;    1,829;    3,773
539,834;17448,793;    0,101;    0,773
540,418;17391,397;   -1,990;    4,318
541,001;17481,460;   -0,990;    1,773
541,584;17456,925;    2,101;    2,227
542,167;17178,655;    1,374;    2,955
542,750;17327,694;    1,919;   -0,773
543,333;16952,465;    0,555;    2,136
543,916;17750,356;    0,192;    2,500
544,499;18375,974;   -1,354;    0,227
545,082;18414,790;    1,374;    3,591
545,665;18529,375;    1,919;    1,500
546,248;18864,919;    1,010;   -0,318
546,830;18534,014;   -0,445;    1,955
547,413;18991,861;    1,010;   -0,773
547,996;19543,238;    0,555;    0,500
548,579;19287,566;    0,919;    0,955
549,161;19079,382;    1,828;    2,682
549,744;18886,256;   -0,809;    0,409
550,326;19345,823;   -0,809;   -1,136
550,909;19145,392;    2,737;    0,591
551,492;19575,123;   -0,263;    0,227
552,074;19382,965;   -0,173;   -1,318
552,657;19974,033;    2,373;    0,045
553,239;19667,086;   -0,173;   -0,773
553,821;19550,692;   -1,082;    1,045
554,404;19048,443;    1,282;    1,136
554,986;19486,480;    0,464;    1,045
555,568;20141,442;    1,191;   -0,955
556,151;19334,793;    1,191;   -0,227
556,733;19518,699;   -0,264;   -0,864
557,315;20037,766;    0,100;    0,500
557,897;19848,417;    0,554;   -0,500
558,479;19922,109;   -1,991;    1,318
559,061;20126,973;   -0,719;   -0,864
559,643;20448,426;   -0,264;    0,045
560,225;20836,440;    1,645;    2,864
560,807;20857,245;    0,918;    0,318
561,389;20334,820;    0,554;    2,318
561,971;21180,132;    0,463;    2,136
562,553;20926,199;   -1,628;    1,591
563,135;21077,474;   -0,537;    1,136
563,717;20693,520;    3,372;    1,136
564,298;21460,933;    3,645;   -0,045
564,880;21202,992;    0,645;   -1,409
565,462;21381,901;    0,645;    1,318
566,043;22623,857;   -0,446;    2,318
566,625;22169,574;    1,918;    1,227
567,207;22026,310;    1,099;    1,682
567,788;23246,454;   -1,264;    1,500
568,370;24160,777;    1,917;   -0,500
568,951;24034,222;    0,190;    0,227
569,533;24970,834;   -0,628;   -0,500
570,114;25492,259;   -0,446;    0,682
570,695;26109,309;   -0,174;   -1,318
571,277;26720,073;   -0,265;   -1,682
571,858;27537,001;    2,008;   -1,136
572,439;28458,011;    1,554;   -1,045
573,021;28687,244;    2,099;   -2,773
573,602;29251,197;   -1,265;    0,318
574,183;30301,210;   -2,083;    2,227
574,764;30467,871;   -1,629;    0,409
575,345;31093,988;    0,917;   -0,136
575,926;31752,359;   -0,356;    0,136
576,507;31685,277;    1,099;   -0,227
577,088;32823,516;    3,099;    1,682
577,669;32932,502;    0,735;    1,955
578,250;33854,755;    0,644;   -1,045
578,831;34594,537;   -1,356;   -2,227
579,412;34870,126;   -0,810;    0,955
579,993;35725,760;    1,008;    0,227
580,573;36097,804;   -0,629;   -0,955
581,154;35058,364;    0,735;   -0,591
581,735;35982,003;    0,644;    0,773
582,315;35551,094;   -0,629;    2,136
582,896;35766,144;   -0,174;    1,227
583,477;35093,126;    0,189;    1,227
584,057;35268,544;    0,553;    0,955
584,638;35617,578;    2,553;    2,318
585,218;35603,796;   -0,538;    2,682
585,799;35788,381;    0,281;   -0,227
586,379;35613,788;    0,372;    1,591
586,959;34235,914;    0,735;    0,318
587,540;33430,494;   -0,629;    2,227
588,120;32931,280;    1,007;   -0,045
588,700;31864,979;    2,553;    2,136
589,281;32223,828;    0,462;   -0,955
589,861;32156,198;    0,099;   -1,682
590,441;31933,667;    2,371;   -2,682
591,021;30892,022;   -0,265;   -2,591
591,601;31052,839;   -0,537;    0,500
592,181;31055,194;   -0,719;   -0,773
592,761;30323,780;    0,007;    1,409
593,341;30165,869;   -0,901;    0,045
593,921;30190,664;   -0,265;    1,591
594,501;30083,130;   -0,538;    1,318
595,081;29920,676;    0,917;   -0,318
595,661;30282,214;   -1,447;    0,955
596,240;30818,691;   -0,537;    0,136
596,820;30577,250;    0,372;    1,955
597,400;30778,943;    2,008;    0,773
597,980;30938,822;    2,008;    1,045
598,559;30891,366;    2,735;   -0,227
599,139;30542,157;   -0,174;   -1,227
599,718;30477,066;   -0,174;   -0,409
600,298;30722,400;    0,735;    0,682
600,877;31026,672;    2,917;    1,409
601,457;31274,322;    2,281;    1,136
602,036;31190,010;    0,190;    2,045
602,616;31408,447;    0,644;    1,682
603,195;31804,402;   -0,355;    3,500
603,774;31362,978;   -0,901;    2,045
604,354;31207,329;    0,826;   -0,500
604,933;30636,353;    0,463;    1,864
605,512;30725,236;    3,554;    0,591
606,091;30770,112;   -0,537;    3,773
606,671;31587,935;    0,281;    0,773
607,250;30728,956;    1,644;    3,136
607,829;30961,530;    2,372;    3,227
608,408;30760,239;    1,190;    2,591
608,987;29755,637;    1,281;    3,409
609,566;30038,224;   -1,265;   -2,500
610,145;30172,101;   -1,082;    0,682
610,723;30558,722;    4,372;    6,864
611,302;29785,360;   -0,446;    1,682
611,881;29299,172;    5,008;   11,227
612,460;30155,352;    1,645;    3,955
613,039;30545,355;   -0,082;    2,045
613,617;29211,334;    1,736;    4,773
614,196;29412,568;    1,099;    1,227
614,775;29791,755;    1,009;    2,409
615,353;29726,422;    0,736;    0,864
615,932;29422,239;    0,100;    2,409
616,510;30000,562;    0,554;    0,591
617,089;29505,146;    7,100;   17,591
617,667;29167,249;    2,372;    6,136
618,246;29048,974;   -1,537;    1,318
618,824;29203,346;   -3,355;   -0,955
619,402;28805,357;   -2,900;   -1,773
619,981;29271,401;   -0,173;   -1,045
620,559;29053,362;    0,009;    1,682
621,137;28506,574;   -0,718;    1,864
621,715;28593,196;   -1,173;   -0,682
622,293;28530,529;   -0,537;   -0,773
622,871;28945,766;   -0,718;    0,500
623,450;28519,977;    0,373;   -0,864
624,028;28364,113;    0,191;   -0,955
624,606;28034,757;   -1,718;    1,682
625,183;28430,756;   -1,536;   -1,136
625,761;28009,200;    1,009;    1,136
626,339;28321,685;    1,373;    2,591
626,917;28682,886;   -0,172;   -0,045
627,495;28675,407;   -0,354;    1,318
628,073;28145,645;   -0,263;    2,864
628,650;27786,139;    0,100;    2,136
629,228;28263,423;    0,373;    4,409
629,806;27648,433;    2,282;    1,136
630,383;27867,309;    1,464;   -0,318
630,961;27654,375;    2,555;   -0,955
631,539;27445,254;    2,464;    0,227
632,116;26791,012;   11,373;   15,409
632,694;27358,967;    2,555;    6,500
633,271;27716,570;    0,828;    2,682
633,848;27555,991;    1,828;    2,045
634,426;27543,703;   -1,081;    1,773
635,003;26649,287;    1,101;   -0,409
635,580;27016,699;    1,192;    3,682
636,158;27605,144;    3,737;    1,227
636,735;27586,331;    0,555;   -0,500
637,312;27699,920;   -0,809;   -0,682
637,889;27831,434;   -4,354;   -0,682
638,466;27236,544;   -3,990;   -0,409
639,043;27223,725;    2,101;   -1,136
639,620;27532,317;   -2,262;   -0,955
640,197;27912,762;    1,100;    1,682
640,774;27974,106;   -0,172;    1,136
641,351;28431,360;    0,737;    1,136
641,928;27880,341;   -0,627;    1,409
642,505;27489,503;    0,828;   -0,500
643,082;27555,757;   -1,718;    1,227
643,658;26568,647;   -0,718;    1,500
644,235;27345,173;    1,191;    2,500
644,812;27674,245;    1,918;    0,773
645,388;27402,771;   -0,991;    1,409
645,965;27528,116;   -0,809;    1,682
646,542;27649,733;   -1,445;   -0,227
647,118;27590,623;    1,009;   -0,955
647,695;27842,058;   -0,263;    1,136
648,271;27798,039;   -0,536;    0,500
648,848;28123,383;    0,736;    2,227
649,424;27946,819;    0,827;    1,318
650,000;27745,709;   -0,354;   -1,045
650,577;27523,689;   -0,627;   -0,955
651,153;28031,488;   -1,809;    0,955
651,729;29093,651;    1,191;    0,864
652,305;29872,723;    0,645;    2,773
652,881;35863,704;   -0,082;    1,136
653,458;43342,048;    1,100;    0,227
654,034;46942,393;    0,282;    1,591
654,610;48195,282;    0,554;    0,773
655,186;49501,900;    0,645;    3,045
655,762;49183,699;   -0,991;    0,409
656,338;49186,043;    0,100;    0,136
656,913;50199,842;   -0,082;    0,409
657,489;49423,823;    0,827;   -0,318
658,065;49414,258;   -0,173;   -1,591
658,641;50011,421;   -0,900;   -0,864
659,217;49337,856;   -0,991;    0,409
659,792;48777,928;    0,645;   -0,409
660,368;48885,545;   -2,173;   -0,682
660,944;47968,072;   -2,082;    1,227
661,519;41906,507;   -0,628;    0,409
662,095;35267,942;   -1,719;    0,591
662,670;30827,287;    1,281;   -0,136
663,246;29904,540;    1,009;   -0,409
663,821;29295,158;    0,281;    1,682
664,396;28766,775;    0,009;    1,864
664,972;29074,210;    0,009;   -0,500
665,547;29388,555;    1,372;    0,136
666,122;29458,081;   -1,082;    0,318
666,698;29757,516;   -0,173;    0,318
667,273;29086,679;   -0,173;    0,136
667,848;29899,660;    2,372;    1,500
668,423;29749,277;    2,190;    2,318
668,998;30356,621;    2,827;   -0,682
669,573;30884,511;   -3,264;   -1,500
670,148;30691,038;   -1,446;   -0,682
670,723;30495,746;   -1,810;    0,318
671,298;30930,726;    2,372;    1,045
671,873;31073,616;   -0,082;   -0,136
672,448;31040,506;    0,645;    0,136
673,023;31311,669;   -1,992;   -0,227
673,597;31699,559;    0,827;    2,318
674,172;31499,540;   -0,355;    0,318
674,747;30897,975;    0,372;   -1,045
675,321;30703,410;   -0,628;    3,318
675,896;30253,482;    0,645;    1,045
676,471;31388,645;    2,645;    1,591
677,045;31090,807;   -1,264;    0,682
677,620;31173,334;    0,190;    1,136
678,194;31475,405;   -2,628;    1,136
678,769;31063,204;   -1,083;   -0,318
679,343;31305,367;   -0,628;    1,773
679,917;31182,530;   -1,446;    1,955
680,492;31253,420;    0,826;    3,227
681,066;31396,037;    3,372;    0,409
681,640;31481,836;    1,463;   -0,318
682,214;32341,089;    0,735;    0,500
682,788;31894,161;   -1,356;   -0,773
683,363;31855,051;   -1,810;    1,682
683,937;31481,941;   -1,719;   -0,318
684,511;32273,649;    0,463;   -0,591
685,085;31999,448;   -1,356;    0,318
685,659;31706,883;   -2,538;    0,864
686,232;32019,046;   -0,356;   -0,318
686,806;31686,209;   -0,901;    0,409
687,380;32361,917;   -0,174;    0,591
687,954;32514,352;   -1,174;    1,136
688,528;32269,151;   -0,719;    1,955
689,101;33024,496;   -3,992;    1,045
689,675;32599,567;   -0,356;   -0,136
690,249;32005,003;   -0,719;    0,409
690,822;32282,529;    0,280;    0,318
691,396;32393,964;   -0,265;    1,227
691,969;31768,945;    1,280;    0,136
692,543;32224,835;   -0,447;   -1,955
693,116;31889,907;   -0,265;   -1,409
693,690;31780,342;    0,099;    0,500
694,263;32338,960;   -1,083;    2,955
694,836;32386,213;    1,371;    3,591
695,410;31036,830;   -0,265;    1,773
695,983;31562,357;    0,189;    0,591
696,556;31511,519;   -0,447;   -1,045
697,129;31858,864;   -0,356;    1,409
697,703;31484,208;   -1,629;    1,955
698,276;31447,553;    1,462;   -0,773
698,849;31280,352;    1,280;    1,409
699,422;31712,605;   -1,083;    0,591
699,995;31320,768;    0,007;    0,136
700,568;31877,385;   -0,629;    3,045
701,140;31843,002;   -2,811;    1,682
701,713;31598,074;   -0,174;    2,409
702,286;31351,964;   -0,538;    0,864
702,859;31182,126;   -0,902;   -0,591
703,432;30316,380;    0,825;    0,682
704,004;30858,270;    0,462;    0,318
704,577;30708,887;   -0,629;    0,136
705,150;31290,595;    0,189;    2,500
705,722;31045,758;   -0,356;   -3,227
706,295;30824,284;   -0,175;   -0,591
706,867;30677,447;   -0,175;    1,955
707,440;30890,609;   -1,720;   -0,409
708,012;31198,954;    0,462;    0,591
708,584;31124,935;    2,462;    0,227
709,157;31314,643;    1,825;   -0,591
709,729;30984,078;    2,280;    2,045
710,301;31866,604;    0,734;    0,045
710,874;31904,767;   -1,447;   -0,227
711,446;30756,930;    0,371;    0,864
712,018;30646,456;    0,098;    0,500
712,590;30383,437;   -1,993;    1,682
713,162;30945,054;    0,825;    1,318
713,734;31152,671;    1,825;   -2,045
714,306;31062,834;   -1,902;   -0,409
714,878;29689,360;    0,825;    0,864
715,450;30484,341;    0,643;    0,864
716,022;30754,140;    1,552;    1,318
716,593;30941,666;    0,189;    0,591
717,165;30845,647;   -3,175;   -1,227
717,737;30565,810;    0,280;    0,409
718,309;30172,518;    0,280;   -0,045
718,880;30159,862;   -0,539;   -1,409
719,452;30365,480;   -0,175;   -1,591
720,024;29868,279;    0,734;   -0,591
720,595;30490,714;   -2,902;    0,955
721,167;30037,786;    0,370;   -2,045
721,738;29573,857;   -0,812;   -1,045
722,309;29561,475;   -0,993;   -1,227
722,881;29299,455;   -1,357;    0,773
723,452;30012,891;   -2,630;    2,864
724,023;30157,417;   -0,721;    2,682
724,595;29864,943;    0,007;    0,682
725,166;29593,561;    0,007;   -0,409
725,737;29301,905;    1,734;    0,227
726,308;29338,522;   -0,266;    0,318
726,879;29841,503;   -1,630;    1,227
727,450;29688,666;    0,552;   -0,045
728,021;29652,828;    3,097;    0,682
728,592;29402,809;    0,734;    0,500
729,163;29764,063;    0,643;   -0,136
729,734;29835,044;    0,188;   -0,227
730,305;30177,115;    1,734;    0,136
730,876;30551,005;    0,188;    2,955
731,447;30265,350;    2,188;    2,682
732,017;30400,876;    1,097;    1,864
732,588;29825,675;    0,734;    1,227
733,159;30080,928;    0,643;   -1,045
733,729;29855,546;    0,006;    0,409
734,300;29131,799;    0,915;    0,864
734,870;29538,235;    3,461;    0,591
735,441;30164,125;    0,370;   -0,591
736,011;29947,742;    0,643;   -1,591
736,582;29823,086;   -0,812;    0,045
737,152;29255,249;   -1,721;   -2,045
737,722;29708,957;   -0,267;   -0,682
738,293;29418,392;   -1,358;    1,318
738,863;29313,009;    2,461;    2,318
739,433;29092,627;    5,279;    0,318
740,003;29656,517;   -0,994;   -0,682
740,573;29093,588;    2,097;   -1,591
741,143;29061,296;   -1,085;    0,318
741,713;29838,641;    1,188;   -0,500
742,283;29553,985;    0,915;    1,591
742,853;29314,148;    1,915;    1,591
743,423;28620,583;    1,733;    0,045
743,993;28834,837;   -0,358;    1,500
744,563;28184,636;    0,097;   -0,864
745,133;28155,526;   -0,812;   -0,864
745,702;28829,688;   -0,267;    1,773
746,272;28086,942;   -0,176;    0,591
746,842;27821,014;   -1,358;   -0,591
747,411;28192,813;   -0,267;   -0,318
747,981;28377,885;    0,097;    0,500
748,551;28458,502;    2,278;   -1,045
749,120;28292,573;    0,642;   -0,227
749,690;28699,554;   -0,631;    2,409
750,259;29071,535;    1,369;    2,955
750,828;28992,243;    1,551;   -1,955
751,398;29252,951;    1,278;   -0,045
751,967;28831,659;    2,187;    0,409
752,536;28975,277;   -0,813;   -0,227
753,105;29372,621;    0,096;    0,227
753,675;29183,420;    0,096;    1,773
754,244;29135,946;   -0,904;    3,591
754,813;29167,018;    0,551;    1,227
755,382;28732,181;    0,460;    0,955
755,951;29381,707;    1,551;    3,682
756,520;28847,870;   -0,085;    1,864
757,089;29477,032;    0,278;    0,500
757,658;29593,195;    1,733;    1,227
758,227;29528,085;    1,096;    0,318
758,795;29893,975;    1,187;    1,136
759,364;30107,683;   -0,086;   -0,591
759,933;29127,027;   -1,176;   -0,045
760,501;28617,735;    0,733;   -1,318
761,070;29129,534;   -2,813;   -1,409
761,639;29797,424;   -1,904;    1,318
762,207;29203,496;    1,551;   -0,955
762,776;29134,022;    0,369;    0,864
763,344;29054,821;   -0,995;    0,591
763,913;28038,893;   -0,722;    1,409
764,481;28859,056;    1,005;   -0,136
765,049;28632,855;   -1,358;    1,409
765,618;28526,108;   -0,086;    0,318
766,186;28569,271;    0,278;    0,136
766,754;28716,615;    0,005;    1,864
767,322;27717,596;   -1,995;    0,409
767,890;27736,304;   -0,722;   -1,773
768,459;28191,376;   -2,177;   -0,318
769,027;28353,721;    1,641;    3,409
769,595;27234,520;    3,278;    2,591
770,163;27721,864;    3,823;    2,955
770,730;27434,118;    0,732;   -0,136
771,298;27185,553;    0,187;   -1,409
771,866;27267,534;   -1,541;    4,955
772,434;27686,060;   -0,631;   -1,864
773,002;27870,223;    0,005;    0,682
773,569;27490,022;    0,914;    1,682
774,137;27300,184;   -0,268;   -0,045
774,705;28115,892;    0,278;   -0,136
775,272;27601,146;    0,641;    0,682
775,840;27264,945;   -0,177;    2,682
776,407;26857,017;    0,277;    1,955
776,975;26440,179;   -0,632;    0,318
777,542;27385,978;   -1,086;   -0,045
778,110;27208,414;   -1,268;   -0,045
778,677;26886,304;   -2,359;   -0,864
779,244;26660,285;    2,186;    1,045
779,812;26817,629;    1,823;    0,864
780,379;26628,155;    0,005;    1,136
780,946;26893,318;    1,005;   -0,773
781,513;27244,844;   -1,450;    0,318
782,080;26600,734;   -0,086;    2,864
782,647;27350,715;   -0,268;    3,045
783,214;26879,605;   -0,177;    3,864
783,781;26561,222;   -0,723;   -0,682
784,348;26379,294;   -0,632;    1,500
784,915;26843,366;   -3,177;    0,318
785,482;26653,437;    1,368;    2,591
786,049;27050,236;    0,186;   -0,591
786,615;27151,217;    0,277;   -0,955
787,182;26867,652;    0,186;   -0,682
787,749;26554,270;   -2,814;    1,409
788,315;25908,069;   -1,632;   -0,409
788,882;26184,413;    1,550;   -1,227
789,448;26928,303;    1,732;   -0,955
790,015;26928,011;    1,095;    3,227
790,581;26486,447;    1,459;    0,227
791,148;26362,336;    0,641;    1,045
791,714;26616,317;   -0,541;    3,136
792,280;26239,480;    0,186;    1,591
792,847;25759,370;    0,550;    2,500
793,413;26331,078;   -0,269;   -0,318
793,979;25887,513;    3,459;   -1,318
794,545;25968,494;    4,459;    2,682
795,111;25339,748;    2,186;    1,318
795,678;25552,274;    0,731;   -1,682
796,244;25158,891;    3,368;    0,136
796,810;25690,417;    1,731;    0,773
797,375;25418,126;    0,549;   -2,136
797,941;25450,015;   -0,541;    0,591
798,507;25614,542;   -0,451;   -0,955
799,073;25108,523;   -0,360;    0,591
799,639;25122,503;   -2,632;    3,136
800,205;25155,939;    0,095;    2,682
800,770;24720,829;    0,640;    1,773
801,336;24780,264;    1,368;   -0,955
801,901;24539,699;    4,549;    3,136
802,467;25118,953;   -0,542;    2,045
803,033;24430,570;   -0,087;    0,864
803,598;24638,096;    1,913;   -1,045
804,163;24645,259;    1,095;   -0,318
804,729;24606,149;   -0,178;    1,136
805,294;24989,948;    0,822;    2,227
805,859;24812,111;    0,731;   -0,409
806,425;24232,910;    1,186;    2,682
806,990;23922,890;    2,186;    4,318
807,555;24412,235;   -1,451;    2,591
808,120;24288,489;    0,822;   -0,409
808,685;24301,288;    0,185;   -2,500
809,250;23794,996;    0,004;   -0,500
809,815;24123,613;    1,913;    0,682
810,380;24716,048;   -0,269;    1,591
810,945;25253,847;   -1,087;    2,045
811,510;24382,828;    2,094;    1,591
812,075;24060,172;   -0,633;   -1,409
812,640;24163,335;    2,003;    1,409
813,204;24155,407;    0,822;   -0,227
813,769;24585,024;    2,094;   -0,045
814,334;24038,187;    0,458;    0,864
814,898;24089,258;    0,367;    0,591
815,463;23939,421;    1,276;   -0,773
816,027;23871,129;   -0,724;   -2,318
816,592;23938,110;    0,640;   -2,045
817,156;23496,818;    2,094;    1,136
817,721;23374,799;    4,276;    2,318
818,285;23316,507;    2,912;    1,500
818,849;23945,670;   -1,451;    1,682
819,414;23802,741;   -0,269;    2,955
819,978;23424,268;   -1,269;    1,773
820,542;24043,885;    2,003;    0,500
821,106;23732,502;   -0,815;    0,682
821,670;23837,028;   -0,815;    2,591
822,234;23535,646;   -0,270;    1,409
822,798;22865,626;    0,003;    0,500
823,362;22836,244;   -0,633;    4,227
823,926;22137,861;    0,094;    1,136
824,490;22405,660;   -0,997;   -0,682
825,054;22805,913;   -0,088;   -1,136
825,618;22390,712;   -1,542;   -1,500
826,181;22380,148;    0,458;   -1,318
826,745;22333,219;    1,367;   -1,045
827,309;22716,655;    1,185;    1,318
827,872;22063,363;    1,367;    0,955
828,436;23021,162;    1,185;   -0,773
828,999;23030,234;   -0,997;    1,227
829,563;21798,760;   -0,179;    1,136
830,126;21633,650;   -0,179;   -0,591
830,690;21639,449;   -1,997;    2,864
831,253;21107,521;   -0,543;    2,227
831,816;21291,865;   -1,906;    0,500
832,380;21211,846;    0,185;    0,864
832,943;21453,190;   -1,361;   -0,500
833,506;20907,898;    2,639;   -1,227
834,069;21720,516;    3,912;   -0,955
834,632;21776,133;    1,730;    1,318
835,195;21685,114;    1,003;    0,955
835,758;20856,185;   -0,997;    1,955
836,321;20717,984;    0,730;   -1,045
836,884;20811,329;   -0,725;   -0,955
837,447;20825,128;   -2,816;    1,773
838,010;21144,745;    0,366;    3,227
838,573;21382,271;   -1,179;    0,773
839,135;21356,889;   -1,361;   -0,955
839,698;20829,324;    1,275;    0,409
840,261;20319,123;    1,003;   -0,227
840,823;20083,104;   -0,543;    0,864
841,386;20401,630;   -0,452;   -2,409
841,948;20301,793;   -1,361;    1,773
842,511;20052,228;    0,912;    1,682
843,073;20199,209;    1,912;    0,227
843,636;19929,462;   -0,361;   -0,227
844,198;19900,443;    0,911;    0,591
844,760;20059,060;    1,093;    1,955
845,322;19665,678;    0,548;    1,136
845,885;20101,204;    0,730;    0,591
846,447;20529,003;   -1,998;    0,227
847,009;20147,347;    1,911;   -0,682
847,571;20458,692;    0,820;   -2,045
848,133;20582,309;   -1,089;   -1,864
848,695;20433,199;   -0,543;    1,409
849,257;19943,089;   -1,089;   -1,682
849,819;20098,161;   -0,998;   -0,409
850,381;20105,869;   -0,725;   -0,864
850,942;20493,486;    1,093;   -0,591
851,504;20545,467;    1,184;    0,227
852,066;20482,993;    1,275;   -1,591
852,628;19961,883;   -0,180;    1,955
853,189;19527,500;    1,638;    2,682
853,751;19638,663;   -0,907;    1,409
854,312;19435,280;   -0,453;   -1,682
854,874;19972,806;   -2,089;   -0,773
855,435;20540,423;   -0,907;   -1,682
855,997;20690,132;   -1,816;   -0,136
856,558;19978,294;    0,366;    1,773
857,119;20101,911;    0,820;    2,864
857,681;19748,801;    0,002;    0,318
858,242;19773,055;    1,911;   -2,136
858,803;20186,399;    0,456;   -0,773
859,364;20808,289;    0,184;   -4,773
859,925;20094,725;   -2,453;   -0,955
860,486;19995,342;   -0,453;   -0,955
861,047;19696,686;   -0,544;   -1,227
861,608;19493,758;   -1,089;   -0,773
862,169;19574,102;    0,638;   -0,045
862,730;19357,901;    0,456;    1,409
863,291;19650,973;   -0,635;   -0,500
863,852;20041,318;   -0,635;    1,955
864,412;19453,117;   -0,271;   -0,864
864,973;17986,916;   -0,089;    0,500
865,534;17902,169;   -1,726;    0,227
866,094;19419,786;    1,820;    0,227
866,655;19044,313;    1,274;    3,318
867,215;19280,384;    0,274;    0,136
867,776;19115,274;    0,547;   -0,136
868,336;19273,801;   -1,453;    0,136
868,897;18783,872;    2,638;    1,682
869,457;18470,762;    1,365;    0,318
870,017;18655,561;    0,547;   -1,227
870,578;19214,451;   -0,817;    0,773
871,138;18904,341;   -2,089;   -0,955
871,698;18456,504;   -0,817;   -1,318
872,258;18355,666;   -0,453;   -2,864
872,818;18738,738;    2,729;    0,045
873,378;18678,537;    0,638;    1,045
873,938;18184,336;    0,547;    0,500
874,498;18511,499;    0,274;   -1,955
875,058;18410,389;    2,183;    1,773
875,618;18270,188;    1,910;   -2,682
876,177;18171,896;    1,274;    0,136
876,737;17766,422;   -0,090;    1,955
877,297;17825,767;    0,183;    1,955
877,856;17855,384;   -0,362;    0,318
878,416;17774,910;    1,183;   -0,136
878,976;17992,982;   -1,817;    0,409
879,535;18154,781;    0,092;    3,136
880,095;17875,853;   -0,544;    0,045
880,654;18015,742;   -1,090;    1,318
881,213;18134,814;    2,456;    1,500
881,773;17743,250;    2,637;    2,682
882,332;18123,685;    3,365;    5,136
882,891;17948,848;    3,092;    2,136
883,451;18465,556;   -1,272;    1,682
884,010;17850,446;   -2,908;   -0,409
884,569;17918,245;   -0,999;   -0,045
885,128;18051,862;    2,819;   -1,864
885,687;18193,115;    4,455;    0,682
886,246;17884,733;    1,455;    2,136
886,805;17674,168;    2,455;    2,045
887,364;17920,876;   -0,999;   -0,500
887,922;18258,948;   -1,181;    0,045
888,481;17841,383;   -1,545;    0,591
889,040;18091,000;    1,183;    2,136
889,599;18832,345;    2,455;    1,409
890,157;18869,507;    1,455;    2,409
890,716;18520,579;   -0,090;    0,227
891,274;18353,924;    0,092;   -1,136
891,833;18777,723;    1,546;    0,864
892,391;18674,522;   -0,454;    0,500
892,950;18757,412;    1,819;   -0,773
893,508;19099,120;    0,455;   -0,409
894,067;18448,646;    0,637;    0,136
894,625;18318,809;   -0,636;   -1,500
895,183;18530,789;   -0,363;   -0,682
895,741;18447,316;    1,728;   -1,773
896,299;18315,478;   -0,545;   -2,409
896,858;18495,459;    0,819;   -1,591
897,416;18615,258;    2,728;   -1,318
897,974;18309,966;    1,819;    0,318
898,532;18494,947;    6,091;    2,682
899,089;18357,019;    2,091;   -0,682
899,647;18379,636;   -1,454;    1,318
900,205;18125,344;    1,182;    1,045
900,763;18286,507;   -0,454;    0,227
901,321;18286,578;    2,364;   -1,409
901,878;17670,105;   -1,000;   -0,773
902,436;17565,267;   -1,363;    1,318
902,994;17970,521;    4,728;    3,682
903,551;17400,502;    0,728;    0,409
904,109;17786,119;    0,182;   -1,409
904,666;17367,827;    2,455;    1,045
905,224;17120,353;    0,182;   -0,409
905,781;16909,425;    0,727;   -0,318
906,338;16999,679;   -1,363;    1,045
906,895;16886,387;    0,637;    2,045
907,453;16823,458;    1,727;    1,136
908,010;16834,712;   -0,909;    0,409
908,567;16525,602;    1,273;    0,591
909,124;15952,674;    0,364;   -1,500
909,681;16025,200;   -2,909;    0,682
910,238;16150,817;    0,636;   -1,318
910,795;16492,162;   -0,273;   -1,136
911,352;16085,798;   -2,909;   -2,682
911,909;15488,616;   -1,364;   -0,864
912,466;16036,071;   -3,182;    1,500
913,022;15567,707;   -1,636;    0,500
913,579;15909,434;   -0,909;    2,045
914,136;15594,162;    1,636;    0,955
914,692;15949,525;    0,091;   -1,227
915,249;15553,889;    1,455;    0,409
915,806;15765,343;    0,182;    1,955
916,362;15502,616;    1,909;    1,864
916,918;15082,343;    2,000;    1,045
917,475;15047,162;   -1,182;    0,955
918,031;15104,162;    3,364;   -0,045
918,587;14557,707;   -0,909;   -0,318
919,144;14768,798;   -2,273;    0,227
919,700;15089,616;    1,727;    0,773
920,256;14640,525;    0,727;    0,045
920,812;14244,434;   -0,727;   -1,045
921,368;14234,071;   -1,727;   -1,045
921,924;13870,616;    0,182;   -0,136
922,480;13428,707;   -0,545;    1,227
923,036;14060,162;    1,273;    1,955
923,592;13996,343;    0,455;    0,318
924,148;13917,071;    0,455;   -0,955
924,704;13195,525;   -1,364;   -0,409
925,259;13433,253;   -0,273;    0,591
925,815;13215,343;    1,455;    0,500
926,371;12715,434;    2,909;    1,409
926,926;12596,525;    2,091;    0,591
927,482;12200,162;   -1,364;    0,773
928,037;12024,889;    0,909;    2,045
928,593;12343,253;    1,636;    1,045
929,148;12164,980;   -1,818;   -1,500
929,704;11646,434;   -1,455;   -0,500
930,259;11879,071;    0,091;   -0,136
930,814;10896,434;   -0,818;    1,955
931,369;10542,798;    1,091;   -0,773
931,925;10410,343;   -0,091;    0,136
932,480;10317,343;   -2,818;   -2,591
933,035;10164,616;    0,545;   -0,318
933,590; 9942,343;    0,364;   -1,773
934,145; 9566,162;   -1,364;   -0,318
934,700; 9886,616;    0,455;   -0,591
935,255; 9695,253;   -0,091;    0,045
935,809; 8948,525;    3,182;    0,864
936,364; 8012,889;   -0,455;   -0,136
936,919; 7983,343;    0,455;   -1,773
937,474; 7839,707;    1,455;    0,136
938,028; 7599,616;   -1,636;    1,136
938,583; 7053,525;    1,818;    4,682
939,138; 7279,525;    2,091;    2,136
939,692; 6686,889;    1,636;   -1,136
940,247; 6402,980;   -0,727;   -1,045
940,801; 5925,889;   -0,636;    0,227
941,355; 5808,071;   -0,364;    2,591
941,910; 5426,616;   -0,273;   -2,136
942,464; 5567,525;   -0,818;   -0,318
943,018; 5322,616;    1,000;   -0,227
943,572; 5248,071;    2,545;   -0,682
944,126; 4652,616;    0,091;   -0,409
944,681; 4554,071;    3,091;    0,227
945,235; 4545,071;    1,000;   -0,591
945,789; 4478,707;    0,364;   -1,864
946,342; 4554,798;    0,455;   -0,591
946,896; 4335,343;   -2,273;    0,955
947,450; 4100,525;    1,545;   -0,227
948,004; 4310,253;    1,727;   -0,045
948,558; 4309,889;    0,273;   -0,864
949,111; 4234,071;   -0,273;   -0,318
949,665; 4250,980;    1,636;   -0,682
950,219; 4120,434;   -0,091;   -1,045
950,772; 4199,071;   -1,909;    1,864
951,326; 4095,162;    0,545;   -0,955
951,879; 4229,798;    0,727;   -2,318
952,433; 4246,525;    0,000;    2,227
952,986; 4056,253;    2,909;    0,682
953,539; 4038,525;   -0,273;    0,591
954,093; 3951,434;    0,545;   -1,318
954,646; 4086,616;    0,909;    1,318
955,199; 3912,707;    0,000;   -0,500
955,752; 3781,798;   -0,455;    1,773
956,305; 3723,525;   -0,091;    2,955
956,858; 3916,071;    0,818;   -0,318
957,411; 4057,889;   -0,545;    2,136
957,964; 3892,798;    1,364;    2,136
958,517; 3897,525;   -1,545;    3,136
959,070; 3709,343;   -0,455;    1,955
959,623; 3808,980;    1,091;    1,500
960,176; 3556,162;    1,727;    2,045
960,728; 3528,707;   -2,727;    0,773
961,281; 3593,162;    0,545;    0,500
961,834; 3641,253;   -0,909;    0,864
962,386; 3532,525;    1,727;    1,045
962,939; 3467,616;    0,364;   -0,318
963,491; 3614,071;    0,455;    1,136
964,043; 3458,434;    1,182;    2,409
964,596; 3603,343;   -1,000;    2,227
965,148; 3435,616;   -1,000;    1,773
965,700; 3352,707;    1,091;   -0,227
966,253; 3527,980;   -0,636;    0,318
966,805; 3344,798;   -2,273;    0,773
967,357; 3404,434;    1,091;   -1,500
967,909; 3361,071;    0,455;   -1,227
968,461; 3462,162;    0,545;    3,136
969,013; 3397,798;   -0,182;   -0,864
969,565; 3470,071;   -0,455;   -1,136
970,117; 3509,253;   -0,364;    1,045
970,669; 3347,525;    0,182;   -0,136
971,220; 3219,707;   -0,455;   -1,500
971,772; 3161,343;   -0,636;   -0,318
972,324; 3271,525;    0,091;   -0,500
972,876; 3215,071;    0,818;   -0,045
973,427; 3382,162;    1,909;   -1,045
973,979; 3332,253;   -0,727;   -2,500
974,530; 3376,162;    1,818;    1,318
975,082; 3369,162;   -0,545;    1,682
975,633; 3262,798;    1,091;    1,682
976,184; 3387,434;    0,909;    0,773
976,736; 3167,525;    0,091;    0,227
977,287; 2973,980;   -0,909;   -0,500
977,838; 3161,980;    0,909;   -0,318
978,389; 3232,616;   -1,000;   -0,500
978,940; 3093,980;    0,545;   -0,409
979,491; 3112,434;    0,091;   -0,500
980,042; 3079,071;    0,182;    3,045
980,593; 3117,253;   -2,545;    0,227
981,144; 3168,798;    2,545;   -0,500
981,695; 3119,434;    1,455;    1,500
982,246; 3092,071;   -0,273;    1,045
982,797; 3268,071;   -1,727;    0,682
983,347; 3371,798;    0,364;    0,591
983,898; 3566,434;    3,091;    0,409
984,449; 3364,343;    2,182;    0,773
984,999; 3279,798;    1,455;   -1,136
985,550; 3021,071;    0,182;   -0,318
986,100; 3063,707;   -0,455;   -0,318
986,651; 3122,980;   -0,818;    0,045
987,201; 3073,434;   -1,000;   -0,591
987,751; 3156,980;    0,818;    2,864
988,302; 3143,525;    2,636;    1,500
988,852; 3185,798;    0,455;   -1,136
989,402; 3208,253;    0,091;    0,682
989,952; 3117,162;   -2,182;    0,864
990,502; 3233,434;   -0,091;    0,682
991,052; 3188,889;   -0,727;    0,045
991,602; 3057,525;   -2,909;    1,318
992,152; 3058,071;    0,455;    0,682
992,702; 3030,525;    1,364;   -0,045
993,252; 2949,343;   -3,000;   -0,500
993,802; 3059,071;   -0,273;    1,318
994,352; 3295,343;   -1,545;    1,136
994,901; 3382,343;   -0,182;    3,227
995,451; 3290,616;   -0,182;    0,318
996,000; 3380,980;    1,636;    0,318
996,550; 3092,253;    2,273;    0,227
997,100; 3090,707;    1,273;   -0,045
997,649; 3367,707;    2,182;    0,955
998,198; 2985,889;    1,727;   -1,500
998,748; 3200,616;    1,091;   -2,318
999,297; 3096,343;   -0,818;   -0,409
999,846; 3147,525;    1,000;   -0,773
1000,395; 3204,889;   -0,818;    0,500
1000,945; 3154,525;    1,818;   -0,773
1001,494; 3255,162;    2,364;    0,682
1002,043; 3241,071;    4,636;    0,864
1002,592; 3073,525;   -1,091;    1,955
1003,141; 3220,616;   -0,455;   -0,682
1003,690; 3077,707;    1,727;    0,500
1004,238; 3163,434;    1,455;   -0,045
1004,787; 2803,798;    1,364;    1,227
1005,336; 3024,071;    0,364;    0,682
1005,885; 3164,071;    1,364;   -2,773
1006,433; 3331,980;    0,545;    0,955
1006,982; 3381,707;    0,455;    1,682
1007,531; 3296,889;   -1,818;   -0,227
1008,079; 3230,889;   -2,273;    0,500
1008,627; 3370,889;   -1,455;    0,409
1009,176; 3117,889;    0,000;   -1,955
1009,724; 3153,980;    1,091;    0,864
1010,273; 3210,071;    1,273;    0,500
1010,821; 3322,616;    0,091;    1,409
1011,369; 3063,889;   -1,364;    1,318
1011,917; 3034,798;   -1,364;   -0,591
1012,465; 3318,071;    1,273;   -1,591
1013,013; 3436,071;    2,091;   -1,682
1013,561; 3320,071;    0,455;   -0,773
1014,109; 3383,162;   -1,909;    1,682
1014,657; 3239,707;    0,364;    0,591
1015,205; 3336,798;    1,636;   -0,955
1015,753; 3397,071;   -0,545;   -1,409
1016,301; 3441,616;   -2,636;    3,045
1016,848; 3443,343;   -1,273;    0,409
1017,396; 3474,162;    2,545;    0,045
1017,944; 3607,253;    1,182;    1,864
1018,491; 3372,707;    0,273;    1,409
1019,039; 3508,525;    0,455;    0,591
1019,586; 3424,162;   -1,364;    1,682
1020,134; 3523,798;    0,455;    1,500
1020,681; 3544,525;    0,182;   -1,136
1021,228; 3544,434;    2,909;   -2,227
1021,776; 3364,071;    1,182;   -1,136
1022,323; 3603,071;    0,455;    0,773
1022,870; 3528,525;   -1,000;   -0,045
1023,417; 3406,525;    2,636;    1,864
1023,964; 3574,162;    2,636;    1,227
1024,511; 3404,343;    1,000;    0,773
1025,058; 3213,980;    3,182;   -0,045
1025,605; 3253,071;   -2,273;    3,136
1026,152; 3479,980;    1,727;   -0,591
1026,699; 3202,525;    1,818;    1,318
1027,245; 3375,798;   -0,091;    0,318
1027,792; 3572,071;   -1,000;    1,409
1028,339; 3449,343;    2,364;   -0,045
1028,885; 3292,980;    1,000;   -0,227
1029,432; 3230,071;   -0,091;    0,227
1029,978; 3296,798;   -1,000;   -1,591
1030,525; 3214,616;    1,000;    0,409
1031,071; 3452,980;   -1,364;    1,136
1031,618; 3555,343;    0,364;    1,682
1032,164; 3324,343;   -0,091;    3,045
1032,710; 3386,162;    1,636;   -1,500
1033,256; 3286,616;   -0,636;   -0,136
1033,803; 3275,798;   -0,545;    1,500
1034,349; 2964,343;   -1,364;    0,136
1034,895; 3132,798;    0,000;   -0,318
1035,441; 3118,980;   -0,818;    0,318
1035,987; 3122,616;   -2,364;   -0,682
1036,533; 3109,525;   -1,455;   -0,955
1037,078; 3329,889;    1,455;    1,682
1037,624; 3124,525;    2,455;   -0,955
1038,170; 3157,162;    0,455;   -0,318
1038,716; 3080,434;    1,636;   -0,409
1039,261; 2990,071;   -2,273;   -0,773
1039,807; 2927,980;   -0,091;    3,409
1040,352; 2967,707;   -1,909;   -0,318
1040,898; 3027,162;   -1,545;   -0,682
1041,443; 2945,525;   -1,455;   -2,591
1041,989; 2939,253;    1,091;    1,591
1042,534; 2829,798;   -0,364;    2,591
1043,079; 2941,525;    2,909;    0,955
1043,625; 2723,798;    1,818;    0,500
1044,170; 2764,343;   -1,364;    1,045
1044,715; 3031,343;    2,455;    0,955
1045,260; 2861,616;    2,182;   -0,955
1045,805; 2905,071;    1,182;   -0,591
1046,350; 2828,980;    1,364;   -0,409
1046,895; 2773,071;    2,909;    1,591
1047,440; 2724,434;    5,364;    0,409
1047,985; 2613,707;    2,818;   -0,955
1048,530; 2550,889;    1,545;    1,227
1049,074; 2595,889;    0,000;    0,318
1049,619; 2583,253;   -1,364;    1,955
1050,164; 2394,343;    0,455;    0,227
1050,708; 2419,343;   -0,455;    0,045
1051,253; 2790,343;    1,273;   -2,227
1051,797; 2504,980;    0,818;   -1,318
1052,342; 2505,071;   -1,182;    1,045
1052,886; 2514,616;    0,364;   -1,409
1053,430; 2393,253;   -1,364;    0,136
1053,975; 2401,707;   -0,818;   -0,318
1054,519; 2379,434;   -0,727;    3,227
1055,063; 2394,616;    0,909;    1,318
1055,607; 2264,798;   -0,182;    0,227
1056,151; 2280,616;    2,909;    1,682
1056,695; 2217,162;    2,273;   -1,136
1057,239; 2275,798;   -1,727;   -0,682
1057,783; 2291,253;    0,818;   -1,500
1058,327; 2227,525;    0,000;    1,409
1058,871; 2450,071;   -0,545;    1,318
1059,415; 2160,889;   -0,818;   -0,045
1059,958; 2442,616;    1,455;    2,591
1060,502; 2154,434;   -1,000;   -0,773
1061,046; 2061,071;    0,364;   -0,955
1061,589; 2027,071;   -3,000;   -1,136
1062,133; 1898,162;   -1,273;    1,864
1062,676; 1829,707;    1,182;    0,864
1063,220; 1846,162;    1,091;    0,500
1063,763; 1868,343;    0,909;    1,136
1064,306; 1966,343;   -0,909;    1,864
1064,849; 1830,525;   -0,909;    0,591
1065,393; 1835,707;    2,000;   -1,500
1065,936; 1951,707;    0,182;   -0,409
1066,479; 1844,434;   -1,455;    1,318
1067,022; 1859,980;   -0,273;   -0,227
1067,565; 1747,616;   -0,091;   -1,318
1068,108; 1781,707;    0,727;   -0,591
1068,651; 1752,525;   -0,636;    1,409
1069,194; 1676,071;   -0,455;   -1,682
1069,736; 1676,343;   -1,273;    0,955
1070,279; 1669,707;   -1,364;   -0,500
1070,822; 1710,162;   -2,000;   -0,318
1071,364; 1804,980;   -0,364;    1,318
1071,907; 1624,616;   -0,727;    3,227
1072,450; 1522,525;    0,000;   -0,045
1072,992; 1494,343;   -0,273;    3,136
1073,535; 1659,162;    2,091;    2,136
1074,077; 1435,525;   -0,727;    2,045
1074,619; 1398,253;   -1,364;    0,591
1075,161; 1448,798;   -1,091;    1,500
1075,704; 1631,707;    1,545;    1,227
1076,246; 1409,889;   -0,182;    0,682
1076,788; 1342,525;   -0,364;    1,773
1077,330; 1417,071;    1,273;    2,136
1077,872; 1389,253;    0,909;    0,955
1078,414; 1625,707;    2,727;    0,773
1078,956; 1345,071;    1,273;   -0,227
1079,498; 1619,616;    1,636;    0,318
1080,040; 1317,889;    1,909;   -1,318
1080,581; 1252,525;    1,636;   -0,318
1081,123; 1166,162;    0,091;   -0,773
1081,665; 1216,980;   -1,182;   -0,955
1082,206; 1535,616;    1,364;   -0,500
1082,748; 1380,434;    0,727;    2,045
1083,289; 1267,071;   -2,000;    1,318
1083,831; 1170,980;   -0,545;    0,227
1084,372; 1199,071;    0,000;    0,591
1084,913; 1205,162;    1,091;    0,864
1085,455; 1173,707;   -1,909;   -2,045
1085,996; 1128,889;   -2,273;    0,136
1086,537; 1148,343;   -0,091;    0,864
1087,078; 1189,707;   -0,909;   -2,136
1087,619; 1233,253;   -1,273;    0,227
1088,160; 1159,071;    0,000;    1,318
1088,701; 1145,798;   -1,091;    0,682
1089,242; 1074,525;    1,364;   -2,227
1089,783; 1179,707;   -0,273;    1,409
1090,324; 1136,253;    0,455;    0,682
1090,865; 1014,343;    2,727;   -0,409
1091,405;  980,434;    0,727;    2,227
1091,946; 1008,434;    0,182;   -0,955
1092,487;  935,343;    0,818;   -1,409
1093,027; 1110,980;   -1,364;   -1,500
1093,568;  963,343;   -0,364;    1,227
1094,108; 1061,071;    0,273;    1,773
1094,649;  985,525;   -1,182;    0,136
1095,189;  915,980;   -0,636;   -0,682
1095,729;  875,707;   -0,091;    0,955
1096,269;  870,707;    0,727;   -0,955
1096,810; 1206,616;   -1,364;    0,500
1097,350; 1023,434;    1,364;   -0,773
1097,890;  922,071;    0,364;    1,227
1098,430; 1210,707;    2,364;    2,864
1098,970; 1070,343;    2,182;    1,682
1099,510;  918,616;    0,545;   -2,318
1100,050;  828,889;    1,000;   -1,591
1100,589;  796,162;   -0,727;   -0,318
1101,129;  931,525;    0,818;   -0,955
1101,669; 1089,343;    1,727;    2,136
1102,209;  902,798;   -0,091;    2,227
1102,748;  855,889;    0,000;    0,955
1103,288;  856,525;    1,273;   -1,227
1103,827;  879,071;    3,091;   -2,227
1104,367;  754,616;   -0,091;   -2,409
1104,906;  720,434;    1,364;   -1,136
1105,445;  795,253;    0,636;   -1,136
1105,985;  734,434;   -0,727;    1,500
1106,524;  776,616;   -1,727;   -0,682
1107,063;  753,343;   -2,727;    1,409
1107,602;  737,253;   -1,909;   -1,500
1108,141;  650,071;   -1,909;    1,500
1108,680;  761,343;   -3,455;   -0,591
1109,219;  690,162;   -0,909;   -0,500
1109,758;  686,253;    0,455;    0,682
1110,297;  661,798;    1,000;   -0,682
1110,836;  607,434;   -0,727;    0,955
1111,375;  781,071;   -2,545;    0,409
1111,913;  797,707;   -1,000;    0,773
1112,452;  723,616;   -0,273;    0,136
1112,991;  590,980;    1,091;    1,955
1113,529;  552,798;   -0,818;   -0,045
1114,068;  631,162;   -0,273;    2,955
1114,606;  524,980;   -0,364;   -0,955
1115,144;  704,798;   -1,273;    1,045
1115,683;  628,616;   -0,727;    0,318
1116,221;  678,889;   -0,455;   -0,864
1116,759;  590,071;    0,636;   -0,864
1117,297;  805,616;    0,000;    1,864
1117,836;  592,071;   -2,182;   -1,227
1118,374;  611,525;    0,182;   -0,682
1118,912;  540,798;    0,909;    2,682
1119,450;  540,798;    1,000;    0,864
1119,988;  586,253;    1,545;    2,136
1120,525; 1054,434;    5,091;    3,318
1121,063;  752,162;    1,182;    1,864
1121,601;  546,889;   -0,909;   -1,227
1122,139;  495,434;   -0,727;   -2,045
1122,676;  720,071;   -0,727;    2,773
1123,214;  637,434;   -1,182;    4,409
1123,751;  432,798;    1,727;    2,227
1124,289;  579,434;   -0,091;   -0,409
1124,826;  433,434;    1,727;    0,227
1125,364;  362,980;    1,727;   -0,955
1125,901;  558,162;    1,182;    1,227
1126,438;  677,798;    0,818;    0,955
1126,975;  382,798;   -0,727;   -0,773
1127,513;  465,253;    0,273;    2,136
1128,050;  361,434;    1,636;   -0,682
1128,587;  469,889;    2,000;   -0,227
1129,124;  521,798;    0,091;    1,318
1129,661;  375,616;    0,273;    0,227
1130,198;  546,889;    1,636;    0,773
1130,734;  494,434;    0,182;    1,409
1131,271;  350,071;   -0,909;    0,864
1131,808;  517,707;    2,909;    3,045
1132,345;  393,798;    1,545;    0,318
1132,881;  254,798;   -1,545;   -1,864
1133,418;  406,525;    0,727;   -1,136
1133,954;  335,162;    2,455;   -2,682
1134,491;  420,616;    1,364;   -0,773
1135,027;  307,616;    2,364;    0,864
1135,564;  410,798;    0,273;    2,955
1136,100;  391,798;    0,364;    2,136
1136,636;  265,616;   -1,273;   -1,045
1137,172;  378,343;    0,000;   -1,045
1137,708;  302,616;   -1,364;   -1,045
1138,245;  294,525;    1,273;   -1,227
1138,781;  226,707;    1,091;   -3,318
1139,317;  317,253;    1,273;   -1,409
1139,852;  304,707;    3,091;    0,136
1140,388;  438,162;   -1,182;   -0,409
1140,924;  309,889;   -1,091;   -2,227
1141,460;  235,889;   -1,636;    0,136
1141,996;  164,707;   -1,364;    2,682
1142,531;  223,253;    1,364;    3,318
1143,067;  453,253;    1,182;    1,045
1143,602;  512,343;   -0,091;   -0,318
1144,138;  344,253;   -2,636;    1,045
1144,673;  205,162;   -1,455;    1,409
1145,209;  274,071;   -1,909;   -0,318
1145,744;  182,798;   -0,727;    0,864
1146,279;  338,343;    1,818;   -0,136
1146,815;  244,071;    1,545;   -2,682
1147,350;  285,343;   -1,364;    0,045
1147,885;  194,980;   -0,818;   -1,318
1148,420;  191,253;   -2,273;    0,773
1148,955;  171,798;   -1,727;    1,864
1149,490;  199,162;   -0,909;   -1,591
1150,025;  186,707;    0,455;   -1,773
1150,560;  313,798;    1,091;   -0,955
1151,094;  274,434;    1,455;   -0,591
1151,629;  279,343;    1,636;    0,864
1152,164;  196,343;    1,364;    1,318
1152,698;  152,707;   -0,182;   -0,136
1153,233;  102,434;    0,091;   -0,682
1153,767;  163,980;   -3,000;   -2,318
1154,302;  213,889;   -1,455;    1,773
1154,836;  207,707;   -0,455;   -2,136
1155,371;  274,434;   -1,364;    3,682
1155,905;  222,343;   -0,636;    1,682
1156,439;  176,798;   -0,636;   -0,500
1156,973;  221,071;    0,364;    0,318
1157,507;  148,980;   -0,364;    0,682
1158,042;  186,434;   -0,727;    1,045
1158,576;  239,071;    0,182;    1,773
1159,110;  233,162;   -0,818;    2,409
1159,643;  190,980;    0,636;   -0,045
1160,177;  124,343;   -1,545;    1,500

