
Integration time [ms]:   0,040
Averaging Nr. [scans]: 11
Smoothing Nr. [pixels]: 0
Data measured with spectrometer [name]: 7318044SP
Wave   ;Sample   ;Dark     ;Reference
[nm]   ;[counts] ;[counts] ;[counts] 

186,757;   17,393;   31,551;    1,318
187,357;   51,394;   22,551;    0,955
187,958;   25,133;   15,460;   -1,591
188,558;   68,643;    8,915;   -1,227
189,159;   30,610;    6,733;   -4,500
189,759;    0,201;    7,278;   -3,591
190,360;   -1,593;    2,824;   -2,136
190,960;   40,170;    2,915;   -4,136
191,560;   55,185;    3,189;   -6,591
192,161;  288,909;    4,372;   -3,500
192,761;  134,553;    4,010;   -3,227
193,361;   60,099;    1,556;   -3,773
193,962;   99,742;    2,010;   -2,682
194,562;   30,585;    1,189;   -3,955
195,162;   49,569;   -2,448;   -2,227
195,762;  173,362;   -3,176;   -0,045
196,362;  123,770;    1,370;   -2,500
196,963;   24,815;    2,006;   -0,864
197,563;   71,564;    1,551;   -0,955
198,163;   22,539;    0,096;   -0,682
198,763;   30,381;    1,733;   -0,500
199,363;   85,835;    3,096;   -0,500
199,963;   56,289;    0,369;    0,409
200,563;   32,470;    2,823;   -1,409
201,163;   18,867;    3,277;   -0,227
201,763;   56,174;    3,732;    0,318
202,363;   12,787;    1,459;    1,500
202,963;   69,491;    1,459;    1,045
203,563;  141,583;    0,277;    0,500
204,162;   44,901;    2,096;   -1,864
204,762;   42,751;    0,550;    0,591
205,362;   18,707;    3,004;    1,955
205,962;   61,401;    3,096;    1,955
206,562;   54,911;    1,823;    2,318
207,161;   28,478;   -0,087;    0,318
207,761;  121,945;    1,277;    2,409
208,361;   30,196;   -0,268;    1,409
208,960;   80,468;    0,459;    1,500
209,560;   86,240;    1,277;    1,591
210,160;  104,445;    0,550;    1,864
210,759;   72,820;    4,186;    1,227
211,359;   59,137;    1,459;    1,045
211,958;  209,479;    1,277;    2,045
212,558;  229,593;    1,732;    1,864
213,157;  137,013;    1,822;    1,500
213,757;  356,659;    3,822;   -0,227
214,356;  190,240;    1,277;   -0,409
214,956;  358,423;    3,095;    0,409
215,555;  150,171;    2,095;    2,136
216,154;  104,750;   -2,723;   -0,591
216,754;  104,546;    0,277;    0,773
217,353;  145,728;   -0,268;   -1,045
217,952;   52,283;   -0,178;    0,318
218,552;  194,931;    1,368;   -0,773
219,151;  119,737;    0,277;    0,955
219,750;  107,112;    0,004;   -0,227
220,349;   84,045;   -0,451;    1,045
220,948;  213,930;   -1,360;    1,136
221,548;  123,681;    0,913;    1,227
222,147;  166,477;   -0,087;   -0,409
222,746;  344,715;   -0,451;   -0,955
223,345;  217,044;    0,731;    0,500
223,944;  216,795;   -0,451;    0,773
224,543;  234,102;    1,004;   -1,409
225,142;  261,873;    0,094;    0,136
225,741;  229,385;   -0,814;    1,045
226,340;  213,476;   -0,451;   -0,955
226,939;  366,091;   -0,996;   -0,136
227,538;  197,567;   -0,360;   -0,773
228,137;  343,693;   -0,814;    0,864
228,735;  282,500;   -0,541;    1,227
229,334;  146,841;   -0,905;   -0,227
229,933;  355,932;    0,459;    0,591
230,532;  379,705;    1,186;   -0,409
231,131;  450,921;    1,732;    0,318
231,729;  306,875;   -2,450;   -2,318
232,328;  233,989;   -0,723;   -1,500
232,927;  234,638;    1,004;   -0,500
233,525;  215,147;    3,640;    0,045
234,124;  265,580;    2,368;   -1,591
234,723;  168,853;    0,913;   -1,045
235,321;  168,182;    2,277;    0,136
235,920;  218,978;    1,186;   -1,227
236,518;  387,488;    3,459;    0,318
237,117;  205,750;    0,004;   -0,227
237,715;  225,728;    0,640;   -0,500
238,314;  290,285;   -0,087;   -2,318
238,912;  447,319;   -0,723;   -1,409
239,510;  331,637;    0,459;   -1,227
240,109;  475,126;    0,004;    3,773
240,707;  426,422;   -0,996;    1,227
241,305;  273,717;    0,550;    0,136
241,904;  421,535;   -0,178;   -2,045
242,502;  554,660;   -0,632;   -0,227
243,100;  437,523;   -0,087;   -0,955
243,698;  380,228;    0,732;    1,682
244,297;  453,034;   -0,632;    0,682
244,895;  477,341;   -0,269;   -2,318
245,493;  734,147;    2,186;   -0,591
246,091;  738,159;    1,368;   -1,318
246,689;  703,056;    1,004;    0,591
247,287;  665,556;    0,822;   -1,136
247,885;  670,692;   -1,451;    1,227
248,483;  653,602;    1,822;   -0,500
249,081;  785,328;    0,185;    1,591
249,679;  887,498;   -0,178;    1,682
250,277;  761,067;   -1,723;    0,864
250,875;  956,534;   -1,087;   -1,045
251,473;  856,068;   -1,178;    0,500
252,071; 1009,511;    1,459;    1,045
252,669;  977,795;   -1,814;    0,318
253,267;  950,998;   -0,087;    0,773
253,864;  976,375;   -0,360;    0,682
254,462; 1228,476;    1,640;    1,591
255,060;  978,601;   -0,269;    1,318
255,658; 1006,886;    0,822;   -0,136
256,255; 1225,545;    0,186;   -2,045
256,853; 1260,419;   -0,269;    1,409
257,451; 1243,034;    0,822;    1,864
258,048; 1816,977;    1,822;    1,864
258,646; 1392,465;    1,731;   -1,045
259,243; 1555,056;   -0,087;    2,227
259,841; 1484,499;   -0,814;    0,318
260,438; 1330,578;   -0,087;    0,864
261,036; 1552,807;   -1,905;    1,409
261,633; 1530,090;   -0,087;    2,227
262,231; 1482,522;    2,731;   -0,045
262,828; 1552,182;   -0,905;    1,136
263,425; 1603,318;    0,913;   -0,591
264,023; 1684,238;    0,186;    0,045
264,620; 1755,079;   -0,360;   -0,318
265,217; 1912,079;   -2,087;    3,136
265,815; 1722,760;   -1,905;    2,136
266,412; 1869,647;    0,731;    0,136
267,009; 1911,113;   -1,451;    0,773
267,606; 2059,101;    0,822;   -0,955
268,203; 1818,068;   -0,269;   -0,591
268,801; 1945,545;    1,731;    0,591
269,398; 1979,851;   -0,360;    2,500
269,995; 2086,728;    0,277;    1,591
270,592; 1935,784;   -0,632;   -0,500
271,189; 1960,431;    0,186;    0,409
271,786; 2012,909;   -0,632;    1,227
272,383; 2238,102;   -1,087;    0,227
272,980; 2102,374;    0,277;    0,318
273,577; 2187,558;    0,004;    1,227
274,174; 1980,182;    0,822;    2,591
274,771; 2027,613;   -0,814;   -0,773
275,367; 2480,728;    2,277;    1,409
275,964; 2349,750;    0,731;   -0,500
276,561; 2223,283;    1,549;   -1,045
277,158; 2190,044;    0,095;   -1,773
277,755; 2452,419;    2,185;    0,409
278,351; 2111,272;   -0,451;   -1,500
278,948; 2282,646;   -0,815;    0,045
279,545; 2169,362;   -1,360;    2,318
280,141; 2654,170;   -1,723;   -2,045
280,738; 2448,227;   -0,451;   -0,136
281,334; 2349,578;   -1,633;    0,591
281,931; 2211,191;   -0,087;   -1,318
282,528; 2334,623;    0,822;   -0,500
283,124; 2681,840;   -1,087;   -0,500
283,721; 2621,327;   -0,451;    1,409
284,317; 2459,907;    0,185;    2,500
284,913; 2837,043;   -1,360;    0,591
285,510; 3175,316;    0,640;   -0,318
286,106; 3076,225;   -2,269;   -0,955
286,703; 2634,487;   -0,360;    1,955
287,299; 2767,954;   -1,451;   -0,591
287,895; 2938,567;    0,822;   -1,045
288,491; 3222,487;    0,186;    2,136
289,088; 3250,373;   -2,360;    2,409
289,684; 3304,249;   -1,723;    1,500
290,280; 3435,409;    0,368;    0,682
290,876; 3574,488;    1,822;    5,500
291,472; 3552,078;    1,276;    2,227
292,068; 3671,430;    1,367;    0,227
292,665; 3509,590;    2,095;    0,773
293,261; 3450,999;    0,276;    2,136
293,857; 3759,477;    2,913;    2,136
294,453; 3796,375;    3,550;    0,955
295,049; 3879,002;   -0,268;    1,955
295,644; 3949,194;    0,095;    0,136
296,240; 3972,150;   -0,905;   -0,136
296,836; 4164,900;   -0,995;    0,318
297,432; 4470,185;    1,096;   -0,500
298,028; 4668,890;    0,732;    0,773
298,624; 4907,207;    1,459;    1,864
299,220; 5096,708;    2,368;    0,591
299,815; 4950,184;    1,005;   -0,409
300,411; 4982,639;    0,914;    1,773
301,007; 5066,856;    1,368;    0,227
301,602; 5072,980;   -0,541;   -2,318
302,198; 5304,106;    0,732;   -0,773
302,794; 5585,458;    1,187;   -0,500
303,389; 5694,401;   -1,177;    1,045
303,985; 5820,855;    0,550;    1,409
304,580; 5868,537;    1,459;    1,591
305,176; 5856,695;   -3,086;    0,136
305,771; 5790,468;   -1,268;   -1,227
306,367; 5908,331;    4,095;    0,136
306,962; 6022,980;    0,641;    1,500
307,558; 5799,912;   -0,450;    0,136
308,153; 5759,525;    1,095;   -1,136
308,748; 5889,787;   -0,814;    1,682
309,344; 5949,002;   -0,632;   -1,318
309,939; 6103,388;   -1,905;   -1,318
310,534; 6123,831;   -0,086;   -1,682
311,130; 5979,139;    0,459;   -2,500
311,725; 5703,229;    1,004;   -0,500
312,320; 5974,150;    2,459;    0,045
312,915; 5911,297;    1,459;   -1,045
313,510; 5969,093;    1,550;   -0,500
314,105; 6178,356;    1,096;    1,409
314,700; 5621,537;   -3,086;   -1,045
315,295; 5385,174;   -0,904;    0,045
315,890; 5048,048;    1,277;    0,864
316,485; 5213,979;   -0,359;   -0,318
317,080; 5253,366;   -3,086;    1,591
317,675; 5603,162;    2,005;   -0,682
318,270; 5325,526;    5,550;    3,318
318,865; 5251,061;    3,278;    3,045
319,460; 5029,128;   -0,904;    0,591
320,055; 5092,743;   -0,541;   -1,227
320,650; 4854,652;   -1,995;   -0,591
321,244; 4855,163;   -0,177;   -1,409
321,839; 5447,480;   -1,541;   -0,227
322,434; 5329,696;   -1,086;   -1,591
323,029; 5106,254;    1,732;    1,591
323,623; 4990,514;    1,550;    0,773
324,218; 4915,992;    2,368;    1,409
324,812; 4839,560;    1,096;    1,591
325,407; 4757,582;   -0,814;    2,045
326,002; 4768,480;    0,277;   -0,409
326,596; 4996,140;    0,914;    1,318
327,191; 5089,605;    0,823;   -1,045
327,785; 4906,412;   -0,813;   -0,227
328,379; 5149,276;    1,368;    0,136
328,974; 4979,764;    0,914;   -3,955
329,568; 5282,242;    0,186;   -2,409
330,163; 5270,219;    2,096;    1,045
330,757; 5521,252;    2,459;    1,591
331,351; 5153,980;    0,459;    0,682
331,945; 5480,083;    0,914;    1,409
332,540; 5370,627;   -1,723;   -0,591
333,134; 5558,604;   -1,086;    0,773
333,728; 5785,866;    0,005;    0,318
334,322; 6079,832;   -1,177;   -0,864
334,916; 5613,422;    0,277;    0,955
335,510; 6029,627;   -0,450;   -0,136
336,105; 6364,969;   -1,086;    1,591
336,699; 6208,570;   -1,086;    0,591
337,293; 6276,911;   -1,723;    0,318
337,887; 6477,275;   -2,723;    1,955
338,481; 6698,650;    0,459;    0,591
339,074; 6995,774;   -0,359;    2,682
339,668; 7012,320;   -1,632;    1,227
340,262; 7445,831;    1,732;    3,227
340,856; 7066,047;    1,822;   -0,682
341,450; 6628,114;    1,004;    1,864
342,044; 7427,729;    1,459;    0,136
342,637; 7389,490;    0,913;   -2,136
343,231; 7397,556;   -2,360;    0,682
343,825; 7458,741;   -1,086;   -0,591
344,419; 7548,605;   -1,995;    0,500
345,012; 7586,356;    2,459;    4,045
345,606; 7659,072;    4,641;    1,591
346,199; 7587,231;   -1,813;   -0,227
346,793; 7304,504;    1,914;    2,045
347,386; 7538,515;   -0,813;   -1,136
347,980; 7576,039;   -0,268;   -0,045
348,573; 7496,642;    2,278;    0,409
349,167; 7369,949;    5,278;    4,773
349,760; 7745,188;    2,914;    2,682
350,354; 7725,053;   -0,813;    1,136
350,947; 7587,689;    1,096;    1,682
351,540; 7317,518;   -0,358;   -1,409
352,134; 7285,040;    1,096;    1,136
352,727; 7418,528;   -0,086;    1,136
353,320; 7241,767;    0,005;    0,591
353,913; 7070,142;   -1,995;    1,864
354,507; 7316,198;    0,823;   -1,227
355,100; 7342,585;    0,460;    0,864
355,693; 6769,893;    2,005;    2,409
356,286; 6797,847;    0,823;    2,773
356,879; 7050,483;   -0,722;    1,227
357,472; 6695,369;   -0,904;    1,500
358,065; 6911,790;   -0,722;    2,500
358,658; 6827,381;   -0,540;    2,318
359,251; 6506,222;   -1,631;   -0,591
359,844; 6066,211;   -1,904;   -1,136
360,437; 6285,574;   -2,995;    0,045
361,030; 6470,642;    1,369;   -0,682
361,623; 6101,734;    2,824;    0,318
362,215; 6141,972;   -0,086;    2,045
362,808; 5962,040;   -2,358;   -1,682
363,401; 6150,791;   -2,449;    0,136
363,994; 5948,019;   -0,631;   -1,500
364,586; 5819,088;    0,824;   -1,500
365,179; 5962,191;   -0,449;   -1,136
365,772; 5515,745;   -1,995;    2,045
366,364; 5768,975;    1,915;   -3,227
366,957; 5969,545;    2,279;   -0,045
367,549; 5910,807;    2,188;   -0,864
368,142; 5611,978;    1,825;   -1,500
368,734; 5757,173;    0,734;   -2,136
369,327; 5684,322;    1,643;   -0,500
369,919; 5603,096;   -1,538;    0,409
370,512; 5467,404;   -1,083;   -0,500
371,104; 5273,578;   -0,901;    1,591
371,696; 5455,457;    1,191;   -0,955
372,289; 5450,709;    0,373;    1,136
372,881; 5569,668;   -2,080;    1,318
373,473; 5454,615;   -2,170;    1,136
374,066; 5311,645;   -0,169;    0,500
374,658; 5178,699;    0,378;    1,136
375,250; 5421,787;    0,653;   -1,409
375,842; 5306,364;    0,473;   -0,045
376,434; 5201,042;   -0,435;   -0,409
377,026; 5645,666;    0,204;   -2,500
377,618; 5535,540;   -0,158;   -0,682
378,210; 5364,014;   -0,338;   -1,955
378,802; 5222,180;    0,754;   -0,591
379,394; 5298,912;    1,846;    0,682
379,986; 5697,314;    1,393;   -0,955
380,578; 5758,326;   -0,153;    0,773
381,170; 5270,640;   -0,972;    0,045
381,762; 5169,283;    0,755;    1,409
382,354; 5325,617;   -0,065;   -1,318
382,945; 5395,564;   -2,976;    0,318
383,537; 5511,977;   -2,705;   -1,955
384,129; 5530,448;   -2,160;   -1,136
384,721; 5654,605;   -0,252;    0,955
385,312; 5555,081;   -0,161;   -0,955
385,904; 5702,343;   -2,706;    1,591
386,496; 5135,958;   -0,979;    1,045
387,087; 5298,176;    1,022;    2,500
387,679; 5309,666;   -1,160;    0,045
388,270; 5413,678;    2,840;    2,045
388,862; 5516,894;    1,295;   -0,318
389,453; 5372,599;   -0,887;    1,045
390,045; 5629,110;   -0,705;   -2,682
390,636; 5552,043;    0,204;   -0,591
391,227; 5414,882;   -0,523;   -0,045
391,819; 5540,620;    0,204;    0,773
392,410; 5595,404;    1,022;    0,045
393,001; 5553,514;   -0,979;   -1,591
393,593; 5772,264;    1,930;   -0,045
394,184; 5660,446;    1,385;   -0,409
394,775; 5542,401;    1,839;    2,136
395,366; 5705,686;    1,385;    0,773
395,957; 5665,278;    0,113;    0,136
396,548; 5933,300;   -0,342;    2,682
397,139; 6214,847;   -2,433;    0,591
397,730; 5965,084;   -1,888;    0,955
398,321; 5995,538;   -1,252;    0,955
398,912; 6001,844;   -0,615;    0,136
399,503; 6071,765;   -3,524;   -1,409
400,094; 5614,889;    0,294;    1,682
400,685; 5502,981;   -0,433;    0,045
401,276; 5520,799;    0,930;   -0,955
401,867; 5768,833;   -0,888;    0,773
402,458; 5820,015;   -2,251;   -2,318
403,048; 5829,458;    1,112;    0,591
403,639; 5452,379;    0,840;    0,864
404,230; 5723,332;    2,476;    0,318
404,821; 5659,037;   -0,615;    0,045
405,411; 5718,093;    1,203;   -2,591
406,002; 5361,514;   -1,252;   -1,136
406,592; 5296,616;    2,294;    0,045
407,183; 5440,296;    0,566;   -1,500
407,774; 5325,842;    3,475;   -0,136
408,364; 5543,797;    0,930;    0,409
408,954; 5229,069;    0,384;    1,227
409,545; 5235,035;    1,021;    1,045
410,135; 4780,625;    1,293;    0,500
410,726; 4841,225;    1,838;    0,318
411,316; 5138,602;    0,111;    0,773
411,906; 4804,249;   -0,253;   -0,409
412,497; 4390,864;   -1,070;   -0,045
413,087; 4763,227;   -1,980;   -0,227
413,677; 4991,350;   -0,707;    3,864
414,267; 4796,726;    0,656;    1,409
414,857; 4695,975;   -2,980;    4,227
415,448; 4856,863;    0,839;    0,500
416,038; 4573,136;    0,020;   -0,591
416,628; 4444,407;   -0,889;    0,409
417,218; 4122,623;    0,565;    3,318
417,808; 4253,509;    0,202;   -0,409
418,398; 4375,554;    0,020;    2,682
418,988; 4251,940;    2,020;    0,591
419,578; 4323,566;   -0,707;    1,409
420,168; 4499,726;   -1,343;   -0,955
420,757; 4171,988;   -1,343;   -1,500
421,347; 3836,735;    0,111;   -0,227
421,937; 3868,462;    2,292;    1,409
422,527; 3823,882;    0,838;   -0,773
423,116; 3685,395;   -0,253;   -0,045
423,706; 3687,963;   -1,889;    0,318
424,296; 3515,486;    1,384;    0,682
424,885; 3809,486;   -0,071;   -3,045
425,475; 3873,383;    1,474;   -2,864
426,065; 3662,758;   -0,980;   -0,318
426,654; 3416,472;   -0,435;   -0,318
427,244; 3574,190;    0,020;    1,409
427,833; 3203,474;    1,383;   -0,500
428,423; 3224,586;   -0,526;    1,136
429,012; 3555,801;   -0,344;   -1,136
429,601; 3270,357;   -1,344;    0,136
430,191; 3240,097;    1,292;    4,318
430,780; 2904,939;   -0,344;   -0,409
431,369; 3032,369;    0,746;   -0,045
431,959; 3209,369;   -1,254;    0,500
432,548; 2923,800;   -1,163;   -0,045
433,137; 2843,482;   -1,254;   -1,318
433,726; 3090,743;    0,292;    0,500
434,315; 2758,720;   -0,526;    2,409
434,905; 2795,753;   -1,254;    1,409
435,494; 2794,015;    0,746;    0,955
436,083; 2734,402;   -0,981;   -0,955
436,672; 2601,811;    0,110;    0,500
437,261; 2439,480;    0,292;   -1,955
437,850; 2692,788;    1,383;    0,682
438,439; 2606,445;    3,291;    1,955
439,027; 2589,809;    3,655;    1,773
439,616; 2580,433;    2,927;    1,227
440,205; 2213,820;    0,200;   -2,136
440,794; 2054,126;    2,109;   -0,045
441,383; 1959,739;   -1,346;   -0,591
441,971; 1785,239;   -2,436;    0,591
442,560; 1700,636;    0,563;   -1,773
443,149; 1490,681;    0,379;   -1,318
443,737; 1567,439;   -0,074;   -2,318
444,326; 1558,124;    0,018;    0,318
444,915; 1541,738;   -1,982;    0,864
445,503; 1562,886;   -2,891;   -0,318
446,092; 1755,886;    0,382;    2,136
446,680; 1705,601;    0,382;    0,318
447,269; 1591,396;   -0,346;   -0,318
447,857; 1441,077;    0,018;   -1,773
448,445; 1342,645;    0,563;    1,318
449,034; 1293,338;   -1,528;   -1,136
449,622; 1208,168;   -1,073;    3,500
450,210; 1610,473;    2,017;    2,227
450,799; 1490,825;    0,290;   -0,591
451,387; 1275,768;    1,381;   -0,591
451,975; 1237,734;    2,654;    0,864
452,563; 1390,315;    3,472;    2,318
453,151; 1015,734;   -0,528;   -1,227
453,739; 1062,710;   -1,347;    0,136
454,328; 1268,256;    2,381;   -2,136
454,916; 1075,835;    2,562;   -0,136
455,504; 1041,517;    1,017;    1,227
456,092;  868,495;    0,017;   -1,591
456,679;  741,404;    1,472;    0,682
457,267; 1442,448;    4,017;    1,045
457,855;  889,459;    1,017;    1,409
458,443;  573,913;   -0,165;    1,682
459,031;  975,288;    0,108;    2,409
459,619;  877,744;   -1,801;    2,864
460,206;  646,789;    0,835;    2,045
460,794;  641,618;   -2,983;   -0,227
461,382;  735,628;   -0,529;   -0,864
461,970;  658,378;    1,198;    1,864
462,557;  534,935;   -0,711;   -0,682
463,145;  793,231;   -3,165;   -1,682
463,732; 1138,320;    2,016;   -1,045
464,320;  754,626;   -0,075;   -3,045
464,907;  982,763;    2,743;   -0,773
465,495;  829,636;    0,743;   -1,227
466,082;  666,081;   -1,984;   -0,045
466,670;  652,853;   -2,529;    1,227
467,257;  474,694;   -1,711;    2,045
467,844;  673,103;   -0,075;    0,045
468,432;  625,818;    0,834;    3,500
469,019;  505,738;    0,925;   -1,773
469,606;  610,159;    0,470;    3,682
470,193;  665,169;   -1,439;    0,227
470,780;  620,261;   -2,075;    0,864
471,368;  457,317;   -1,257;   -0,773
471,955;  618,397;    1,379;   -0,682
472,542;  537,453;    0,652;   -1,136
473,129;  309,522;   -0,166;    0,136
473,716;  314,590;    1,470;    0,591
474,303;  364,067;    0,652;   -0,864
474,890;  368,634;   -1,439;   -0,500
475,477;  507,201;   -1,621;    0,409
476,064;  344,530;    1,106;   -1,591
476,650;  502,053;    0,288;    0,318
477,237;  368,963;   -0,258;    0,955
477,824;  316,065;   -1,076;    0,864
478,411;  148,474;   -1,894;   -0,318
478,997;  140,007;    0,560;   -0,773
479,584;   36,585;    1,196;   -0,409
480,171;  328,177;   -0,440;   -0,773
480,757;  430,062;    2,651;    0,773
481,344;  230,802;    0,469;    0,409
481,931;   80,321;    1,105;    1,045
482,517;  293,936;   -1,258;    0,318
483,104;  401,370;    1,106;    2,864
483,690;  199,040;   -1,804;    0,045
484,276;  148,596;   -0,895;    0,227
484,863;  463,085;    2,469;    1,136
485,449;  235,254;   -0,077;    0,318
486,035;  163,334;   -1,986;   -0,136
486,622;  294,187;   -0,895;    0,045
487,208;  176,038;    1,378;    1,500
487,794;   49,106;    0,741;    0,318
488,380;   39,469;    0,105;   -1,409
488,967;   61,820;   -1,168;   -0,409
489,553;   80,218;   -1,895;   -1,409
490,139;  205,298;    1,559;    0,773
490,725;   74,627;    0,741;   -0,227
491,311;  147,718;    3,287;    3,045
491,897;  103,207;   -0,986;    1,500
492,483;  112,331;    0,105;    1,227
493,069;  708,491;    3,923;    0,864
493,655;  332,285;    1,650;    0,682
494,241;  171,377;    1,377;   -0,955
494,826;  199,298;    0,287;   -1,045
495,412;  313,423;    2,559;   -0,682
495,998;  183,819;   -0,805;   -0,318
496,584;  303,978;    0,377;    1,045
497,169;  320,978;    1,014;   -0,682
497,755;  235,715;    0,650;    1,227
498,341;  526,967;    0,559;    0,318
498,926;  728,932;    1,832;    1,955
499,512;  361,315;    1,286;    2,955
500,097;  389,203;    0,195;   -0,318
500,683;  449,703;   -0,350;    2,136
501,268;  397,396;   -0,169;   -0,955
501,854;  480,225;   -0,169;    1,227
502,439;  474,724;   -0,624;   -1,773
503,024;  672,009;    0,195;    0,500
503,610;  811,373;   -0,078;   -0,682
504,195;  694,623;    0,558;    1,955
504,780;  961,896;    2,922;    1,227
505,366; 1237,737;    3,013;    2,864
505,951; 1174,973;    0,740;    1,045
506,536; 1202,758;   -3,260;   -3,682
507,121; 1388,747;    0,285;   -0,318
507,706; 1580,781;    2,376;    1,045
508,291; 1708,167;    2,649;    1,136
508,876; 1803,642;   -0,988;    2,591
509,461; 1966,858;   -0,169;   -0,773
510,046; 2385,120;    0,194;    0,318
510,631; 2679,746;   -0,351;   -0,773
511,216; 2803,779;    2,467;   -0,500
511,801; 3379,849;   -0,442;    2,591
512,386; 3725,984;    0,740;    0,500
512,971; 4045,846;   -2,988;    0,955
513,555; 4247,143;   -0,897;   -1,500
514,140; 5038,074;   -0,442;   -3,136
514,725; 5356,857;   -0,715;   -1,136
515,309; 5824,971;   -0,533;    0,318
515,894; 5949,562;   -0,624;   -2,227
516,479; 6675,675;   -0,624;   -0,955
517,063; 6912,846;    0,376;    1,227
517,648; 7456,346;    1,012;   -1,136
518,232; 7502,298;   -0,261;   -1,409
518,817; 8242,287;   -0,079;    1,682
519,401; 8883,003;    2,194;    0,591
519,985; 8771,185;    1,103;    1,136
520,570; 9035,787;    0,830;   -1,955
521,154; 9701,366;    2,102;    0,591
521,738;10239,410;   -2,352;    2,409
522,323;11076,571;   -0,170;    1,682
522,907;11153,706;    0,466;   -0,136
523,491;11198,376;    0,557;    0,955
524,075;11487,910;    2,284;    0,591
524,659;11868,934;    1,466;    0,591
525,243;11622,740;    1,739;    0,409
525,827;12044,160;    0,648;   -0,045
526,411;13096,570;   -1,989;   -0,136
526,995;13519,922;   -0,352;    1,409
527,579;13329,250;   -0,443;   -1,045
528,163;13843,920;    0,375;   -1,500
528,747;13890,499;    2,466;   -0,773
529,331;14375,931;   -0,080;   -1,409
529,915;14711,158;    1,738;    0,955
530,499;14773,033;   -0,807;    1,227
531,082;14618,409;   -0,534;    1,591
531,666;14170,430;    1,374;    0,773
532,250;14965,397;    1,284;    2,682
532,833;15384,703;    0,920;    2,773
533,417;15305,214;   -1,807;    0,864
534,001;15408,191;    1,647;   -0,318
534,584;16196,645;    0,374;    0,500
535,168;16078,258;    0,465;    1,409
535,751;16214,203;    0,647;    0,045
536,334;15717,759;   -0,898;   -0,409
536,918;16336,123;    0,011;    1,591
537,501;16492,009;   -0,899;    1,318
538,085;16528,179;   -0,444;    1,045
538,668;16777,622;    0,829;    2,409
539,251;17147,974;    1,829;    3,773
539,834;17163,747;    0,101;    0,773
540,418;17157,189;   -1,990;    4,318
541,001;17287,246;   -0,990;    1,773
541,584;17290,654;    2,101;    2,227
542,167;17024,632;    1,374;    2,955
542,750;17195,405;    1,919;   -0,773
543,333;16816,472;    0,555;    2,136
543,916;17649,257;    0,192;    2,500
544,499;18317,972;   -1,354;    0,227
545,082;18313,881;    1,374;    3,591
545,665;18468,188;    1,919;    1,500
546,248;18892,835;    1,010;   -0,318
546,830;18541,381;   -0,445;    1,955
547,413;18972,244;    1,010;   -0,773
547,996;19484,720;    0,555;    0,500
548,579;19275,606;    0,919;    0,955
549,161;19129,151;    1,828;    2,682
549,744;18898,946;   -0,809;    0,409
550,326;19404,242;   -0,809;   -1,136
550,909;19242,093;    2,737;    0,591
551,492;19612,992;   -0,263;    0,227
552,074;19414,309;   -0,173;   -1,318
552,657;20014,741;    2,373;    0,045
553,239;19711,070;   -0,173;   -0,773
553,821;19647,844;   -1,082;    1,045
554,404;19187,514;    1,282;    1,136
554,986;19572,649;    0,464;    1,045
555,568;20195,979;    1,191;   -0,955
556,151;19376,058;    1,191;   -0,227
556,733;19551,229;   -0,264;   -0,864
557,315;20086,864;    0,100;    0,500
557,897;19913,421;    0,554;   -0,500
558,479;20073,205;   -1,991;    1,318
559,061;20179,363;   -0,719;   -0,864
559,643;20531,807;   -0,264;    0,045
560,225;20968,070;    1,645;    2,864
560,807;20925,352;    0,918;    0,318
561,389;20383,114;    0,554;    2,318
561,971;21244,999;    0,463;    2,136
562,553;20995,681;   -1,628;    1,591
563,135;21185,136;   -0,537;    1,136
563,717;20767,182;    3,372;    1,136
564,298;21592,147;    3,645;   -0,045
564,880;21288,873;    0,645;   -1,409
565,462;21493,236;    0,645;    1,318
566,043;22651,533;   -0,446;    2,318
566,625;22292,249;    1,918;    1,227
567,207;22144,544;    1,099;    1,682
567,788;23412,237;   -1,264;    1,500
568,370;24245,668;    1,917;   -0,500
568,951;24130,373;    0,190;    0,227
569,533;25084,826;   -0,628;   -0,500
570,114;25601,760;   -0,446;    0,682
570,695;26181,111;   -0,174;   -1,318
571,277;26832,974;   -0,265;   -1,682
571,858;27620,713;    2,008;   -1,136
572,439;28566,532;    1,554;   -1,045
573,021;28823,257;    2,099;   -2,773
573,602;29432,382;   -1,265;    0,318
574,183;30483,223;   -2,083;    2,227
574,764;30611,518;   -1,629;    0,409
575,345;31266,461;    0,917;   -0,136
575,926;31857,905;   -0,356;    0,136
576,507;31817,553;    1,099;   -0,227
577,088;33028,337;    3,099;    1,682
577,669;33081,518;    0,735;    1,955
578,250;34036,223;    0,644;   -1,045
578,831;34848,028;   -1,356;   -2,227
579,412;35054,779;   -0,810;    0,955
579,993;35931,506;    1,008;    0,227
580,573;36213,097;   -0,629;   -0,955
581,154;35191,654;    0,735;   -0,591
581,735;36164,200;    0,644;    0,773
582,315;35684,291;   -0,629;    2,136
582,896;35859,882;   -0,174;    1,227
583,477;35230,063;    0,189;    1,227
584,057;35439,109;    0,553;    0,955
584,638;35807,143;    2,553;    2,318
585,218;35752,722;   -0,538;    2,682
585,799;35940,120;    0,281;   -0,227
586,379;35828,519;    0,372;    1,591
586,959;34376,018;    0,735;    0,318
587,540;33574,347;   -0,629;    2,227
588,120;33104,516;    1,007;   -0,045
588,700;32057,290;    2,553;    2,136
589,281;32445,938;    0,462;   -0,955
589,861;32418,586;    0,099;   -1,682
590,441;32192,325;    2,371;   -2,682
591,021;31050,768;   -0,265;   -2,591
591,601;31197,292;   -0,537;    0,500
592,181;31226,008;   -0,719;   -0,773
592,761;30468,460;    0,007;    1,409
593,341;30360,155;   -0,901;    0,045
593,921;30369,939;   -0,265;    1,591
594,501;30233,961;   -0,538;    1,318
595,081;30088,042;    0,917;   -0,318
595,661;30475,132;   -1,447;    0,955
596,240;30970,144;   -0,537;    0,136
596,820;30736,417;    0,372;    1,955
597,400;30917,859;    2,008;    0,773
597,980;31125,906;    2,008;    1,045
598,559;31107,371;    2,735;   -0,227
599,139;30744,257;   -0,174;   -1,227
599,718;30628,166;   -0,174;   -0,409
600,298;30912,314;    0,735;    0,682
600,877;31138,394;    2,917;    1,409
601,457;31490,122;    2,281;    1,136
602,036;31353,008;    0,190;    2,045
602,616;31649,349;    0,644;    1,682
603,195;31978,384;   -0,355;    3,500
603,774;31532,872;   -0,901;    2,045
604,354;31324,770;    0,826;   -0,500
604,933;30783,803;    0,463;    1,864
605,512;30942,224;    3,554;    0,591
606,091;30923,725;   -0,537;    3,773
606,671;31768,463;    0,281;    0,773
607,250;30940,668;    1,644;    3,136
607,829;31165,225;    2,372;    3,227
608,408;30960,850;    1,190;    2,591
608,987;29926,044;    1,281;    3,409
609,566;30232,325;   -1,265;   -2,500
610,145;30321,783;   -1,082;    0,682
610,723;30727,589;    4,372;    6,864
611,302;29969,670;   -0,446;    1,682
611,881;29456,578;    5,008;   11,227
612,460;30299,306;    1,645;    3,955
613,039;30661,204;   -0,082;    2,045
613,617;29333,668;    1,736;    4,773
614,196;29580,612;    1,099;    1,227
614,775;29985,875;    1,009;    2,409
615,353;29881,625;    0,736;    0,864
615,932;29568,079;    0,100;    2,409
616,510;30120,590;    0,554;    0,591
617,089;29676,170;    7,100;   17,591
617,667;29380,909;    2,372;    6,136
618,246;29218,443;   -1,537;    1,318
618,824;29401,455;   -3,355;   -0,955
619,402;28929,193;   -2,900;   -1,773
619,981;29429,592;   -0,173;   -1,045
620,559;29223,910;    0,009;    1,682
621,137;28686,853;   -0,718;    1,864
621,715;28759,387;   -1,173;   -0,682
622,293;28736,262;   -0,537;   -0,773
622,871;29120,410;   -0,718;    0,500
623,450;28686,968;    0,373;   -0,864
624,028;28541,024;    0,191;   -0,955
624,606;28168,661;   -1,718;    1,682
625,183;28577,013;   -1,536;   -1,136
625,761;28209,002;    1,009;    1,136
626,339;28522,774;    1,373;    2,591
626,917;28846,582;   -0,172;   -0,045
627,495;28894,650;   -0,354;    1,318
628,073;28268,333;   -0,263;    2,864
628,650;28056,389;    0,100;    2,136
629,228;28492,411;    0,373;    4,409
629,806;27811,048;    2,282;    1,136
630,383;28064,185;    1,464;   -0,318
630,961;27830,355;    2,555;   -0,955
631,539;27599,946;    2,464;    0,227
632,116;26942,627;   11,373;   15,409
632,694;27494,844;    2,555;    6,500
633,271;27830,334;    0,828;    2,682
633,848;27800,856;    1,828;    2,045
634,426;27774,641;   -1,081;    1,773
635,003;26810,745;    1,101;   -0,409
635,580;27174,336;    1,192;    3,682
636,158;27737,891;    3,737;    1,227
636,735;27713,640;    0,555;   -0,500
637,312;27920,060;   -0,809;   -0,682
637,889;28020,005;   -4,354;   -0,682
638,466;27410,540;   -3,990;   -0,409
639,043;27403,246;    2,101;   -1,136
639,620;27740,019;   -2,262;   -0,955
640,197;28107,532;    1,100;    1,682
640,774;28238,696;   -0,172;    1,136
641,351;28642,861;    0,737;    1,136
641,928;28038,843;   -0,627;    1,409
642,505;27686,280;    0,828;   -0,500
643,082;27798,354;   -1,718;    1,227
643,658;26735,427;   -0,718;    1,500
644,235;27557,410;    1,191;    2,500
644,812;27910,302;    1,918;    0,773
645,388;27638,921;   -0,991;    1,409
645,965;27694,358;   -0,809;    1,682
646,542;27816,068;   -1,445;   -0,227
647,118;27741,869;    1,009;   -0,955
647,695;28057,124;   -0,263;    1,136
648,271;27920,288;   -0,536;    0,500
648,848;28326,271;    0,736;    2,227
649,424;28154,435;    0,827;    1,318
650,000;27941,509;   -0,354;   -1,045
650,577;27699,310;   -0,627;   -0,955
651,153;28185,201;   -1,809;    0,955
651,729;29264,548;    1,191;    0,864
652,305;30069,803;    0,645;    2,773
652,881;36189,785;   -0,082;    1,136
653,458;43595,041;    1,100;    0,227
654,034;47115,296;    0,282;    1,591
654,610;48444,006;    0,554;    0,773
655,186;49714,807;    0,645;    3,045
655,762;49425,789;   -0,991;    0,409
656,338;49475,136;    0,100;    0,136
656,913;50419,573;   -0,082;    0,409
657,489;49631,283;    0,827;   -0,318
658,065;49608,902;   -0,173;   -1,591
658,641;50311,884;   -0,900;   -0,864
659,217;49567,321;   -0,991;    0,409
659,792;48998,486;    0,645;   -0,409
660,368;49135,377;   -2,173;   -0,682
660,944;48179,087;   -2,082;    1,227
661,519;42030,797;   -0,628;    0,409
662,095;35429,053;   -1,719;    0,591
662,670;31049,853;    1,281;   -0,136
663,246;30098,200;    1,009;   -0,409
663,821;29488,546;    0,281;    1,682
664,396;28982,074;    0,009;    1,864
664,972;29245,784;    0,009;   -0,500
665,547;29576,039;    1,372;    0,136
666,122;29667,203;   -1,082;    0,318
666,698;29960,186;   -0,173;    0,318
667,273;29315,532;   -0,173;    0,136
667,848;30103,788;    2,372;    1,500
668,423;29930,407;    2,190;    2,318
668,998;30597,571;    2,827;   -0,682
669,573;31137,190;   -3,264;   -1,500
670,148;30931,354;   -1,446;   -0,682
670,723;30736,701;   -1,810;    0,318
671,298;31154,683;    2,372;    1,045
671,873;31259,211;   -0,082;   -0,136
672,448;31221,012;    0,645;    0,136
673,023;31534,540;   -1,992;   -0,227
673,597;31911,159;    0,827;    2,318
674,172;31659,778;   -0,355;    0,318
674,747;31162,215;    0,372;   -1,045
675,321;30929,561;   -0,628;    3,318
675,896;30526,908;    0,645;    1,045
676,471;31573,981;    2,645;    1,591
677,045;31310,600;   -1,264;    0,682
677,620;31416,674;    0,190;    1,136
678,194;31672,565;   -2,628;    1,136
678,769;31247,457;   -1,083;   -0,318
679,343;31536,349;   -0,628;    1,773
679,917;31339,786;   -1,446;    1,955
680,492;31495,041;    0,826;    3,227
681,066;31667,115;    3,372;    0,409
681,640;31659,188;    1,463;   -0,318
682,214;32522,171;    0,735;    0,500
682,788;32029,790;   -1,356;   -0,773
683,363;31995,318;   -1,810;    1,682
683,937;31761,664;   -1,719;   -0,318
684,511;32456,283;    0,463;   -0,591
685,085;32193,266;   -1,356;    0,318
685,659;31918,976;   -2,538;    0,864
686,232;32186,140;   -0,356;   -0,318
686,806;31864,123;   -0,901;    0,409
687,380;32554,651;   -0,174;    0,591
687,954;32756,906;   -1,174;    1,136
688,528;32449,343;   -0,719;    1,955
689,101;33259,962;   -3,992;    1,045
689,675;32827,763;   -0,356;   -0,136
690,249;32239,836;   -0,719;    0,409
690,822;32509,183;    0,280;    0,318
691,396;32660,165;   -0,265;    1,227
691,969;32034,875;    1,280;    0,136
692,543;32452,039;   -0,447;   -1,955
693,116;32102,386;   -0,265;   -1,409
693,690;32018,459;    0,099;    0,500
694,263;32562,805;   -1,083;    2,955
694,836;32639,333;    1,371;    3,591
695,410;31265,952;   -0,265;    1,773
695,983;31722,753;    0,189;    0,591
696,556;31652,099;   -0,447;   -1,045
697,129;32059,082;   -0,356;    1,409
697,703;31672,065;   -1,629;    1,955
698,276;31639,229;    1,462;   -0,773
698,849;31505,030;    1,280;    1,409
699,422;31862,012;   -1,083;    0,591
699,995;31547,268;    0,007;    0,136
700,568;32061,887;   -0,629;    3,045
701,140;32066,415;   -2,811;    1,682
701,713;31788,397;   -0,174;    2,409
702,286;31550,653;   -0,538;    0,864
702,859;31429,272;   -0,902;   -0,591
703,432;30546,527;    0,825;    0,682
704,004;31038,782;    0,462;    0,318
704,577;30929,583;   -0,629;    0,136
705,150;31542,748;    0,189;    2,500
705,722;31296,367;   -0,356;   -3,227
706,295;31063,804;   -0,175;   -0,591
706,867;30940,241;   -0,175;    1,955
707,440;31097,496;   -1,720;   -0,409
708,012;31387,842;    0,462;    0,591
708,584;31321,825;    2,462;    0,227
709,157;31533,353;    1,825;   -0,591
709,729;31204,517;    2,280;    2,045
710,301;32040,682;    0,734;    0,045
710,874;32035,119;   -1,447;   -0,227
711,446;30921,556;    0,371;    0,864
712,018;30852,539;    0,098;    0,500
712,590;30626,703;   -1,993;    1,682
713,162;31138,595;    0,825;    1,318
713,734;31353,577;    1,825;   -2,045
714,306;31223,196;   -1,902;   -0,409
714,878;29871,270;    0,825;    0,864
715,450;30725,798;    0,643;    0,864
716,022;30954,599;    1,552;    1,318
716,593;31100,854;    0,189;    0,591
717,165;31064,473;   -3,175;   -1,227
717,737;30780,910;    0,280;    0,409
718,309;30364,711;    0,280;   -0,045
718,880;30304,966;   -0,539;   -1,409
719,452;30555,585;   -0,175;   -1,591
720,024;30122,295;    0,734;   -0,591
720,595;30666,460;   -2,902;    0,955
721,167;30221,079;    0,370;   -2,045
721,738;29790,698;   -0,812;   -1,045
722,309;29841,044;   -0,993;   -1,227
722,881;29529,390;   -1,357;    0,773
723,452;30142,100;   -2,630;    2,864
724,023;30290,537;   -0,721;    2,682
724,595;30044,429;    0,007;    0,682
725,166;29805,411;    0,007;   -0,409
725,737;29506,576;    1,734;    0,227
726,308;29519,558;   -0,266;    0,318
726,879;30008,450;   -1,630;    1,227
727,450;29838,705;    0,552;   -0,045
728,021;29857,779;    3,097;    0,682
728,592;29609,034;    0,734;    0,500
729,163;29958,380;    0,643;   -0,136
729,734;30053,999;    0,188;   -0,227
730,305;30404,891;    1,734;    0,136
730,876;30745,601;    0,188;    2,955
731,447;30453,584;    2,188;    2,682
732,017;30584,839;    1,097;    1,864
732,588;30034,912;    0,734;    1,227
733,159;30282,259;    0,643;   -1,045
733,729;30055,605;    0,006;    0,409
734,300;29359,951;    0,915;    0,864
734,870;29757,570;    3,461;    0,591
735,441;30298,825;    0,370;   -0,591
736,011;30047,899;    0,643;   -1,591
736,582;30019,518;   -0,812;    0,045
737,152;29468,955;   -1,721;   -2,045
737,722;29874,483;   -0,267;   -0,682
738,293;29625,102;   -1,358;    1,318
738,863;29505,176;    2,461;    2,318
739,433;29318,885;    5,279;    0,318
740,003;29902,141;   -0,994;   -0,682
740,573;29293,760;    2,097;   -1,591
741,143;29170,742;   -1,085;    0,318
741,713;30036,089;    1,188;   -0,500
742,283;29748,162;    0,915;    1,591
742,853;29493,326;    1,915;    1,591
743,423;28858,309;    1,733;    0,045
743,993;29083,110;   -0,358;    1,500
744,563;28419,638;    0,097;   -0,864
745,133;28418,166;   -0,812;   -0,864
745,702;29018,967;   -0,267;    1,773
746,272;28228,586;   -0,176;    0,591
746,842;27992,659;   -1,358;   -0,591
747,411;28379,551;   -0,267;   -0,318
747,981;28588,715;    0,097;    0,500
748,551;28659,789;    2,278;   -1,045
749,120;28513,590;    0,642;   -0,227
749,690;28898,118;   -0,631;    2,409
750,259;29270,828;    1,369;    2,955
750,828;29180,719;    1,551;   -1,955
751,398;29469,065;    1,278;   -0,045
751,967;29023,503;    2,187;    0,409
752,536;29190,576;   -0,813;   -0,227
753,105;29573,013;    0,096;    0,227
753,675;29431,541;    0,096;    1,773
754,244;29381,160;   -0,904;    3,591
754,813;29396,688;    0,551;    1,227
755,382;28969,307;    0,460;    0,955
755,951;29625,926;    1,551;    3,682
756,520;29085,454;   -0,085;    1,864
757,089;29670,073;    0,278;    0,500
757,658;29886,420;    1,733;    1,227
758,227;29847,766;    1,096;    0,318
758,795;30134,748;    1,187;    1,136
759,364;30307,367;   -0,086;   -0,591
759,933;29367,895;   -1,176;   -0,045
760,501;28798,333;    0,733;   -1,318
761,070;29297,951;   -2,813;   -1,409
761,639;30049,298;   -1,904;    1,318
762,207;29430,917;    1,551;   -0,955
762,776;29350,808;    0,369;    0,864
763,344;29334,609;   -0,995;    0,591
763,913;28296,774;   -0,722;    1,409
764,481;29022,847;    1,005;   -0,136
765,049;28801,466;   -1,358;    1,409
765,618;28691,540;   -0,086;    0,318
766,186;28746,522;    0,278;    0,136
766,754;28930,414;    0,005;    1,864
767,322;27930,124;   -1,995;    0,409
767,890;27955,288;   -0,722;   -1,773
768,459;28372,816;   -2,177;   -0,318
769,027;28520,617;    1,641;    3,409
769,595;27424,327;    3,278;    2,591
770,163;27891,037;    3,823;    2,955
770,730;27649,838;    0,732;   -0,136
771,298;27456,456;    0,187;   -1,409
771,866;27506,985;   -1,541;    4,955
772,434;27847,694;   -0,631;   -1,864
773,002;28021,132;    0,005;    0,682
773,569;27634,660;    0,914;    1,682
774,137;27479,915;   -0,268;   -0,045
774,705;28279,261;    0,278;   -0,136
775,272;27781,335;    0,641;    0,682
775,840;27537,681;   -0,177;    2,682
776,407;27081,664;    0,277;    1,955
776,975;26624,919;   -0,632;    0,318
777,542;27590,538;   -1,086;   -0,045
778,110;27415,520;   -1,268;   -0,045
778,677;27064,685;   -2,359;   -0,864
779,244;26820,122;    2,186;    1,045
779,812;27002,377;    1,823;    0,864
780,379;26878,633;    0,005;    1,136
780,946;27127,615;    1,005;   -0,773
781,513;27443,052;   -1,450;    0,318
782,080;26752,671;   -0,086;    2,864
782,647;27521,108;   -0,268;    3,045
783,214;27095,000;   -0,177;    3,864
783,781;26713,074;   -0,723;   -0,682
784,348;26541,784;   -0,632;    1,500
784,915;27012,039;   -3,177;    0,318
785,482;26818,203;    1,368;    2,591
786,049;27215,731;    0,186;   -0,591
786,615;27333,987;    0,277;   -0,955
787,182;27087,787;    0,186;   -0,682
787,749;26741,043;   -2,814;    1,409
788,315;26094,116;   -1,632;   -0,409
788,882;26379,553;    1,550;   -1,227
789,448;27177,991;    1,732;   -0,955
790,015;27140,337;    1,095;    3,227
790,581;26640,319;    1,459;    0,227
791,148;26523,211;    0,641;    1,045
791,714;26744,194;   -0,541;    3,136
792,280;26426,358;    0,186;    1,591
792,847;25910,432;    0,550;    2,500
793,413;26592,051;   -0,269;   -0,318
793,979;26054,397;    3,459;   -1,318
794,545;26118,652;    4,459;    2,682
795,111;25504,726;    2,186;    1,318
795,678;25750,799;    0,731;   -1,682
796,244;25328,145;    3,368;    0,136
796,810;25866,128;    1,731;    0,773
797,375;25601,474;    0,549;   -2,136
797,941;25620,002;   -0,541;    0,591
798,507;25752,167;   -0,451;   -0,955
799,073;25280,695;   -0,360;    0,591
799,639;25319,132;   -2,632;    3,136
800,205;25347,751;    0,095;    2,682
800,770;24854,097;    0,640;    1,773
801,336;25029,080;    1,368;   -0,955
801,901;24740,244;    4,549;    3,136
802,467;25264,772;   -0,542;    2,045
803,033;24544,846;   -0,087;    0,864
803,598;24803,919;    1,913;   -1,045
804,163;24813,447;    1,095;   -0,318
804,729;24768,794;   -0,178;    1,136
805,294;25227,503;    0,822;    2,227
805,859;24980,577;    0,731;   -0,409
806,425;24399,014;    1,186;    2,682
806,990;24061,815;    2,186;    4,318
807,555;24602,252;   -1,451;    2,591
808,120;24475,416;    0,822;   -0,409
808,685;24503,854;    0,185;   -2,500
809,250;23938,563;    0,004;   -0,500
809,815;24291,455;    1,913;    0,682
810,380;24860,529;   -0,269;    1,591
810,945;25465,966;   -1,087;    2,045
811,510;24496,403;    2,094;    1,591
812,075;24224,204;   -0,633;   -1,409
812,640;24304,095;    2,003;    1,409
813,204;24316,987;    0,822;   -0,227
813,769;24800,242;    2,094;   -0,045
814,334;24230,589;    0,458;    0,864
814,898;24267,844;    0,367;    0,591
815,463;24082,645;    1,276;   -0,773
816,027;24060,173;   -0,724;   -2,318
816,592;24088,974;    0,640;   -2,045
817,156;23634,229;    2,094;    1,136
817,721;23522,848;    4,276;    2,318
818,285;23480,921;    2,912;    1,500
818,849;24106,722;   -1,451;    1,682
819,414;24016,250;   -0,269;    2,955
819,978;23563,051;   -1,269;    1,773
820,542;24179,034;    2,003;    0,500
821,106;23836,107;   -0,815;    0,682
821,670;23998,090;   -0,815;    2,591
822,234;23698,891;   -0,270;    1,409
822,798;23044,873;    0,003;    0,500
823,362;22995,401;   -0,633;    4,227
823,926;22276,384;    0,094;    1,136
824,490;22529,003;   -0,997;   -0,682
825,054;22972,894;   -0,088;   -1,136
825,618;22556,786;   -1,542;   -1,500
826,181;22572,769;    0,458;   -1,318
826,745;22525,842;    1,367;   -1,045
827,309;22845,734;    1,185;    1,318
827,872;22173,535;    1,367;    0,955
828,436;23162,426;    1,185;   -0,773
828,999;23191,409;   -0,997;    1,227
829,563;21941,210;   -0,179;    1,136
830,126;21795,556;   -0,179;   -0,591
830,690;21819,175;   -1,997;    2,864
831,253;21311,249;   -0,543;    2,227
831,816;21452,958;   -1,906;    0,500
832,380;21405,759;    0,185;    0,864
832,943;21611,378;   -1,361;   -0,500
833,506;21038,815;    2,639;   -1,227
834,069;21870,798;    3,912;   -0,955
834,632;21876,780;    1,730;    1,318
835,195;21804,945;    1,003;    0,955
835,758;20988,927;   -0,997;    1,955
836,321;20864,274;    0,730;   -1,045
836,884;20912,438;   -0,725;   -0,955
837,447;20917,330;   -2,816;    1,773
838,010;21254,767;    0,366;    3,227
838,573;21540,568;   -1,179;    0,773
839,135;21479,732;   -1,361;   -0,955
839,698;20898,988;    1,275;    0,409
840,261;20390,243;    1,003;   -0,227
840,823;20226,407;   -0,543;    0,864
841,386;20529,572;   -0,452;   -2,409
841,948;20407,736;   -1,361;    1,773
842,511;20115,810;    0,912;    1,682
843,073;20274,519;    1,912;    0,227
843,636;20035,684;   -0,361;   -0,227
844,198;20068,212;    0,911;    0,591
844,760;20158,467;    1,093;    1,955
845,322;19807,359;    0,548;    1,136
845,885;20258,342;    0,730;    0,591
846,447;20664,142;   -1,998;    0,227
847,009;20232,125;    1,911;   -0,682
847,571;20617,926;    0,820;   -2,045
848,133;20743,363;   -1,089;   -1,864
848,695;20529,073;   -0,543;    1,409
849,257;20083,692;   -1,089;   -1,682
849,819;20225,583;   -0,998;   -0,409
850,381;20285,657;   -0,725;   -0,864
850,942;20664,003;    1,093;   -0,591
851,504;20632,531;    1,184;    0,227
852,066;20587,423;    1,275;   -1,591
852,628;20155,224;   -0,180;    1,955
853,189;19686,843;    1,638;    2,682
853,751;19829,462;   -0,907;    1,409
854,312;19623,990;   -0,453;   -1,682
854,874;20114,881;   -2,089;   -0,773
855,435;20634,682;   -0,907;   -1,682
855,997;20854,665;   -1,816;   -0,136
856,558;20123,466;    0,366;    1,773
857,119;20211,266;    0,820;    2,864
857,681;19835,067;    0,002;    0,318
858,242;19951,686;    1,911;   -2,136
858,803;20412,123;    0,456;   -0,773
859,364;20967,106;    0,184;   -4,773
859,925;20216,634;   -2,453;   -0,955
860,486;20063,435;   -0,453;   -0,955
861,047;19770,599;   -0,544;   -1,227
861,608;19631,218;   -1,089;   -0,773
862,169;19732,019;    0,638;   -0,045
862,730;19532,638;    0,456;    1,409
863,291;19799,620;   -0,635;   -0,500
863,852;20186,421;   -0,635;    1,955
864,412;19573,495;   -0,271;   -0,864
864,973;18135,477;   -0,089;    0,500
865,534;18018,914;   -1,726;    0,227
866,094;19572,988;    1,820;    0,227
866,655;19162,425;    1,274;    3,318
867,215;19454,953;    0,274;    0,136
867,776;19252,845;    0,547;   -0,136
868,336;19401,737;   -1,453;    0,136
868,897;18895,719;    2,638;    1,682
869,457;18604,247;    1,365;    0,318
870,017;18798,593;    0,547;   -1,227
870,578;19337,303;   -0,817;    0,773
871,138;19018,740;   -2,089;   -0,955
871,698;18562,268;   -0,817;   -1,318
872,258;18456,887;   -0,453;   -2,864
872,818;18841,688;    2,729;    0,045
873,378;18798,671;    0,638;    1,045
873,938;18289,653;    0,547;    0,500
874,498;18678,000;    0,274;   -1,955
875,058;18587,891;    2,183;    1,773
875,618;18394,874;    1,910;   -2,682
876,177;18313,947;    1,274;    0,136
876,737;17900,112;   -0,090;    1,955
877,297;17966,367;    0,183;    1,955
877,856;18004,350;   -0,362;    0,318
878,416;17890,878;    1,183;   -0,136
878,976;18085,679;   -1,817;    0,409
879,535;18266,843;    0,092;    3,136
880,095;18000,007;   -0,544;    0,045
880,654;18129,808;   -1,090;    1,318
881,213;18239,336;    2,456;    1,500
881,773;17883,683;    2,637;    2,682
882,332;18252,211;    3,365;    5,136
882,891;18084,557;    3,092;    2,136
883,451;18547,812;   -1,272;    1,682
884,010;17961,340;   -2,908;   -0,409
884,569;18091,505;   -0,999;   -0,045
885,128;18238,851;    2,819;   -1,864
885,687;18323,015;    4,455;    0,682
886,246;18006,907;    1,455;    2,136
886,805;17784,981;    2,455;    2,045
887,364;18055,963;   -0,999;   -0,500
887,922;18411,855;   -1,181;    0,045
888,481;17935,019;   -1,545;    0,591
889,040;18257,275;    1,183;    2,136
889,599;18935,712;    2,455;    1,409
890,157;19007,785;    1,455;    2,409
890,716;18680,677;   -0,090;    0,227
891,274;18485,296;    0,092;   -1,136
891,833;18927,188;    1,546;    0,864
892,391;18809,261;   -0,454;    0,500
892,950;18884,880;    1,819;   -0,773
893,508;19254,772;    0,455;   -0,409
894,067;18617,300;    0,637;    0,136
894,625;18493,828;   -0,636;   -1,500
895,183;18735,720;   -0,363;   -0,682
895,741;18591,520;    1,728;   -1,773
896,299;18393,503;   -0,545;   -2,409
896,858;18595,849;    0,819;   -1,591
897,416;18717,377;    2,728;   -1,318
897,974;18459,542;    1,819;    0,318
898,532;18630,070;    6,091;    2,682
899,089;18496,780;    2,091;   -0,682
899,647;18548,580;   -1,454;    1,318
900,205;18214,472;    1,182;    1,045
900,763;18419,546;   -0,454;    0,227
901,321;18449,437;    2,364;   -1,409
901,878;17826,056;   -1,000;   -0,773
902,436;17683,584;   -1,363;    1,318
902,994;18105,294;    4,728;    3,682
903,551;17503,822;    0,728;    0,409
904,109;17910,441;    0,182;   -1,409
904,666;17470,151;    2,455;    1,045
905,224;17284,679;    0,182;   -0,409
905,781;17028,480;    0,727;   -0,318
906,338;17128,372;   -1,363;    1,045
906,895;17028,263;    0,637;    2,045
907,453;16965,428;    1,727;    1,136
908,010;17006,774;   -0,909;    0,409
908,567;16681,484;    1,273;    0,591
909,124;16115,285;    0,364;   -1,500
909,681;16178,813;   -2,909;    0,682
910,238;16291,432;    0,636;   -1,318
910,795;16621,596;   -0,273;   -1,136
911,352;16226,414;   -2,909;   -2,682
911,909;15634,960;   -1,364;   -0,864
912,466;16174,778;   -3,182;    1,500
913,022;15672,141;   -1,636;    0,500
913,579;16031,960;   -0,909;    2,045
914,136;15696,869;    1,636;    0,955
914,692;16035,505;    0,091;   -1,227
915,249;15650,960;    1,455;    0,409
915,806;15868,141;    0,182;    1,955
916,362;15612,596;    1,909;    1,864
916,918;15181,778;    2,000;    1,045
917,475;15163,232;   -1,182;    0,955
918,031;15200,687;    3,364;   -0,045
918,587;14594,960;   -0,909;   -0,318
919,144;14809,687;   -2,273;    0,227
919,700;15174,687;    1,727;    0,773
920,256;14727,141;    0,727;    0,045
920,812;14335,232;   -0,727;   -1,045
921,368;14307,778;   -1,727;   -1,045
921,924;13965,323;    0,182;   -0,136
922,480;13561,778;   -0,545;    1,227
923,036;14164,141;    1,273;    1,955
923,592;14073,323;    0,455;    0,318
924,148;14006,687;    0,455;   -0,955
924,704;13297,869;   -1,364;   -0,409
925,259;13504,323;   -0,273;    0,591
925,815;13333,778;    1,455;    0,500
926,371;12777,232;    2,909;    1,409
926,926;12656,141;    2,091;    0,591
927,482;12300,232;   -1,364;    0,773
928,037;12133,596;    0,909;    2,045
928,593;12460,051;    1,636;    1,045
929,148;12239,687;   -1,818;   -1,500
929,704;11724,141;   -1,455;   -0,500
930,259;11953,141;    0,091;   -0,136
930,814;10989,505;   -0,818;    1,955
931,369;10641,505;    1,091;   -0,773
931,925;10474,505;   -0,091;    0,136
932,480;10377,232;   -2,818;   -2,591
933,035;10264,505;    0,545;   -0,318
933,590;10042,141;    0,364;   -1,773
934,145; 9614,323;   -1,364;   -0,318
934,700; 9977,869;    0,455;   -0,591
935,255; 9748,505;   -0,091;    0,045
935,809; 8992,141;    3,182;    0,864
936,364; 8055,232;   -0,455;   -0,136
936,919; 8027,778;    0,455;   -1,773
937,474; 7885,414;    1,455;    0,136
938,028; 7634,505;   -1,636;    1,136
938,583; 7090,232;    1,818;    4,682
939,138; 7323,232;    2,091;    2,136
939,692; 6761,323;    1,636;   -1,136
940,247; 6448,051;   -0,727;   -1,045
940,801; 5973,687;   -0,636;    0,227
941,355; 5852,141;   -0,364;    2,591
941,910; 5471,687;   -0,273;   -2,136
942,464; 5589,869;   -0,818;   -0,318
943,018; 5359,596;    1,000;   -0,227
943,572; 5302,960;    2,545;   -0,682
944,126; 4682,687;    0,091;   -0,409
944,681; 4560,323;    3,091;    0,227
945,235; 4562,051;    1,000;   -0,591
945,789; 4516,687;    0,364;   -1,864
946,342; 4599,960;    0,455;   -0,591
946,896; 4406,323;   -2,273;    0,955
947,450; 4141,141;    1,545;   -0,227
948,004; 4324,687;    1,727;   -0,045
948,558; 4341,414;    0,273;   -0,864
949,111; 4280,323;   -0,273;   -0,318
949,665; 4299,414;    1,636;   -0,682
950,219; 4170,414;   -0,091;   -1,045
950,772; 4235,687;   -1,909;    1,864
951,326; 4115,960;    0,545;   -0,955
951,879; 4240,323;    0,727;   -2,318
952,433; 4265,414;    0,000;    2,227
952,986; 4103,141;    2,909;    0,682
953,539; 4059,687;   -0,273;    0,591
954,093; 3959,051;    0,545;   -1,318
954,646; 4113,051;    0,909;    1,318
955,199; 3928,687;    0,000;   -0,500
955,752; 3803,869;   -0,455;    1,773
956,305; 3738,051;   -0,091;    2,955
956,858; 3937,596;    0,818;   -0,318
957,411; 4080,323;   -0,545;    2,136
957,964; 3927,232;    1,364;    2,136
958,517; 3914,323;   -1,545;    3,136
959,070; 3741,596;   -0,455;    1,955
959,623; 3816,051;    1,091;    1,500
960,176; 3570,141;    1,727;    2,045
960,728; 3558,960;   -2,727;    0,773
961,281; 3603,323;    0,545;    0,500
961,834; 3670,323;   -0,909;    0,864
962,386; 3563,414;    1,727;    1,045
962,939; 3480,869;    0,364;   -0,318
963,491; 3633,505;    0,455;    1,136
964,043; 3506,232;    1,182;    2,409
964,596; 3643,414;   -1,000;    2,227
965,148; 3472,869;   -1,000;    1,773
965,700; 3358,051;    1,091;   -0,227
966,253; 3540,232;   -0,636;    0,318
966,805; 3367,596;   -2,273;    0,773
967,357; 3437,051;    1,091;   -1,500
967,909; 3370,869;    0,455;   -1,227
968,461; 3496,687;    0,545;    3,136
969,013; 3423,323;   -0,182;   -0,864
969,565; 3517,414;   -0,455;   -1,136
970,117; 3531,051;   -0,364;    1,045
970,669; 3386,414;    0,182;   -0,136
971,220; 3251,505;   -0,455;   -1,500
971,772; 3175,505;   -0,636;   -0,318
972,324; 3305,141;    0,091;   -0,500
972,876; 3231,596;    0,818;   -0,045
973,427; 3369,869;    1,909;   -1,045
973,979; 3323,778;   -0,727;   -2,500
974,530; 3380,778;    1,818;    1,318
975,082; 3416,051;   -0,545;    1,682
975,633; 3285,505;    1,091;    1,682
976,184; 3411,232;    0,909;    0,773
976,736; 3180,687;    0,091;    0,227
977,287; 2996,778;   -0,909;   -0,500
977,838; 3173,141;    0,909;   -0,318
978,389; 3243,596;   -1,000;   -0,500
978,940; 3112,960;    0,545;   -0,409
979,491; 3135,778;    0,091;   -0,500
980,042; 3101,687;    0,182;    3,045
980,593; 3155,323;   -2,545;    0,227
981,144; 3197,232;    2,545;   -0,500
981,695; 3154,505;    1,455;    1,500
982,246; 3123,414;   -0,273;    1,045
982,797; 3286,414;   -1,727;    0,682
983,347; 3404,778;    0,364;    0,591
983,898; 3594,869;    3,091;    0,409
984,449; 3389,869;    2,182;    0,773
984,999; 3311,051;    1,455;   -1,136
985,550; 3073,505;    0,182;   -0,318
986,100; 3088,414;   -0,455;   -0,318
986,651; 3103,869;   -0,818;    0,045
987,201; 3084,869;   -1,000;   -0,591
987,751; 3198,414;    0,818;    2,864
988,302; 3193,505;    2,636;    1,500
988,852; 3187,687;    0,455;   -1,136
989,402; 3234,232;    0,091;    0,682
989,952; 3154,232;   -2,182;    0,864
990,502; 3260,051;   -0,091;    0,682
991,052; 3215,778;   -0,727;    0,045
991,602; 3088,141;   -2,909;    1,318
992,152; 3084,778;    0,455;    0,682
992,702; 3056,323;    1,364;   -0,045
993,252; 2968,778;   -3,000;   -0,500
993,802; 3066,323;   -0,273;    1,318
994,352; 3323,232;   -1,545;    1,136
994,901; 3402,051;   -0,182;    3,227
995,451; 3310,051;   -0,182;    0,318
996,000; 3400,141;    1,636;    0,318
996,550; 3112,323;    2,273;    0,227
997,100; 3122,141;    1,273;   -0,045
997,649; 3398,505;    2,182;    0,955
998,198; 3005,960;    1,727;   -1,500
998,748; 3222,960;    1,091;   -2,318
999,297; 3138,051;   -0,818;   -0,409
999,846; 3190,869;    1,000;   -0,773
1000,395; 3226,141;   -0,818;    0,500
1000,945; 3177,596;    1,818;   -0,773
1001,494; 3281,596;    2,364;    0,682
1002,043; 3268,687;    4,636;    0,864
1002,592; 3083,141;   -1,091;    1,955
1003,141; 3247,323;   -0,455;   -0,682
1003,690; 3097,414;    1,727;    0,500
1004,238; 3207,414;    1,455;   -0,045
1004,787; 2831,051;    1,364;    1,227
1005,336; 3049,232;    0,364;    0,682
1005,885; 3199,141;    1,364;   -2,773
1006,433; 3349,960;    0,545;    0,955
1006,982; 3405,505;    0,455;    1,682
1007,531; 3296,778;   -1,818;   -0,227
1008,079; 3260,960;   -2,273;    0,500
1008,627; 3416,414;   -1,455;    0,409
1009,176; 3146,869;    0,000;   -1,955
1009,724; 3200,596;    1,091;    0,864
1010,273; 3237,141;    1,273;    0,500
1010,821; 3346,505;    0,091;    1,409
1011,369; 3086,051;   -1,364;    1,318
1011,917; 3071,141;   -1,364;   -0,591
1012,465; 3344,778;    1,273;   -1,591
1013,013; 3463,505;    2,091;   -1,682
1013,561; 3320,687;    0,455;   -0,773
1014,109; 3393,141;   -1,909;    1,682
1014,657; 3259,778;    0,364;    0,591
1015,205; 3388,051;    1,636;   -0,955
1015,753; 3439,141;   -0,545;   -1,409
1016,301; 3447,687;   -2,636;    3,045
1016,848; 3445,505;   -1,273;    0,409
1017,396; 3510,141;    2,545;    0,045
1017,944; 3641,505;    1,182;    1,864
1018,491; 3382,778;    0,273;    1,409
1019,039; 3523,323;    0,455;    0,591
1019,586; 3453,869;   -1,364;    1,682
1020,134; 3541,141;    0,455;    1,500
1020,681; 3574,232;    0,182;   -1,136
1021,228; 3602,414;    2,909;   -2,227
1021,776; 3403,323;    1,182;   -1,136
1022,323; 3631,869;    0,455;    0,773
1022,870; 3559,687;   -1,000;   -0,045
1023,417; 3434,778;    2,636;    1,864
1023,964; 3600,141;    2,636;    1,227
1024,511; 3424,505;    1,000;    0,773
1025,058; 3211,778;    3,182;   -0,045
1025,605; 3265,778;   -2,273;    3,136
1026,152; 3513,687;    1,727;   -0,591
1026,699; 3240,141;    1,818;    1,318
1027,245; 3388,323;   -0,091;    0,318
1027,792; 3604,778;   -1,000;    1,409
1028,339; 3486,596;    2,364;   -0,045
1028,885; 3327,778;    1,000;   -0,227
1029,432; 3257,232;   -0,091;    0,227
1029,978; 3315,960;   -1,000;   -1,591
1030,525; 3225,141;    1,000;    0,409
1031,071; 3486,869;   -1,364;    1,136
1031,618; 3578,869;    0,364;    1,682
1032,164; 3350,505;   -0,091;    3,045
1032,710; 3384,869;    1,636;   -1,500
1033,256; 3312,778;   -0,636;   -0,136
1033,803; 3307,778;   -0,545;    1,500
1034,349; 2992,596;   -1,364;    0,136
1034,895; 3149,505;    0,000;   -0,318
1035,441; 3142,232;   -0,818;    0,318
1035,987; 3145,232;   -2,364;   -0,682
1036,533; 3138,869;   -1,455;   -0,955
1037,078; 3343,505;    1,455;    1,682
1037,624; 3142,960;    2,455;   -0,955
1038,170; 3187,596;    0,455;   -0,318
1038,716; 3105,596;    1,636;   -0,409
1039,261; 3014,232;   -2,273;   -0,773
1039,807; 2910,505;   -0,091;    3,409
1040,352; 2977,141;   -1,909;   -0,318
1040,898; 3037,414;   -1,545;   -0,682
1041,443; 2970,414;   -1,455;   -2,591
1041,989; 2957,869;    1,091;    1,591
1042,534; 2857,505;   -0,364;    2,591
1043,079; 2990,323;    2,909;    0,955
1043,625; 2777,414;    1,818;    0,500
1044,170; 2813,778;   -1,364;    1,045
1044,715; 3063,141;    2,455;    0,955
1045,260; 2867,414;    2,182;   -0,955
1045,805; 2911,051;    1,182;   -0,591
1046,350; 2826,960;    1,364;   -0,409
1046,895; 2785,141;    2,909;    1,591
1047,440; 2736,596;    5,364;    0,409
1047,985; 2634,323;    2,818;   -0,955
1048,530; 2534,778;    1,545;    1,227
1049,074; 2611,960;    0,000;    0,318
1049,619; 2580,505;   -1,364;    1,955
1050,164; 2382,414;    0,455;    0,227
1050,708; 2435,687;   -0,455;    0,045
1051,253; 2808,960;    1,273;   -2,227
1051,797; 2523,323;    0,818;   -1,318
1052,342; 2524,505;   -1,182;    1,045
1052,886; 2521,596;    0,364;   -1,409
1053,430; 2398,687;   -1,364;    0,136
1053,975; 2398,596;   -0,818;   -0,318
1054,519; 2377,323;   -0,727;    3,227
1055,063; 2409,869;    0,909;    1,318
1055,607; 2286,051;   -0,182;    0,227
1056,151; 2311,323;    2,909;    1,682
1056,695; 2217,960;    2,273;   -1,136
1057,239; 2302,960;   -1,727;   -0,682
1057,783; 2313,596;    0,818;   -1,500
1058,327; 2227,960;    0,000;    1,409
1058,871; 2479,778;   -0,545;    1,318
1059,415; 2185,414;   -0,818;   -0,045
1059,958; 2446,051;    1,455;    2,591
1060,502; 2167,051;   -1,000;   -0,773
1061,046; 2059,596;    0,364;   -0,955
1061,589; 2026,505;   -3,000;   -1,136
1062,133; 1918,960;   -1,273;    1,864
1062,676; 1850,687;    1,182;    0,864
1063,220; 1849,414;    1,091;    0,500
1063,763; 1877,778;    0,909;    1,136
1064,306; 1967,414;   -0,909;    1,864
1064,849; 1850,687;   -0,909;    0,591
1065,393; 1845,323;    2,000;   -1,500
1065,936; 1962,051;    0,182;   -0,409
1066,479; 1848,596;   -1,455;    1,318
1067,022; 1866,687;   -0,273;   -0,227
1067,565; 1761,778;   -0,091;   -1,318
1068,108; 1785,051;    0,727;   -0,591
1068,651; 1750,596;   -0,636;    1,409
1069,194; 1687,960;   -0,455;   -1,682
1069,736; 1694,869;   -1,273;    0,955
1070,279; 1661,596;   -1,364;   -0,500
1070,822; 1726,869;   -2,000;   -0,318
1071,364; 1814,141;   -0,364;    1,318
1071,907; 1628,960;   -0,727;    3,227
1072,450; 1531,051;    0,000;   -0,045
1072,992; 1525,051;   -0,273;    3,136
1073,535; 1670,141;    2,091;    2,136
1074,077; 1459,687;   -0,727;    2,045
1074,619; 1424,505;   -1,364;    0,591
1075,161; 1453,323;   -1,091;    1,500
1075,704; 1643,141;    1,545;    1,227
1076,246; 1443,414;   -0,182;    0,682
1076,788; 1363,323;   -0,364;    1,773
1077,330; 1437,505;    1,273;    2,136
1077,872; 1404,414;    0,909;    0,955
1078,414; 1640,505;    2,727;    0,773
1078,956; 1351,687;    1,273;   -0,227
1079,498; 1625,869;    1,636;    0,318
1080,040; 1322,596;    1,909;   -1,318
1080,581; 1256,960;    1,636;   -0,318
1081,123; 1183,414;    0,091;   -0,773
1081,665; 1248,869;   -1,182;   -0,955
1082,206; 1548,232;    1,364;   -0,500
1082,748; 1389,051;    0,727;    2,045
1083,289; 1257,051;   -2,000;    1,318
1083,831; 1149,414;   -0,545;    0,227
1084,372; 1199,141;    0,000;    0,591
1084,913; 1208,505;    1,091;    0,864
1085,455; 1182,687;   -1,909;   -2,045
1085,996; 1152,960;   -2,273;    0,136
1086,537; 1175,596;   -0,091;    0,864
1087,078; 1206,778;   -0,909;   -2,136
1087,619; 1253,505;   -1,273;    0,227
1088,160; 1163,505;    0,000;    1,318
1088,701; 1145,960;   -1,091;    0,682
1089,242; 1087,323;    1,364;   -2,227
1089,783; 1190,960;   -0,273;    1,409
1090,324; 1159,869;    0,455;    0,682
1090,865; 1021,778;    2,727;   -0,409
1091,405;  983,596;    0,727;    2,227
1091,946; 1021,051;    0,182;   -0,955
1092,487;  934,687;    0,818;   -1,409
1093,027; 1113,232;   -1,364;   -1,500
1093,568;  957,505;   -0,364;    1,227
1094,108; 1072,141;    0,273;    1,773
1094,649; 1004,505;   -1,182;    0,136
1095,189;  938,687;   -0,636;   -0,682
1095,729;  885,051;   -0,091;    0,955
1096,269;  873,596;    0,727;   -0,955
1096,810; 1214,323;   -1,364;    0,500
1097,350; 1047,869;    1,364;   -0,773
1097,890;  940,869;    0,364;    1,227
1098,430; 1201,960;    2,364;    2,864
1098,970; 1073,141;    2,182;    1,682
1099,510;  916,414;    0,545;   -2,318
1100,050;  845,960;    1,000;   -1,591
1100,589;  809,141;   -0,727;   -0,318
1101,129;  943,687;    0,818;   -0,955
1101,669; 1108,232;    1,727;    2,136
1102,209;  912,414;   -0,091;    2,227
1102,748;  864,051;    0,000;    0,955
1103,288;  862,778;    1,273;   -1,227
1103,827;  898,051;    3,091;   -2,227
1104,367;  761,141;   -0,091;   -2,409
1104,906;  723,869;    1,364;   -1,136
1105,445;  797,869;    0,636;   -1,136
1105,985;  743,051;   -0,727;    1,500
1106,524;  787,960;   -1,727;   -0,682
1107,063;  752,505;   -2,727;    1,409
1107,602;  729,869;   -1,909;   -1,500
1108,141;  653,596;   -1,909;    1,500
1108,680;  764,414;   -3,455;   -0,591
1109,219;  691,778;   -0,909;   -0,500
1109,758;  699,141;    0,455;    0,682
1110,297;  673,778;    1,000;   -0,682
1110,836;  613,051;   -0,727;    0,955
1111,375;  789,960;   -2,545;    0,409
1111,913;  790,323;   -1,000;    0,773
1112,452;  727,414;   -0,273;    0,136
1112,991;  607,687;    1,091;    1,955
1113,529;  569,778;   -0,818;   -0,045
1114,068;  637,323;   -0,273;    2,955
1114,606;  543,051;   -0,364;   -0,955
1115,144;  719,960;   -1,273;    1,045
1115,683;  638,687;   -0,727;    0,318
1116,221;  695,505;   -0,455;   -0,864
1116,759;  598,687;    0,636;   -0,864
1117,297;  810,960;    0,000;    1,864
1117,836;  598,414;   -2,182;   -1,227
1118,374;  613,505;    0,182;   -0,682
1118,912;  542,778;    0,909;    2,682
1119,450;  540,869;    1,000;    0,864
1119,988;  600,687;    1,545;    2,136
1120,525; 1057,687;    5,091;    3,318
1121,063;  754,687;    1,182;    1,864
1121,601;  546,323;   -0,909;   -1,227
1122,139;  511,687;   -0,727;   -2,045
1122,676;  721,505;   -0,727;    2,773
1123,214;  647,869;   -1,182;    4,409
1123,751;  450,232;    1,727;    2,227
1124,289;  580,596;   -0,091;   -0,409
1124,826;  433,141;    1,727;    0,227
1125,364;  359,414;    1,727;   -0,955
1125,901;  559,778;    1,182;    1,227
1126,438;  691,414;    0,818;    0,955
1126,975;  395,141;   -0,727;   -0,773
1127,513;  487,414;    0,273;    2,136
1128,050;  374,687;    1,636;   -0,682
1128,587;  477,141;    2,000;   -0,227
1129,124;  520,687;    0,091;    1,318
1129,661;  371,960;    0,273;    0,227
1130,198;  549,778;    1,636;    0,773
1130,734;  496,414;    0,182;    1,409
1131,271;  331,596;   -0,909;    0,864
1131,808;  526,596;    2,909;    3,045
1132,345;  391,323;    1,545;    0,318
1132,881;  252,869;   -1,545;   -1,864
1133,418;  407,505;    0,727;   -1,136
1133,954;  332,051;    2,455;   -2,682
1134,491;  419,687;    1,364;   -0,773
1135,027;  309,051;    2,364;    0,864
1135,564;  409,414;    0,273;    2,955
1136,100;  393,869;    0,364;    2,136
1136,636;  270,141;   -1,273;   -1,045
1137,172;  382,778;    0,000;   -1,045
1137,708;  295,869;   -1,364;   -1,045
1138,245;  296,596;    1,273;   -1,227
1138,781;  240,596;    1,091;   -3,318
1139,317;  325,596;    1,273;   -1,409
1139,852;  309,687;    3,091;    0,136
1140,388;  433,051;   -1,182;   -0,409
1140,924;  301,323;   -1,091;   -2,227
1141,460;  235,960;   -1,636;    0,136
1141,996;  167,414;   -1,364;    2,682
1142,531;  230,869;    1,364;    3,318
1143,067;  458,232;    1,182;    1,045
1143,602;  514,505;   -0,091;   -0,318
1144,138;  349,687;   -2,636;    1,045
1144,673;  205,505;   -1,455;    1,409
1145,209;  280,596;   -1,909;   -0,318
1145,744;  192,960;   -0,727;    0,864
1146,279;  347,232;    1,818;   -0,136
1146,815;  256,505;    1,545;   -2,682
1147,350;  296,687;   -1,364;    0,045
1147,885;  190,778;   -0,818;   -1,318
1148,420;  195,323;   -2,273;    0,773
1148,955;  174,960;   -1,727;    1,864
1149,490;  211,051;   -0,909;   -1,591
1150,025;  187,778;    0,455;   -1,773
1150,560;  314,778;    1,091;   -0,955
1151,094;  279,778;    1,455;   -0,591
1151,629;  276,414;    1,636;    0,864
1152,164;  202,960;    1,364;    1,318
1152,698;  160,051;   -0,182;   -0,136
1153,233;  113,596;    0,091;   -0,682
1153,767;  166,869;   -3,000;   -2,318
1154,302;  215,687;   -1,455;    1,773
1154,836;  214,687;   -0,455;   -2,136
1155,371;  279,051;   -1,364;    3,682
1155,905;  223,051;   -0,636;    1,682
1156,439;  195,414;   -0,636;   -0,500
1156,973;  221,232;    0,364;    0,318
1157,507;  151,596;   -0,364;    0,682
1158,042;  188,505;   -0,727;    1,045
1158,576;  236,141;    0,182;    1,773
1159,110;  227,232;   -0,818;    2,409
1159,643;  197,232;    0,636;   -0,045
1160,177;  131,778;   -1,545;    1,500

